365.286	1879.56
368.238	1762.48
371.189	1600.75
374.139	1460.7
377.087	1355.74
380.034	1299.45
382.979	1226.87
385.923	1195.71
388.866	1178.29
391.806	1152.5
394.745	1171.95
397.684	1180.15
400.62	1215.85
403.555	1196.86
406.49	1181.58
409.421	1142.83
412.353	1080.13
415.282	1056.86
418.209	1041.66
421.137	1050.35
424.062	1025.02
426.985	1030.66
429.908	1041.64
432.829	1056.74
435.748	1092.79
438.666	1124.87
441.583	1142.62
444.498	1131.28
447.412	1119.08
450.324	1093.32
453.235	1041.45
456.145	1050.98
459.052	1016.48
461.959	1023.28
464.865	1009.3
467.769	1009
470.671	1021.64
473.572	1027.58
476.471	1031.42
479.37	1073.11
482.266	1100.73
485.162	1135.77
488.056	1164.91
490.948	1191.44
493.839	1189.73
496.73	1168.73
499.618	1161.23
502.505	1130.58
505.39	1100.52
508.275	1044.78
511.157	1044.17
514.039	1029.58
516.919	1012.28
519.798	970.771
522.674	977.219
525.55	937.482
528.425	933.991
531.297	916.991
534.169	916.213
537.039	935.192
539.908	963.352
542.775	997.924
545.642	1027.74
548.506	1037.55
551.369	1008.88
554.231	972.681
557.092	949.196
559.951	949.471
562.808	987.829
565.664	1063.91
568.519	1210.78
571.373	1503.63
574.225	1913.28
577.076	2367.39
579.925	2587.04
582.773	2419.61
585.62	2045.46
588.466	1646.93
591.309	1354.94
594.152	1145.04
596.993	1052.68
599.832	986.376
602.671	937.02
605.508	881.133
608.343	863.625
611.178	847.444
614.011	838.403
616.842	853.525
619.672	870.147
622.501	872.556
625.329	883.253
628.155	885.858
630.98	921.9
633.802	919.95
636.624	913.794
639.445	922.575
642.264	944.924
645.082	919.674
647.898	888.26
650.714	852.938
653.527	832.181
656.34	810.814
659.151	819.991
661.961	806.519
664.769	802.469
667.576	783.344
670.382	802.096
673.186	800.475
675.989	808.257
678.791	829.176
681.591	856.043
684.39	869.858
687.187	855.735
689.983	845.276
692.779	848.821
695.572	859.046
698.363	856.826
701.155	859.551
703.944	878.245
706.733	886.109
709.519	859.296
712.305	846.745
715.089	811.756
717.871	798.109
720.653	809.794
723.433	811.998
726.212	794.476
728.989	798.487
731.765	783.733
734.54	768.799
737.313	774.243
740.085	762.265
742.856	738.83
745.625	737.258
748.394	723.3
751.16	723.952
753.926	720.929
756.689	700.745
759.452	703.351
762.214	693.345
764.974	727.171
767.733	727.411
770.49	753.434
773.246	791.747
776.001	810.672
778.755	813.228
781.507	793.835
784.258	765.037
787.007	747.653
789.756	738.995
792.502	724.792
795.247	722.963
797.992	711.43
800.735	731.233
803.477	730.745
806.217	720.313
808.956	748.763
811.694	792.793
814.43	813.916
817.165	850.904
819.899	866.081
822.631	874.462
825.362	860.066
828.092	836.262
830.82	823.634
833.548	810.115
836.274	778.72
838.998	776.64
841.721	765.828
844.444	751.107
847.165	741.104
849.884	754.497
852.601	748.475
855.318	731.729
858.034	727.705
860.749	719.445
863.461	743.475
866.173	720.364
868.883	728.475
871.592	709.067
874.3	714.964
877.006	712.744
879.712	698.18
882.415	684.607
885.118	698.522
887.819	687.867
890.519	683.641
893.218	683.589
895.914	690.867
898.611	685.927
901.306	680.641
903.999	691.579
906.692	662.403
909.382	672.256
912.072	672.744
914.761	671.608
917.447	675.552
920.133	671.726
922.818	674.265
925.501	670.099
928.183	670.193
930.864	663.885
933.543	670.065
936.221	673.938
938.898	666.656
941.574	660.036
944.248	660.958
946.921	669.884
949.593	663.989
952.263	663.291
954.932	671.377
957.6	654.57
960.267	648.051
962.932	651.185
965.597	660.929
968.26	660.3
970.922	661.438
973.581	649.924
976.241	674.253
978.898	671.997
981.555	676.821
984.21	693.178
986.864	706.554
989.517	714.845
992.169	711.643
994.819	704.18
997.468	711.963
1000.12	710.324
1002.76	720.937
1005.41	734.729
1008.05	770.279
1010.69	802.815
1013.34	803.754
1015.98	809.463
1018.61	765.643
1021.25	739.189
1023.89	737.188
1026.52	733.299
1029.16	746.455
1031.79	753.328
1034.42	761.172
1037.05	789.1
1039.68	832.687
1042.31	868.233
1044.93	910.211
1047.56	986.61
1050.18	1033.81
1052.81	1142.85
1055.43	1293.73
1058.05	1591.42
1060.67	2060.26
1063.28	2835.54
1065.9	3792.95
1068.52	4870.45
1071.13	5603.03
1073.74	5649.73
1076.35	5036.89
1078.96	4075.34
1081.57	3115.69
1084.18	2371.92
1086.79	1881.72
1089.39	1534.51
1092	1344.72
1094.6	1212.28
1097.2	1112.85
1099.8	1044.65
1102.4	993.768
1105	943.479
1107.6	901.46
1110.19	877.641
1112.79	869.625
1115.38	839.625
1117.97	825.482
1120.56	816.79
1123.15	804.894
1125.74	795.167
1128.33	795.154
1130.91	781.77
1133.5	782.056
1136.08	769.43
1138.66	756.414
1141.24	754.747
1143.82	777.542
1146.4	785.304
1148.98	786
1151.55	799.187
1154.13	826.652
1156.7	830.035
1159.27	871.865
1161.85	908.393
1164.42	953.056
1166.98	1078.72
1169.55	1254.95
1172.12	1559.77
1174.68	1845.54
1177.25	1943.85
1179.81	1812.13
1182.37	1592.76
1184.93	1357.48
1187.49	1166.95
1190.05	1075.54
1192.6	1050.15
1195.16	1059.84
1197.71	1080.67
1200.27	1064.15
1202.82	1011.14
1205.37	943.444
1207.92	910.294
1210.47	850.831
1213.01	844.631
1215.56	828.854
1218.1	802.631
1220.65	802.705
1223.19	814.548
1225.73	819.729
1228.27	819.575
1230.81	826.993
1233.35	850.854
1235.88	855.589
1238.42	838.218
1240.95	847.475
1243.48	848.601
1246.02	860.013
1248.55	870.984
1251.07	850.767
1253.6	861.249
1256.13	874.837
1258.66	859.824
1261.18	861.036
1263.7	852.111
1266.22	856.109
1268.75	857.482
1271.27	864.23
1273.78	853.837
1276.3	865.341
1278.82	857.945
1281.33	857.856
1283.85	826.268
1286.36	822.992
1288.87	845.171
1291.38	844.945
1293.89	858.141
1296.4	852.282
1298.9	849.122
1301.41	843.644
1303.91	839.078
1306.41	843.195
1308.92	826.149
1311.42	825.019
1313.92	812.945
1316.42	822.463
1318.91	804.03
1321.41	801.889
1323.9	797.591
1326.4	801.586
1328.89	802.097
1331.38	805.12
1333.87	784.455
1336.36	792.414
1338.85	778.355
1341.34	782.992
1343.82	784.689
1346.31	768.77
1348.79	772.64
1351.27	775.587
1353.75	758.786
1356.23	750.437
1358.71	753.615
1361.19	773.187
1363.66	772.961
1366.14	770.161
1368.61	764.724
1371.09	764.794
1373.56	780.151
1376.03	754.285
1378.5	782.26
1380.96	763.906
1383.43	765.299
1385.9	770.193
1388.36	761.74
1390.83	771
1393.29	780.706
1395.75	774.834
1398.21	769.561
1400.67	769.006
1403.13	763.31
1405.58	758.672
1408.04	758.479
1410.49	731.908
1412.95	722.967
1415.4	705.421
1417.85	709.617
1420.3	692.299
1422.75	698.895
1425.2	704.993
1427.64	704.498
1430.09	692.967
1432.53	689.163
1434.97	695.398
1437.42	707.035
1439.86	704.333
1442.3	702.246
1444.73	719.008
1447.17	720.897
1449.61	715.187
1452.04	754.501
1454.48	760.926
1456.91	779.906
1459.34	792.276
1461.77	820.164
1464.2	855.026
1466.63	845.542
1469.06	868.081
1471.48	900.31
1473.91	928.517
1476.33	922.924
1478.75	864.641
1481.17	835.9
1483.6	796.39
1486.01	782.746
1488.43	762.499
1490.85	765.241
1493.27	751.189
1495.68	742.037
1498.09	739.199
1500.51	753.146
1502.92	757.436
1505.33	760.276
1507.74	753.453
1510.14	774.184
1512.55	776.358
1514.96	785.815
1517.36	788.57
1519.77	787.085
1522.17	790.173
1524.57	793.276
1526.97	797.037
1529.37	806.008
1531.77	805.858
1534.16	808.831
1536.56	812.037
1538.95	834.725
1541.35	846.406
1543.74	840.479
1546.13	860.597
1548.52	852.815
1550.91	887.222
1553.3	898.997
1555.68	943.498
1558.07	977.832
1560.45	1043.21
1562.84	1108.05
1565.22	1220.04
1567.6	1360.15
1569.98	1563.81
1572.36	1821.92
1574.74	2184.83
1577.12	2606.81
1579.49	3102.21
1581.87	3449
1584.24	3465.09
1586.61	3131.88
1588.98	2628.57
1591.35	2106.78
1593.72	1711.19
1596.09	1422.73
1598.46	1191.11
1600.82	1054.33
1603.19	976.503
1605.55	903.077
1607.92	832.817
1610.28	788.005
1612.64	761.694
1615	726.044
1617.36	710.113
1619.71	673.564
1622.07	641.53
1624.42	622.117
1626.78	604.77
1629.13	581.515
1631.48	573.266
1633.83	553.547
1636.18	551.982
1638.53	547.61
1640.88	526.936
1643.22	519.838
1645.57	495.782
1647.91	499.252
1650.26	476.519
1652.6	475.629
1654.94	462.749
1657.28	454.298
1659.62	431.558
1661.96	424.369
1664.29	422.538
1666.63	405.922
1668.96	397.834
1671.3	378.695
1673.63	369.521
1675.96	374.575
1678.29	363.597
1680.62	356.741
1682.95	355.359
1685.27	352.88
1687.6	337.638
1689.92	329.078
1692.25	330.855
1694.57	333.957
1696.89	335.259
1699.21	325.267
1701.53	320.019
1703.85	311.06
1706.17	304.83
1708.48	305.98
1710.8	306.258
1713.11	304.27
1715.43	297.854
1717.74	308.168
1720.05	294.647
1722.36	292.902
1724.67	294.026
1726.97	302.543
1729.28	293.283
1731.59	284.915
1733.89	293.723
1736.19	283.019
1738.5	282.057
1740.8	278.298
1743.1	276.482
1745.4	263.61
1747.7	259.726
1749.99	266.678
1752.29	261.837
1754.58	256.374
1756.88	262.39
1759.17	251.797
1761.46	259.406
1763.75	255.502
1766.04	258.056
1768.33	255.385
1770.62	249.213
1772.91	241.412
1775.19	242.186
1777.48	246.336
1779.76	236.489
1782.04	243.463
1784.32	236.002
1786.6	241.819
1788.88	235.251
1791.16	240.153
1793.44	228.168
1795.71	229.619
1797.99	228.492
1800.26	222.137
1802.54	226.983
1804.81	232.501
1807.08	223.924
1809.35	225.869
1811.62	219.654
1813.88	218.156
1816.15	232.671
1818.42	217.225
1820.68	217.647
1822.95	222.412
1825.21	219.448
1827.47	223.26
1829.73	219.552
1831.99	214.55
1834.25	221.489
1836.51	216.823
1838.76	221.279
1841.02	211.276
1843.27	222.739
1845.52	214.754
1847.78	217.758
1850.03	210.619
1852.28	204.076
1854.53	220.56
1856.78	210.063
1859.02	208.406
1861.27	203.601
1863.51	209.726
1865.76	201.565
1868	204.562
1870.24	207.504
1872.48	205.591
1874.72	202.13
1876.96	196.078
1879.2	194.439
1881.44	197.006
1883.67	195.026
1885.91	189.489
1888.14	196.613
1890.37	201.171
1892.61	187.772
1894.84	191.806
1897.07	192.936
1899.29	188.834
1901.52	190.758
1903.75	195.547
1905.97	187.259
1908.2	185.983
1910.42	188.943
1912.64	193.508
1914.87	192.689
1917.09	186.186
1919.31	186.134
1921.52	180.965
1923.74	188.832
1925.96	193.241
1928.17	184.164
1930.39	186.14
1932.6	188.856
1934.81	179.312
1937.03	178.523
1939.24	178.279
1941.45	181.615
1943.65	174.819
1945.86	178.056
1948.07	175.893
1950.27	181.054
1952.48	179.854
1954.68	172.168
1956.88	176.308
1959.08	175.004
1961.29	172.604
1963.48	171.726
1965.68	173.934
1967.88	177.39
1970.08	171.121
1972.27	168.251
1974.47	167.584
1976.66	169.893
1978.85	163.298
1981.04	169.692
1983.23	159.508
1985.42	168.279
1987.61	177.575
1989.8	167.054
1991.99	166.463
1994.17	166.972
1996.36	160.597
1998.54	172.382
2000.72	165.286
2002.9	160.708
2005.08	162.045
2007.26	165.374
2009.44	156.282
2011.62	162.498
2013.8	164.525
2015.97	158.647
2018.15	153.492
2020.32	157.498
2022.49	151.498
2024.66	155.301
2026.83	157.693
2029	159.562
2031.17	155.695
2033.34	152.078
2035.51	151.683
2037.67	152.721
2039.84	157.091
2042	152.723
2044.16	152.425
2046.32	151.714
2048.48	148.225
2050.64	144.98
2052.8	150.451
2054.96	140.723
2057.12	153.582
2059.27	148.693
2061.43	144.823
2063.58	151.187
2065.73	147.908
2067.89	141.856
2070.04	148.558
2072.19	144.188
2074.34	148.695
2076.48	145.758
2078.63	150.187
2080.78	148.324
2082.92	152.578
2085.07	154.375
2087.21	149.236
2089.35	152.893
2091.49	138.276
2093.63	145.591
2095.77	145.298
2097.91	152.298
2100.05	144.336
2102.19	144.251
2104.32	152.463
2106.45	150.523
2108.59	148.591
2110.72	164.08
2112.85	158.045
2114.98	167.743
2117.11	167.704
2119.24	180.102
2121.37	176.198
2123.5	185.945
2125.62	194.967
2127.75	191.669
2129.87	195.111
2131.99	187.597
2134.11	185.146
2136.24	183.837
2138.36	183.057
2140.47	174.943
2142.59	173.09
2144.71	164.837
2146.83	163.848
2148.94	156.387
2151.06	153.337
2153.17	154.686
2155.28	151.317
2157.39	147.519
2159.5	157.425
2161.61	147.498
2163.72	142.952
2165.83	151.035
2167.94	148.137
2170.04	145.934
2172.15	148.115
2174.25	142.967
2176.35	146.581
2178.45	143.632
2180.56	141.61
2182.66	138.778
2184.75	141.165
2186.85	134.387
2188.95	132.832
2191.05	138.19
2193.14	143.279
2195.24	141.983
2197.33	145.908
2199.42	154.168
2201.51	158.758
2203.6	171.222
2205.69	173.39
2207.78	194.908
2209.87	227.61
2211.96	266.693
2214.04	324.521
2216.13	411.393
2218.21	499.56
2220.29	617.387
2222.38	715.848
2224.46	770.883
2226.54	762.42
2228.62	698.009
2230.69	606.314
2232.77	491.83
2234.85	409.869
2236.92	343.206
2239	281.076
2241.07	242.597
2243.15	210.743
2245.22	187.298
2247.29	167.084
2249.36	164.869
2251.43	154.723
2253.49	152.413
2255.56	136.498
2257.63	129.743
2259.69	127.412
2261.76	123.113
2263.82	123.041
2265.88	118.165
2267.95	127.056
2270.01	114.225
2272.07	115.409
2274.12	109.536
2276.18	111.837
2278.24	115.634
2280.3	106.521
2282.35	105.658
2284.41	104.965
2286.46	105.78
2288.51	106.575
2290.56	100.352
2292.61	103.856
2294.66	102.156
2296.71	98.8538
2298.76	105.19
2300.8	110.056
2302.85	103.425
2304.9	102.854
2306.94	99.965
2308.98	97.4118
2311.03	98.2597
2313.07	97.0635
2315.11	98.1872
2317.15	99.2763
2319.19	103.165
2321.22	93.1561
2323.26	95.2597
2325.3	92.5359
2327.33	95.9149
2329.36	90.6096
2331.4	94.8008
2333.43	93.7117
2335.46	102.21
2337.49	93.054
2339.52	95.7427
2341.55	98.3898
2343.58	92.1651
2345.6	95.7207
2347.63	101.967
2349.65	94.2246
2351.68	94.1135
2353.7	91.3874
2355.72	96.1872
2357.74	96.2056
2359.76	93.4248
2361.78	91.616
2363.8	90.4094
2365.82	92.5229
2367.84	89.3007
2369.85	93.8318
2371.87	92.3007
2373.88	96.4094
2375.9	94.3744
2377.91	92.965
2379.92	91.612
2381.93	92.8342
2383.94	87.8562
2385.95	90.6767
2387.96	89.2983
2389.96	89.2597
2391.97	94.9149
2393.97	88.7451
2395.98	87.1221
2397.98	85.965
2399.98	83.5359
2401.98	86.6096
2403.99	84.2793
2405.99	87.2632
2407.98	85.0354
2409.98	86.3874
2411.98	80.2786
2413.98	82.539
2415.97	83.8503
2417.96	84.8562
2419.96	82.0761
2421.95	84.7451
2423.94	84.539
2425.93	78.5015
2427.92	77.4058
2429.91	78.612
2431.9	78.2246
2433.89	78.3594
2435.87	77.8768
2437.86	78.647
2439.84	74.0254
2441.83	78.2983
2443.81	77.4248
2445.79	82.628
2447.77	79.0024
2449.75	75.3137
2451.73	79.965
2453.71	80.9239
2455.69	77.5205
2457.67	79.7017
2459.64	77.2632
2461.62	73.6691
2463.59	74.9614
2465.56	74.2573
2467.54	74.8318
2469.51	76.1675
2471.48	80.1651
2473.45	73.3874
2475.42	77.3744
2477.38	74.1301
2479.35	70.5009
2481.32	71.9453
2483.28	70.8602
2485.25	75.2786
2487.21	73.8538
2489.17	71.6921
2491.13	72.2763
2493.09	74.1872
2495.05	72.7207
2497.01	76.1521
2498.97	72.4278
2500.93	72.054
2502.89	69.0785
2504.84	70.2026
2506.8	66.1706
2508.75	75.035
2510.7	70.9673
2512.65	71.8692
2514.61	69.1651
2516.56	69.2246
2518.51	63.8913
2520.45	70.4674
2522.4	66.5205
2524.35	70.0761
2526.29	72.539
2528.24	71.4094
2530.18	68.8723
2532.13	73.2983
2534.07	74.0564
2536.01	74.5009
2537.95	71.3333
2539.89	77.041
2541.83	69.4118
2543.77	74.9079
2545.71	72.2983
2547.64	69.4985
2549.58	72.3684
2551.51	68.9299
2553.45	71.8318
2555.38	70.7077
2557.31	73.4118
2559.25	74.4855
2561.18	69.5205
2563.11	70.3594
2565.03	65.2786
2566.96	68.0761
2568.89	66.4819
2570.82	64.9239
2572.74	61.2793
2574.67	60.4248
2576.59	65.3874
2578.51	65.2786
2580.43	64.2947
2582.36	62.0761
2584.28	61.3898
2586.2	63.3898
2588.11	57.054
2590.03	58.2412
2591.95	59.3137
2593.86	59.3874
2595.78	62.0374
2597.69	56.0761
2599.61	59.5169
2601.52	63.965
2603.43	57.2793
2605.34	64.6691
2607.25	58.2763
2609.16	54.8692
2611.07	53.0564
2612.98	52.5205
2614.89	59.8128
2616.79	58.7077
2618.7	60.7451
2620.6	58.054
2622.5	61.3373
2624.41	65.1651
2626.31	56.3874
2628.21	57.965
2630.11	59.7968
2632.01	54.4094
2633.91	56.0784
2635.8	58.4094
2637.7	56.9119
2639.6	55.8889
2641.49	59.8188
2643.39	62.1651
2645.28	64.4985
2647.17	65.2817
2649.06	73.3137
2650.95	68.6667
2652.84	65.628
2654.73	62.3898
2656.62	63.3167
2658.51	63.4118
2660.4	62.1716
2662.28	59.2983
2664.17	64.2983
2666.05	58.2026
2667.93	64.8692
2669.82	70.4468
2671.7	80.5039
2673.58	92.9453
2675.46	93.8648
2677.34	104.758
2679.21	98.1872
2681.09	105.168
2682.97	105.279
2684.84	89.2246
2686.72	73.7237
2688.59	82.5205
2690.47	86.7041
2692.34	112.146
2694.21	174.479
2696.08	368.168
2697.95	383.712
2699.82	226.943
2701.69	147.152
2703.56	87.9493
2705.42	90.7581
2707.29	75.9804
2709.15	61.7231
2711.02	58.5009
2712.88	57.0784
2714.75	55.8538
2716.61	55.0024
2718.47	54.965
2720.33	53.6857
2722.19	53.9429
2724.05	54.9673
2725.9	53.7207
2727.76	50.8318
2729.62	53.9263
2731.47	53.2793
2733.33	53.965
2735.18	48.6316
2737.03	51.7427
2738.88	48.1651
2740.73	55.3684
2742.59	51.4985
2744.43	52.054
2746.28	51.5359
2748.13	51.0784
2749.98	51.0915
2751.82	51.9079
2753.67	50.8188
2755.51	49.3523
2757.36	53.5169
2759.2	49.2793
2761.04	47.7231
2762.88	46.9429
