365.286	882.258
368.238	857.398
371.189	822.74
374.139	783.975
377.087	765.683
380.034	721.642
382.979	711.373
385.923	678.757
388.866	662.447
391.806	656.929
394.745	670.94
397.684	670.473
400.62	684.985
403.555	660.369
406.49	647.359
409.421	642.211
412.353	625.984
415.282	608.57
418.209	608.534
421.137	606.543
424.062	597.285
426.985	605.775
429.908	616.606
432.829	632.582
435.748	638.74
438.666	640.847
441.583	662.827
444.498	659.016
447.412	644.044
450.324	639.174
453.235	639.661
456.145	620.392
459.052	621.779
461.959	623.954
464.865	605.682
467.769	593.829
470.671	585.656
473.572	584.728
476.471	603.818
479.37	614.08
482.266	612.989
485.162	630.061
488.056	623.728
490.948	656.6
493.839	638.747
496.73	637.073
499.618	627.459
502.505	604.459
505.39	597.398
508.275	599.447
511.157	592.026
514.039	590.24
516.919	597.164
519.798	589.098
522.674	594.328
525.55	576.58
528.425	562.997
531.297	546.531
534.169	557.587
537.039	566.129
539.908	573.617
542.775	567.03
545.642	571.804
548.506	580.925
551.369	551.484
554.231	547.506
557.092	536.728
559.951	557.362
562.808	570.392
565.664	619.89
568.519	675.217
571.373	784.989
574.225	917.155
577.076	1032.63
579.925	1079.79
582.773	1052.58
585.62	958.151
588.466	857.42
591.309	734.302
594.152	640.754
596.993	580.331
599.832	554.87
602.671	536.841
605.508	514.504
608.343	512.843
611.178	506.42
614.011	505.905
616.842	516.25
619.672	510.981
622.501	508.876
625.329	504.671
628.155	512.878
630.98	517.617
633.802	526.457
636.624	519.989
639.445	524.067
642.264	519.176
645.082	517.504
647.898	521.365
650.714	500.824
653.527	490.137
656.34	497.226
659.151	479.164
661.961	482.387
664.769	482.818
667.576	474.882
670.382	477.856
673.186	483.624
675.989	490.001
678.791	505.609
681.591	531.124
684.39	539.108
687.187	543.1
689.983	532.886
692.779	525.902
695.572	532.059
698.363	535.485
701.155	538.24
703.944	545.514
706.733	539.432
709.519	516.496
712.305	517.582
715.089	500.549
717.871	519.313
720.653	511.444
723.433	509.888
726.212	505.604
728.989	486.555
731.765	476.956
734.54	476.215
737.313	455.649
740.085	461.429
742.856	459.063
745.625	466.558
748.394	462.829
751.16	440.213
753.926	439.891
756.689	431.568
759.452	436.886
762.214	433.014
764.974	435.048
767.733	439.707
770.49	452.321
773.246	444.789
776.001	458.528
778.755	444.783
781.507	446.488
784.258	429.276
787.007	431.849
789.756	427.543
792.502	423.287
795.247	429.985
797.992	423.976
800.735	430.155
803.477	433.416
806.217	432.691
808.956	451.211
811.694	456.919
814.43	477.861
817.165	482.427
819.899	478.94
822.631	475.779
825.362	474.745
828.092	468.22
830.82	472.796
833.548	449.942
836.274	452.484
838.998	440.235
841.721	435.185
844.444	437.951
847.165	432.02
849.884	430.351
852.601	419.938
855.318	433.235
858.034	411.738
860.749	407.827
863.461	415.41
866.173	417.572
868.883	422.016
871.592	413.942
874.3	411.297
877.006	406.065
879.712	400.72
882.415	405.861
885.118	405.812
887.819	399.013
890.519	405.53
893.218	398.925
895.914	405.328
898.611	390.077
901.306	392.972
903.999	382.1
906.692	394.636
909.382	387.343
912.072	384.449
914.761	381.237
917.447	380.726
920.133	383.171
922.818	392.211
925.501	392.462
928.183	383.035
930.864	380.469
933.543	374.211
936.221	378.805
938.898	377.086
941.574	373.812
944.248	372.469
946.921	374.144
949.593	383.06
952.263	384.269
954.932	386.293
957.6	390.904
960.267	395.26
962.932	385.393
965.597	389.655
968.26	379.506
970.922	394.143
973.581	388.542
976.241	385.983
978.898	394.544
981.555	396.014
984.21	411.681
986.864	412.064
989.517	421.059
992.169	417.905
994.819	403.35
997.468	415.506
1000.12	421.373
1002.76	419.905
1005.41	420.08
1008.05	431.978
1010.69	425.443
1013.34	431.257
1015.98	428.182
1018.61	435.427
1021.25	432.233
1023.89	445.147
1026.52	446.68
1029.16	443.116
1031.79	454.728
1034.42	469.744
1037.05	481.956
1039.68	512.428
1042.31	542.206
1044.93	562.028
1047.56	583.523
1050.18	616.791
1052.81	689.45
1055.43	806.159
1058.05	974.324
1060.67	1180.46
1063.28	1464.5
1065.9	1744.62
1068.52	1936.23
1071.13	2021.29
1073.74	2003.48
1076.35	1869.06
1078.96	1610.32
1081.57	1352.68
1084.18	1077.75
1086.79	908.812
1089.39	785.442
1092	711.017
1094.6	660.742
1097.2	622.426
1099.8	591.141
1102.4	560.701
1105	543.17
1107.6	523.814
1110.19	515.372
1112.79	495.838
1115.38	497.089
1117.97	488.492
1120.56	482.642
1123.15	470.976
1125.74	473.035
1128.33	462.76
1130.91	449.728
1133.5	446.069
1136.08	435.701
1138.66	436.954
1141.24	421.334
1143.82	449.158
1146.4	424.838
1148.98	445.182
1151.55	435.427
1154.13	449.898
1156.7	445.615
1159.27	462.159
1161.85	496.999
1164.42	532.1
1166.98	598.615
1169.55	686.059
1172.12	738.262
1174.68	768.296
1177.25	754.989
1179.81	713.454
1182.37	629.927
1184.93	583.989
1187.49	530.57
1190.05	510.114
1192.6	503.775
1195.16	503.415
1197.71	494.63
1200.27	503.124
1202.82	502.735
1205.37	478.999
1207.92	462.026
1210.47	453.438
1213.01	454.09
1215.56	453.456
1218.1	441.398
1220.65	443.036
1223.19	460.647
1225.73	455.997
1228.27	453.176
1230.81	465.182
1233.35	463.497
1235.88	471.009
1238.42	467.211
1240.95	473.942
1243.48	468.825
1246.02	473.993
1248.55	468.636
1251.07	477.964
1253.6	467.66
1256.13	475.648
1258.66	472.775
1261.18	468.681
1263.7	466.125
1266.22	476.373
1268.75	468.713
1271.27	465.636
1273.78	461.026
1276.3	461.38
1278.82	450.982
1281.33	449.42
1283.85	448.995
1286.36	437.473
1288.87	442.823
1291.38	437.964
1293.89	430.377
1296.4	442.872
1298.9	427.461
1301.41	435.147
1303.91	441.301
1306.41	422.96
1308.92	439.438
1311.42	429.617
1313.92	437.645
1316.42	416.138
1318.91	418.861
1321.41	418.573
1323.9	413.518
1326.4	414.146
1328.89	409.024
1331.38	414.369
1333.87	413.383
1336.36	405.257
1338.85	411.428
1341.34	414.66
1343.82	411.853
1346.31	415.724
1348.79	412.32
1351.27	406.806
1353.75	417.55
1356.23	416.952
1358.71	406.73
1361.19	411.822
1363.66	408.488
1366.14	403.233
1368.61	413.351
1371.09	415.55
1373.56	411.853
1376.03	415.95
1378.5	410.531
1380.96	418.032
1383.43	422.707
1385.9	415.633
1388.36	419.693
1390.83	403.596
1393.29	401.235
1395.75	409.549
1398.21	385.011
1400.67	381.369
1403.13	362.878
1405.58	372.814
1408.04	369.543
1410.49	365.937
1412.95	369.703
1415.4	373.395
1417.85	361.637
1420.3	350.204
1422.75	352.812
1425.2	354.081
1427.64	352.894
1430.09	351.075
1432.53	350.824
1434.97	351.923
1437.42	358.124
1439.86	354.063
1442.3	353.158
1444.73	365.954
1447.17	352.112
1449.61	354.393
1452.04	365.38
1454.48	366.155
1456.91	374.97
1459.34	378.1
1461.77	382.225
1464.2	389.919
1466.63	383.03
1469.06	388.038
1471.48	396.57
1473.91	398.182
1476.33	399.1
1478.75	372.071
1481.17	367.627
1483.6	358.937
1486.01	342.742
1488.43	338.574
1490.85	339.703
1493.27	333.853
1495.68	342.783
1498.09	334.526
1500.51	333.45
1502.92	341.434
1505.33	333.637
1507.74	348.258
1510.14	361.431
1512.55	347.333
1514.96	359.135
1517.36	362.886
1519.77	366.41
1522.17	364.257
1524.57	378.435
1526.97	380.561
1529.37	373.116
1531.77	370.282
1534.16	372.366
1536.56	381.619
1538.95	384.005
1541.35	392.146
1543.74	382.763
1546.13	400.303
1548.52	402.192
1550.91	402.59
1553.3	422.067
1555.68	437.942
1558.07	456.697
1560.45	468.989
1562.84	506.322
1565.22	542.146
1567.6	599.211
1569.98	650.433
1572.36	723.89
1574.74	808.032
1577.12	881.76
1579.49	963.143
1581.87	1016.81
1584.24	1001.74
1586.61	941.556
1588.98	850.789
1591.35	730.814
1593.72	622.855
1596.09	533.545
1598.46	472.678
1600.82	424.539
1603.19	391.195
1605.55	380.225
1607.92	360.415
1610.28	345.472
1612.64	326.003
1615	314.93
1617.36	311.903
1619.71	289.03
1622.07	282.65
1624.42	282.938
1626.78	270.878
1629.13	260.3
1631.48	254.137
1633.83	255.651
1636.18	251.125
1638.53	242.119
1640.88	242.921
1643.22	226.709
1645.57	224.483
1647.91	218.65
1650.26	213.653
1652.6	217.826
1654.94	201.77
1657.28	201.908
1659.62	198.427
1661.96	197.308
1664.29	187.363
1666.63	192.569
1668.96	179.234
1671.3	180.446
1673.63	171.974
1675.96	168.624
1678.29	173.452
1680.62	159.794
1682.95	168.316
1685.27	157.969
1687.6	150.068
1689.92	155.252
1692.25	154.386
1694.57	149.688
1696.89	153.522
1699.21	150.354
1701.53	154.218
1703.85	143.501
1706.17	146.649
1708.48	144.794
1710.8	144.025
1713.11	142.577
1715.43	143.645
1717.74	143.624
1720.05	142.065
1722.36	142.571
1724.67	147.018
1726.97	133.525
1729.28	137.388
1731.59	138.243
1733.89	135.289
1736.19	134.054
1738.5	129.354
1740.8	130.476
1743.1	136.032
1745.4	131.534
1747.7	121.501
1749.99	129.708
1752.29	122.427
1754.58	121.943
1756.88	126.094
1759.17	123.021
1761.46	124.429
1763.75	119.273
1766.04	117.974
1768.33	117.93
1770.62	116.885
1772.91	113.388
1775.19	111.974
1777.48	115.419
1779.76	115.123
1782.04	117.717
1784.32	106.231
1786.6	107.567
1788.88	107.924
1791.16	113.372
1793.44	111.996
1795.71	101.501
1797.99	109.147
1800.26	103.774
1802.54	106.713
1804.81	104.797
1807.08	103.234
1809.35	104.7
1811.62	99.5766
1813.88	99.218
1816.15	101.61
1818.42	105.61
1820.68	99.487
1822.95	101.573
1825.21	97.1673
1827.47	101.316
1829.73	101.09
1831.99	99.3544
1834.25	103.218
1836.51	99.5794
1838.76	96.0802
1841.02	97.5108
1843.27	97.0628
1845.52	95.9606
1847.78	95.6512
1850.03	100.354
1852.28	98.2299
1854.53	95.1202
1856.78	91.3544
1859.02	93.0935
1861.27	93.9099
1863.51	92.5513
1865.76	91.0161
1868	96.0076
1870.24	93.828
1872.48	93.5298
1874.72	92.1613
1876.96	88.8729
1879.2	91.0391
1881.44	91.0091
1883.67	89.9785
1885.91	87.45
1888.14	90.4322
1890.37	87.7988
1892.61	90.8713
1894.84	89.7855
1897.07	87.4975
1899.29	87.7602
1901.52	89.4926
1903.75	94.9251
1905.97	87.3158
1908.2	87.8308
1910.42	86.1494
1912.64	88.7331
1914.87	82.1775
1917.09	86.1621
1919.31	82.0854
1921.52	82.9824
1923.74	88.3997
1925.96	83.5752
1928.17	86.1227
1930.39	81.828
1932.6	82.8902
1934.81	84.1227
1937.03	83.487
1939.24	77.045
1941.45	80.5246
1943.65	78.9047
1945.86	83.1913
1948.07	81.9357
1950.27	80.4655
1952.48	79.5493
1954.68	83.1885
1956.88	84.5162
1959.08	82.1593
1961.29	80.9743
1963.48	76.9005
1965.68	81.8474
1967.88	83.7665
1970.08	80.2433
1972.27	78.1188
1974.47	76.1494
1976.66	80.9725
1978.85	76.8551
1981.04	79.0697
1983.23	74.9743
1985.42	74.9553
1987.61	81.2381
1989.8	72.9569
1991.99	73.5887
1994.17	82.526
1996.36	74.8713
1998.54	78.0777
2000.72	73.2338
2002.9	80.3119
2005.08	75.8308
2007.26	72.2732
2009.44	78.9588
2011.62	72.2732
2013.8	74.9434
2015.97	75.9691
2018.15	71.3895
2020.32	72.2067
2022.49	70.5298
2024.66	69.4107
2026.83	73.269
2029	74.7092
2031.17	70.8262
2033.34	70.6023
2035.51	69.826
2037.67	69.9371
2039.84	70.8555
2042	67.7321
2044.16	73.2433
2046.32	69.6086
2048.48	71.5939
2050.64	66.744
2052.8	70.5672
2054.96	63.9451
2057.12	69.5162
2059.27	66.5433
2061.43	68.9824
2063.58	71.7148
2065.73	65.1322
2067.89	63.3449
2070.04	67.6389
2072.19	67.8847
2074.34	71.641
2076.48	67.4402
2078.63	70.4947
2080.78	66.2299
2082.92	66.5612
2085.07	69.9021
2087.21	65.4135
2089.35	70.2433
2091.49	66.218
2093.63	70.5766
2095.77	65.5714
2097.91	64.5633
2100.05	68.8632
2102.19	70.0545
2104.32	65.2299
2106.45	76.1885
2108.59	70.3864
2110.72	77.9666
2112.85	78.5298
2114.98	77.6037
2117.11	86.021
2119.24	90.2299
2121.37	85.2338
2123.5	93.218
2125.62	91.0077
2127.75	88.4793
2129.87	92.134
2131.99	87.1948
2134.11	84.021
2136.24	83.4605
2138.36	83.021
2140.47	80.341
2142.59	82.9434
2144.71	74.1188
2146.83	73.7197
2148.94	76.3544
2151.06	70.4107
2153.17	66.3544
2155.28	70.2648
2157.39	68.0039
2159.5	63.7363
2161.61	66.4655
2163.72	63.9099
2165.83	64.4835
2167.94	68.9824
2170.04	64.9251
2172.15	65.4135
2174.25	60.5099
2176.35	58.9391
2178.45	60.5099
2180.56	60.61
2182.66	65.2725
2184.75	64.0132
2186.85	65.3492
2188.95	64.7321
2191.05	63.4895
2193.14	62.3118
2195.24	62.1536
2197.33	61.2753
2199.42	65.8442
2201.51	71.1595
2203.6	69.4807
2205.69	70.2299
2207.78	76.021
2209.87	79.9826
2211.96	85.2585
2214.04	96.9877
2216.13	109.45
2218.21	124.483
2220.29	137.275
2222.38	154.267
2224.46	156.289
2226.54	171.384
2228.62	157.218
2230.69	152.487
2232.77	139.983
2234.85	126.789
2236.92	111.955
2239	93.6877
2241.07	84.6744
2243.15	72.4655
2245.22	68.8611
2247.29	68.2569
2249.36	63.6392
2251.43	59.1069
2253.49	60.5298
2255.56	55.3449
2257.63	58.7201
2259.69	54.0482
2261.76	55.2704
2263.82	50.021
2265.88	49.4603
2267.95	53.5513
2270.01	46.0562
2272.07	49.2999
2274.12	52.5513
2276.18	50.2007
2278.24	49.6624
2280.3	46.0229
2282.35	48.0158
2284.41	49.4577
2286.46	47.3347
2288.51	49.0116
2290.56	49.417
2292.61	46.9785
2294.66	40.4187
2296.71	42.403
2298.76	43.8322
2300.8	46.1125
2302.85	45.1885
2304.9	46.1791
2306.94	42.0664
2308.98	42.7855
2311.03	47.3356
2313.07	45.9877
2315.11	44.5784
2317.15	47.0482
2319.19	43.7894
2321.22	40.5513
2323.26	44.5433
2325.3	41.9725
2327.33	42.1579
2329.36	44.538
2331.4	43.4807
2333.43	41.6491
2335.46	40.898
2337.49	43.8551
2339.52	42.4051
2341.55	43.0502
2343.58	40.1885
2345.6	45.1593
2347.63	52.9005
2349.65	41.2117
2351.68	41.2299
2353.7	39.3836
2355.72	41.5714
2357.74	42.826
2359.76	39.2299
2361.78	39.0802
2363.8	43.1775
2365.82	38.826
2367.84	38.8614
2369.85	42.1885
2371.87	40.2996
2373.88	43.1474
2375.9	39.8551
2377.91	40.1765
2379.92	41.4807
2381.93	41.0383
2383.94	36.7169
2385.95	41.9663
2387.96	39.3572
2389.96	41.2046
2391.97	38.9553
2393.97	39.021
2395.98	35.6066
2397.98	38.6023
2399.98	38.3997
2401.98	37.7169
2403.99	37.0116
2405.99	38.2704
2407.98	35.1885
2409.98	37.828
2411.98	36.54
2413.98	35.2996
2415.97	34.9585
2417.96	36.8632
2419.96	38.3815
2421.95	37.1808
2423.94	37.2725
2425.93	34.9553
2427.92	36.2433
2429.91	34.5218
2431.9	34.5714
2433.89	35.61
2435.87	40.3745
2437.86	35.744
2439.84	33.6624
2441.83	35.3158
2443.81	32.8632
2445.79	36.7169
2447.77	32.828
2449.75	33.8713
2451.73	37.7834
2453.71	34.0802
2455.69	33.6037
2457.67	33.7988
2459.64	33.7735
2461.62	33.9047
2463.59	31.0482
2465.56	31.9371
2467.54	34.7957
2469.51	34.0774
2471.48	29.3291
2473.45	31.0935
2475.42	37.3158
2477.38	31.2299
2479.35	34.3038
2481.32	34.218
2483.28	34.8322
2485.25	35.2299
2487.21	30.2939
2489.17	32.0014
2491.13	30.3449
2493.09	32.0039
2495.05	27.9099
2497.01	31.526
2498.97	33.1775
2500.93	30.2419
2502.89	35.2219
2504.84	26.9099
2506.8	31.5341
2508.75	33.4289
2510.7	31.6744
2512.65	26.5513
2514.61	30.5109
2516.56	28.4521
2518.51	29.1227
2520.45	31.045
2522.4	30.6961
2524.35	29.3997
2526.29	33.5281
2528.24	29.9339
2530.18	32.0348
2532.13	31.7321
2534.07	36.21
2536.01	30.3836
2537.95	27.2433
2539.89	29.1322
2541.83	30.9314
2543.77	30.9085
2545.71	32.7521
2547.64	34.6877
2549.58	31.2338
2551.51	28.7469
2553.45	31.4657
2555.38	33.7855
2557.31	31.828
2559.25	31.6086
2561.18	27.0545
2563.11	27.7134
2565.03	27.9371
2566.96	28.2313
2568.89	29.0664
2570.82	28.3544
2572.74	30.4306
2574.67	30.9663
2576.59	27.8734
2578.51	29.6744
2580.43	29.4989
2582.36	29.3843
2584.28	25.9399
2586.2	27.4521
2588.11	23.7894
2590.03	28.61
2591.95	27.5766
2593.86	29.4382
2595.78	27.3544
2597.69	27.0348
2599.61	28.0014
2601.52	27.8966
2603.43	28.1885
2605.34	28.828
2607.25	27.2381
2609.16	30.7503
2611.07	27.4459
2612.98	28.7855
2614.89	30.1125
2616.79	27.4289
2618.7	24.3836
2620.6	25.9099
2622.5	27.9085
2624.41	28.1125
2626.31	25.341
2628.21	27.2704
2630.11	28.3836
2632.01	29.6058
2633.91	28.4107
2635.8	29.3291
2637.7	29.2046
2639.6	27.8886
2641.49	26.6252
2643.39	31.1227
2645.28	30.4521
2647.17	39.8614
2649.06	34.9434
2650.95	37.1322
2652.84	34.6142
2654.73	34.7169
2656.62	32.4521
2658.51	30.5766
2660.4	31.7469
2662.28	31.7521
2664.17	35.4947
2666.05	29.9314
2667.93	35.1188
2669.82	38.3682
2671.7	49.9237
2673.58	60.0196
2675.46	65.546
2677.34	62.4807
2679.21	65.417
2681.09	65.2706
2682.97	63.9722
2684.84	62.4187
2686.72	44.0774
2688.59	47.3158
2690.47	57.2784
2692.34	86.8364
2694.21	151.351
2696.08	302.639
2697.95	296.799
2699.82	162.493
2701.69	101.662
2703.56	60.6357
2705.42	60.1459
2707.29	42.2236
2709.15	35.403
2711.02	35.3211
2712.88	31.9824
2714.75	30.0854
2716.61	29.3076
2718.47	26.3836
2720.33	26.218
2722.19	31.0077
2724.05	29.0802
2725.9	29.5513
2727.76	26.2996
2729.62	29.0774
2731.47	28.828
2733.33	28.1322
2735.18	28.2067
2737.03	28.6329
2738.88	27.2299
2740.73	26.7134
2742.59	22.7602
2744.43	25.9743
2746.28	22.5766
2748.13	25.3038
2749.98	28.1168
2751.82	23.4402
2753.67	23.5099
2755.51	26.5735
2757.36	27.9824
2759.2	26.3544
2761.04	23.4521
2762.88	24.021
