365.286	871.818
368.238	837.947
371.189	781.477
374.139	753.038
377.087	708.973
380.034	682.927
382.979	654.697
385.923	649.544
388.866	618.639
391.806	605.293
394.745	595.973
397.684	600.452
400.62	602.688
403.555	598.519
406.49	582.807
409.421	563.057
412.353	571.482
415.282	556.37
418.209	547.254
421.137	535.026
424.062	545.752
426.985	543.718
429.908	552.284
432.829	553.657
435.748	575.608
438.666	590.101
441.583	598.277
444.498	586.162
447.412	571.45
450.324	566.82
453.235	555.394
456.145	544.629
459.052	535.02
461.959	538.35
464.865	534.366
467.769	515.772
470.671	521.267
473.572	509.409
476.471	503.394
479.37	534.986
482.266	536.082
485.162	554.203
488.056	552.092
490.948	566.24
493.839	565.313
496.73	566.471
499.618	564.907
502.505	554.137
505.39	550.392
508.275	528.73
511.157	528.243
514.039	526.652
516.919	514.812
519.798	500.069
522.674	497.103
525.55	493.912
528.425	486.472
531.297	474.421
534.169	483.729
537.039	490.532
539.908	490.93
542.775	513.505
545.642	510.191
548.506	506.795
551.369	509.626
554.231	497.53
557.092	492.517
559.951	502.724
562.808	509.952
565.664	546.134
568.519	591.944
571.373	717.158
574.225	889.631
577.076	1014.4
579.925	1091.8
582.773	1045.14
585.62	954.711
588.466	826.755
591.309	686.94
594.152	604.758
596.993	530.146
599.832	491.861
602.671	469.751
605.508	472.53
608.343	449.272
611.178	446.614
614.011	444.337
616.842	450.172
619.672	437.931
622.501	448.829
625.329	463.267
628.155	456.447
630.98	467.417
633.802	477.838
636.624	486.435
639.445	484.99
642.264	485.304
645.082	491.79
647.898	486.561
650.714	463.14
653.527	455.522
656.34	463.365
659.151	447.111
661.961	451.442
664.769	447.599
667.576	446.262
670.382	442.636
673.186	445.787
675.989	453.643
678.791	464.663
681.591	466.505
684.39	470.018
687.187	480.394
689.983	465.325
692.779	460.032
695.572	467.562
698.363	474.271
701.155	476.49
703.944	472.63
706.733	462.068
709.519	463.879
712.305	456.448
715.089	442.099
717.871	443.073
720.653	432.779
723.433	411.628
726.212	406.55
728.989	417.113
731.765	399.932
734.54	395.626
737.313	387.453
740.085	383.974
742.856	385.092
745.625	373.598
748.394	373.434
751.16	381.884
753.926	379.928
756.689	361.055
759.452	369.646
762.214	370.037
764.974	370.657
767.733	381.042
770.49	395.961
773.246	400.023
776.001	400.206
778.755	401.915
781.507	392.396
784.258	384.68
787.007	376.607
789.756	374.749
792.502	366.342
795.247	370.112
797.992	373.557
800.735	366.782
803.477	376.4
806.217	382.711
808.956	374.879
811.694	383.866
814.43	395.626
817.165	401.028
819.899	410.927
822.631	410.84
825.362	404.807
828.092	400.446
830.82	395.546
833.548	396.693
836.274	391.964
838.998	372.843
841.721	370.639
844.444	379.482
847.165	373.08
849.884	373.75
852.601	367.287
855.318	363.748
858.034	366.561
860.749	362.179
863.461	361.026
866.173	362.095
868.883	355.388
871.592	364.267
874.3	361.509
877.006	343.194
879.712	352.378
882.415	349.637
885.118	336.02
887.819	328.484
890.519	339.041
893.218	339.901
895.914	330.068
898.611	323.532
901.306	326.701
903.999	318.342
906.692	319.858
909.382	322.478
912.072	325.119
914.761	315.164
917.447	311.016
920.133	324.272
922.818	320.063
925.501	320.084
928.183	319.786
930.864	319.277
933.543	318.122
936.221	317.059
938.898	318.09
941.574	315.51
944.248	306.323
946.921	321.385
949.593	313.448
952.263	325.496
954.932	307.397
957.6	313.004
960.267	309.992
962.932	313.873
965.597	312.821
968.26	310.251
970.922	310.041
973.581	308.843
976.241	300.731
978.898	308.816
981.555	310.075
984.21	313.004
986.864	300.408
989.517	312.379
992.169	312.853
994.819	324.696
997.468	315.913
1000.12	316.765
1002.76	319.214
1005.41	317.128
1008.05	321.597
1010.69	325.435
1013.34	319.299
1015.98	317.294
1018.61	318.43
1021.25	317.602
1023.89	311.018
1026.52	315.865
1029.16	313.119
1031.79	302.888
1034.42	315.298
1037.05	329.837
1039.68	332.868
1042.31	342.858
1044.93	345.559
1047.56	364.249
1050.18	392.827
1052.81	426.232
1055.43	483.941
1058.05	576.138
1060.67	719.684
1063.28	960.931
1065.9	1284.45
1068.52	1587.81
1071.13	1756.47
1073.74	1801.09
1076.35	1653.57
1078.96	1450.62
1081.57	1171.7
1084.18	916.384
1086.79	739.286
1089.39	615.202
1092	545.961
1094.6	496.206
1097.2	484.184
1099.8	456.428
1102.4	437.564
1105	400.775
1107.6	399.184
1110.19	393.879
1112.79	381.269
1115.38	378.026
1117.97	377.528
1120.56	372.506
1123.15	368.76
1125.74	360.777
1128.33	361.335
1130.91	358.417
1133.5	347.208
1136.08	345.754
1138.66	345.088
1141.24	333.906
1143.82	337.572
1146.4	342.66
1148.98	353.417
1151.55	352.377
1154.13	358.629
1156.7	380.188
1159.27	378.176
1161.85	376.022
1164.42	396.973
1166.98	446.634
1169.55	523.076
1172.12	604.871
1174.68	652.65
1177.25	650.034
1179.81	600.433
1182.37	553.548
1184.93	495.25
1187.49	445.577
1190.05	409.101
1192.6	406.895
1195.16	412.988
1197.71	418.801
1200.27	420.38
1202.82	410.099
1205.37	393.211
1207.92	372.258
1210.47	360.324
1213.01	345.129
1215.56	349.376
1218.1	348.158
1220.65	341.44
1223.19	340.528
1225.73	342.874
1228.27	338.877
1230.81	336.784
1233.35	344.291
1235.88	354.375
1238.42	348.607
1240.95	356.36
1243.48	352.176
1246.02	355.546
1248.55	354.601
1251.07	362.837
1253.6	362.146
1256.13	361.255
1258.66	355.355
1261.18	359.082
1263.7	358.272
1266.22	364.826
1268.75	362.55
1271.27	363.912
1273.78	357.562
1276.3	360.62
1278.82	354.091
1281.33	351.225
1283.85	360.394
1286.36	346.193
1288.87	350.178
1291.38	346.393
1293.89	348.362
1296.4	351.362
1298.9	342.646
1301.41	337.601
1303.91	333.804
1306.41	337.176
1308.92	332.738
1311.42	328.366
1313.92	338.277
1316.42	326.616
1318.91	332.073
1321.41	326.772
1323.9	323.654
1326.4	330.767
1328.89	320.236
1331.38	323.221
1333.87	325.068
1336.36	327.222
1338.85	309.753
1341.34	312.948
1343.82	311.378
1346.31	314.768
1348.79	316.111
1351.27	308.87
1353.75	311.376
1356.23	301.51
1358.71	293.826
1361.19	290.99
1363.66	299.054
1366.14	296.768
1368.61	294.851
1371.09	295.895
1373.56	293.369
1376.03	294.042
1378.5	305.427
1380.96	297.938
1383.43	298.838
1385.9	305.145
1388.36	295.768
1390.83	290.784
1393.29	297.657
1395.75	288.534
1398.21	297.266
1400.67	287.362
1403.13	287.654
1405.58	284.469
1408.04	278.281
1410.49	290.227
1412.95	290.226
1415.4	280.015
1417.85	277.084
1420.3	270.273
1422.75	268.783
1425.2	279.344
1427.64	276.815
1430.09	270.907
1432.53	272.744
1434.97	280.985
1437.42	279.624
1439.86	281.637
1442.3	280.333
1444.73	286.322
1447.17	289.434
1449.61	292.484
1452.04	290.854
1454.48	296.637
1456.91	301.011
1459.34	299.839
1461.77	303.539
1464.2	312.591
1466.63	324.528
1469.06	324.644
1471.48	337.25
1473.91	347.541
1476.33	327.488
1478.75	320.494
1481.17	307.652
1483.6	301.597
1486.01	278.796
1488.43	271.045
1490.85	271.173
1493.27	267.212
1495.68	266.99
1498.09	265.588
1500.51	269.176
1502.92	268.699
1505.33	273.435
1507.74	276.717
1510.14	273.978
1512.55	280.453
1514.96	278.978
1517.36	281.157
1519.77	277.284
1522.17	278.425
1524.57	272.051
1526.97	279.211
1529.37	274.047
1531.77	278.5
1534.16	283.677
1536.56	289.705
1538.95	290.873
1541.35	288.155
1543.74	284.672
1546.13	289.329
1548.52	290.723
1550.91	289.768
1553.3	297.274
1555.68	308.549
1558.07	310.027
1560.45	322.368
1562.84	344.044
1565.22	363.768
1567.6	397.689
1569.98	454.747
1572.36	515.066
1574.74	619.072
1577.12	743.312
1579.49	875.766
1581.87	962.636
1584.24	963.139
1586.61	894.971
1588.98	806.344
1591.35	672.335
1593.72	564.367
1596.09	483.279
1598.46	414.311
1600.82	367.121
1603.19	334.301
1605.55	325.523
1607.92	304.889
1610.28	290.136
1612.64	272.461
1615	259.029
1617.36	258.394
1619.71	256.928
1622.07	252.555
1624.42	243.044
1626.78	233.414
1629.13	225.657
1631.48	222.703
1633.83	221.593
1636.18	212.516
1638.53	210.731
1640.88	214.896
1643.22	200.197
1645.57	200.947
1647.91	201.498
1650.26	190.574
1652.6	192.072
1654.94	188.019
1657.28	185.879
1659.62	187.08
1661.96	178.551
1664.29	172.63
1666.63	165.541
1668.96	163.818
1671.3	160.489
1673.63	152.34
1675.96	150.685
1678.29	154.424
1680.62	152.941
1682.95	146.034
1685.27	146.417
1687.6	136.957
1689.92	142.155
1692.25	140.663
1694.57	135.639
1696.89	145.452
1699.21	135.423
1701.53	134.944
1703.85	139.24
1706.17	130.203
1708.48	132.064
1710.8	125.415
1713.11	130.98
1715.43	128.156
1717.74	126.745
1720.05	129.679
1722.36	125.513
1724.67	120.264
1726.97	120.898
1729.28	121.375
1731.59	114.869
1733.89	119.152
1736.19	117.192
1738.5	117.887
1740.8	122.647
1743.1	111.375
1745.4	114.36
1747.7	116.65
1749.99	117.71
1752.29	107.252
1754.58	113.428
1756.88	110.11
1759.17	107.97
1761.46	101.063
1763.75	108.452
1766.04	100.419
1768.33	105.148
1770.62	104.613
1772.91	101.57
1775.19	108.072
1777.48	101.55
1779.76	102.612
1782.04	98.6251
1784.32	103.957
1786.6	100.881
1788.88	99.4192
1791.16	102.564
1793.44	94.6632
1795.71	98.1929
1797.99	97.2065
1800.26	101.137
1802.54	99.5857
1804.81	94.7844
1807.08	90.3098
1809.35	98.0244
1811.62	98.314
1813.88	95.2234
1816.15	97.3082
1818.42	93.7733
1820.68	100.323
1822.95	99.3588
1825.21	91.4582
1827.47	94.3872
1829.73	90.5532
1831.99	95.8829
1834.25	88.2764
1836.51	90.9816
1838.76	93.2133
1841.02	91.6777
1843.27	90.7947
1845.52	96.4398
1847.78	87.7542
1850.03	97.4433
1852.28	86.7291
1854.53	87.5359
1856.78	92.438
1859.02	91.6509
1861.27	84.8257
1863.51	88.7446
1865.76	88.9191
1868	82.6591
1870.24	86.0565
1872.48	85.6662
1874.72	81.7719
1876.96	84.6603
1879.2	87.3094
1881.44	86.4433
1883.67	86.1221
1885.91	84.455
1888.14	84.9344
1890.37	85.7947
1892.61	81.885
1894.84	82.23
1897.07	83.1551
1899.29	82.6694
1901.52	86.4163
1903.75	85.943
1905.97	83.2139
1908.2	85.5303
1910.42	84.2957
1912.64	80.2918
1914.87	84.9607
1917.09	78.9541
1919.31	83.9234
1921.52	81.7138
1923.74	80.7525
1925.96	79.6655
1928.17	77.3638
1930.39	76.7679
1932.6	80.8611
1934.81	82.8623
1937.03	76.1246
1939.24	81.2123
1941.45	79.9301
1943.65	79.7301
1945.86	80.5088
1948.07	82.3736
1950.27	78.3067
1952.48	79.2527
1954.68	77.3122
1956.88	81.7377
1959.08	76.3803
1961.29	75.6025
1963.48	76.8277
1965.68	77.1925
1967.88	79.9149
1970.08	73.0305
1972.27	72.7292
1974.47	72.7702
1976.66	74.7773
1978.85	78.4689
1981.04	75.6847
1983.23	74.8969
1985.42	73.5688
1987.61	70.7208
1989.8	74.6455
1991.99	71.8271
1994.17	77.0858
1996.36	70.9924
1998.54	73.0468
2000.72	70.0858
2002.9	71.4813
2005.08	75.1188
2007.26	69.1438
2009.44	75.7139
2011.62	70.1143
2013.8	68.4914
2015.97	75.0258
2018.15	71.994
2020.32	68.6551
2022.49	67.7931
2024.66	69.719
2026.83	64.4986
2029	69.1577
2031.17	65.7754
2033.34	69.1972
2035.51	69.4375
2037.67	71.2371
2039.84	67.9027
2042	64.1755
2044.16	69.3439
2046.32	66.2198
2048.48	65.4421
2050.64	59.8079
2052.8	66.1099
2054.96	64.3083
2057.12	64.96
2059.27	68.8083
2061.43	64.8862
2063.58	66.0377
2065.73	62.7809
2067.89	63.7931
2070.04	69.0625
2072.19	66.3164
2074.34	63.6402
2076.48	65.5472
2078.63	66.5857
2080.78	64.048
2082.92	61.1
2085.07	64.4761
2087.21	60.2158
2089.35	61.8829
2091.49	61.7525
2093.63	66.614
2095.77	63.9
2097.91	64.5155
2100.05	65.1841
2102.19	61.8637
2104.32	63.2846
2106.45	66.4192
2108.59	63.4068
2110.72	69.7181
2112.85	72.0344
2114.98	72.5399
2117.11	78.6097
2119.24	83.4525
2121.37	81.7401
2123.5	82.4801
2125.62	84.4528
2127.75	82.4813
2129.87	82.9788
2131.99	82.757
2134.11	76.311
2136.24	77.4079
2138.36	73.601
2140.47	72.3023
2142.59	72.6497
2144.71	71.3992
2146.83	72.2402
2148.94	69.8732
2151.06	67.2677
2153.17	70.5362
2155.28	65.998
2157.39	65.5305
2159.5	66.7538
2161.61	65.6506
2163.72	60.0138
2165.83	62.6815
2167.94	63.7527
2170.04	62.2139
2172.15	58.3804
2174.25	63.7319
2176.35	60.8978
2178.45	59.2753
2180.56	59.3977
2182.66	57.6179
2184.75	60.0484
2186.85	58.1515
2188.95	55.2677
2191.05	57.755
2193.14	60.8652
2195.24	60.2065
2197.33	60.748
2199.42	61.3083
2201.51	63.8215
2203.6	68.4567
2205.69	67.6667
2207.78	74.7024
2209.87	77.2371
2211.96	92.4192
2214.04	104.057
2216.13	114.221
2218.21	139.078
2220.29	163.657
2222.38	180.358
2224.46	200.105
2226.54	196.157
2228.62	186.509
2230.69	164.991
2232.77	150.701
2234.85	128.565
2236.92	115.013
2239	99.2402
2241.07	86.5175
2243.15	76.7479
2245.22	72.0626
2247.29	64.6402
2249.36	61.5583
2251.43	56.9526
2253.49	58.2312
2255.56	55.7869
2257.63	53.083
2259.69	51.9747
2261.76	50.3105
2263.82	53.6694
2265.88	47.9924
2267.95	50.8232
2270.01	48.8589
2272.07	47.9344
2274.12	43.6179
2276.18	48.0138
2278.24	46.4098
2280.3	47.1969
2282.35	47.4236
2284.41	45.6356
2286.46	45.8139
2288.51	44.5583
2290.56	43.1251
2292.61	44.3081
2294.66	45.0302
2296.71	43.4746
2298.76	44.7008
2300.8	43.3053
2302.85	44.6968
2304.9	46.1605
2306.94	43.2198
2308.98	44.7696
2311.03	42.6804
2313.07	39.0302
2315.11	41.0826
2317.15	42.1641
2319.19	42.2706
2321.22	42.1438
2323.26	45.0247
2325.3	39.4385
2327.33	39.8139
2329.36	42.5469
2331.4	42.0455
2333.43	42.046
2335.46	41.1568
2337.49	43.6993
2339.52	42.5303
2341.55	39.4029
2343.58	41.1428
2345.6	44.2288
2347.63	53.8802
2349.65	45.5406
2351.68	41.2288
2353.7	41.1816
2355.72	41.8249
2357.74	39.7161
2359.76	40.3592
2361.78	40.3321
2363.8	40.6266
2365.82	37.9359
2367.84	41.6968
2369.85	39.2158
2371.87	39.8436
2373.88	41.2566
2375.9	40.5175
2377.91	38.4786
2379.92	36.101
2381.93	38.9066
2383.94	38.9144
2385.95	38.6607
2387.96	39.3466
2389.96	37.4433
2391.97	39.2524
2393.97	41.9246
2395.98	38.8483
2397.98	38.4208
2399.98	38.6968
2401.98	37.3107
2403.99	35.0541
2405.99	35.1642
2407.98	36.34
2409.98	37.3702
2411.98	38.8528
2413.98	34.4251
2415.97	38.3485
2417.96	37.762
2419.96	39.073
2421.95	37.6286
2423.94	35.3805
2425.93	38.053
2427.92	36.969
2429.91	40.1581
2431.9	36.6261
2433.89	35.6414
2435.87	33.6482
2437.86	32.8483
2439.84	39.1107
2441.83	32.8079
2443.81	33.5492
2445.79	34.2693
2447.77	36.3848
2449.75	36.0541
2451.73	32.8802
2453.71	34.6603
2455.69	35.3592
2457.67	33.5737
2459.64	33.5944
2461.62	36.3594
2463.59	34.1323
2465.56	34.7622
2467.54	33.3275
2469.51	34.1554
2471.48	31.7197
2473.45	36.7151
2475.42	35.7525
2477.38	29.4887
2479.35	34.2587
2481.32	34.5303
2483.28	35.3486
2485.25	33.571
2487.21	32.0428
2489.17	31.6214
2491.13	30.4621
2493.09	32.9701
2495.05	31.3318
2497.01	33.0443
2498.97	34.1972
2500.93	32.3457
2502.89	33.6414
2504.84	33.909
2506.8	31.6261
2508.75	35.6772
2510.7	29.0027
2512.65	34.1237
2514.61	31.7205
2516.56	30.7805
2518.51	31.8085
2520.45	30.0875
2522.4	33.6744
2524.35	32.554
2526.29	30.7043
2528.24	29.8402
2530.18	30.6402
2532.13	31.3695
2534.07	31.8421
2536.01	30.2164
2537.95	31.9985
2539.89	33.5645
2541.83	33.0918
2543.77	32.2249
2545.71	31.9474
2547.64	27.7055
2549.58	28.716
2551.51	32.1986
2553.45	29.2123
2555.38	33.8248
2557.31	29.6251
2559.25	33.4975
2561.18	31.9807
2563.11	28.7809
2565.03	30.3891
2566.96	30.5257
2568.89	31.1969
2570.82	30.2941
2572.74	30.4692
2574.67	33.5632
2576.59	31.7372
2578.51	28.7432
2580.43	27.7401
2582.36	30.4464
2584.28	32.5152
2586.2	30.9301
2588.11	29.8232
2590.03	29.9265
2591.95	29.9619
2593.86	28.2198
2595.78	28.1413
2597.69	26.9594
2599.61	27.9191
2601.52	31.4986
2603.43	30.1876
2605.34	30.1969
2607.25	30.943
2609.16	30.1846
2611.07	30.6085
2612.98	29.1087
2614.89	29.4429
2616.79	28.6214
2618.7	33.6049
2620.6	30.2222
2622.5	28.9823
2624.41	27.9807
2626.31	27.7714
2628.21	30.4597
2630.11	27.8994
2632.01	30.732
2633.91	30.8319
2635.8	34.3459
2637.7	30.791
2639.6	28.9973
2641.49	30.2906
2643.39	35.1959
2645.28	34.6804
2647.17	41.09
2649.06	36.3788
2650.95	34.4761
2652.84	36.5103
2654.73	32.0859
2656.62	33.3321
2658.51	33.6968
2660.4	32.5932
2662.28	34.8732
2664.17	33.5175
2666.05	35.8154
2667.93	40.8579
2669.82	43.6097
2671.7	54.4276
2673.58	71.3569
2675.46	73.4193
2677.34	77.9482
2679.21	70.4612
2681.09	72.3124
2682.97	70.1816
2684.84	65.6261
2686.72	54.6261
2688.59	60.9594
2690.47	58.716
2692.34	90.6234
2694.21	175.801
2696.08	359.507
2697.95	312.942
2699.82	182.84
2701.69	119.514
2703.56	66.3553
2705.42	71.4235
2707.29	52.468
2709.15	43.2029
2711.02	40.1804
2712.88	32.1413
2714.75	31.0918
2716.61	29.9194
2718.47	29.7345
2720.33	32.6249
2722.19	32.604
2724.05	31.0027
2725.9	31.8079
2727.76	31.8436
2729.62	30.0858
2731.47	32.1957
2733.33	31.716
2735.18	32.5175
2737.03	27.6968
2738.88	28.9418
2740.73	26.2524
2742.59	25.9575
2744.43	27.8724
2746.28	28.29
2748.13	26.1024
2749.98	28.3082
2751.82	27.2026
2753.67	26.2692
2755.51	27.1413
2757.36	28.976
2759.2	24.607
2761.04	23.9936
2762.88	26.1607
