365.286	732.241
368.238	689.467
371.189	656.842
374.139	624.496
377.087	635.845
380.034	619.002
382.979	575.043
385.923	548.387
388.866	519.581
391.806	500.774
394.745	491.068
397.684	509.679
400.62	506.958
403.555	498.703
406.49	496.27
409.421	483.254
412.353	480.308
415.282	477.809
418.209	461.018
421.137	455.613
424.062	461.147
426.985	478.131
429.908	499.182
432.829	523.204
435.748	523.239
438.666	532.378
441.583	531.53
444.498	500.734
447.412	502.284
450.324	502.727
453.235	494.688
456.145	486.711
459.052	474.782
461.959	463.853
464.865	443.151
467.769	424.845
470.671	420.662
473.572	420.365
476.471	431.702
479.37	429.828
482.266	436.333
485.162	463.775
488.056	470.688
490.948	477.037
493.839	465.85
496.73	466.357
499.618	459.134
502.505	445.53
505.39	444.599
508.275	439.661
511.157	429.502
514.039	431.862
516.919	446.961
519.798	427.557
522.674	418.913
525.55	410.298
528.425	397.593
531.297	376.337
534.169	367.67
537.039	382.781
539.908	387.697
542.775	395.333
545.642	409.539
548.506	413.376
551.369	397.67
554.231	396.297
557.092	385.048
559.951	398.576
562.808	402.651
565.664	427.445
568.519	474.705
571.373	545.344
574.225	659.639
577.076	776.329
579.925	815.583
582.773	794.782
585.62	702.529
588.466	607.032
591.309	496.877
594.152	446.852
596.993	407.249
599.832	380.812
602.671	373.808
605.508	361.514
608.343	347.091
611.178	347.074
614.011	339.159
616.842	357.27
619.672	337.155
622.501	339.239
625.329	347.071
628.155	348.512
630.98	349.967
633.802	360.618
636.624	361.561
639.445	362.962
642.264	368.887
645.082	371.906
647.898	357.501
650.714	345.155
653.527	336.994
656.34	329.786
659.151	330.437
661.961	322.072
664.769	322.872
667.576	315.119
670.382	327.995
673.186	319.958
675.989	327.904
678.791	342.241
681.591	348.704
684.39	349.651
687.187	347.784
689.983	340.626
692.779	346.245
695.572	330.073
698.363	341.106
701.155	343.695
703.944	347.928
706.733	349.454
709.519	341.183
712.305	335.411
715.089	330.584
717.871	321.848
720.653	320.341
723.433	318.126
726.212	319.405
728.989	312.149
731.765	306.842
734.54	309.253
737.313	303.591
740.085	300.454
742.856	292.159
745.625	291.849
748.394	296.829
751.16	291.329
753.926	290.517
756.689	284.786
759.452	292.381
762.214	285.867
764.974	284.76
767.733	296.459
770.49	299.606
773.246	310.145
776.001	311.712
778.755	313.09
781.507	300.607
784.258	291.929
787.007	286.753
789.756	277.431
792.502	286.951
795.247	279.301
797.992	285.237
800.735	279.26
803.477	278.927
806.217	278.979
808.956	282.397
811.694	287.104
814.43	305.603
817.165	304.696
819.899	308.292
822.631	305.055
825.362	310.853
828.092	307.259
830.82	304.755
833.548	300.159
836.274	298.613
838.998	288.326
841.721	293.804
844.444	281.333
847.165	276.762
849.884	280.03
852.601	285.884
855.318	281.003
858.034	276.87
860.749	280.736
863.461	273.445
866.173	273.829
868.883	273.064
871.592	271.12
874.3	276.816
877.006	260.886
879.712	277.576
882.415	269.849
885.118	264.368
887.819	273.724
890.519	269.888
893.218	269.221
895.914	271.109
898.611	274.406
901.306	272.571
903.999	269.463
906.692	269.144
909.382	267.953
912.072	267.531
914.761	254.604
917.447	253.815
920.133	254.27
922.818	248.654
925.501	255.555
928.183	246.162
930.864	257.003
933.543	245.579
936.221	253.862
938.898	250.014
941.574	246.476
944.248	253.237
946.921	251.626
949.593	247.167
952.263	241.278
954.932	244.738
957.6	257.261
960.267	261.764
962.932	255.926
965.597	257.617
968.26	260.765
970.922	254.761
973.581	261.242
976.241	255.797
978.898	249.043
981.555	252.718
984.21	251.818
986.864	259.178
989.517	256.144
992.169	261.176
994.819	271.764
997.468	268.945
1000.12	270.534
1002.76	265.559
1005.41	268.259
1008.05	269.922
1010.69	267.539
1013.34	274.559
1015.98	274.571
1018.61	270.151
1021.25	263.71
1023.89	260.445
1026.52	258.931
1029.16	266.718
1031.79	273.969
1034.42	275.591
1037.05	279.209
1039.68	276.838
1042.31	280.738
1044.93	295.988
1047.56	309.57
1050.18	316.071
1052.81	338.23
1055.43	368.065
1058.05	441.68
1060.67	526.93
1063.28	681.647
1065.9	881.973
1068.52	1095.87
1071.13	1232.79
1073.74	1278.35
1076.35	1181.76
1078.96	1020.11
1081.57	840.035
1084.18	690.945
1086.79	593.81
1089.39	533.408
1092	506.374
1094.6	502.384
1097.2	473.27
1099.8	440.418
1102.4	410.403
1105	390.801
1107.6	372.242
1110.19	369.13
1112.79	363.736
1115.38	361.961
1117.97	358.892
1120.56	363.472
1123.15	370.087
1125.74	360.898
1128.33	330.527
1130.91	315.782
1133.5	309.547
1136.08	294.427
1138.66	285.218
1141.24	294.341
1143.82	295.222
1146.4	295.787
1148.98	297.104
1151.55	301.946
1154.13	295.237
1156.7	294.533
1159.27	293.356
1161.85	306.937
1164.42	300.151
1166.98	336.084
1169.55	377.492
1172.12	425.567
1174.68	472.059
1177.25	473.428
1179.81	459.54
1182.37	414.563
1184.93	366.245
1187.49	332.773
1190.05	302.487
1192.6	309.329
1195.16	306.241
1197.71	315.372
1200.27	311.834
1202.82	310.824
1205.37	292.049
1207.92	274.585
1210.47	266.63
1213.01	259.006
1215.56	265.19
1218.1	263.044
1220.65	258.293
1223.19	261.557
1225.73	261.354
1228.27	265.717
1230.81	267.581
1233.35	269.776
1235.88	272.531
1238.42	274.168
1240.95	278.979
1243.48	279.369
1246.02	285.998
1248.55	274.133
1251.07	279.16
1253.6	279.465
1256.13	283.729
1258.66	283.363
1261.18	282.167
1263.7	277.186
1266.22	282.636
1268.75	282.839
1271.27	289.224
1273.78	280.997
1276.3	288.649
1278.82	285.094
1281.33	283.196
1283.85	286.949
1286.36	279.617
1288.87	279.395
1291.38	283.061
1293.89	285.829
1296.4	287.037
1298.9	275.111
1301.41	279.649
1303.91	273.37
1306.41	281.441
1308.92	274.913
1311.42	272.003
1313.92	282.111
1316.42	270.778
1318.91	280.96
1321.41	281.662
1323.9	277.978
1326.4	277.27
1328.89	285.585
1331.38	287.946
1333.87	285.105
1336.36	296.041
1338.85	273.294
1341.34	268.181
1343.82	270.072
1346.31	268.259
1348.79	263.553
1351.27	261.466
1353.75	262.041
1356.23	264.276
1358.71	256.514
1361.19	261.72
1363.66	269.617
1366.14	254.464
1368.61	270.217
1371.09	273.274
1373.56	266.42
1376.03	276.889
1378.5	280.739
1380.96	278.032
1383.43	276.293
1385.9	278.206
1388.36	258.343
1390.83	252.059
1393.29	248.951
1395.75	245.093
1398.21	240.407
1400.67	238.983
1403.13	241.687
1405.58	240.406
1408.04	239.255
1410.49	232.356
1412.95	235.976
1415.4	226.714
1417.85	237.859
1420.3	228.148
1422.75	226.825
1425.2	229.594
1427.64	222.038
1430.09	227.956
1432.53	227.032
1434.97	218.939
1437.42	232.913
1439.86	226.394
1442.3	227.484
1444.73	227.886
1447.17	226.665
1449.61	227.63
1452.04	238.496
1454.48	227.913
1456.91	232.054
1459.34	234.223
1461.77	245.462
1464.2	239.69
1466.63	240.418
1469.06	249.531
1471.48	253.753
1473.91	260.053
1476.33	264.628
1478.75	253.739
1481.17	237.63
1483.6	235.59
1486.01	224.037
1488.43	216.368
1490.85	214.242
1493.27	213.861
1495.68	207.681
1498.09	208.761
1500.51	204.751
1502.92	202.45
1505.33	205.256
1507.74	208.273
1510.14	207.352
1512.55	210
1514.96	207.696
1517.36	211.312
1519.77	210.669
1522.17	218.15
1524.57	220.02
1526.97	218.839
1529.37	222.762
1531.77	217.104
1534.16	213.354
1536.56	219.452
1538.95	207.596
1541.35	217.838
1543.74	200.229
1546.13	210.471
1548.52	212.186
1550.91	214.969
1553.3	217.264
1555.68	219.593
1558.07	225.855
1560.45	238.879
1562.84	239.1
1565.22	254.704
1567.6	271.849
1569.98	300.829
1572.36	336.356
1574.74	400.09
1577.12	486.845
1579.49	563.596
1581.87	631.083
1584.24	672.85
1586.61	639.548
1588.98	563.246
1591.35	479.606
1593.72	412.111
1596.09	342.613
1598.46	300.27
1600.82	271.89
1603.19	266.667
1605.55	256.315
1607.92	231.342
1610.28	226.132
1612.64	215.973
1615	208.651
1617.36	200.834
1619.71	208.148
1622.07	193.934
1624.42	197.973
1626.78	181.692
1629.13	180.83
1631.48	173.373
1633.83	181.687
1636.18	166.269
1638.53	165.424
1640.88	157.25
1643.22	164.02
1645.57	147.542
1647.91	147.222
1650.26	141.22
1652.6	146.492
1654.94	142.674
1657.28	145.214
1659.62	143.429
1661.96	140.717
1664.29	133.205
1666.63	124.31
1668.96	131.42
1671.3	131.186
1673.63	118.857
1675.96	122.867
1678.29	120.284
1680.62	120.958
1682.95	120.72
1685.27	113.264
1687.6	110.432
1689.92	113.422
1692.25	105.436
1694.57	108.465
1696.89	116.4
1699.21	108.068
1701.53	109.165
1703.85	104.381
1706.17	110.493
1708.48	108.095
1710.8	104.89
1713.11	101.667
1715.43	106.974
1717.74	104.352
1720.05	98.043
1722.36	95.1085
1724.67	101.608
1726.97	100.425
1729.28	97.7589
1731.59	99.3838
1733.89	92.2308
1736.19	99.5559
1738.5	104.908
1740.8	95.8708
1743.1	92.892
1745.4	91.8254
1747.7	92.4476
1749.99	91.9175
1752.29	91.9091
1754.58	91.9803
1756.88	85.9224
1759.17	85.4293
1761.46	89.7562
1763.75	86.5348
1766.04	86.2207
1768.33	84.6763
1770.62	90.1446
1772.91	86.8765
1775.19	86.2207
1777.48	78.1416
1779.76	84.3611
1782.04	84.383
1784.32	85.9163
1786.6	82.7598
1788.88	79.5891
1791.16	83.555
1793.44	82.4439
1795.71	86.159
1797.99	81.0479
1800.26	83.3654
1802.54	80.951
1804.81	82.8076
1807.08	79.8294
1809.35	77.9073
1811.62	76.5699
1813.88	79.4574
1816.15	79.0152
1818.42	80.1602
1820.68	78.8872
1822.95	76.9543
1825.21	76.6993
1827.47	79.042
1829.73	76.4596
1831.99	78.8608
1834.25	75.9233
1836.51	77.6536
1838.76	73.0305
1841.02	78.0108
1843.27	80.2918
1845.52	73.739
1847.78	75.5148
1850.03	72.4646
1852.28	74.1066
1854.53	72.1779
1856.78	72.8122
1859.02	69.3669
1861.27	72.9759
1863.51	72.3117
1865.76	70.4504
1868	70.6775
1870.24	75.1102
1872.48	70.7095
1874.72	73.231
1876.96	70.7244
1879.2	74.5311
1881.44	70.4439
1883.67	73.9784
1885.91	68.9803
1888.14	71.2322
1890.37	65.4958
1892.61	67.7639
1894.84	68.1298
1897.07	72.0845
1899.29	71.8355
1901.52	66.6767
1903.75	77.8691
1905.97	71.5196
1908.2	67.793
1910.42	70.5148
1912.64	69.5566
1914.87	72.6767
1917.09	65.592
1919.31	67.2225
1921.52	73.3535
1923.74	67.5594
1925.96	64.4192
1928.17	68.6477
1930.39	64.5509
1932.6	65.6571
1934.81	61.6089
1937.03	68.0088
1939.24	65.9082
1941.45	66.2633
1943.65	62.4085
1945.86	69.4596
1948.07	63.7362
1950.27	60.8883
1952.48	61.0752
1954.68	63.9212
1956.88	68.2196
1959.08	65.5615
1961.29	62.2083
1963.48	62.9585
1965.68	64.4008
1967.88	60.737
1970.08	64.6187
1972.27	57.4039
1974.47	62.8985
1976.66	62.718
1978.85	61.7201
1981.04	61.5177
1983.23	60.0525
1985.42	64.2529
1987.61	61.4439
1989.8	56.9184
1991.99	59.6261
1994.17	59.681
1996.36	65.3669
1998.54	60.1786
2000.72	60.3194
2002.9	55.122
2005.08	62.122
2007.26	61.3393
2009.44	61.9167
2011.62	57.483
2013.8	57.8691
2015.97	60.4873
2018.15	58.0959
2020.32	53.1816
2022.49	59.6661
2024.66	62.0479
2026.83	56.9457
2029	55.7115
2031.17	59.2207
2033.34	54.8891
2035.51	52.5196
2037.67	54.7724
2039.84	53.718
2042	58.1682
2044.16	55.2054
2046.32	57.5891
2048.48	54.9861
2050.64	51.42
2052.8	54.9402
2054.96	54.3328
2057.12	53.4553
2059.27	52.6302
2061.43	55.4958
2063.58	56.2928
2065.73	53.5417
2067.89	54.6515
2070.04	50.0202
2072.19	56.4574
2074.34	53.047
2076.48	52.9983
2078.63	55.6344
2080.78	54.8105
2082.92	55.1581
2085.07	55.1446
2087.21	53.7639
2089.35	55.2322
2091.49	53.9995
2093.63	56.7589
2095.77	52.2033
2097.91	53.961
2100.05	54.2015
2102.19	54.5489
2104.32	49.3803
2106.45	52.3632
2108.59	58.7754
2110.72	57.7201
2112.85	55.3193
2114.98	58.2966
2117.11	65.2701
2119.24	58.7878
2121.37	61.9811
2123.5	62.6233
2125.62	65.2045
2127.75	69.7323
2129.87	65.9604
2131.99	66.1484
2134.11	67.2517
2136.24	67.8268
2138.36	66.1106
2140.47	61.5091
2142.59	61.4256
2144.71	60.2509
2146.83	57.8085
2148.94	58.422
2151.06	58.9405
2153.17	52.8977
2155.28	49.9775
2157.39	50.7143
2159.5	54.2974
2161.61	50.7201
2163.72	52.2322
2165.83	50.6025
2167.94	52.2936
2170.04	51.267
2172.15	51.2282
2174.25	46.4204
2176.35	48.8989
2178.45	52.1171
2180.56	48.7287
2182.66	46.9035
2184.75	50.6726
2186.85	47.0895
2188.95	48.9946
2191.05	47.4399
2193.14	47.4429
2195.24	47.7763
2197.33	49.4923
2199.42	50.3584
2201.51	46.667
2203.6	47.5397
2205.69	49.8985
2207.78	53.6708
2209.87	55.2709
2211.96	59.3194
2214.04	65.3011
2216.13	74.4381
2218.21	88.8056
2220.29	103.232
2222.38	127.555
2224.46	131.297
2226.54	137.145
2228.62	133.403
2230.69	125.734
2232.77	109.308
2234.85	93.3193
2236.92	85.0479
2239	72.7447
2241.07	64.3194
2243.15	60.4247
2245.22	56.6543
2247.29	50.6069
2249.36	52.0356
2251.43	49.4421
2253.49	47.3803
2255.56	46.5702
2257.63	44.8113
2259.69	44.049
2261.76	41.6897
2263.82	46.1455
2265.88	44.1972
2267.95	40.0886
2270.01	39.8883
2272.07	36.892
2274.12	38.6528
2276.18	39.3421
2278.24	41.0307
2280.3	40.573
2282.35	38.2233
2284.41	39.4352
2286.46	37.1941
2288.51	38.3337
2290.56	37.8513
2292.61	39.4237
2294.66	38.7781
2296.71	37.6726
2298.76	36.3555
2300.8	35.9367
2302.85	40.3091
2304.9	34.3904
2306.94	35.6898
2308.98	37.6025
2311.03	39.1444
2313.07	38.8085
2315.11	35.6583
2317.15	35.1114
2319.19	36.4749
2321.22	33.1389
2323.26	37.853
2325.3	37.5879
2327.33	39.5652
2329.36	36.4504
2331.4	37.529
2333.43	36.1847
2335.46	36.6072
2337.49	32.2735
2339.52	35.5854
2341.55	36.1682
2343.58	34.2331
2345.6	39.2254
2347.63	44.6434
2349.65	32.8797
2351.68	36.1254
2353.7	37.8843
2355.72	35.1106
2357.74	33.0752
2359.76	36.0479
2361.78	35.6775
2363.8	34.7052
2365.82	31.592
2367.84	35.4594
2369.85	33.7735
2371.87	31.0278
2373.88	35.2558
2375.9	38.59
2377.91	36.7872
2379.92	34.0193
2381.93	34.0668
2383.94	34.7781
2385.95	28.9167
2387.96	33.9625
2389.96	35.1674
2391.97	32.0513
2393.97	34.9409
2395.98	32.8504
2397.98	33.8997
2399.98	30.2651
2401.98	31.7534
2403.99	30.9995
2405.99	31.2558
2407.98	34.1608
2409.98	31.2113
2411.98	33.7878
2413.98	31.1284
2415.97	34.035
2417.96	31.699
2419.96	31.6698
2421.95	29.3109
2423.94	30.5472
2425.93	28.3117
2427.92	29.42
2429.91	28.4645
2431.9	30.7907
2433.89	30.946
2435.87	28.6053
2437.86	30.875
2439.84	29.3193
2441.83	31.3954
2443.81	32.8682
2445.79	30.3859
2447.77	31.803
2449.75	27.3089
2451.73	30.8608
2453.71	27.4574
2455.69	27.9916
2457.67	29.497
2459.64	27.0571
2461.62	27.5854
2463.59	31.4089
2465.56	29.189
2467.54	27.3803
2469.51	25.555
2471.48	29.1171
2473.45	30.6686
2475.42	31.1636
2477.38	28.9576
2479.35	29.7809
2481.32	30.4402
2483.28	33.793
2485.25	26.7886
2487.21	28.4838
2489.17	27.5869
2491.13	27.343
2493.09	26.9274
2495.05	29.4771
2497.01	28.4553
2498.97	25.4229
2500.93	28.6796
2502.89	26.5941
2504.84	27.6423
2506.8	25.8091
2508.75	28.2754
2510.7	27.1446
2512.65	29.3421
2514.61	25.385
2516.56	28.3433
2518.51	27.1855
2520.45	26.7164
2522.4	27.1341
2524.35	24.2322
2526.29	28.5168
2528.24	26.3563
2530.18	25.5975
2532.13	28.1789
2534.07	30.5851
2536.01	25.2928
2537.95	28.9719
2539.89	25.8113
2541.83	23.8682
2543.77	27.6571
2545.71	27.0138
2547.64	25.2909
2549.58	26.625
2551.51	26.9803
2553.45	27.4247
2555.38	29.8483
2557.31	27.7372
2559.25	27.4406
2561.18	24.4314
2563.11	25.7075
2565.03	25.8113
2566.96	28.0109
2568.89	23.7002
2570.82	25.8045
2572.74	27.4752
2574.67	23.555
2576.59	27.8891
2578.51	24.3669
2580.43	27.4448
2582.36	25.9638
2584.28	23.8989
2586.2	25.3477
2588.11	25.9669
2590.03	23.555
2591.95	24.9018
2593.86	26.3089
2595.78	26.0562
2597.69	24.7866
2599.61	28.2188
2601.52	26.483
2603.43	26.9187
2605.34	28.5481
2607.25	23.8648
2609.16	23.9625
2611.07	27.0335
2612.98	26.7476
2614.89	25.3942
2616.79	23.8294
2618.7	30.8538
2620.6	25.4002
2622.5	28.8749
2624.41	25.1863
2626.31	24.7078
2628.21	25.3433
2630.11	28.3293
2632.01	28.7011
2633.91	29.4961
2635.8	29.6325
2637.7	29.4171
2639.6	26.6897
2641.49	30.9641
2643.39	27.6766
2645.28	31.4182
2647.17	33.4229
2649.06	38.2083
2650.95	33.5217
2652.84	34.9367
2654.73	31.483
2656.62	31.9441
2658.51	30.9737
2660.4	27.9359
2662.28	33.3803
2664.17	32.1284
2666.05	30.0752
2667.93	34.4541
2669.82	35.7781
2671.7	49.832
2673.58	64.7335
2675.46	77.1028
2677.34	79.2701
2679.21	75.4788
2681.09	70.3442
2682.97	72.4411
2684.84	60.8504
2686.72	47.6953
2688.59	54.7874
2690.47	62.5189
2692.34	91.1522
2694.21	165.81
2696.08	364.797
2697.95	372.734
2699.82	202.865
2701.69	120.031
2703.56	60.478
2705.42	68.7936
2707.29	47.7399
2709.15	37.4382
2711.02	37.443
2712.88	32.0335
2714.75	31.29
2716.61	29.2558
2718.47	26.9793
2720.33	26.4914
2722.19	27.4645
2724.05	28.1624
2725.9	29.0646
2727.76	29.0705
2729.62	26.3421
2731.47	29.5643
2733.33	31.1438
2735.18	26.2083
2737.03	28.1332
2738.88	28.0201
2740.73	24.7136
2742.59	24.7402
2744.43	25.0479
2746.28	24.8875
2748.13	25.6034
2749.98	23.8883
2751.82	21.1863
2753.67	27.553
2755.51	25.3838
2757.36	26.1199
2759.2	24.7145
2761.04	24.7772
2762.88	24.6813
