365.286	1036.67
368.238	979.05
371.189	907.346
374.139	847.332
377.087	798.759
380.034	789.607
382.979	763.344
385.923	746.139
388.866	743.474
391.806	744.377
394.745	744.276
397.684	769.02
400.62	763.735
403.555	758.209
406.49	734.792
409.421	718.596
412.353	694.905
415.282	680.679
418.209	699.136
421.137	662.451
424.062	678.206
426.985	674.729
429.908	680.343
432.829	695.539
435.748	711.724
438.666	734.359
441.583	734.855
444.498	726.221
447.412	698.309
450.324	699.778
453.235	691.305
456.145	702.013
459.052	712.606
461.959	712.189
464.865	709.695
467.769	699.772
470.671	712.177
473.572	707.827
476.471	701.613
479.37	722.467
482.266	744.149
485.162	762.402
488.056	758.307
490.948	767.263
493.839	771.097
496.73	768.334
499.618	747.489
502.505	727.978
505.39	707.153
508.275	698.411
511.157	675.219
514.039	675.372
516.919	664.219
519.798	650.678
522.674	621.93
525.55	617.687
528.425	595.497
531.297	592.671
534.169	603.64
537.039	608.917
539.908	624.39
542.775	637.205
545.642	643.899
548.506	646.028
551.369	607.55
554.231	601.013
557.092	597.608
559.951	610.199
562.808	642.721
565.664	695.068
568.519	814.902
571.373	985.017
574.225	1206.66
577.076	1417.54
579.925	1407.33
582.773	1238.1
585.62	1027.79
588.466	849.152
591.309	717.136
594.152	650.225
596.993	603.399
599.832	571.317
602.671	562.873
605.508	535.362
608.343	544.171
611.178	537.932
614.011	518.432
616.842	523.221
619.672	539.427
622.501	548.303
625.329	555.321
628.155	546.059
630.98	552.021
633.802	559.919
636.624	569.999
639.445	582.198
642.264	575.09
645.082	555.787
647.898	543.683
650.714	534.9
653.527	521.026
656.34	523.898
659.151	498.633
661.961	500.777
664.769	514.204
667.576	502.762
670.382	505.609
673.186	513.177
675.989	512.988
678.791	531.559
681.591	529.734
684.39	526
687.187	532.216
689.983	534.217
692.779	529.655
695.572	539.276
698.363	535.028
701.155	548.988
703.944	567.615
706.733	541.21
709.519	532.02
712.305	533.332
715.089	527.09
717.871	519.752
720.653	518.584
723.433	504.666
726.212	516.179
728.989	510.046
731.765	510.435
734.54	495.553
737.313	491.83
740.085	483.618
742.856	473.906
745.625	463.438
748.394	470.983
751.16	470.024
753.926	458.374
756.689	456.941
759.452	464.9
762.214	452.584
764.974	471.953
767.733	468.09
770.49	480.427
773.246	502.12
776.001	513.873
778.755	509.182
781.507	480.205
784.258	464.101
787.007	455.629
789.756	459.682
792.502	462.028
795.247	456.163
797.992	460.608
800.735	459.894
803.477	474.221
806.217	468.245
808.956	472.805
811.694	502.785
814.43	506.912
817.165	518.29
819.899	532.578
822.631	521.389
825.362	509.762
828.092	503.764
830.82	489.29
833.548	486.888
836.274	486.452
838.998	470.984
841.721	468.963
844.444	461.731
847.165	467.083
849.884	454.317
852.601	444.859
855.318	447.731
858.034	440.564
860.749	440.016
863.461	440.107
866.173	451.185
868.883	442.611
871.592	445.743
874.3	436.744
877.006	433.802
879.712	431.442
882.415	427.355
885.118	437.731
887.819	429.97
890.519	423.837
893.218	435.522
895.914	424.507
898.611	420.794
901.306	410.163
903.999	419.333
906.692	422.954
909.382	413.527
912.072	409.371
914.761	405.384
917.447	416.647
920.133	408.277
922.818	423.166
925.501	422.034
928.183	426.459
930.864	423.144
933.543	419.061
936.221	420.218
938.898	411.201
941.574	427.275
944.248	417.467
946.921	425.037
949.593	421.453
952.263	411.721
954.932	403.192
957.6	403.189
960.267	406.983
962.932	413.871
965.597	413.871
968.26	413.009
970.922	416.522
973.581	415.877
976.241	427.171
978.898	426.902
981.555	431.078
984.21	439.211
986.864	431.086
989.517	438.842
992.169	426.483
994.819	427.288
997.468	433.791
1000.12	441.054
1002.76	461.161
1005.41	451.219
1008.05	466.043
1010.69	477.004
1013.34	461.777
1015.98	460.692
1018.61	455.267
1021.25	421.864
1023.89	435.688
1026.52	439.423
1029.16	437.435
1031.79	443.828
1034.42	472.213
1037.05	479.219
1039.68	505.93
1042.31	534.197
1044.93	564.966
1047.56	580.732
1050.18	616.642
1052.81	676.534
1055.43	784.386
1058.05	976.12
1060.67	1282.9
1063.28	1700.01
1065.9	2226.89
1068.52	2676.82
1071.13	2866.22
1073.74	2676.57
1076.35	2237.69
1078.96	1743.53
1081.57	1353.46
1084.18	1083.39
1086.79	902.103
1089.39	787.847
1092	728.914
1094.6	682.972
1097.2	625.88
1099.8	598.79
1102.4	564.26
1105	535.06
1107.6	504.11
1110.19	524.371
1112.79	497.491
1115.38	512.577
1117.97	506.927
1120.56	500.961
1123.15	486.568
1125.74	489.358
1128.33	465.218
1130.91	472.807
1133.5	452.639
1136.08	448.92
1138.66	452.32
1141.24	461.221
1143.82	453.086
1146.4	469.633
1148.98	488.078
1151.55	494.232
1154.13	508.667
1156.7	523.884
1159.27	532.552
1161.85	548.818
1164.42	579.287
1166.98	640.527
1169.55	775.34
1172.12	895.065
1174.68	964.756
1177.25	962.404
1179.81	861.775
1182.37	739.553
1184.93	638.873
1187.49	581.185
1190.05	556.428
1192.6	555.142
1195.16	588.737
1197.71	584.099
1200.27	553.42
1202.82	530.034
1205.37	508.321
1207.92	477.877
1210.47	463.594
1213.01	454.115
1215.56	451.585
1218.1	451.952
1220.65	444.322
1223.19	440.986
1225.73	450.107
1228.27	450.407
1230.81	466.654
1233.35	452.843
1235.88	457.41
1238.42	461.54
1240.95	455.852
1243.48	451.554
1246.02	467.859
1248.55	460.664
1251.07	468.717
1253.6	452.65
1256.13	460.853
1258.66	470.261
1261.18	461.122
1263.7	459.153
1266.22	455.449
1268.75	456.663
1271.27	456.299
1273.78	453.072
1276.3	455.787
1278.82	446.731
1281.33	441.849
1283.85	439.078
1286.36	447.372
1288.87	453.448
1291.38	448.639
1293.89	443.074
1296.4	462.359
1298.9	443.538
1301.41	437.338
1303.91	446.639
1306.41	427.75
1308.92	431.281
1311.42	441.338
1313.92	432.794
1316.42	433.25
1318.91	425.334
1321.41	423.491
1323.9	425.216
1326.4	419.004
1328.89	427.537
1331.38	437.984
1333.87	428.773
1336.36	425.192
1338.85	430.129
1341.34	428.438
1343.82	424.65
1346.31	426.536
1348.79	418.612
1351.27	420.581
1353.75	423.779
1356.23	416.38
1358.71	419.996
1361.19	417.047
1363.66	429.492
1366.14	411.65
1368.61	415.359
1371.09	413.581
1373.56	423.094
1376.03	411.816
1378.5	423.387
1380.96	410.094
1383.43	427.062
1385.9	421.359
1388.36	430.358
1390.83	424.05
1393.29	431.314
1395.75	430.804
1398.21	448.342
1400.67	433.87
1403.13	430.256
1405.58	418.281
1408.04	424.593
1410.49	403.714
1412.95	401.158
1415.4	394.269
1417.85	395.762
1420.3	394.693
1422.75	397.983
1425.2	403.612
1427.64	398.074
1430.09	385.575
1432.53	386.097
1434.97	389.772
1437.42	378.44
1439.86	381.058
1442.3	380.84
1444.73	382.979
1447.17	389.761
1449.61	399.732
1452.04	411.927
1454.48	412.282
1456.91	425.603
1459.34	438.408
1461.77	433.047
1464.2	447.936
1466.63	460.281
1469.06	477.586
1471.48	486.149
1473.91	491.679
1476.33	466.923
1478.75	445.825
1481.17	421.515
1483.6	412.108
1486.01	411.317
1488.43	405.034
1490.85	389.14
1493.27	391.327
1495.68	380.593
1498.09	388.896
1500.51	389.703
1502.92	383.675
1505.33	389.164
1507.74	385.926
1510.14	379.873
1512.55	384.275
1514.96	381.354
1517.36	383.317
1519.77	386.451
1522.17	378.195
1524.57	391.245
1526.97	389.679
1529.37	389.012
1531.77	389.387
1534.16	396.566
1536.56	396.995
1538.95	397.761
1541.35	391.999
1543.74	403.059
1546.13	401.597
1548.52	415.546
1550.91	425.704
1553.3	433.65
1555.68	461.111
1558.07	476.49
1560.45	493.606
1562.84	523.26
1565.22	587.691
1567.6	642.041
1569.98	746.814
1572.36	882.917
1574.74	1050.02
1577.12	1244.37
1579.49	1399.72
1581.87	1468.13
1584.24	1366.14
1586.61	1170.24
1588.98	982
1591.35	794.708
1593.72	654.498
1596.09	585.597
1598.46	513.264
1600.82	453.782
1603.19	435.14
1605.55	402.594
1607.92	386
1610.28	372.243
1612.64	357.61
1615	348.153
1617.36	335.256
1619.71	325.198
1622.07	322.177
1624.42	304.9
1626.78	296.221
1629.13	287.068
1631.48	281.492
1633.83	273.139
1636.18	269.032
1638.53	259.839
1640.88	254.988
1643.22	257.485
1645.57	246.534
1647.91	238.975
1650.26	240.88
1652.6	234.226
1654.94	236.833
1657.28	221.468
1659.62	221.028
1661.96	213.643
1664.29	211.456
1666.63	206.689
1668.96	196.263
1671.3	195.684
1673.63	187.017
1675.96	186.123
1678.29	187.601
1680.62	181.602
1682.95	177.67
1685.27	179.737
1687.6	167.863
1689.92	170.988
1692.25	162.478
1694.57	160.796
1696.89	162.351
1699.21	163.234
1701.53	156.39
1703.85	152.491
1706.17	156.818
1708.48	161.881
1710.8	153.226
1713.11	150.279
1715.43	151.974
1717.74	149.227
1720.05	150.906
1722.36	149.951
1724.67	146.573
1726.97	138.765
1729.28	151.292
1731.59	150.53
1733.89	141.458
1736.19	146.139
1738.5	140.226
1740.8	139.584
1743.1	138.975
1745.4	139.889
1747.7	133.646
1749.99	133.335
1752.29	134.93
1754.58	131.803
1756.88	132.596
1759.17	130.39
1761.46	129.019
1763.75	129.576
1766.04	127.265
1768.33	124.695
1770.62	127.225
1772.91	130.434
1775.19	121.935
1777.48	124.501
1779.76	125.016
1782.04	125.905
1784.32	120.559
1786.6	117.241
1788.88	121.281
1791.16	118.518
1793.44	119.686
1795.71	110.406
1797.99	120.559
1800.26	119.574
1802.54	109.713
1804.81	113.99
1807.08	111.225
1809.35	114.892
1811.62	114.321
1813.88	107.585
1816.15	112.713
1818.42	115.571
1820.68	114.379
1822.95	112.207
1825.21	114.713
1827.47	110.571
1829.73	111.49
1831.99	114.67
1834.25	112.604
1836.51	114.34
1838.76	108.281
1841.02	108.17
1843.27	114.275
1845.52	115.241
1847.78	109.654
1850.03	109.435
1852.28	107.215
1854.53	108.974
1856.78	101.559
1859.02	103.987
1861.27	101.193
1863.51	102.654
1865.76	105.571
1868	100.439
1870.24	103.328
1872.48	100.47
1874.72	100.879
1876.96	101.704
1879.2	102.752
1881.44	100.781
1883.67	103.634
1885.91	95.4907
1888.14	101.546
1890.37	101.914
1892.61	97.3079
1894.84	98.1232
1897.07	97.7826
1899.29	102.149
1901.52	101.725
1903.75	102.879
1905.97	100.214
1908.2	101.101
1910.42	96.0616
1912.64	100.972
1914.87	98.098
1917.09	101.463
1919.31	97.0406
1921.52	97.0189
1923.74	95.0459
1925.96	96.0409
1928.17	92.4191
1930.39	93.7813
1932.6	101.744
1934.81	97.7398
1937.03	92.3981
1939.24	97.6413
1941.45	98.0035
1943.65	92.6411
1945.86	96.018
1948.07	87.4903
1950.27	89.6203
1952.48	99.3397
1954.68	90.8924
1956.88	93.3202
1959.08	91.3202
1961.29	92.1143
1963.48	92.1166
1965.68	93.5713
1967.88	91.5298
1970.08	94.5501
1972.27	89.1759
1974.47	92.2393
1976.66	90.5587
1978.85	92.7809
1981.04	87.1965
1983.23	89.1727
1985.42	88.4613
1987.61	86.5349
1989.8	85.07
1991.99	81.3159
1994.17	83.7003
1996.36	89.988
1998.54	87.017
2000.72	83.5267
2002.9	88.9046
2005.08	86.0035
2007.26	84.13
2009.44	83.1885
2011.62	83.5176
2013.8	90.6567
2015.97	83.8632
2018.15	85.5965
2020.32	87.1394
2022.49	81.0035
2024.66	82.324
2026.83	84.0189
2029	85.2411
2031.17	82.9351
2033.34	84.3608
2035.51	83.5777
2037.67	83.7813
2039.84	78.238
2042	80.1018
2044.16	82.4187
2046.32	77.1968
2048.48	80.684
2050.64	80.8758
2052.8	81.4479
2054.96	85.5302
2057.12	82.9421
2059.27	81.5465
2061.43	80.1285
2063.58	81.8187
2065.73	80.7844
2067.89	80.1674
2070.04	78.0031
2072.19	82.7844
2074.34	81.8394
2076.48	79.6824
2078.63	79.8837
2080.78	80.7367
2082.92	78.1074
2085.07	81.6701
2087.21	80.3076
2089.35	77.3653
2091.49	75.2257
2093.63	82.4976
2095.77	83.7813
2097.91	82.3491
2100.05	81.4696
2102.19	75.0857
2104.32	79.8923
2106.45	84.5176
2108.59	81.5465
2110.72	82.99
2112.85	88
2114.98	90.6576
2117.11	92.1447
2119.24	88.8187
2121.37	90.4602
2123.5	87.0854
2125.62	97.2131
2127.75	93.5215
2129.87	86.3079
2131.99	91.3368
2134.11	90.337
2136.24	88.8889
2138.36	88.9211
2140.47	88.5556
2142.59	81.7524
2144.71	81.3111
2146.83	79.0189
2148.94	86.4476
2151.06	80.8635
2153.17	78.5713
2155.28	81.2286
2157.39	78.9298
2159.5	80.0035
2161.61	77.13
2163.72	77.1643
2165.83	79.8766
2167.94	77.6837
2170.04	76.9194
2172.15	83.7809
2174.25	74.2257
2176.35	77.6824
2178.45	72.559
2180.56	78.6667
2182.66	77.9046
2184.75	72.4602
2186.85	72.2257
2188.95	72.3624
2191.05	74.0031
2193.14	70.1146
2195.24	72.4156
2197.33	76.7521
2199.42	76.0031
2201.51	82.1517
2203.6	82.3365
2205.69	87.3772
2207.78	95.0854
2209.87	108.003
2211.96	123.985
2214.04	151.274
2216.13	189.757
2218.21	232.242
2220.29	265.567
2222.38	295.939
2224.46	300.875
2226.54	293.624
2228.62	247.132
2230.69	217.355
2232.77	186.916
2234.85	155.819
2236.92	132.686
2239	114.765
2241.07	102.546
2243.15	94.152
2245.22	85.238
2247.29	78.7107
2249.36	83.3202
2251.43	73.8635
2253.49	72.8632
2255.56	73.6535
2257.63	67.3661
2259.69	66.3865
2261.76	65.1268
2263.82	65.8635
2265.88	62.7398
2267.95	66.1146
2270.01	59.7678
2272.07	55.4907
2274.12	65.6451
2276.18	63.0532
2278.24	58.4511
2280.3	59.9743
2282.35	58.0031
2284.41	57.7813
2286.46	55.5302
2288.51	57.1968
2290.56	58.3079
2292.61	58.4602
2294.66	57.1268
2296.71	57.9046
2298.76	55.5622
2300.8	55.5622
2302.85	54.6698
2304.9	57.152
2306.94	57.2631
2308.98	52.5965
2311.03	60.1968
2313.07	56.2411
2315.11	59.6699
2317.15	55.1268
2319.19	56.3507
2321.22	56.8889
2323.26	59.6535
2325.3	56.6698
2327.33	53.0064
2329.36	56.3739
2331.4	55.962
2333.43	53.3333
2335.46	50.4583
2337.49	54.3502
2339.52	53.6535
2341.55	55.1934
2343.58	50.6667
2345.6	55.7521
2347.63	68.9046
2349.65	55.4476
2351.68	49.1143
2353.7	50.4602
2355.72	59.7935
2357.74	56.2631
2359.76	52.8517
2361.78	54.7813
2363.8	52.8478
2365.82	52.7935
2367.84	52.1643
2369.85	49.6535
2371.87	52.8548
2373.88	55.918
2375.9	51.9589
2377.91	50.9743
2379.92	50.0563
2381.93	50.2257
2383.94	48.6576
2385.95	47.6409
2387.96	51.0563
2389.96	50.4102
2391.97	47.6018
2393.97	50.6824
2395.98	51.4313
2397.98	48.5807
2399.98	47.7252
2401.98	49.439
2403.99	46.2684
2405.99	51.7935
2407.98	46.1146
2409.98	48.4313
2411.98	45.3708
2413.98	45.7524
2415.97	48.3365
2417.96	49.2254
2419.96	46.5433
2421.95	43.6535
2423.94	44.0532
2425.93	44.2411
2427.92	42.8394
2429.91	42.0035
2431.9	41.3076
2433.89	44.4633
2435.87	43.1968
2437.86	47.4479
2439.84	47.6544
2441.83	45.9298
2443.81	44.4479
2445.79	44.7935
2447.77	44.6855
2449.75	43.6409
2451.73	47.9046
2453.71	43.2288
2455.69	39.4313
2457.67	44.2922
2459.64	43.238
2461.62	42.395
2463.59	43.6413
2465.56	39.4191
2467.54	40.4602
2469.51	42.1143
2471.48	42.6855
2473.45	44.3491
2475.42	47.9078
2477.38	42.6535
2479.35	40.4187
2481.32	45.6698
2483.28	44.5713
2485.25	44.6701
2487.21	44.3491
2489.17	42.1146
2491.13	42.3368
2493.09	40.238
2495.05	41.7935
2497.01	39.8924
2498.97	44.5713
2500.93	37.1146
2502.89	37.8478
2504.84	39.4976
2506.8	41.0857
2508.75	40.7935
2510.7	43.3333
2512.65	39.1363
2514.61	42.8758
2516.56	38.7809
2518.51	39.4602
2520.45	39.8789
2522.4	36.4479
2524.35	36.8635
2526.29	37.4602
2528.24	41
2530.18	42.9794
2532.13	41.3368
2534.07	43.5433
2536.01	43.4322
2537.95	39.2396
2539.89	40.5713
2541.83	41.9877
2543.77	40.5587
2545.71	41.4476
2547.64	38.559
2549.58	40.2257
2551.51	41.0035
2553.45	42.0857
2555.38	43.7778
2557.31	39.3233
2559.25	35.238
2561.18	37.7935
2563.11	35.3796
2565.03	37.5587
2566.96	33.7646
2568.89	39.4191
2570.82	35.9589
2572.74	36.8924
2574.67	38.238
2576.59	40.3365
2578.51	37.3211
2580.43	37.4476
2582.36	35.7655
2584.28	39.21
2586.2	36.5713
2588.11	33.3368
2590.03	37.4602
2591.95	36.4479
2593.86	39.0731
2595.78	36.0157
2597.69	35.744
2599.61	40.0035
2601.52	35.098
2603.43	34.9746
2605.34	38.4476
2607.25	38.2257
2609.16	36.5433
2611.07	35.4191
2612.98	38.0189
2614.89	37.5424
2616.79	37.9869
2618.7	34.7967
2620.6	35.99
2622.5	38.4313
2624.41	36.4396
2626.31	32.098
2628.21	36.2222
2630.11	39.13
2632.01	40.4444
2633.91	35.1146
2635.8	38.2257
2637.7	38.5587
2639.6	32.5144
2641.49	36.1146
2643.39	38.3202
2645.28	39.9046
2647.17	45.8766
2649.06	44.4392
2650.95	43.4476
2652.84	43.8635
2654.73	41.3365
2656.62	38.7935
2658.51	43.6544
2660.4	40.4313
2662.28	45.3045
2664.17	39.0616
2666.05	39.6378
2667.93	44.7198
2669.82	48.0031
2671.7	64.5433
2673.58	72.1842
2675.46	82.2222
2677.34	80.0462
2679.21	71.7935
2681.09	81.7935
2682.97	77.9348
2684.84	76.5267
2686.72	59.3076
2688.59	67.4345
2690.47	68.9746
2692.34	97.4033
2694.21	190.76
2696.08	397.843
2697.95	365.731
2699.82	220.127
2701.69	132.284
2703.56	76.6667
2705.42	80.1146
2707.29	53.0857
2709.15	45.4479
2711.02	44.1011
2712.88	41.6824
2714.75	37.098
2716.61	36.0854
2718.47	34.3211
2720.33	35.8924
2722.19	36.3365
2724.05	35.3284
2725.9	38.0854
2727.76	36.9046
2729.62	36.8924
2731.47	40.1268
2733.33	34.2091
2735.18	36.0406
2737.03	36.3368
2738.88	35.5556
2740.73	35.9046
2742.59	37.7524
2744.43	34.5713
2746.28	34.0157
2748.13	32.99
2749.98	37.7935
2751.82	34
2753.67	32.5713
2755.51	32.5424
2757.36	37.6701
2759.2	36.238
2761.04	32.4602
2762.88	33.6567
