365.286	789.923
368.238	753.879
371.189	706.443
374.139	675.853
377.087	651.648
380.034	616.368
382.979	597.785
385.923	565.52
388.866	552.401
391.806	559.972
394.745	547.408
397.684	563.782
400.62	570.211
403.555	546.484
406.49	542.926
409.421	521.52
412.353	515.627
415.282	496.81
418.209	500.869
421.137	496.767
424.062	502.695
426.985	497.434
429.908	515.917
432.829	522.14
435.748	551.91
438.666	566.676
441.583	560.346
444.498	561.58
447.412	545.742
450.324	547.067
453.235	517.956
456.145	518.027
459.052	522.211
461.959	502.799
464.865	496.519
467.769	498.203
470.671	488.175
473.572	487.187
476.471	480.631
479.37	490.473
482.266	505.194
485.162	516.676
488.056	531.75
490.948	517.347
493.839	525.116
496.73	536.682
499.618	527.52
502.505	525.528
505.39	506.528
508.275	507.969
511.157	496.239
514.039	491.631
516.919	486.659
519.798	486.812
522.674	485.749
525.55	468.286
528.425	447.389
531.297	462.348
534.169	456.135
537.039	453.844
539.908	481.178
542.775	494.921
545.642	484.52
548.506	481.545
551.369	468.693
554.231	464.429
557.092	477.474
559.951	483.396
562.808	524.143
565.664	582.251
568.519	714.868
571.373	915.733
574.225	1092.63
577.076	1169.61
579.925	1111.82
582.773	970.026
585.62	831.398
588.466	704.049
591.309	612.535
594.152	525.31
596.993	494.936
599.832	474.372
602.671	448.535
605.508	437.551
608.343	426.33
611.178	413.593
614.011	414.853
616.842	419.332
619.672	421.169
622.501	417.201
625.329	429.595
628.155	442.896
630.98	439.15
633.802	438.244
636.624	453.043
639.445	454.888
642.264	446.262
645.082	437.691
647.898	427.507
650.714	427.606
653.527	412.551
656.34	407.699
659.151	388.54
661.961	381.903
664.769	372.968
667.576	386.112
670.382	387.865
673.186	389.806
675.989	406.245
678.791	403.585
681.591	410.31
684.39	410.604
687.187	395.848
689.983	405.535
692.779	401.373
695.572	404.236
698.363	422.795
701.155	423.828
703.944	414.853
706.733	419.422
709.519	402.226
712.305	390.145
715.089	392.159
717.871	383.419
720.653	386.479
723.433	369.29
726.212	381.303
728.989	375.994
731.765	368.896
734.54	360.758
737.313	356.431
740.085	355.992
742.856	347.676
745.625	356.767
748.394	356.785
751.16	339.218
753.926	342.654
756.689	343.102
759.452	341.805
762.214	329.709
764.974	350.867
767.733	365.52
770.49	377.884
773.246	388.121
776.001	382.186
778.755	376.33
781.507	364.629
784.258	345.289
787.007	342.576
789.756	338.415
792.502	348.287
795.247	341.303
797.992	340.765
800.735	337.766
803.477	346.773
806.217	338.326
808.956	353.737
811.694	374.402
814.43	392.43
817.165	398.63
819.899	395.418
822.631	393.629
825.362	389.126
828.092	367.383
830.82	365.297
833.548	362.54
836.274	356.265
838.998	356.339
841.721	355.486
844.444	358.252
847.165	358.717
849.884	347.367
852.601	340.945
855.318	338.562
858.034	339.589
860.749	337.861
863.461	343.478
866.173	349.623
868.883	344.654
871.592	351.16
874.3	339.255
877.006	342.675
879.712	338.073
882.415	333.41
885.118	334.246
887.819	324.201
890.519	325.061
893.218	327.142
895.914	324.048
898.611	333.682
901.306	322.575
903.999	320.272
906.692	319.135
909.382	317.117
912.072	318.502
914.761	319.486
917.447	300.608
920.133	312.701
922.818	311.671
925.501	311.057
928.183	308.279
930.864	303.785
933.543	314.502
936.221	314.85
938.898	315.59
941.574	313.135
944.248	308.702
946.921	302.947
949.593	316.202
952.263	305.659
954.932	301.042
957.6	306.417
960.267	307.671
962.932	299.878
965.597	301.722
968.26	316.171
970.922	301.075
973.581	304.691
976.241	299.075
978.898	296.161
981.555	305.95
984.21	296.022
986.864	313.336
989.517	303.192
992.169	311.156
994.819	318.709
997.468	304.446
1000.12	310.902
1002.76	302.08
1005.41	322.005
1008.05	319.351
1010.69	325.919
1013.34	321.715
1015.98	316.457
1018.61	310.939
1021.25	295.671
1023.89	309.298
1026.52	311.268
1029.16	309.78
1031.79	322.734
1034.42	317.874
1037.05	335.828
1039.68	347.092
1042.31	351.211
1044.93	373.674
1047.56	389.36
1050.18	407.671
1052.81	456.221
1055.43	529.097
1058.05	682.089
1060.67	913.888
1063.28	1232.32
1065.9	1563.69
1068.52	1822.53
1071.13	1851.48
1073.74	1695.51
1076.35	1451.52
1078.96	1189.34
1081.57	961.888
1084.18	771.552
1086.79	650.118
1089.39	567.512
1092	521.505
1094.6	484.952
1097.2	458.411
1099.8	436.722
1102.4	408.731
1105	391.689
1107.6	377.952
1110.19	371.391
1112.79	372.999
1115.38	365.208
1117.97	376.748
1120.56	378.178
1123.15	356.128
1125.74	359.964
1128.33	343.629
1130.91	335.302
1133.5	327.327
1136.08	320.704
1138.66	320.561
1141.24	314.286
1143.82	318.841
1146.4	319.149
1148.98	317.849
1151.55	333.16
1154.13	331.997
1156.7	342.631
1159.27	346.96
1161.85	354.833
1164.42	397.767
1166.98	433.491
1169.55	535.475
1172.12	608.304
1174.68	649.289
1177.25	621.757
1179.81	552.844
1182.37	494.845
1184.93	457.523
1187.49	404.422
1190.05	396.118
1192.6	399.654
1195.16	405.19
1197.71	396.289
1200.27	380.182
1202.82	378.128
1205.37	358.405
1207.92	347.026
1210.47	331.96
1213.01	323.355
1215.56	310.722
1218.1	321.619
1220.65	313.022
1223.19	318.571
1225.73	329.903
1228.27	332.982
1230.81	334.043
1233.35	334.579
1235.88	336.143
1238.42	346.204
1240.95	337.659
1243.48	342.602
1246.02	346.846
1248.55	346.368
1251.07	346.631
1253.6	342.396
1256.13	347.785
1258.66	345.691
1261.18	345.365
1263.7	350.108
1266.22	345.931
1268.75	351.415
1271.27	344.043
1273.78	344.015
1276.3	339.407
1278.82	344.972
1281.33	332.695
1283.85	336.988
1286.36	331.04
1288.87	333.853
1291.38	336.38
1293.89	334.007
1296.4	332.52
1298.9	332.437
1301.41	333.961
1303.91	332.775
1306.41	334.202
1308.92	327.604
1311.42	325.808
1313.92	327.018
1316.42	333.876
1318.91	312.519
1321.41	316.005
1323.9	322.227
1326.4	319.682
1328.89	309.715
1331.38	312.169
1333.87	309.59
1336.36	317.934
1338.85	309.554
1341.34	310.144
1343.82	303.836
1346.31	303.997
1348.79	287.698
1351.27	289.731
1353.75	297.366
1356.23	284.007
1358.71	289.827
1361.19	293.844
1363.66	297.293
1366.14	285.186
1368.61	285.36
1371.09	291.646
1373.56	297.026
1376.03	292.876
1378.5	299.144
1380.96	289.381
1383.43	289.637
1385.9	295.938
1388.36	288.604
1390.83	283.169
1393.29	281.024
1395.75	281.47
1398.21	279.028
1400.67	278.569
1403.13	275.847
1405.58	265.127
1408.04	279.516
1410.49	267.516
1412.95	272.679
1415.4	259.502
1417.85	263.429
1420.3	264.506
1422.75	258.358
1425.2	264.645
1427.64	264.533
1430.09	267.81
1432.53	262.727
1434.97	262.08
1437.42	253.96
1439.86	257.835
1442.3	265.355
1444.73	255.351
1447.17	258.04
1449.61	263.343
1452.04	268.021
1454.48	269.989
1456.91	274.81
1459.34	278.151
1461.77	278.019
1464.2	277.841
1466.63	293.892
1469.06	301.296
1471.48	300.202
1473.91	301.21
1476.33	297.022
1478.75	286.082
1481.17	271.415
1483.6	268.144
1486.01	256.025
1488.43	253.588
1490.85	263.699
1493.27	249.537
1495.68	252.151
1498.09	254.997
1500.51	249.621
1502.92	254.18
1505.33	250.277
1507.74	249.747
1510.14	263.279
1512.55	261.798
1514.96	267.75
1517.36	269.04
1519.77	258.144
1522.17	258.86
1524.57	255.244
1526.97	264.794
1529.37	246.588
1531.77	260.021
1534.16	257.95
1536.56	256.951
1538.95	259.405
1541.35	264.469
1543.74	271.128
1546.13	263.248
1548.52	265.415
1550.91	266.302
1553.3	271.611
1555.68	277.36
1558.07	295.166
1560.45	305.355
1562.84	320.749
1565.22	340.673
1567.6	385.518
1569.98	435.681
1572.36	505.101
1574.74	604.096
1577.12	707.673
1579.49	806.154
1581.87	841.886
1584.24	813.794
1586.61	728.919
1588.98	637.781
1591.35	551.683
1593.72	481.01
1596.09	406.404
1598.46	344.141
1600.82	308.914
1603.19	300.884
1605.55	288.472
1607.92	267.681
1610.28	262.622
1612.64	252.493
1615	238.117
1617.36	237.142
1619.71	236.088
1622.07	223.063
1624.42	221.456
1626.78	221.979
1629.13	213.789
1631.48	212.272
1633.83	195.472
1636.18	187.564
1638.53	186.244
1640.88	191.361
1643.22	181.353
1645.57	190.546
1647.91	180.168
1650.26	173.622
1652.6	169.014
1654.94	174.834
1657.28	163.241
1659.62	160.49
1661.96	162.988
1664.29	151.26
1666.63	141.293
1668.96	150.126
1671.3	141.176
1673.63	139.429
1675.96	141.185
1678.29	130.151
1680.62	132.985
1682.95	129.057
1685.27	121.567
1687.6	129.447
1689.92	124.637
1692.25	121.056
1694.57	125.157
1696.89	128.424
1699.21	119.939
1701.53	123.429
1703.85	119.765
1706.17	115.413
1708.48	111.762
1710.8	115.123
1713.11	113.54
1715.43	115.415
1717.74	113.532
1720.05	112.222
1722.36	108.749
1724.67	109.493
1726.97	112.789
1729.28	107.335
1731.59	103.103
1733.89	113.262
1736.19	107.573
1738.5	106.056
1740.8	108.054
1743.1	106.923
1745.4	108.514
1747.7	101.566
1749.99	104.602
1752.29	97.1749
1754.58	99.6791
1756.88	99.7228
1759.17	98.6784
1761.46	92.4077
1763.75	101.721
1766.04	94.0065
1768.33	91.5707
1770.62	88.6609
1772.91	96.5835
1775.19	91.5251
1777.48	87.6508
1779.76	88.3533
1782.04	95.0905
1784.32	85.4286
1786.6	93.1777
1788.88	89.0622
1791.16	87.4562
1793.44	91.328
1795.71	88.0953
1797.99	91.7977
1800.26	89.4257
1802.54	89.1492
1804.81	88.8683
1807.08	82.3422
1809.35	85.6023
1811.62	80.3781
1813.88	87.5573
1816.15	85.0736
1818.42	84.5482
1820.68	85.1733
1822.95	84.98
1825.21	85.6679
1827.47	82.2064
1829.73	82.3398
1831.99	85.4069
1834.25	82.5854
1836.51	87.2881
1838.76	84.7949
1841.02	83.286
1843.27	80.4562
1845.52	85.61
1847.78	81.4461
1850.03	78.6516
1852.28	76.5502
1854.53	83.3858
1856.78	78.8568
1859.02	72.7371
1861.27	80.4492
1863.51	78.84
1865.76	76.0627
1868	78.0806
1870.24	78.84
1872.48	79.0627
1874.72	79.141
1876.96	77.9441
1879.2	72.3878
1881.44	76.4912
1883.67	78.5442
1885.91	74.2444
1888.14	73.1676
1890.37	76.8339
1892.61	78.2016
1894.84	72.3422
1897.07	72.9963
1899.29	75.6508
1901.52	76.3345
1903.75	79.7371
1905.97	73.8836
1908.2	73.1749
1910.42	72.7895
1912.64	76.4539
1914.87	71.626
1917.09	77.9924
1919.31	72.2016
1921.52	75.7115
1923.74	74.1672
1925.96	72.6809
1928.17	70.5645
1930.39	70.1228
1932.6	72.4378
1934.81	68.3505
1937.03	69.9263
1939.24	73.7288
1941.45	69.7619
1943.65	67.7867
1945.86	75.9083
1948.07	68.3843
1950.27	71.4639
1952.48	71.3878
1954.68	68.9983
1956.88	68.8872
1959.08	68.2562
1961.29	72.3183
1963.48	67.6186
1965.68	69.421
1967.88	64.6965
1970.08	70.9019
1972.27	71.08
1974.47	66.2767
1976.66	64.8949
1978.85	64.7867
1981.04	66.2926
1983.23	62.6784
1985.42	58.7627
1987.61	64.8901
1989.8	64.8365
1991.99	67.12
1994.17	69.492
1996.36	65.6516
1998.54	62.8577
2000.72	61.61
2002.9	66.9092
2005.08	59.8978
2007.26	61.2767
2009.44	60.6707
2011.62	64.2064
2013.8	62.3528
2015.97	66.5149
2018.15	58.6516
2020.32	62.7837
2022.49	59.328
2024.66	61.1815
2026.83	58.61
2029	59.3281
2031.17	57.7959
2033.34	57.5321
2035.51	58.1656
2037.67	60.8274
2039.84	57.5502
2042	63.0194
2044.16	55.84
2046.32	60.0704
2048.48	60.3175
2050.64	59.0627
2052.8	57.7171
2054.96	54.4363
2057.12	58.9871
2059.27	61.9511
2061.43	56.6679
2063.58	57.3467
2065.73	57.2783
2067.89	57.0457
2070.04	56.9006
2072.19	53.1094
2074.34	53.0012
2076.48	55.6756
2078.63	52.9511
2080.78	52.4
2082.92	59.3257
2085.07	56.4368
2087.21	55.9593
2089.35	54.3525
2091.49	54.2844
2093.63	51.3505
2095.77	54.9199
2097.91	49.9593
2100.05	57.4504
2102.19	54.2191
2104.32	56.6756
2106.45	57.2767
2108.59	54.9766
2110.72	54.3175
2112.85	59.2844
2114.98	63.906
2117.11	63.1644
2119.24	64.1144
2121.37	63.2311
2123.5	66.7473
2125.62	66.0545
2127.75	66.5813
2129.87	69.2317
2131.99	64.5737
2134.11	67.7057
2136.24	62.4562
2138.36	63.2783
2140.47	62.2767
2142.59	60.9865
2144.71	56.6432
2146.83	54.1123
2148.94	60.906
2151.06	57.0953
2153.17	56.1854
2155.28	57.2311
2157.39	56.396
2159.5	55.0545
2161.61	54.6183
2163.72	54.0704
2165.83	57.7807
2167.94	51.9378
2170.04	53.5557
2172.15	49.9434
2174.25	55.224
2176.35	54.4819
2178.45	53.2279
2180.56	49.1815
2182.66	50.6516
2184.75	51.2667
2186.85	48.6177
2188.95	49.6263
2191.05	49.7288
2193.14	51.0012
2195.24	49.265
2197.33	53.0117
2199.42	50.2597
2201.51	51.112
2203.6	53.1911
2205.69	55.7294
2207.78	57.7057
2209.87	68.5066
2211.96	69.7949
2214.04	79.6113
2216.13	96.8258
2218.21	109.721
2220.29	128.114
2222.38	148.105
2224.46	152.519
2226.54	157.174
2228.62	143.997
2230.69	132.951
2232.77	118.608
2234.85	101.929
2236.92	82.873
2239	74.4286
2241.07	66.8076
2243.15	68.5954
2245.22	59.8653
2247.29	54.269
2249.36	47.7895
2251.43	49.4857
2253.49	49.6784
2255.56	48.5487
2257.63	47.9434
2259.69	47.1206
2261.76	45.2165
2263.82	42.2767
2265.88	45.2064
2267.95	42.2064
2270.01	42.2844
2272.07	42.4843
2274.12	39.2064
2276.18	44.3183
2278.24	39.8591
2280.3	40.1451
2282.35	41.2767
2284.41	35.9842
2286.46	43.7065
2288.51	39.5066
2290.56	38.1509
2292.61	39.8245
2294.66	38.2064
2296.71	36.8168
2298.76	40.4456
2300.8	39.1738
2302.85	37.8322
2304.9	38.3316
2306.94	37.9926
2308.98	38.396
2311.03	35.3252
2313.07	38.5188
2315.11	36.4562
2317.15	35.4989
2319.19	39.1656
2321.22	37.3316
2323.26	35.4989
2325.3	38.9089
2327.33	37.4579
2329.36	35.8978
2331.4	36.5066
2333.43	37.9006
2335.46	36.6861
2337.49	34.0194
2339.52	36.0012
2341.55	34.4456
2343.58	34.6602
2345.6	40.9932
2347.63	47.5581
2349.65	39.61
2351.68	39.6199
2353.7	38.0468
2355.72	35.8901
2357.74	36.2767
2359.76	35.0398
2361.78	34.945
2363.8	37.2311
2365.82	39.8159
2367.84	35.3878
2369.85	36.4397
2371.87	32.1616
2373.88	35.6756
2375.9	34.0545
2377.91	32.9511
2379.92	31.5673
2381.93	33.61
2383.94	34.8901
2385.95	34.7211
2387.96	30.575
2389.96	35.6796
2391.97	35.4294
2393.97	32.6591
2395.98	32.2064
2397.98	34.2185
2399.98	33.3878
2401.98	29.2064
2403.99	31.9434
2405.99	33.3955
2407.98	33.9083
2409.98	31.0398
2411.98	30.5149
2413.98	35.8701
2415.97	32.9006
2417.96	29.8821
2419.96	31.6036
2421.95	30.9434
2423.94	30.9434
2425.93	30.8738
2427.92	34.0545
2429.91	31.2234
2431.9	32.0545
2433.89	31.6609
2435.87	29.779
2437.86	28.0622
2439.84	27.4639
2441.83	30.2783
2443.81	29.7057
2445.79	31.3878
2447.77	30.61
2449.75	30.8385
2451.73	25.6756
2453.71	28.4038
2455.69	29.2444
2457.67	29.2926
2459.64	27.5257
2461.62	31.2339
2463.59	27.7473
2465.56	32.4387
2467.54	28.6756
2469.51	28.4391
2471.48	27.1656
2473.45	30.7627
2475.42	30.1656
2477.38	28.7211
2479.35	28.8322
2481.32	31.2146
2483.28	30.4819
2485.25	29.2767
2487.21	25.1656
2489.17	27.5397
2491.13	28.4492
2493.09	25.6183
2495.05	25.61
2497.01	29.5952
2498.97	26.2148
2500.93	29.6679
2502.89	26.0953
2504.84	27.2849
2506.8	28.61
2508.75	26.9083
2510.7	29.1228
2512.65	28.6591
2514.61	29.0622
2516.56	29.1123
2518.51	29.8978
2520.45	25.1733
2522.4	28.8815
2524.35	25.8813
2526.29	27.7867
2528.24	28.392
2530.18	28.8738
2532.13	31.3708
2534.07	26.5954
2536.01	27.2247
2537.95	29.3943
2539.89	27.0545
2541.83	28.5034
2543.77	28.5673
2545.71	29.7709
2547.64	28.6756
2549.58	25.7371
2551.51	24.1738
2553.45	23.2767
2555.38	27.7457
2557.31	30.9263
2559.25	25.9511
2561.18	25.8978
2563.11	26.2148
2565.03	27.9434
2566.96	27.5397
2568.89	25.61
2570.82	25.2844
2572.74	26.1123
2574.67	25.9849
2576.59	28.3183
2578.51	25.7748
2580.43	26.7619
2582.36	27.3732
2584.28	27.2767
2586.2	30.0089
2588.11	27.0533
2590.03	26.061
2591.95	27.1206
2593.86	26.1733
2595.78	27.0545
2597.69	25.7643
2599.61	28.1123
2601.52	24.9511
2603.43	26.8035
2605.34	24.7867
2607.25	26.8152
2609.16	22.9434
2611.07	28.9971
2612.98	24.5567
2614.89	30.2071
2616.79	29.7895
2618.7	26.4427
2620.6	28.3012
2622.5	25.8405
2624.41	25.2844
2626.31	27.6719
2628.21	27.9006
2630.11	28.5673
2632.01	24.9434
2633.91	30.1738
2635.8	29.096
2637.7	27.2169
2639.6	23.2311
2641.49	25.2849
2643.39	30.2416
2645.28	30.3528
2647.17	34.593
2649.06	33.3183
2650.95	35.3373
2652.84	31.6177
2654.73	32.61
2656.62	29.3252
2658.51	32.8462
2660.4	31.0457
2662.28	32.0622
2664.17	29.0089
2666.05	29.262
2667.93	36.5054
2669.82	42.8339
2671.7	51.4533
2673.58	65.7294
2675.46	69.1339
2677.34	77.7065
2679.21	65.7065
2681.09	65.6177
2682.97	71.9511
2684.84	67.1656
2686.72	50.2311
2688.59	62.8238
2690.47	58.1151
2692.34	84.5585
2694.21	190.215
2696.08	406.055
2697.95	359.873
2699.82	213.557
2701.69	132.164
2703.56	68.9842
2705.42	68.2148
2707.29	48.3809
2709.15	41.8035
2711.02	36.775
2712.88	34.2824
2714.75	30.5983
2716.61	27.7211
2718.47	28.9511
2720.33	25.4368
2722.19	29.3505
2724.05	27.2234
2725.9	31.4989
2727.76	29.9865
2729.62	28.2767
2731.47	29.8322
2733.33	26.5567
2735.18	26.776
2737.03	27.6679
2738.88	26.8322
2740.73	26.5498
2742.59	24.779
2744.43	27.779
2746.28	31.6192
2748.13	23.84
2749.98	29.2064
2751.82	25.2234
2753.67	26.8407
2755.51	24.3345
2757.36	26.4989
2759.2	26.9006
2761.04	23.3345
2762.88	24.3878
