365.286	1269.78
368.238	1204.65
371.189	1117.52
374.139	1057.92
377.087	1019.29
380.034	976.65
382.979	948.32
385.923	937.367
388.866	933.426
391.806	917.861
394.745	912.317
397.684	910.355
400.62	906.691
403.555	913.298
406.49	900.027
409.421	862.774
412.353	841.486
415.282	824.033
418.209	801.759
421.137	804.018
424.062	795.36
426.985	801.739
429.908	811.144
432.829	811.537
435.748	831.532
438.666	833.201
441.583	849.336
444.498	842.532
447.412	847.761
450.324	809.978
453.235	796.214
456.145	788.911
459.052	776.599
461.959	783.115
464.865	768.782
467.769	789.243
470.671	772.064
473.572	791.219
476.471	806.798
479.37	801.903
482.266	818.469
485.162	817.347
488.056	826.868
490.948	839.745
493.839	843.424
496.73	838.968
499.618	832.484
502.505	811.474
505.39	810.462
508.275	769.682
511.157	754.225
514.039	745.236
516.919	734.888
519.798	713.746
522.674	698.881
525.55	689.965
528.425	671.857
531.297	657.793
534.169	660.184
537.039	678.34
539.908	684.981
542.775	700.58
545.642	707.475
548.506	711.679
551.369	685.027
554.231	660.027
557.092	662.837
559.951	662.447
562.808	681.255
565.664	730.253
568.519	812.757
571.373	990.983
574.225	1184.9
577.076	1404.25
579.925	1455.92
582.773	1395.99
585.62	1198.43
588.466	996.192
591.309	868.82
594.152	754.482
596.993	686.9
599.832	645.449
602.671	636.337
605.508	624.963
608.343	612.194
611.178	593.662
614.011	600.156
616.842	588.308
619.672	602.549
622.501	591.355
625.329	596.49
628.155	597.362
630.98	613.672
633.802	616.566
636.624	625.188
639.445	640.263
642.264	636.358
645.082	631.375
647.898	636.106
650.714	611.203
653.527	609.065
656.34	591.938
659.151	592
661.961	573.29
664.769	584.612
667.576	573.516
670.382	585.521
673.186	591.773
675.989	599.854
678.791	625.999
681.591	637.356
684.39	639.303
687.187	656.14
689.983	624.662
692.779	627.565
695.572	618.15
698.363	650.885
701.155	661.447
703.944	655.621
706.733	647.589
709.519	646.832
712.305	648.372
715.089	638.222
717.871	612.812
720.653	610.353
723.433	588.892
726.212	582.386
728.989	574.75
731.765	563.871
734.54	566.766
737.313	565.741
740.085	541.907
742.856	531.602
745.625	534.033
748.394	536.815
751.16	531.168
753.926	527.547
756.689	533.409
759.452	532.146
762.214	529.055
764.974	524.213
767.733	529.138
770.49	530.547
773.246	543.859
776.001	545.752
778.755	544.386
781.507	538.987
784.258	527.083
787.007	527.789
789.756	533.029
792.502	537.049
795.247	512.38
797.992	505.083
800.735	503.776
803.477	500.613
806.217	497.34
808.956	512.332
811.694	519.384
814.43	538.135
817.165	557.362
819.899	565.574
822.631	558.258
825.362	567.536
828.092	537.369
830.82	546.397
833.548	540.938
836.274	551.954
838.998	544.286
841.721	545.251
844.444	529.822
847.165	524.628
849.884	534.379
852.601	539.608
855.318	527.621
858.034	533.827
860.749	525.713
863.461	527.233
866.173	516.808
868.883	518.818
871.592	510.478
874.3	481.079
877.006	490.381
879.712	482.911
882.415	475.475
885.118	470.922
887.819	457.961
890.519	468.134
893.218	456.143
895.914	460.393
898.611	467.576
901.306	447.689
903.999	463.253
906.692	455.555
909.382	438.807
912.072	436.584
914.761	444.715
917.447	431.592
920.133	449.334
922.818	462.818
925.501	456.54
928.183	479.89
930.864	495.254
933.543	484.839
936.221	481.457
938.898	476.7
941.574	480.958
944.248	485.395
946.921	498.708
949.593	497.276
952.263	499.032
954.932	483.479
957.6	469.498
960.267	466.812
962.932	445.248
965.597	439.891
968.26	426.365
970.922	437.393
973.581	424.526
976.241	440.974
978.898	444.495
981.555	463.916
984.21	456.225
986.864	452.794
989.517	464.698
992.169	460.739
994.819	464.688
997.468	458.542
1000.12	460.388
1002.76	472.323
1005.41	475.158
1008.05	484.061
1010.69	493.269
1013.34	496.156
1015.98	479.255
1018.61	480.662
1021.25	472.453
1023.89	463.576
1026.52	469.871
1029.16	472.581
1031.79	475.385
1034.42	502.292
1037.05	521.811
1039.68	552.525
1042.31	583.507
1044.93	623.729
1047.56	652.92
1050.18	681.455
1052.81	711.109
1055.43	769.457
1058.05	872.789
1060.67	1066.1
1063.28	1389.63
1065.9	1775.08
1068.52	2135.77
1071.13	2374.44
1073.74	2363.68
1076.35	2165.71
1078.96	1786.91
1081.57	1414.91
1084.18	1112.94
1086.79	906.477
1089.39	772.685
1092	704.818
1094.6	646.186
1097.2	633.314
1099.8	606.756
1102.4	594.116
1105	563.271
1107.6	556.505
1110.19	551.106
1112.79	530.274
1115.38	532.026
1117.97	544.782
1120.56	535.387
1123.15	528.335
1125.74	531.698
1128.33	521.668
1130.91	516.422
1133.5	494.754
1136.08	505.03
1138.66	497.422
1141.24	484.841
1143.82	492.146
1146.4	513.533
1148.98	524.185
1151.55	533.364
1154.13	545.311
1156.7	567.283
1159.27	582.577
1161.85	599.835
1164.42	643.838
1166.98	686.724
1169.55	769.213
1172.12	874.697
1174.68	960.756
1177.25	966.051
1179.81	914.981
1182.37	816.504
1184.93	726.63
1187.49	651.081
1190.05	624.267
1192.6	617.951
1195.16	646.962
1197.71	628.609
1200.27	625.593
1202.82	628.274
1205.37	601.184
1207.92	585.485
1210.47	583.942
1213.01	550.488
1215.56	539.34
1218.1	533.816
1220.65	538.375
1223.19	541.478
1225.73	557.478
1228.27	553.344
1230.81	561.808
1233.35	559.958
1235.88	567.096
1238.42	564.712
1240.95	568.946
1243.48	575.279
1246.02	584.713
1248.55	578.346
1251.07	580.628
1253.6	590.131
1256.13	592.39
1258.66	588.025
1261.18	588.385
1263.7	584.969
1266.22	590.052
1268.75	585.838
1271.27	602.562
1273.78	583.073
1276.3	563.508
1278.82	551.747
1281.33	546.822
1283.85	556.18
1286.36	557.909
1288.87	552.011
1291.38	553.534
1293.89	565.163
1296.4	568.064
1298.9	585.449
1301.41	581.9
1303.91	569.612
1306.41	558.019
1308.92	545.609
1311.42	558.713
1313.92	552.721
1316.42	543.288
1318.91	553.248
1321.41	542.613
1323.9	537.796
1326.4	530.66
1328.89	522.337
1331.38	539.135
1333.87	519.965
1336.36	533.823
1338.85	533.381
1341.34	512.551
1343.82	521.57
1346.31	516.862
1348.79	517.858
1351.27	511.797
1353.75	517.142
1356.23	526.727
1358.71	526.626
1361.19	522.063
1363.66	523.256
1366.14	521.601
1368.61	511.687
1371.09	513.037
1373.56	507.037
1376.03	502.44
1378.5	509.387
1380.96	507.621
1383.43	501.172
1385.9	502.305
1388.36	515.244
1390.83	515.37
1393.29	514.557
1395.75	513.114
1398.21	497.839
1400.67	496.846
1403.13	498.815
1405.58	477.77
1408.04	473.358
1410.49	455.166
1412.95	458.256
1415.4	455.613
1417.85	454.646
1420.3	456.282
1422.75	460.615
1425.2	466.41
1427.64	464.465
1430.09	475.455
1432.53	471.27
1434.97	479.061
1437.42	479.352
1439.86	491.849
1442.3	489.686
1444.73	500.494
1447.17	506.014
1449.61	540.931
1452.04	542.394
1454.48	547.078
1456.91	570.3
1459.34	578.838
1461.77	588.045
1464.2	598.49
1466.63	613.507
1469.06	644.455
1471.48	653.487
1473.91	663.117
1476.33	656.453
1478.75	641.442
1481.17	607.36
1483.6	569.017
1486.01	566.772
1488.43	538.574
1490.85	513.722
1493.27	496.57
1495.68	484.072
1498.09	492.305
1500.51	481.14
1502.92	476.473
1505.33	476.129
1507.74	480.148
1510.14	482.78
1512.55	484.604
1514.96	487.118
1517.36	495.826
1519.77	491.937
1522.17	484.937
1524.57	492.766
1526.97	482.44
1529.37	492.358
1531.77	485.868
1534.16	483.321
1536.56	492.118
1538.95	489.413
1541.35	487.643
1543.74	498.424
1546.13	508.865
1548.52	496.979
1550.91	501.799
1553.3	512.327
1555.68	531.853
1558.07	540.347
1560.45	552.118
1562.84	588.441
1565.22	630.013
1567.6	676.883
1569.98	778.109
1572.36	842.423
1574.74	982.557
1577.12	1136.78
1579.49	1297.36
1581.87	1388.62
1584.24	1367.92
1586.61	1287.95
1588.98	1109.64
1591.35	935.826
1593.72	806.021
1596.09	692.235
1598.46	609.802
1600.82	551.6
1603.19	517.649
1605.55	477.17
1607.92	464.118
1610.28	433.155
1612.64	414.495
1615	389.974
1617.36	391.582
1619.71	382.078
1622.07	365.214
1624.42	359.802
1626.78	341.136
1629.13	327.128
1631.48	324.07
1633.83	316.671
1636.18	308.34
1638.53	302.332
1640.88	292.462
1643.22	287.181
1645.57	285.07
1647.91	267.334
1650.26	267.04
1652.6	262.684
1654.94	258.991
1657.28	248.388
1659.62	252.846
1661.96	242.122
1664.29	237.252
1666.63	224.227
1668.96	229.519
1671.3	224.268
1673.63	216.654
1675.96	213.428
1678.29	205.342
1680.62	199.251
1682.95	193.461
1685.27	195.772
1687.6	194.754
1689.92	195.948
1692.25	185.856
1694.57	186.547
1696.89	191.93
1699.21	186.239
1701.53	176.71
1703.85	182.619
1706.17	178.68
1708.48	175.046
1710.8	176.904
1713.11	174.134
1715.43	171.059
1717.74	172.88
1720.05	171.062
1722.36	172.1
1724.67	166.205
1726.97	164
1729.28	162.515
1731.59	160.667
1733.89	160.324
1736.19	157.453
1738.5	163.313
1740.8	154.991
1743.1	154.632
1745.4	155.991
1747.7	155.123
1749.99	151.241
1752.29	151.394
1754.58	151.427
1756.88	146.573
1759.17	152.074
1761.46	138.553
1763.75	140.648
1766.04	140.49
1768.33	134.604
1770.62	143.125
1772.91	139.316
1775.19	137.228
1777.48	131.471
1779.76	133.454
1782.04	138.734
1784.32	138.903
1786.6	137.241
1788.88	142.13
1791.16	125.34
1793.44	130.091
1795.71	132.225
1797.99	131.202
1800.26	127.044
1802.54	123.116
1804.81	127.948
1807.08	129.241
1809.35	125.283
1811.62	116.466
1813.88	124.369
1816.15	127.126
1818.42	122.048
1820.68	119.614
1822.95	121.588
1825.21	121.734
1827.47	120.179
1829.73	117.224
1831.99	123.903
1834.25	120.908
1836.51	119.018
1838.76	119.658
1841.02	116.795
1843.27	122.187
1845.52	122.076
1847.78	118.923
1850.03	113.401
1852.28	112.686
1854.53	112.189
1856.78	112.424
1859.02	113.586
1861.27	111.848
1863.51	113.534
1865.76	114.486
1868	111.397
1870.24	109.697
1872.48	106.597
1874.72	104.905
1876.96	107.892
1879.2	112.9
1881.44	112.512
1883.67	109.018
1885.91	105.523
1888.14	108.334
1890.37	106.521
1892.61	112.678
1894.84	105.876
1897.07	107.444
1899.29	107.689
1901.52	104.708
1903.75	111.475
1905.97	102.392
1908.2	110.313
1910.42	105.649
1912.64	102.651
1914.87	100.669
1917.09	99.5923
1919.31	106.216
1921.52	106.214
1923.74	110.682
1925.96	101.313
1928.17	95.4094
1930.39	99.2371
1932.6	95.5205
1934.81	96.1813
1937.03	99.7632
1939.24	95.9218
1941.45	98.6695
1943.65	99.1743
1945.86	97.7781
1948.07	101.895
1950.27	98.6861
1952.48	100.464
1954.68	96.6782
1956.88	94.3505
1959.08	103.983
1961.29	98.3362
1963.48	97.6192
1965.68	93.6805
1967.88	97.7342
1970.08	95.1698
1972.27	93.4069
1974.47	93.3046
1976.66	95.2332
1978.85	91.1288
1981.04	88.6656
1983.23	89.3788
1985.42	88.8333
1987.61	93.2222
1989.8	94.9301
1991.99	91.2983
1994.17	89.2983
1996.36	93.2523
1998.54	87.5315
2000.72	88.4507
2002.9	89.9798
2005.08	90.4473
2007.26	90.7778
2009.44	90.4359
2011.62	91.1523
2013.8	84.5354
2015.97	85.1128
2018.15	85.8078
2020.32	86.5205
2022.49	88.1111
2024.66	83.7604
2026.83	82.7806
2029	81.1111
2031.17	82.2371
2033.34	87.6465
2035.51	87.1451
2037.67	84.8892
2039.84	84.4069
2042	85.5205
2044.16	82.3189
2046.32	84.6695
2048.48	79.2809
2050.64	85.7666
2052.8	83.4635
2054.96	86.908
2057.12	83.4361
2059.27	83.5704
2061.43	86.0587
2063.58	81.1552
2065.73	77.6695
2067.89	78.8496
2070.04	81.3471
2072.19	81.7542
2074.34	83.011
2076.48	81.6258
2078.63	82.2983
2080.78	83.1872
2082.92	79.8889
2085.07	78.3395
2087.21	78.1111
2089.35	78.9765
2091.49	83.784
2093.63	75.7427
2095.77	79.2744
2097.91	85.2635
2100.05	77.9153
2102.19	85.0761
2104.32	84.7691
2106.45	89.5556
2108.59	88.0587
2110.72	89.4683
2112.85	90.7445
2114.98	93.7666
2117.11	93.5469
2119.24	100.667
2121.37	104.686
2123.5	106.49
2125.62	108.797
2127.75	111.012
2129.87	114.655
2131.99	112.348
2134.11	105.473
2136.24	101.35
2138.36	102.246
2140.47	104.074
2142.59	99.2562
2144.71	101.352
2146.83	93.3558
2148.94	93.8453
2151.06	85.7604
2153.17	86.1412
2155.28	83.4094
2157.39	86.1872
2159.5	79.4474
2161.61	77.1375
2163.72	78.9936
2165.83	79.1139
2167.94	78.4094
2170.04	79.3131
2172.15	71.0267
2174.25	75.8917
2176.35	74.9888
2178.45	74.202
2180.56	75.6407
2182.66	72.1087
2184.75	72.6919
2186.85	73.9301
2188.95	71.1872
2191.05	74.2222
2193.14	71.6291
2195.24	77.4444
2197.33	70.5747
2199.42	74.7969
2201.51	75.6291
2203.6	73.3333
2205.69	77.9004
2207.78	86.2222
2209.87	90.7542
2211.96	96.2222
2214.04	111.573
2216.13	125.136
2218.21	149.815
2220.29	175.668
2222.38	211.984
2224.46	220.362
2226.54	223.283
2228.62	210.828
2230.69	191.151
2232.77	168.09
2234.85	148.394
2236.92	129.082
2239	112.185
2241.07	102.678
2243.15	93.6667
2245.22	84.7632
2247.29	78.7537
2249.36	76.36
2251.43	76.2137
2253.49	69.6858
2255.56	67.5315
2257.63	68.1054
2259.69	64.6642
2261.76	63.1288
2263.82	63.2332
2265.88	61.6316
2267.95	57.4094
2270.01	59.5205
2272.07	61.2983
2274.12	62.9765
2276.18	59.9888
2278.24	58.7079
2280.3	57.5556
2282.35	57.4448
2284.41	56.6316
2286.46	59.7719
2288.51	54.4094
2290.56	56.202
2292.61	58.2222
2294.66	52.7427
2296.71	53.8365
2298.76	55.8538
2300.8	53.8998
2302.85	56.7692
2304.9	51.2165
2306.94	55.0736
2308.98	51.8117
2311.03	53.7604
2313.07	53.8658
2315.11	50.5205
2317.15	56.2562
2319.19	55.7254
2321.22	48.8538
2323.26	53.7342
2325.3	50.5584
2327.33	52.9975
2329.36	54.7753
2331.4	52.4857
2333.43	54.0789
2335.46	52.1302
2337.49	51.9888
2339.52	49.6143
2341.55	50.965
2343.58	51.5732
2345.6	54.7427
2347.63	63.316
2349.65	52.965
2351.68	50.8951
2353.7	48.8538
2355.72	49.5556
2357.74	50.2222
2359.76	49.3333
2361.78	49.0761
2363.8	54.4559
2365.82	49.8889
2367.84	47.6667
2369.85	47.8381
2371.87	50.7427
2373.88	49.2809
2375.9	51.8538
2377.91	50.3333
2379.92	47.2983
2381.93	49.5205
2383.94	48.4444
2385.95	46.4094
2387.96	49.5031
2389.96	47.1226
2391.97	48.2222
2393.97	42.6844
2395.98	47.9826
2397.98	47.4094
2399.98	45.7427
2401.98	46.7778
2403.99	44.6316
2405.99	42.8538
2407.98	43.8513
2409.98	46.6316
2411.98	44.5205
2413.98	48.0761
2415.97	42.6316
2417.96	44.9564
2419.96	46.2222
2421.95	45.5556
2423.94	44.9476
2425.93	46.4473
2427.92	47.2983
2429.91	41.5205
2431.9	43.2337
2433.89	42.2983
2435.87	43.6431
2437.86	46.0909
2439.84	46.6316
2441.83	46
2443.81	45.3363
2445.79	42.2222
2447.77	42.0587
2449.75	40.8538
2451.73	42.0062
2453.71	41.6541
2455.69	42.5205
2457.67	40.7427
2459.64	42.5556
2461.62	44.0412
2463.59	43.3333
2465.56	40.819
2467.54	41.5556
2469.51	42.4593
2471.48	44.0938
2473.45	43.2983
2475.42	46.1698
2477.38	41.5205
2479.35	41.965
2481.32	39.3333
2483.28	42.5556
2485.25	42.2635
2487.21	40.8777
2489.17	37
2491.13	41.1872
2493.09	40.8017
2495.05	39.5556
2497.01	39.225
2498.97	38.8951
2500.93	40.6905
2502.89	37.9765
2504.84	38.3012
2506.8	40.8889
2508.75	40.1872
2510.7	37.5556
2512.65	39.1872
2514.61	36.2983
2516.56	37.7006
2518.51	38.316
2520.45	40.3333
2522.4	38.5205
2524.35	37.4094
2526.29	36.6858
2528.24	39.2983
2530.18	39.6667
2532.13	39.4444
2534.07	40.8864
2536.01	38.8538
2537.95	38.1288
2539.89	41.5556
2541.83	40.5205
2543.77	38.1111
2545.71	38.2826
2547.64	36.0062
2549.58	39.9769
2551.51	39.965
2553.45	39.0028
2555.38	40.0354
2557.31	42.1698
2559.25	37.4473
2561.18	39.7427
2563.11	33.0761
2565.03	35.9798
2566.96	38.316
2568.89	39.6291
2570.82	37.5556
2572.74	36.202
2574.67	37.1698
2576.59	38.6815
2578.51	35.5556
2580.43	35.5556
2582.36	39.1111
2584.28	34.2222
2586.2	34.965
2588.11	38.4333
2590.03	37.7778
2591.95	36.8538
2593.86	38.7778
2595.78	35.9229
2597.69	35
2599.61	39.5205
2601.52	36.4444
2603.43	36.4094
2605.34	32.2983
2607.25	37.126
2609.16	36
2611.07	35.202
2612.98	36.5119
2614.89	35.3222
2616.79	40.2222
2618.7	37.6667
2620.6	39.4444
2622.5	34.6316
2624.41	38.5584
2626.31	38.2222
2628.21	35.3098
2630.11	40.1872
2632.01	37.4635
2633.91	35.8687
2635.8	38.5556
2637.7	36.3248
2639.6	33.9476
2641.49	38.126
2643.39	40.2135
2645.28	43.5205
2647.17	46.2897
2649.06	48.1111
2650.95	46.1288
2652.84	42.2222
2654.73	42.7778
2656.62	39.6316
2658.51	38.2337
2660.4	36.6083
2662.28	41.7666
2664.17	39.2049
2666.05	40.1302
2667.93	43.6667
2669.82	47.9476
2671.7	59.6858
2673.58	79.1872
2675.46	81.965
2677.34	93.4094
2679.21	92.0527
2681.09	80.5617
2682.97	81.8538
2684.84	75.1173
2686.72	60.7427
2688.59	69.2809
2690.47	71.7618
2692.34	102.861
2694.21	180.03
2696.08	396.184
2697.95	376.764
2699.82	229.02
2701.69	134.105
2703.56	71.4444
2705.42	75.965
2707.29	53.6316
2709.15	45.3448
2711.02	43.4386
2712.88	39.5747
2714.75	36.44
2716.61	36.9826
2718.47	34.9826
2720.33	40.4333
2722.19	36.316
2724.05	36.9975
2725.9	34.9229
2727.76	38.4857
2729.62	34.9476
2731.47	38.6493
2733.33	33.6667
2735.18	39.0938
2737.03	34.5556
2738.88	35.0149
2740.73	34.6316
2742.59	34.3333
2744.43	33.5968
2746.28	34.4444
2748.13	33.0149
2749.98	33.965
2751.82	33.5584
2753.67	35.0149
2755.51	32.2983
2757.36	35.3524
2759.2	32.8538
2761.04	32.7604
2762.88	29.1523
