365.286	800.177
368.238	768.765
371.189	731.089
374.139	693.77
377.087	656.579
380.034	632.035
382.979	608.456
385.923	595.46
388.866	576.156
391.806	559.322
394.745	574.986
397.684	576.682
400.62	577.986
403.555	571.492
406.49	570.763
409.421	556.526
412.353	538.071
415.282	517.296
418.209	520.625
421.137	519.734
424.062	523.152
426.985	531.017
429.908	533.518
432.829	557.579
435.748	554.081
438.666	563.156
441.583	565.901
444.498	549.794
447.412	547.184
450.324	524.288
453.235	538.652
456.145	524.102
459.052	500.295
461.959	504.652
464.865	496.319
467.769	500.652
470.671	498.017
473.572	494.357
476.471	501.519
479.37	516.606
482.266	514.266
485.162	516.682
488.056	532.214
490.948	535.38
493.839	542.158
496.73	543.601
499.618	537.851
502.505	527.851
505.39	499.867
508.275	485.97
511.157	487.712
514.039	479.576
516.919	471.7
519.798	462.68
522.674	452.262
525.55	456.212
528.425	443.347
531.297	434.707
534.169	436.454
537.039	446.48
539.908	455.26
542.775	456.372
545.642	472.021
548.506	462.284
551.369	472.68
554.231	459.35
557.092	461.282
559.951	444.122
562.808	465.536
565.664	494.679
568.519	558.702
571.373	663.034
574.225	782.926
577.076	890.266
579.925	935.448
582.773	878.152
585.62	778.825
588.466	669.926
591.309	570.059
594.152	509.676
596.993	478.044
599.832	451.549
602.671	439.32
605.508	429.922
608.343	420.792
611.178	416.985
614.011	408.181
616.842	409.941
619.672	412.483
622.501	416.262
625.329	426.464
628.155	431.72
630.98	424.585
633.802	432.334
636.624	441.724
639.445	436.808
642.264	442.091
645.082	436.142
647.898	420.544
650.714	417.036
653.527	412.372
656.34	410.373
659.151	408.748
661.961	408.873
664.769	396.522
667.576	408.287
670.382	405.591
673.186	412.917
675.989	415.873
678.791	428.124
681.591	431.585
684.39	442.623
687.187	440.805
689.983	425.373
692.779	417.067
695.572	420.398
698.363	421.239
701.155	426.88
703.944	420.357
706.733	420.468
709.519	401.428
712.305	395.033
715.089	390.065
717.871	384.097
720.653	394.408
723.433	375.106
726.212	371.516
728.989	368.933
731.765	375.033
734.54	367.897
737.313	369.516
740.085	348.006
742.856	348.729
745.625	347.429
748.394	337.977
751.16	341.176
753.926	342.592
756.689	340.933
759.452	339.039
762.214	335.427
764.974	334.563
767.733	335.039
770.49	345.375
773.246	364.122
776.001	363.671
778.755	372.607
781.507	353.65
784.258	347.896
787.007	337.014
789.756	336.762
792.502	322.33
795.247	327.58
797.992	334.926
800.735	323.919
803.477	335.579
806.217	335.415
808.956	330.497
811.694	343.589
814.43	352.139
817.165	359.789
819.899	361.691
822.631	363.327
825.362	355.327
828.092	354.868
830.82	353.806
833.548	343.362
836.274	351.653
838.998	332.859
841.721	334.129
844.444	332.226
847.165	329.832
849.884	335.714
852.601	334.696
855.318	322.498
858.034	329.158
860.749	316.149
863.461	317.141
866.173	316.891
868.883	317.402
871.592	317.248
874.3	310.201
877.006	305.702
879.712	306.121
882.415	311.955
885.118	304.806
887.819	305.063
890.519	293.604
893.218	292.609
895.914	303.615
898.611	299.519
901.306	292.779
903.999	291.753
906.692	294.085
909.382	296.496
912.072	281.498
914.761	294.678
917.447	281.508
920.133	281.675
922.818	283.361
925.501	281.924
928.183	283.134
930.864	283.902
933.543	290.168
936.221	281.843
938.898	275.276
941.574	269.35
944.248	283.599
946.921	270.064
949.593	267.804
952.263	274.986
954.932	270.895
957.6	278.727
960.267	280.148
962.932	272.728
965.597	264.42
968.26	269.345
970.922	266.567
973.581	266.692
976.241	269.537
978.898	263.415
981.555	257.62
984.21	261.89
986.864	267.285
989.517	279.081
992.169	271.196
994.819	278.807
997.468	277.627
1000.12	281.875
1002.76	285.032
1005.41	293.287
1008.05	289.629
1010.69	291.359
1013.34	292.112
1015.98	287.634
1018.61	289.168
1021.25	288.217
1023.89	275.059
1026.52	285.054
1029.16	275.6
1031.79	285.721
1034.42	289.592
1037.05	283.083
1039.68	308.735
1042.31	303.754
1044.93	304.568
1047.56	324.29
1050.18	348.178
1052.81	369.377
1055.43	419.728
1058.05	497.097
1060.67	628.61
1063.28	788.155
1065.9	1015.44
1068.52	1242.25
1071.13	1366.01
1073.74	1341.92
1076.35	1209.28
1078.96	1031.65
1081.57	841.474
1084.18	676.274
1086.79	550.806
1089.39	500.619
1092	450.782
1094.6	443.11
1097.2	420.981
1099.8	402.394
1102.4	383.63
1105	366.668
1107.6	347.477
1110.19	356.897
1112.79	343.136
1115.38	342.549
1117.97	352.994
1120.56	347.984
1123.15	338.223
1125.74	341.897
1128.33	328.718
1130.91	318.028
1133.5	316.358
1136.08	307.943
1138.66	315.894
1141.24	312.95
1143.82	321.835
1146.4	319.962
1148.98	322.097
1151.55	328.957
1154.13	324.98
1156.7	321.48
1159.27	334.789
1161.85	331.594
1164.42	355.509
1166.98	384.311
1169.55	446.682
1172.12	483.844
1174.68	537.236
1177.25	540.536
1179.81	501.499
1182.37	458.727
1184.93	401.084
1187.49	376.532
1190.05	352.926
1192.6	351.836
1195.16	353.559
1197.71	360.789
1200.27	361.387
1202.82	355.013
1205.37	337.061
1207.92	332.958
1210.47	319.394
1213.01	306.891
1215.56	307.312
1218.1	307.853
1220.65	302.447
1223.19	305.343
1225.73	303.139
1228.27	313.301
1230.81	324.561
1233.35	315.919
1235.88	318.082
1238.42	322.584
1240.95	327.238
1243.48	322.347
1246.02	316.733
1248.55	321.65
1251.07	336.304
1253.6	320.639
1256.13	329.813
1258.66	327.627
1261.18	326.734
1263.7	323.104
1266.22	334.533
1268.75	321.429
1271.27	321.492
1273.78	320.787
1276.3	323.439
1278.82	317.108
1281.33	317.642
1283.85	316.944
1286.36	322.014
1288.87	317.836
1291.38	311.532
1293.89	308.139
1296.4	309.804
1298.9	306.859
1301.41	312.364
1303.91	314.115
1306.41	309.163
1308.92	306.215
1311.42	310.589
1313.92	311.016
1316.42	316.923
1318.91	308.097
1321.41	314.707
1323.9	304.494
1326.4	302.669
1328.89	294.037
1331.38	298.59
1333.87	302.038
1336.36	305.27
1338.85	309.483
1341.34	303.56
1343.82	305.557
1346.31	298.981
1348.79	280.833
1351.27	292.001
1353.75	281.614
1356.23	274.139
1358.71	272.156
1361.19	277.579
1363.66	274.211
1366.14	274.943
1368.61	275.703
1371.09	263.509
1373.56	275.967
1376.03	275.927
1378.5	276.678
1380.96	273.37
1383.43	273.23
1385.9	269.774
1388.36	272.711
1390.83	275.059
1393.29	263.415
1395.75	265.303
1398.21	257.366
1400.67	277.488
1403.13	257.175
1405.58	260.177
1408.04	262.575
1410.49	258.814
1412.95	256.511
1415.4	253.238
1417.85	249.558
1420.3	260.438
1422.75	255.088
1425.2	245.703
1427.64	259.623
1430.09	257.421
1432.53	255.923
1434.97	258.131
1437.42	262.142
1439.86	263.185
1442.3	263.532
1444.73	267.276
1447.17	260.304
1449.61	275.129
1452.04	266.671
1454.48	271.045
1456.91	274.617
1459.34	268.68
1461.77	272.028
1464.2	276.037
1466.63	281.971
1469.06	274.343
1471.48	298.195
1473.91	288.762
1476.33	284.946
1478.75	287.905
1481.17	267.445
1483.6	267.254
1486.01	257.416
1488.43	249.974
1490.85	250.418
1493.27	237.095
1495.68	239.253
1498.09	228.941
1500.51	245.999
1502.92	236.642
1505.33	243.811
1507.74	232.038
1510.14	237.666
1512.55	245.923
1514.96	245.764
1517.36	246.206
1519.77	237.627
1522.17	248.493
1524.57	249.557
1526.97	250.209
1529.37	244.11
1531.77	249.9
1534.16	245.823
1536.56	251.406
1538.95	256.616
1541.35	247.78
1543.74	261.845
1546.13	260.621
1548.52	267.81
1550.91	276.597
1553.3	264.541
1555.68	280.205
1558.07	280.049
1560.45	287.19
1562.84	301.307
1565.22	317.756
1567.6	346.548
1569.98	386.763
1572.36	430.661
1574.74	498.7
1577.12	601.535
1579.49	678.209
1581.87	748.002
1584.24	730.599
1586.61	690.488
1588.98	614.481
1591.35	533.371
1593.72	463.182
1596.09	388.068
1598.46	343.594
1600.82	301.941
1603.19	283.343
1605.55	274.366
1607.92	254.028
1610.28	244.151
1612.64	245.696
1615	233.7
1617.36	227.732
1619.71	226.25
1622.07	209.94
1624.42	210.403
1626.78	201.981
1629.13	196.257
1631.48	195.474
1633.83	190.942
1636.18	189.539
1638.53	182.504
1640.88	176.034
1643.22	164.244
1645.57	166.859
1647.91	161.387
1650.26	161.111
1652.6	159.558
1654.94	152.104
1657.28	149.589
1659.62	151.949
1661.96	152.753
1664.29	140.121
1666.63	138.983
1668.96	143.855
1671.3	135.427
1673.63	131.058
1675.96	131.497
1678.29	127.034
1680.62	126.359
1682.95	123.333
1685.27	121.826
1687.6	118.213
1689.92	117.83
1692.25	117.065
1694.57	116.317
1696.89	118.206
1699.21	105.111
1701.53	114.522
1703.85	116.482
1706.17	112.104
1708.48	112.839
1710.8	114.502
1713.11	111.905
1715.43	108.115
1717.74	107.173
1720.05	102.524
1722.36	103.664
1724.67	104.215
1726.97	110.497
1729.28	106.145
1731.59	107.587
1733.89	104.478
1736.19	104.792
1738.5	105.836
1740.8	101.305
1743.1	99.4285
1745.4	99.0001
1747.7	100.222
1749.99	97.9532
1752.29	100.386
1754.58	100.337
1756.88	99.2801
1759.17	98.2605
1761.46	90.6064
1763.75	93.6064
1766.04	95.7193
1768.33	98.0502
1770.62	92.3669
1772.91	95.3038
1775.19	94.4913
1777.48	88.2145
1779.76	90.4962
1782.04	94.282
1784.32	90.4664
1786.6	90.4817
1788.88	92.5093
1791.16	86.9108
1793.44	88.691
1795.71	89.1204
1797.99	84.7193
1800.26	90.3907
1802.54	87.2591
1804.81	91.198
1807.08	91.6736
1809.35	88.6153
1811.62	84.7997
1813.88	91
1816.15	86.1955
1818.42	83.8663
1820.68	84.4525
1822.95	80.471
1825.21	85.4165
1827.47	81.7809
1829.73	84.6933
1831.99	81.9771
1834.25	83.6738
1836.51	77.0219
1838.76	83.993
1841.02	85.9468
1843.27	79.4367
1845.52	83.5485
1847.78	79.1134
1850.03	79.8352
1852.28	83.6918
1854.53	77.8139
1856.78	78.5242
1859.02	76.5579
1861.27	82.0816
1863.51	74.162
1865.76	74.3508
1868	78.5556
1870.24	77.7329
1872.48	79.4664
1874.72	73.8692
1876.96	77.2254
1879.2	76.4688
1881.44	80.9599
1883.67	77.4202
1885.91	73.3599
1888.14	80.2222
1890.37	77.2811
1892.61	77.4156
1894.84	78.4953
1897.07	78.3559
1899.29	71.3091
1901.52	70.4387
1903.75	77.9634
1905.97	70.8794
1908.2	73.9443
1910.42	69.9424
1912.64	72.7701
1914.87	70.1886
1917.09	75.4132
1919.31	72.731
1921.52	74.8038
1923.74	72.6698
1925.96	70.9141
1928.17	70.4092
1930.39	77.1054
1932.6	67.0581
1934.81	68.3021
1937.03	65.8794
1939.24	73.2286
1941.45	71.7193
1943.65	69.4084
1945.86	72.2128
1948.07	68.3851
1950.27	71.0024
1952.48	72.6713
1954.68	69.3405
1956.88	66.7265
1959.08	72.0941
1961.29	72.0522
1963.48	65.3257
1965.68	68.6438
1967.88	71.7418
1970.08	69.5222
1972.27	67.9398
1974.47	67.9125
1976.66	65.3913
1978.85	66.3021
1981.04	64.5563
1983.23	67.5893
1985.42	67.6387
1987.61	64.777
1989.8	62.4933
1991.99	64.6058
1994.17	61.8062
1996.36	66.7683
1998.54	62.9906
2000.72	64.6933
2002.9	65.8044
2005.08	65.0243
2007.26	65.4984
2009.44	66.0579
2011.62	64.3618
2013.8	63.3427
2015.97	60.7041
2018.15	63.4156
2020.32	59.1683
2022.49	59.4882
2024.66	59.8794
2026.83	63.6903
2029	58.5
2031.17	57.8357
2033.34	58.3357
2035.51	61.0266
2037.67	64.7246
2039.84	60.4374
2042	59.8618
2044.16	58.5821
2046.32	60.3499
2048.48	58.5237
2050.64	60.6644
2052.8	57.5563
2054.96	58.9705
2057.12	52.7849
2059.27	59.3636
2061.43	60.9435
2063.58	57.4437
2065.73	61.0587
2067.89	59.3239
2070.04	55.471
2072.19	57.1041
2074.34	58.0952
2076.48	58.4173
2078.63	56.4782
2080.78	53.2725
2082.92	57.526
2085.07	56.3855
2087.21	55.8346
2089.35	55.6035
2091.49	56.1354
2093.63	57.1862
2095.77	55.3553
2097.91	56.499
2100.05	55.8021
2102.19	50.435
2104.32	58.659
2106.45	58.6674
2108.59	58.7779
2110.72	57.7683
2112.85	60.2744
2114.98	63.9248
2117.11	62.7465
2119.24	66.9899
2121.37	64.1633
2123.5	68.8403
2125.62	74.1785
2127.75	68.2199
2129.87	70.5479
2131.99	68.7707
2134.11	69.435
2136.24	66.3842
2138.36	70.7246
2140.47	65.2919
2142.59	67.1909
2144.71	63.3937
2146.83	65.1691
2148.94	60.8663
2151.06	62.0882
2153.17	62.4516
2155.28	61.3038
2157.39	57.3013
2159.5	56.7701
2161.61	51.7507
2163.72	55.3931
2165.83	58.9326
2167.94	52.4173
2170.04	52.6462
2172.15	54.9771
2174.25	51.471
2176.35	52.0001
2178.45	52.5816
2180.56	51.6846
2182.66	51.274
2184.75	48.0266
2186.85	48.1614
2188.95	49.2757
2191.05	50.4888
2193.14	52.0237
2195.24	51.3842
2197.33	51.1041
2199.42	54.7683
2201.51	55.4924
2203.6	53.8067
2205.69	56.4149
2207.78	55.4664
2209.87	61.557
2211.96	69.1646
2214.04	79.1041
2216.13	89.2896
2218.21	103.497
2220.29	121.608
2222.38	139.143
2224.46	157.102
2226.54	149.394
2228.62	149.879
2230.69	134.428
2232.77	123.095
2234.85	104.317
2236.92	91.0267
2239	79.7492
2241.07	75.8352
2243.15	63.1377
2245.22	55.727
2247.29	57.1377
2249.36	51.8716
2251.43	46.86
2253.49	46.0266
2255.56	48.0266
2257.63	45.4979
2259.69	45.2246
2261.76	45.7104
2263.82	46.0437
2265.88	42.7654
2267.95	42.828
2270.01	43.3239
2272.07	46.0308
2274.12	42.5479
2276.18	41.6886
2278.24	42.8287
2280.3	40.5112
2282.35	38.4851
2284.41	41.9132
2286.46	36.3311
2288.51	44.8304
2290.56	40.1886
2292.61	36.5775
2294.66	39.5219
2296.71	37.1685
2298.76	37.2725
2300.8	38.302
2302.85	37.2802
2304.9	40.0243
2306.94	38.9758
2308.98	40.0816
2311.03	35.3328
2313.07	38.0751
2315.11	39.7654
2317.15	35.4446
2319.19	35.964
2321.22	38.3671
2323.26	36.3873
2325.3	38.2757
2327.33	35.4202
2329.36	37.9468
2331.4	39.2866
2333.43	36.7683
2335.46	36.4664
2337.49	35.7483
2339.52	39.0243
2341.55	37.9906
2343.58	34.9084
2345.6	39.4979
2347.63	46.9411
2349.65	36.0001
2351.68	36.8287
2353.7	35.4459
2355.72	36.2871
2357.74	35.0579
2359.76	37.6077
2361.78	35.8812
2363.8	38.5024
2365.82	35.6644
2367.84	38.6135
2369.85	39.3913
2371.87	35.5845
2373.88	37.0882
2375.9	35.2217
2377.91	35.0003
2379.92	35.3104
2381.93	32.2128
2383.94	33.1633
2385.95	35.3913
2387.96	32.9664
2389.96	36.1112
2391.97	35.2997
2393.97	32.0219
2395.98	34.83
2397.98	34.8529
2399.98	34.9226
2401.98	32.435
2403.99	34.7341
2405.99	31.691
2407.98	33.9108
2409.98	30.1909
2411.98	33.2488
2413.98	30.6064
2415.97	31.1041
2417.96	31.3771
2419.96	32.435
2421.95	29.2488
2423.94	32.3842
2425.93	32.2316
2427.92	29.471
2429.91	32.1485
2431.9	34.0627
2433.89	32.0437
2435.87	30.525
2437.86	29.6077
2439.84	29.8357
2441.83	33.526
2443.81	30.6572
2445.79	30.7464
2447.77	28.8866
2449.75	33.1691
2451.73	30.633
2453.71	30.1862
2455.69	29.4156
2457.67	29.6927
2459.64	29.8044
2461.62	30.9108
2463.59	29.8883
2465.56	29.0579
2467.54	29.1934
2469.51	30.471
2471.48	31.3091
2473.45	30.1633
2475.42	29.7176
2477.38	30.7246
2479.35	30.2052
2481.32	32.3907
2483.28	30.4149
2485.25	30.321
2487.21	31.1714
2489.17	29.4084
2491.13	27.1017
2493.09	26.6933
2495.05	28.3239
2497.01	28.83
2498.97	28.3889
2500.93	27.5219
2502.89	31.4084
2504.84	27.9108
2506.8	30.4367
2508.75	30.6667
2510.7	26.1348
2512.65	31.2459
2514.61	31.6135
2516.56	27.2997
2518.51	27.3576
2520.45	29.555
2522.4	27.4664
2524.35	29.0822
2526.29	30.6372
2528.24	30.9125
2530.18	29.5893
2532.13	26.3765
2534.07	29.9876
2536.01	31.471
2537.95	31.198
2539.89	28.4681
2541.83	27.2997
2543.77	29.1088
2545.71	30.2441
2547.64	29.7104
2549.58	25.3842
2551.51	28.8115
2553.45	28.9942
2555.38	29.3091
2557.31	27.9463
2559.25	30.3091
2561.18	28.9906
2563.11	30.7778
2565.03	26.9906
2566.96	26.3091
2568.89	25.9108
2570.82	25.6644
2572.74	30.2222
2574.67	25.5821
2576.59	24.8333
2578.51	28.2441
2580.43	27.8765
2582.36	27.0816
2584.28	27.9771
2586.2	26.0775
2588.11	26.7997
2590.03	26.3239
2591.95	26.7997
2593.86	30.9125
2595.78	27.7536
2597.69	28.9923
2599.61	29.1691
2601.52	26.7246
2603.43	27.4446
2605.34	26.129
2607.25	27.6691
2609.16	27.7683
2611.07	26.8866
2612.98	25.5987
2614.89	28.6862
2616.79	26.8913
2618.7	25.7997
2620.6	29.6596
2622.5	27.9468
2624.41	27.0579
2626.31	24.6862
2628.21	28.5018
2630.11	24.1377
2632.01	29.8575
2633.91	29.0751
2635.8	30.0579
2637.7	26.6572
2639.6	26.4882
2641.49	29.2731
2643.39	31.4468
2645.28	34.6933
2647.17	31.9929
2649.06	33.5479
2650.95	36.0816
2652.84	31.6425
2654.73	31.3161
2656.62	31.6135
2658.51	34.1377
2660.4	30.1449
2662.28	33.1377
2664.17	31.6609
2666.05	32.9391
2667.93	36.5845
2669.82	35.5917
2671.7	48.6064
2673.58	62.2802
2675.46	71.9179
2677.34	72.9155
2679.21	66.1049
2681.09	72.4387
2682.97	69.7506
2684.84	60.5219
2686.72	47.1017
2688.59	56.2217
2690.47	55.6438
2692.34	80.0284
2694.21	146.449
2696.08	339.474
2697.95	324.524
2699.82	184.802
2701.69	115.481
2703.56	62.1993
2705.42	62.0751
2707.29	48.1088
2709.15	38.133
2711.02	36.4681
2712.88	29.526
2714.75	28.1993
2716.61	33.0509
2718.47	27.8794
2720.33	26.7683
2722.19	25.9664
2724.05	30.4525
2725.9	30.0579
2727.76	25.3559
2729.62	26.1629
2731.47	28.435
2733.33	28.7683
2735.18	32.8827
2737.03	29.6425
2738.88	25.9686
2740.73	26.964
2742.59	26.8889
2744.43	26.3239
2746.28	23.2489
2748.13	22.7193
2749.98	25.0579
2751.82	25.5893
2753.67	24.5461
2755.51	26.6956
2757.36	26.7104
2759.2	23.1934
2761.04	24.9492
2762.88	22.6135
