365.286	1480.63
368.238	1424.9
371.189	1335.49
374.139	1273.09
377.087	1230.55
380.034	1176.12
382.979	1157.3
385.923	1118.63
388.866	1087.03
391.806	1077.99
394.745	1052.82
397.684	1091.16
400.62	1069.27
403.555	1045.76
406.49	1040.02
409.421	1028.52
412.353	1005.06
415.282	1002.71
418.209	986.987
421.137	980.524
424.062	960.098
426.985	992.239
429.908	994.756
432.829	997.125
435.748	1023.67
438.666	1032.43
441.583	1048.11
444.498	1035.86
447.412	1023.06
450.324	986.684
453.235	976.653
456.145	959.793
459.052	935.555
461.959	929.899
464.865	899.439
467.769	891.762
470.671	886.604
473.572	895.508
476.471	917.169
479.37	902.938
482.266	926.477
485.162	956.033
488.056	956.265
490.948	955.633
493.839	944.806
496.73	965.682
499.618	961.148
502.505	937.959
505.39	943.765
508.275	949.233
511.157	925.571
514.039	925.861
516.919	906.663
519.798	896.58
522.674	857.219
525.55	854.788
528.425	829.373
531.297	838.804
534.169	857.281
537.039	846.799
539.908	872.036
542.775	884.628
545.642	896.793
548.506	888.638
551.369	873.01
554.231	854.563
557.092	850.01
559.951	860.517
562.808	899.772
565.664	969.145
568.519	1066.55
571.373	1272.83
574.225	1546.42
577.076	1730.29
579.925	1793.8
582.773	1722.38
585.62	1492.18
588.466	1277.39
591.309	1110.31
594.152	988.063
596.993	919.521
599.832	858.135
602.671	859.638
605.508	841.4
608.343	808.982
611.178	801.072
614.011	794.531
616.842	805.333
619.672	790.792
622.501	800.024
625.329	809.629
628.155	816.439
630.98	830.688
633.802	836.52
636.624	840.69
639.445	846.407
642.264	847.046
645.082	827.268
647.898	811.234
650.714	797.48
653.527	778.566
656.34	764.788
659.151	771.899
661.961	764.178
664.769	762.734
667.576	743.993
670.382	749.33
673.186	755.12
675.989	776.681
678.791	789.552
681.591	775.109
684.39	789.43
687.187	769.963
689.983	776.041
692.779	776.044
695.572	775.212
698.363	787.41
701.155	804.319
703.944	792.955
706.733	795.757
709.519	781.466
712.305	764.768
715.089	761.014
717.871	747.917
720.653	751.869
723.433	722.015
726.212	734.237
728.989	720.247
731.765	725.233
734.54	722.696
737.313	720.633
740.085	708.156
742.856	697.693
745.625	678.751
748.394	675.917
751.16	671.774
753.926	663.359
756.689	671.044
759.452	664.707
762.214	672.573
764.974	689.769
767.733	689.843
770.49	710.853
773.246	733.246
776.001	749.899
778.755	738.983
781.507	706.937
784.258	707.831
787.007	697.708
789.756	698.952
792.502	681.372
795.247	699.795
797.992	683.403
800.735	684.643
803.477	709.533
806.217	697.918
808.956	736.118
811.694	742.712
814.43	747.866
817.165	779.613
819.899	795.407
822.631	772.993
825.362	763.108
828.092	752.119
830.82	735.647
833.548	736.069
836.274	709.374
838.998	711.009
841.721	694.868
844.444	704.743
847.165	711.052
849.884	702.702
852.601	694.532
855.318	693.779
858.034	695.001
860.749	684.615
863.461	670.376
866.173	690.407
868.883	679.647
871.592	685.499
874.3	684.825
877.006	683.237
879.712	678.743
882.415	669.285
885.118	673.961
887.819	658.483
890.519	671.802
893.218	653.617
895.914	645.661
898.611	657.767
901.306	639.897
903.999	632.912
906.692	626.26
909.382	626.565
912.072	639.883
914.761	632.705
917.447	633.194
920.133	625.552
922.818	629.949
925.501	635.264
928.183	639.486
930.864	637.558
933.543	625.238
936.221	633.118
938.898	625.746
941.574	621.788
944.248	635.215
946.921	630.261
949.593	630.379
952.263	628.73
954.932	625.277
957.6	627.728
960.267	621.675
962.932	611.392
965.597	597.28
968.26	607.539
970.922	598.289
973.581	597.173
976.241	608.014
978.898	623.529
981.555	604.548
984.21	625.589
986.864	622.314
989.517	626.281
992.169	629.26
994.819	617.583
997.468	637.774
1000.12	623
1002.76	625.157
1005.41	613.155
1008.05	645.894
1010.69	653.205
1013.34	642.333
1015.98	621.468
1018.61	628.971
1021.25	615.428
1023.89	618.348
1026.52	623.22
1029.16	614.192
1031.79	635.569
1034.42	642.534
1037.05	635.382
1039.68	654.666
1042.31	686.92
1044.93	703.571
1047.56	744.349
1050.18	775.615
1052.81	854.79
1055.43	965.465
1058.05	1185.82
1060.67	1510.65
1063.28	2011.25
1065.9	2605.82
1068.52	3124
1071.13	3393.28
1073.74	3277.19
1076.35	2941.69
1078.96	2381.85
1081.57	1905.47
1084.18	1538.44
1086.79	1274.4
1089.39	1120.08
1092	1019.12
1094.6	980.85
1097.2	892.946
1099.8	859.661
1102.4	833.956
1105	807.767
1107.6	788.216
1110.19	772.724
1112.79	792.233
1115.38	776.247
1117.97	784.826
1120.56	772.216
1123.15	760.472
1125.74	769.316
1128.33	751.899
1130.91	738.222
1133.5	723.472
1136.08	729.234
1138.66	730.092
1141.24	719.773
1143.82	714.836
1146.4	725.585
1148.98	746.222
1151.55	743.647
1154.13	769.263
1156.7	759.471
1159.27	769.488
1161.85	796.846
1164.42	846.755
1166.98	928.975
1169.55	1057.68
1172.12	1248.56
1174.68	1344.93
1177.25	1337.79
1179.81	1233.69
1182.37	1097.26
1184.93	964.321
1187.49	883.777
1190.05	851.802
1192.6	847.553
1195.16	890.78
1197.71	875.426
1200.27	870.101
1202.82	840.484
1205.37	802.44
1207.92	800.083
1210.47	765.137
1213.01	762.85
1215.56	767.662
1218.1	748.276
1220.65	750.026
1223.19	763.137
1225.73	758.359
1228.27	757.395
1230.81	765.197
1233.35	752.755
1235.88	743.611
1238.42	756.34
1240.95	755.724
1243.48	752.756
1246.02	761.963
1248.55	752.005
1251.07	753.083
1253.6	748.832
1256.13	757.376
1258.66	769.388
1261.18	753.962
1263.7	745.913
1266.22	780.153
1268.75	773.407
1271.27	768.687
1273.78	788.305
1276.3	777.774
1278.82	770.566
1281.33	769.546
1283.85	752.499
1286.36	750.164
1288.87	740.806
1291.38	755.755
1293.89	752.941
1296.4	760.638
1298.9	743.922
1301.41	743.141
1303.91	742.16
1306.41	729.871
1308.92	740.008
1311.42	739.725
1313.92	735.505
1316.42	732.058
1318.91	739.065
1321.41	732.901
1323.9	720.183
1326.4	729.207
1328.89	727.834
1331.38	726.62
1333.87	714.741
1336.36	730.548
1338.85	716.753
1341.34	708.698
1343.82	703.878
1346.31	687.808
1348.79	692.233
1351.27	692.451
1353.75	701.909
1356.23	693.681
1358.71	689.878
1361.19	673.323
1363.66	697.106
1366.14	669.965
1368.61	678.509
1371.09	660.468
1373.56	670.176
1376.03	674.533
1378.5	664.625
1380.96	663.558
1383.43	663.642
1385.9	651.18
1388.36	656.266
1390.83	659.777
1393.29	654.217
1395.75	643.203
1398.21	632.28
1400.67	635.266
1403.13	617.49
1405.58	614.785
1408.04	604.349
1410.49	605.711
1412.95	609.246
1415.4	622.297
1417.85	625.185
1420.3	634.404
1422.75	641.71
1425.2	642.77
1427.64	641.055
1430.09	636.985
1432.53	647.693
1434.97	649.2
1437.42	654.406
1439.86	629.896
1442.3	658.96
1444.73	657.979
1447.17	664.543
1449.61	673.915
1452.04	694.551
1454.48	689.939
1456.91	698.504
1459.34	706.869
1461.77	712.502
1464.2	722.876
1466.63	731.122
1469.06	749.282
1471.48	765.601
1473.91	769.601
1476.33	781.321
1478.75	768.345
1481.17	746.391
1483.6	703.509
1486.01	718.901
1488.43	735.638
1490.85	717.537
1493.27	734.961
1495.68	733.944
1498.09	748.072
1500.51	735.205
1502.92	725.246
1505.33	708.847
1507.74	717.736
1510.14	697.829
1512.55	705.98
1514.96	707.403
1517.36	706.416
1519.77	714.023
1522.17	710.305
1524.57	721.247
1526.97	727.722
1529.37	733.631
1531.77	732.739
1534.16	736.128
1536.56	740.024
1538.95	735.961
1541.35	748.297
1543.74	728.917
1546.13	727.646
1548.52	725.403
1550.91	723.372
1553.3	737.58
1555.68	748.926
1558.07	771.865
1560.45	805.277
1562.84	848.31
1565.22	913.674
1567.6	986.519
1569.98	1127.31
1572.36	1290.33
1574.74	1491.87
1577.12	1774.65
1579.49	2015.22
1581.87	2132.25
1584.24	2068.63
1586.61	1842.69
1588.98	1580.77
1591.35	1321.51
1593.72	1130.61
1596.09	988.142
1598.46	871.434
1600.82	802.594
1603.19	758.045
1605.55	709.165
1607.92	677.676
1610.28	650.899
1612.64	638.87
1615	616.087
1617.36	593.498
1619.71	587.155
1622.07	559.966
1624.42	554.865
1626.78	527.487
1629.13	529.625
1631.48	503.724
1633.83	480.102
1636.18	474.399
1638.53	468.143
1640.88	451.519
1643.22	446.968
1645.57	437.399
1647.91	424.666
1650.26	429.791
1652.6	417.156
1654.94	404.746
1657.28	388.742
1659.62	380.552
1661.96	374.524
1664.29	367.423
1666.63	351.331
1668.96	338.878
1671.3	341.732
1673.63	327.273
1675.96	318.312
1678.29	316.194
1680.62	315.412
1682.95	317.49
1685.27	290.146
1687.6	302.379
1689.92	293.288
1692.25	293.688
1694.57	284.148
1696.89	292.157
1699.21	279.481
1701.53	281.792
1703.85	281.552
1706.17	267.044
1708.48	270.232
1710.8	273.445
1713.11	264.1
1715.43	265.815
1717.74	259.013
1720.05	255.518
1722.36	257.301
1724.67	258.872
1726.97	258.177
1729.28	252.223
1731.59	257.807
1733.89	252.621
1736.19	246.968
1738.5	251.19
1740.8	246.557
1743.1	238.065
1745.4	240.633
1747.7	230.219
1749.99	236.114
1752.29	228.035
1754.58	229.933
1756.88	227.774
1759.17	229.774
1761.46	227.504
1763.75	219.17
1766.04	222.691
1768.33	213.225
1770.62	215.503
1772.91	217.939
1775.19	214.08
1777.48	212.822
1779.76	207.132
1782.04	205.841
1784.32	204.663
1786.6	198.885
1788.88	202.44
1791.16	197.017
1793.44	201.89
1795.71	197.412
1797.99	194.619
1800.26	201.793
1802.54	193.493
1804.81	195.397
1807.08	198.259
1809.35	187.368
1811.62	193.37
1813.88	186.851
1816.15	192.273
1818.42	182.779
1820.68	186.688
1822.95	177.259
1825.21	195.416
1827.47	187.223
1829.73	187.371
1831.99	182.412
1834.25	179.507
1836.51	179.37
1838.76	189.301
1841.02	181.708
1843.27	186.465
1845.52	181.681
1847.78	178.301
1850.03	169.701
1852.28	177.126
1854.53	174.58
1856.78	172.518
1859.02	166.524
1861.27	175.537
1863.51	169.688
1865.76	169.799
1868	167.576
1870.24	166.664
1872.48	160.023
1874.72	164.335
1876.96	163.562
1879.2	161.808
1881.44	159.746
1883.67	167.779
1885.91	157.354
1888.14	165.779
1890.37	160.655
1892.61	162.066
1894.84	162.069
1897.07	163.699
1899.29	160.828
1901.52	156.689
1903.75	157.281
1905.97	158.919
1908.2	160.433
1910.42	162.602
1912.64	150.904
1914.87	156.157
1917.09	158.95
1919.31	153.097
1921.52	153.177
1923.74	159.113
1925.96	149.368
1928.17	154.576
1930.39	150.923
1932.6	153.557
1934.81	157.451
1937.03	151.426
1939.24	151.812
1941.45	148.288
1943.65	152.243
1945.86	144.8
1948.07	146.481
1950.27	147.799
1952.48	141.688
1954.68	146.416
1956.88	142.146
1959.08	144.701
1961.29	143.778
1963.48	143.035
1965.68	144.633
1967.88	141.778
1970.08	138.954
1972.27	137.566
1974.47	140.162
1976.66	138.041
1978.85	137.978
1981.04	132.996
1983.23	138.031
1985.42	138.681
1987.61	139.111
1989.8	127.803
1991.99	131.91
1994.17	132.128
1996.36	135.288
1998.54	138.169
2000.72	130.334
2002.9	128.746
2005.08	130.451
2007.26	131.857
2009.44	127.923
2011.62	129.037
2013.8	132.479
2015.97	128.784
2018.15	128.812
2020.32	126.465
2022.49	126.035
2024.66	122.041
2026.83	126.972
2029	120.827
2031.17	125.065
2033.34	126.891
2035.51	121.793
2037.67	120.146
2039.84	123.107
2042	127.16
2044.16	126.91
2046.32	121.368
2048.48	117.44
2050.64	122.097
2052.8	117.923
2054.96	119.112
2057.12	120.544
2059.27	117.368
2061.43	122.715
2063.58	120.604
2065.73	110.34
2067.89	121.759
2070.04	116.44
2072.19	118.035
2074.34	119.416
2076.48	118.146
2078.63	114.229
2080.78	110.315
2082.92	115.218
2085.07	118.774
2087.21	116.451
2089.35	116.799
2091.49	119.986
2093.63	119.75
2095.77	121.225
2097.91	120.271
2100.05	116.336
2102.19	116.479
2104.32	125.031
2106.45	119.44
2108.59	126.021
2110.72	130.354
2112.85	133.91
2114.98	137.59
2117.11	147.118
2119.24	146.411
2121.37	148.506
2123.5	153.399
2125.62	152.457
2127.75	155.42
2129.87	157.354
2131.99	151.493
2134.11	146.843
2136.24	147.875
2138.36	141.035
2140.47	135.576
2142.59	132.968
2144.71	130.688
2146.83	125.426
2148.94	130.253
2151.06	125.938
2153.17	120.146
2155.28	121.44
2157.39	122.746
2159.5	113.759
2161.61	118.093
2163.72	115.465
2165.83	111.812
2167.94	118.59
2170.04	116.986
2172.15	113.986
2174.25	109.112
2176.35	112.007
2178.45	110.194
2180.56	113.093
2182.66	109.368
2184.75	111.576
2186.85	107.451
2188.95	108.91
2191.05	114.109
2193.14	103.252
2195.24	106.493
2197.33	114.412
2199.42	117.031
2201.51	117.493
2203.6	118.344
2205.69	124.402
2207.78	130.451
2209.87	138.544
2211.96	155.19
2214.04	186.107
2216.13	209.663
2218.21	243.708
2220.29	291.007
2222.38	318.813
2224.46	336.368
2226.54	333.257
2228.62	317.614
2230.69	279.701
2232.77	244.257
2234.85	214.19
2236.92	186.8
2239	169.079
2241.07	146.552
2243.15	133.919
2245.22	123.799
2247.29	115.923
2249.36	115.601
2251.43	112.799
2253.49	107.827
2255.56	103.271
2257.63	101.76
2259.69	94.1319
2261.76	89.3678
2263.82	88.6138
2265.88	86.7155
2267.95	90.7986
2270.01	88.5906
2272.07	84.1176
2274.12	84.4165
2276.18	78.1456
2278.24	85.3398
2280.3	81.3678
2282.35	78.3678
2284.41	85.5379
2286.46	81.6732
2288.51	82.9234
2290.56	86.4444
2292.61	84.2222
2294.66	78.0208
2296.71	79.3542
2298.76	79.6138
2300.8	76.2431
2302.85	79.8123
2304.9	75.3542
2306.94	73.9983
2308.98	76.2182
2311.03	76.6835
2313.07	72.8123
2315.11	77.6676
2317.15	69.7012
2319.19	77.3964
2321.22	73.7843
2323.26	74.7635
2325.3	72.0065
2327.33	76.8123
2329.36	74.8569
2331.4	74.3981
2333.43	75.4933
2335.46	74.0928
2337.49	72.6347
2339.52	70.3981
2341.55	72.1176
2343.58	65.5235
2345.6	74.3398
2347.63	81.2039
2349.65	72.8266
2351.68	71.2567
2353.7	72.6044
2355.72	69.8123
2357.74	73.6875
2359.76	67.1319
2361.78	69.2567
2363.8	74.6835
2365.82	66.8849
2367.84	68.4124
2369.85	71.3678
2371.87	67.5901
2373.88	71.7458
2375.9	66.3013
2377.91	69.7738
2379.92	68.9234
2381.93	68.8889
2383.94	69.3398
2385.95	67.3293
2387.96	70.8123
2389.96	68.6969
2391.97	65.495
2393.97	59.6347
2395.98	63.8123
2397.98	62.7986
2399.98	65.5093
2401.98	62.479
2403.99	68.5515
2405.99	61.0208
2407.98	65.0928
2409.98	62.3013
2411.98	61.6875
2413.98	60.0345
2415.97	61.2567
2417.96	59.8954
2419.96	61.8569
2421.95	59.8746
2423.94	59
2425.93	60.8123
2427.92	60.7155
2429.91	58.4933
2431.9	56.3827
2433.89	55.3398
2435.87	56.4124
2437.86	62.8569
2439.84	60.3822
2441.83	53.5901
2443.81	56.9377
2445.79	61.0488
2447.77	57.5372
2449.75	57.7738
2451.73	62.2567
2453.71	59.9817
2455.69	57.7355
2457.67	58.451
2459.64	55.8123
2461.62	60.5515
2463.59	54.1599
2465.56	56.0801
2467.54	58.0345
2469.51	56.271
2471.48	52.7155
2473.45	52.2431
2475.42	60.4613
2477.38	53.2567
2479.35	53.0345
2481.32	53.9377
2483.28	58.8123
2485.25	49.9234
2487.21	50.3293
2489.17	52.5901
2491.13	48.5901
2493.09	51.6875
2495.05	54.9097
2497.01	53.5764
2498.97	52.6667
2500.93	49.8266
2502.89	53.1902
2504.84	53.2567
2506.8	51.6875
2508.75	54.1942
2510.7	51.4938
2512.65	53.479
2514.61	48.7843
2516.56	50.4404
2518.51	48.2567
2520.45	51.0831
2522.4	50.0345
2524.35	58.4933
2526.29	52.7986
2528.24	52.2567
2530.18	50.5372
2532.13	51.3822
2534.07	49.5901
2536.01	49.9377
2537.95	48.3542
2539.89	51.6627
2541.83	53.8609
2543.77	50.8123
2545.71	48.0208
2547.64	51.6044
2549.58	50.3053
2551.51	49.8746
2553.45	50.3678
2555.38	53.3822
2557.31	50.4653
2559.25	45.8849
2561.18	48.8569
2563.11	48.4653
2565.03	52.9097
2566.96	47.315
2568.89	48.1456
2570.82	46.7738
2572.74	44.8569
2574.67	49.3678
2576.59	49.0345
2578.51	43.7986
2580.43	45.8123
2582.36	48.0488
2584.28	47.2431
2586.2	47.6875
2588.11	43.1456
2590.03	46.7012
2591.95	46.1319
2593.86	45.4165
2595.78	45.7986
2597.69	42.2591
2599.61	47.0345
2601.52	44.0065
2603.43	43.9097
2605.34	48.1319
2607.25	44.1599
2609.16	45.6347
2611.07	45.1319
2612.98	46.271
2614.89	43.3678
2616.79	46.7843
2618.7	43.8123
2620.6	48.1599
2622.5	44.0968
2624.41	45.1176
2626.31	44.5092
2628.21	45.3678
2630.11	45.1902
2632.01	49.3822
2633.91	45.1599
2635.8	46.1319
2637.7	45.3678
2639.6	44.479
2641.49	43.3542
2643.39	49.0345
2645.28	52.9097
2647.17	52.3013
2649.06	53.315
2650.95	52.1319
2652.84	51.2431
2654.73	47.4653
2656.62	44.3542
2658.51	52.6627
2660.4	50.271
2662.28	50.7843
2664.17	51.3678
2666.05	51.1599
2667.93	50.2567
2669.82	56.9192
2671.7	65.6732
2673.58	83.1456
2675.46	95.9031
2677.34	100.566
2679.21	94.7778
2681.09	93.2039
2682.97	100.124
2684.84	91.4605
2686.72	69.9234
2688.59	80.2525
2690.47	79.9234
2692.34	102.259
2694.21	201.828
2696.08	439.649
2697.95	387.148
2699.82	225.994
2701.69	139.996
2703.56	89.3636
2705.42	85.8123
2707.29	65.2567
2709.15	53.8609
2711.02	54.7946
2712.88	48.4021
2714.75	46.9234
2716.61	45.9234
2718.47	41.6732
2720.33	45.5901
2722.19	45.479
2724.05	47.1176
2725.9	43.4933
2727.76	46.2182
2729.62	45.3678
2731.47	44.968
2733.33	46.0488
2735.18	40.7594
2737.03	45.4301
2738.88	45.6732
2740.73	41.9234
2742.59	40.5901
2744.43	41.996
2746.28	44.1599
2748.13	42.7012
2749.98	46.8266
2751.82	43.0065
2753.67	41.5092
2755.51	42.9577
2757.36	41.5901
2759.2	40.479
2761.04	42.0345
2762.88	40.7986
