186.85	526
189.449	523.556
192.047	517.111
194.645	521.333
197.241	518.222
199.837	522.222
202.431	531.111
205.025	516.444
207.619	515.111
210.21	523.556
212.802	530.667
215.392	520.222
217.982	516.444
220.57	531.333
223.158	520.889
225.744	527.556
228.331	528.222
230.915	524.889
233.5	533.111
236.083	545.556
238.666	532.444
241.247	538.889
243.827	545.333
246.408	544.667
248.986	562.667
251.565	545.111
254.142	556.222
256.719	537.333
259.294	556
261.868	553.778
264.443	536.889
267.015	548.667
269.587	539.333
272.159	539.556
274.729	536.667
277.298	532.889
279.867	534.889
282.435	536.889
285.001	537.778
287.568	532.667
290.133	533.111
292.697	544.222
295.26	531.333
297.824	529.333
300.385	545.333
302.945	532.444
305.505	546.222
308.064	549.111
310.623	537.111
313.18	541.778
315.737	532.667
318.292	538.222
320.847	554
323.402	539.778
325.955	553.111
328.507	557.556
331.058	556.667
333.609	559.778
336.158	555.111
338.707	550.667
341.255	554
343.802	556.889
346.349	571.778
348.895	562.889
351.439	560.667
353.983	565.556
356.526	566.667
359.068	578
361.609	573.111
364.149	587.111
366.689	571.556
369.227	568.222
371.765	579.333
374.302	577.556
376.838	587.556
379.374	596.667
381.908	589.778
384.442	586.444
386.973	569.556
389.505	568.222
392.036	563.111
394.567	562.889
397.096	563.111
399.625	553.556
402.153	559.556
404.68	568.889
407.206	578.222
409.73	568.889
412.254	571.333
414.778	571.556
417.301	572
419.823	566.667
422.343	573.556
424.863	571.556
427.383	575.333
429.901	562.222
432.418	578.889
434.935	585.333
437.451	586
439.966	602.889
442.48	593.556
444.993	582.444
447.506	591.556
450.019	578
452.528	594
455.039	580
457.549	584
460.056	594
462.564	590
465.07	579.778
467.576	577.111
470.082	578.667
472.585	569.111
475.089	570.444
477.591	571.556
480.093	581.556
482.595	575.778
485.094	575.778
487.594	586.444
490.091	582.222
492.59	584.667
495.086	576.667
497.582	585.778
500.076	588
502.571	574.445
505.064	590
507.558	579.333
510.049	580.889
512.54	589.556
515.03	580.222
517.518	591.111
520.008	586.222
522.495	594.445
524.983	588
527.468	586
529.954	592.444
532.438	586.667
534.921	589.778
537.404	584.445
539.886	585.333
542.366	583.333
544.848	583.556
547.327	582.222
549.805	584.667
552.284	582.445
554.76	584.222
557.236	576.222
559.711	578
562.186	573.333
564.66	586
567.132	576.667
569.604	585.111
572.076	580.667
574.547	582.889
577.016	592.222
579.484	608.667
581.952	626.222
584.419	617.333
586.887	612.222
589.352	601.111
591.816	596.667
594.28	573.333
596.743	568.667
599.205	579.111
601.667	573.111
604.127	567.111
606.588	562.222
609.047	561.111
611.505	576.222
613.963	583.556
616.419	574.444
618.875	575.111
621.33	580
623.784	592
626.238	588.889
628.69	592.444
631.142	589.111
633.593	574.667
636.043	574.444
638.493	591.556
640.941	581.556
643.389	570
645.835	584.667
648.281	580.889
650.727	572.667
653.171	576.444
655.615	574
658.058	578
660.501	568.889
662.942	568.667
665.382	581.778
667.822	574.889
670.261	574.445
672.699	586.444
675.137	577.111
677.574	574.889
680.008	577.556
682.443	574.222
684.878	574.889
687.312	567.333
689.743	568.444
692.175	572.667
694.607	578
697.037	575.333
699.466	570.667
701.895	577.778
704.323	573.778
706.749	586.444
709.175	580.222
711.601	576.889
714.025	580.222
716.449	572.222
718.871	581.333
721.294	576.445
723.716	580.222
726.136	573.778
728.556	566.889
730.975	572.667
733.394	577.111
735.812	569.333
738.228	568.222
740.644	572
743.058	563.555
745.473	571.555
747.886	572
750.3	570.444
752.711	574
755.123	573.111
757.533	573.556
759.942	552.889
762.351	573.333
764.759	564.889
767.167	559.778
769.573	564.444
771.979	572
774.383	576.667
776.787	573.778
779.191	594
781.593	590.444
783.994	583.333
786.396	582.667
788.796	578.222
791.195	569.333
793.595	582.222
795.992	564.667
798.389	566.444
800.786	580.222
803.181	568.667
805.576	567.556
807.969	574.222
810.363	576.444
812.755	570.222
815.147	572.445
817.537	575.111
819.927	566.667
822.318	561.778
824.706	571.333
827.093	572.444
829.48	573.111
831.866	559.778
834.251	555.333
836.636	564.889
839.021	564.889
841.404	567.778
843.786	562.667
846.167	562.889
848.548	557.333
850.928	562.667
853.307	551.778
855.685	563.778
858.063	558.889
860.44	554.222
862.816	558.444
865.192	561.556
867.566	570
869.94	566
872.313	557.111
874.685	568.667
877.057	561.555
879.428	563.778
881.798	562
884.167	572.444
886.536	557.556
888.902	570.667
891.269	566.222
893.636	566.889
896.001	573.333
898.366	557.111
900.73	575.556
903.094	565.333
905.455	556.667
907.817	559.556
910.178	556.667
912.538	573.556
914.898	560.444
917.255	554
919.613	553.778
921.971	553.556
924.327	565.111
926.682	550
929.037	553.333
931.391	553.111
933.744	557.111
936.096	552.889
938.449	548.889
940.799	563.556
943.149	556.222
945.499	548.889
947.847	550.889
950.195	546.667
952.542	563.333
954.889	564.667
957.235	558.222
959.579	556.889
961.924	555.111
964.266	566.444
966.609	559.111
968.951	571.111
971.292	559.556
973.632	558.889
975.972	571.778
978.31	555.111
980.649	544.889
982.986	553.333
985.323	557.111
987.659	560
989.994	570.667
992.328	555.111
994.662	561.333
996.995	559.556
999.326	559.556
1001.66	555.333
1003.99	565.111
1006.32	554.889
1008.65	555.333
1010.98	545.111
1013.3	551.778
1015.63	565.111
1017.96	563.333
1020.28	554.667
1022.61	567.333
1024.93	550.222
1027.25	564
1029.58	574.667
1031.9	571.778
1034.22	568.222
1036.54	573.111
1038.86	566.222
1041.18	556.444
1043.49	568.222
1045.81	571.111
1048.13	571.111
1050.44	579.556
1052.76	585.778
1055.07	573.556
1057.39	593.333
1059.7	592
1062.01	592.667
1064.32	602.222
1066.63	620.222
1068.94	653.333
1071.25	674.667
1073.56	730.667
1075.87	768.667
1078.17	810
1080.48	832.222
1082.79	828.222
1085.09	809.778
1087.39	764.667
1089.7	705.778
1092	691.556
1094.3	670.222
1096.6	667.111
1098.9	665.333
1101.2	634.667
1103.5	625.111
1105.8	618
1108.1	612.889
1110.39	598.444
1112.69	589.111
1114.98	610.222
1117.28	602.889
1119.57	610.222
1121.86	611.778
1124.16	616
1126.45	605.556
1128.74	593.778
1131.03	585.111
1133.32	577.111
1135.61	569.556
1137.89	572.889
1140.18	562
1142.47	553.556
1144.75	565.333
1147.04	570.222
1149.32	568.889
1151.61	574.889
1153.89	573.556
1156.17	579.556
1158.45	573.333
1160.73	558.889
1163.01	564
1165.29	569.333
1167.57	566.222
1169.85	583.556
1172.12	577.333
1174.4	602.667
1176.68	661.111
1178.95	680.444
1181.22	699.111
1183.5	674.667
1185.77	647.333
1188.04	607.555
1190.31	587.778
1192.58	570
1194.85	573.333
1197.12	569.333
1199.39	578.222
1201.66	575.778
1203.92	573.778
1206.19	571.333
1208.45	561.556
1210.72	553.556
1212.98	556.667
1215.25	534.222
1217.51	538
1219.77	537.556
1222.03	540
1224.29	532.889
1226.55	530.667
1228.81	540
1231.07	531.111
1233.33	546
1235.58	537.778
1237.84	535.333
1240.09	546.889
1242.35	538.222
1244.6	542.667
1246.86	532
1249.11	551.111
1251.36	546.889
1253.61	547.333
1255.86	539.111
1258.11	539.556
1260.36	543.778
1262.61	548.222
1264.86	534.667
1267.1	535.778
1269.35	531.556
1271.6	540.889
1273.84	544.889
1276.08	547.778
1278.33	538.889
1280.57	542.222
1282.81	543.556
1285.05	546.889
1287.29	542.222
1289.53	554.889
1291.77	549.555
1294.01	542
1296.25	542.667
1298.48	546
1300.72	538.444
1302.96	541.556
1305.19	537.111
1307.42	530.889
1309.66	540.222
1311.89	553.778
1314.12	535.556
1316.35	540
1318.58	548.667
1320.81	546.889
1323.04	539.556
1325.27	550.889
1327.5	550.889
1329.73	549.333
1331.95	568.889
1334.18	548.222
1336.4	557.556
1338.63	550.444
1340.85	554.889
1343.08	560
1345.3	547.778
1347.52	540
1349.74	546.667
1351.96	549.333
1354.18	547.111
1356.4	551.333
1358.61	555.778
1360.83	560.444
1363.05	555.111
1365.27	550.889
1367.48	548.889
1369.69	553.111
1371.91	558.222
1374.12	570.667
1376.33	560
1378.55	558.667
1380.76	577.111
1382.97	562.667
1385.18	561.555
1387.39	560.889
1389.59	555.111
1391.8	555.556
1394.01	554
1396.21	554.667
1398.42	541.556
1400.63	546
1402.83	543.111
1405.03	543.111
1407.24	538.667
1409.44	547.333
1411.64	547.778
1413.84	542.667
1416.04	551.333
1418.24	533.556
1420.44	532.667
1422.64	538.222
1424.83	531.111
1427.03	518.222
1429.23	528.889
1431.42	520
1433.62	534.889
1435.81	516
1438	536
1440.19	528.667
1442.39	528.667
1444.58	527.556
1446.77	528.667
1448.96	527.111
1451.15	525.111
1453.34	532
1455.52	534.889
1457.71	541.333
1459.9	526.667
1462.08	527.778
1464.27	532.889
1466.45	538.667
1468.64	528.222
1470.82	529.778
1473	519.333
1475.18	546
1477.36	549.333
1479.54	546.889
1481.72	542
1483.9	538
1486.08	549.556
1488.26	529.111
1490.43	520
1492.61	525.111
1494.78	522.444
1496.96	526.889
1499.13	528.222
1501.31	525.556
1503.48	525.333
1505.65	537.111
1507.82	527.556
1509.99	517.333
1512.16	540.667
1514.33	521.556
1516.5	522.222
1518.67	517.778
1520.84	510.667
1523	518.889
1525.17	516.222
1527.34	526
1529.5	521.111
1531.66	523.556
1533.83	523.333
1535.99	524.444
1538.15	521.555
1540.31	511.333
1542.47	521.333
1544.63	521.111
1546.79	526.444
1548.95	519.111
1551.11	516.667
1553.27	516.444
1555.42	514.889
1557.58	533.778
1559.73	524.667
1561.89	538.667
1564.04	546
1566.2	535.333
1568.35	543.778
1570.5	544
1572.65	577.333
1574.8	585.333
1576.95	610
1579.1	666
1581.25	709.556
1583.4	778
1585.55	865.111
1587.69	954.889
1589.84	972.667
1591.99	905.111
1594.13	816.667
1596.27	715.333
1598.42	654.667
1600.56	605.778
1602.7	583.111
1604.84	562.667
1606.98	532
1609.12	529.333
1611.26	526
1613.4	519.333
1615.54	505.778
1617.68	497.778
1619.81	503.333
1621.95	495.778
1624.08	498.889
1626.22	494.889
1628.35	490.444
1630.49	495.111
1632.62	490.444
1634.75	481.333
1636.88	493.333
1639.01	490.889
1641.14	482.444
1643.27	500
1645.4	482.444
1647.53	482
1649.66	484.667
1651.79	488.667
1653.91	482.444
1656.04	488
1658.16	485.778
1660.29	474.889
1662.41	483.333
1664.53	485.111
1666.66	473.111
1668.78	482.222
1670.9	472.889
1673.02	489.111
1675.14	478.222
1677.26	474.222
1679.38	478.444
1681.49	478.222
1683.61	484
1685.73	483.111
1687.84	479.333
1689.96	465.778
1692.07	472.444
1694.19	481.333
1696.3	474.889
1698.41	474.222
1700.52	476
1702.64	470.444
1704.75	466.889
1706.86	469.111
1708.97	465.111
1711.07	475.778
1713.18	465.556
1715.29	470.667
1717.4	477.333
1719.5	470.667
1721.61	474.667
1723.71	462.444
1725.82	470.444
1727.92	464.889
1730.02	457.556
1732.12	463.333
1734.23	453.778
1736.33	455.111
1738.43	454.889
1740.53	466.889
1742.63	459.333
1744.72	455.556
1746.82	456.222
1748.92	453.778
1751.02	460.444
1753.11	448
1755.21	452.444
1757.3	457.556
1759.4	458.667
1761.49	454
1763.58	455.778
1765.67	452.667
1767.76	446.444
1769.86	448.222
1771.95	446.222
1774.03	449.556
1776.12	454.667
1778.21	448.444
1780.3	443.778
1782.39	446.222
1784.47	453.111
1786.56	459.333
1788.64	448.889
1790.73	444.889
1792.81	451.556
1794.89	452
1796.98	440
1799.06	449.556
1801.14	456.667
1803.22	444.667
1805.3	437.556
1807.38	447.778
1809.46	456.889
1811.54	441.778
1813.61	448.444
1815.69	443.778
1817.77	451.333
1819.84	445.556
1821.92	441.556
1823.99	449.111
1826.06	445.111
1828.14	448
1830.21	436.889
1832.28	437.556
1834.35	435.111
1836.42	440
1838.49	442
1840.56	443.333
1842.63	440.222
1844.7	432.889
1846.77	433.556
1848.83	433.111
1850.9	444.222
1852.96	450.444
1855.03	435.556
1857.09	434.444
1859.15	430.444
1861.22	436.444
1863.28	424
1865.34	434.889
1867.4	426.444
1869.46	437.778
1871.52	435.333
1873.58	428
1875.64	429.333
1877.7	426
1879.76	434.667
1881.81	432.222
1883.87	433.111
1885.92	425.556
1887.98	432.222
1890.03	424.889
1892.09	424.222
1894.14	421.778
1896.19	425.333
1898.24	431.556
1900.29	431.333
1902.34	417.333
1904.4	427.778
1906.44	424.222
1908.49	435.111
1910.54	419.111
1912.59	426.889
1914.63	422.889
1916.68	420.444
1918.73	426.889
1920.77	420.667
1922.81	422.667
1924.86	417.333
1926.9	409.111
1928.94	416.444
1930.99	422.667
1933.03	426
1935.07	423.556
1937.11	410
1939.15	415.333
1941.19	414.222
1943.22	410.222
1945.26	416.222
1947.3	411.556
1949.33	411.556
1951.37	414.444
1953.4	411.556
1955.44	412.667
1957.47	403.778
1959.51	404.444
1961.54	407.778
1963.57	416.667
1965.6	398.222
1967.63	406
1969.66	402.667
1971.69	402.889
1973.72	402.444
1975.75	409.556
1977.78	406.444
1979.8	399.778
1981.83	399.111
1983.86	395.778
1985.88	399.778
1987.91	398.889
1989.93	395.111
1991.95	391.111
1993.98	387.111
1996	401.111
1998.02	396.444
2000.04	404
2002.06	404
2004.08	395.111
2006.1	405.556
2008.12	404.889
2010.14	394.667
2012.15	385.333
2014.17	397.778
2016.19	391.111
2018.2	393.111
2020.22	402.667
2022.23	394.889
2024.25	393.333
2026.26	403.111
2028.27	403.111
2030.28	390.444
2032.29	393.778
2034.3	401.556
2036.32	391.778
2038.32	393.111
2040.33	385.111
2042.34	397.778
2044.35	390.667
2046.36	381.556
2048.36	386
2050.37	390.444
2052.37	382
2054.38	390.889
2056.38	390.222
2058.39	388.889
2060.39	386.444
2062.39	383.111
2064.39	384.889
2066.39	386.444
2068.39	378.889
2070.39	380.222
2072.39	379.111
2074.39	386
2076.39	381.556
2078.39	368.222
2080.39	376
2082.38	372.667
2084.38	378.889
2086.37	383.111
2088.37	379.333
2090.36	381.111
2092.35	384.889
2094.35	373.111
2096.34	369.778
2098.33	376.222
2100.32	379.333
2102.31	376.889
2104.3	377.111
2106.29	370
2108.28	375.556
2110.27	375.333
2112.25	365.778
2114.24	362.444
2116.23	362.667
2118.21	368.444
2120.2	376
2122.18	372.444
2124.17	366.444
2126.15	363.778
2128.13	367.111
2130.11	363.333
2132.09	361.556
2134.08	367.111
2136.06	361.778
2138.04	367.778
2140.02	369.778
2141.99	359.111
2143.97	367.556
2145.95	357.333
2147.93	364.667
2149.9	359.556
2151.88	354.444
2153.85	366.222
2155.83	353.333
2157.8	362.444
2159.77	362
2161.75	356.444
2163.72	362.222
2165.69	358.222
2167.66	357.333
2169.63	361.778
2171.6	357.778
2173.57	351.111
2175.54	344.667
2177.51	359.778
2179.47	357.556
2181.44	365.556
2183.41	356.222
2185.37	360.889
2187.34	342.222
2189.3	343.778
2191.27	352.222
2193.23	353.333
2195.19	358
2197.15	344
2199.11	349.333
2201.08	340.222
2203.04	351.778
2205	357.111
2206.96	355.778
2208.91	363.111
2210.87	362.222
2212.83	366.444
2214.79	370.444
2216.74	383.556
2218.7	413.111
2220.65	442.444
2222.61	482.444
2224.56	523.778
2226.52	573.778
2228.47	592.222
2230.42	618.889
2232.37	592
2234.32	559.333
2236.27	529.556
2238.22	470.667
2240.17	442.889
2242.12	406.889
2244.07	379.778
2246.02	374.889
2247.97	359.556
2249.91	361.333
2251.86	354.222
2253.8	362.667
2255.75	346.444
2257.69	353.111
2259.64	340.889
2261.58	341.111
2263.52	329.778
2265.46	329.556
2267.4	334
2269.35	332
2271.29	333.778
2273.23	328.667
2275.16	331.333
2277.1	327.556
2279.04	332.444
2280.98	324.222
2282.92	325.556
2284.85	325.778
2286.79	322.444
2288.72	320.889
2290.66	322.667
2292.59	327.111
2294.52	327.111
2296.46	314.222
2298.39	318.667
2300.32	322.667
2302.25	320
2304.18	320.889
2306.11	319.556
2308.04	319.556
2309.97	315.333
2311.9	316
2313.83	318.222
2315.75	315.333
2317.68	325.333
2319.61	312.667
2321.53	315.778
2323.46	319.333
2325.38	316.667
2327.3	317.778
2329.23	319.778
2331.15	313.778
2333.07	308.444
2334.99	313.778
2336.91	322
2338.83	318
2340.75	306.444
2342.67	316.667
2344.59	308.667
2346.51	321.111
2348.43	317.111
2350.35	318.222
2352.26	310.667
2354.18	306.889
2356.09	310.667
2358.01	308.889
2359.92	307.556
2361.83	303.556
2363.75	304.444
2365.66	305.778
2367.57	303.333
2369.48	301.333
2371.39	311.333
2373.31	300.889
2375.21	303.556
2377.12	301.333
2379.03	296.667
2380.94	300.667
2382.85	292.444
2384.76	300
2386.66	295.778
2388.57	296.667
2390.47	301.556
2392.38	297.556
2394.28	303.556
2396.18	304.667
2398.09	295.111
2399.99	301.556
2401.89	296.222
2403.79	293.778
2405.69	292.889
2407.59	290.667
2409.49	296.222
2411.39	292
2413.29	294.889
2415.19	291.556
2417.09	295.333
2418.98	286
2420.88	292.222
2422.78	293.333
2424.67	282.889
2426.57	290.444
2428.46	300.444
2430.35	294.222
2432.25	292.667
2434.14	285.556
2436.03	291.778
2437.92	282.222
2439.81	288.889
2441.7	285.111
2443.59	285.778
2445.48	290.222
2447.37	282.444
2449.26	281.333
2451.15	286.889
2453.03	277.556
