186.85	1139.11
189.449	1123.78
192.047	1139.56
194.645	1138.44
197.241	1144.67
199.837	1127.33
202.431	1139.56
205.025	1143.11
207.619	1137.33
210.21	1120
212.802	1121.11
215.392	1110
217.982	1152.89
220.57	1130.44
223.158	1122.22
225.744	1138.44
228.331	1153.78
230.915	1143.56
233.5	1145.56
236.083	1140
238.666	1150.44
241.247	1133.11
243.827	1137.11
246.408	1137.11
248.986	1151.56
251.565	1142.89
254.142	1154
256.719	1136.67
259.294	1120.67
261.868	1122
264.443	1104.89
267.015	1128.67
269.587	1115.33
272.159	1088.44
274.729	1082.67
277.298	1095.33
279.867	1077.11
282.435	1056.67
285.001	1067.33
287.568	1062.22
290.133	1061.11
292.697	1057.78
295.26	1058.89
297.824	1052.44
300.385	1042
302.945	1046.44
305.505	1039.33
308.064	1050.89
310.623	1048.22
313.18	1047.33
315.737	1048.89
318.292	1053.78
320.847	1050.44
323.402	1051.33
325.955	1032
328.507	1044.22
331.058	1063.78
333.609	1060.89
336.158	1052.89
338.707	1045.78
341.255	1047.56
343.802	1059.56
346.349	1065.56
348.895	1065.33
351.439	1081.56
353.983	1072.22
356.526	1092.89
359.068	1113.11
361.609	1102.22
364.149	1110.44
366.689	1102
369.227	1101.33
371.765	1079.78
374.302	1074.44
376.838	1096.44
379.374	1095.78
381.908	1093.78
384.442	1075.56
386.973	1064.89
389.505	1060.44
392.036	1056.67
394.567	1050.44
397.096	1070.67
399.625	1080.22
402.153	1085.56
404.68	1088.89
407.206	1107.11
409.73	1104.44
412.254	1102.44
414.778	1097.11
417.301	1090.67
419.823	1088.22
422.343	1089.33
424.863	1089.11
427.383	1088.89
429.901	1098
432.418	1096
434.935	1105.56
437.451	1139.11
439.966	1115.78
442.48	1112.22
444.993	1127.78
447.506	1114.44
450.019	1126.67
452.528	1115.56
455.039	1107.11
457.549	1115.33
460.056	1115.56
462.564	1121.56
465.07	1107.78
467.576	1119.78
470.082	1097.33
472.585	1092.89
475.089	1100.89
477.591	1106.22
480.093	1109.56
482.595	1108.22
485.094	1122
487.594	1125.78
490.091	1122.89
492.59	1127.33
495.086	1128.22
497.582	1130.67
500.076	1125.33
502.571	1107.11
505.064	1103.56
507.558	1109.56
510.049	1115.11
512.54	1109.11
515.03	1114
517.518	1094
520.008	1095.11
522.495	1103.78
524.983	1096.89
527.468	1089.56
529.954	1108
532.438	1098
534.921	1096.44
537.404	1102.89
539.886	1106
542.366	1108
544.848	1091.33
547.327	1114.22
549.805	1099.11
552.284	1106.22
554.76	1103.56
557.236	1113.11
559.711	1109.11
562.186	1111.11
564.66	1103.56
567.132	1102.22
569.604	1122
572.076	1123.56
574.547	1127.78
577.016	1167.11
579.484	1204
581.952	1218.22
584.419	1234
586.887	1220.44
589.352	1179.78
591.816	1149.78
594.28	1132.44
596.743	1100.89
599.205	1112.67
601.667	1105.11
604.127	1098.89
606.588	1105.33
609.047	1108.44
611.505	1108.44
613.963	1110.67
616.419	1116.89
618.875	1106.89
621.33	1106.44
623.784	1123.78
626.238	1116.89
628.69	1116
631.142	1140.67
633.593	1123.11
636.043	1109.78
638.493	1106.67
640.941	1140.22
643.389	1133.78
645.835	1132.22
648.281	1118
650.727	1130.67
653.171	1108.89
655.615	1089.11
658.058	1094.89
660.501	1114.44
662.942	1088
665.382	1109.56
667.822	1070.22
670.261	1094.22
672.699	1115.33
675.137	1077.78
677.574	1092.67
680.008	1100.67
682.443	1102.22
684.878	1102.89
687.312	1116.44
689.743	1118
692.175	1100.44
694.607	1118.22
697.037	1115.33
699.466	1094.89
701.895	1119.33
704.323	1116.89
706.749	1112.89
709.175	1113.78
711.601	1116.44
714.025	1105.33
716.449	1113.78
718.871	1118.44
721.294	1104.22
723.716	1130.67
726.136	1131.56
728.556	1116
730.975	1111.56
733.394	1121.78
735.812	1105.11
738.228	1123.78
740.644	1133.56
743.058	1099.56
745.473	1102.67
747.886	1093.11
750.3	1096.22
752.711	1097.56
755.123	1098.44
757.533	1100.44
759.942	1085.56
762.351	1093.33
764.759	1091.33
767.167	1093.78
769.573	1098.89
771.979	1096.22
774.383	1112.44
776.787	1127.56
779.191	1149.56
781.593	1130.44
783.994	1109.78
786.396	1115.56
788.796	1098.22
791.195	1118.44
793.595	1107.78
795.992	1100.22
798.389	1104.44
800.786	1082
803.181	1098.22
805.576	1095.78
807.969	1104.44
810.363	1076.22
812.755	1095.78
815.147	1109.33
817.537	1108.67
819.927	1103.33
822.318	1108.22
824.706	1107.33
827.093	1104.89
829.48	1100.22
831.866	1111.11
834.251	1112.89
836.636	1091.78
839.021	1102
841.404	1093.33
843.786	1100.44
846.167	1093.78
848.548	1096.44
850.928	1092
853.307	1089.78
855.685	1080.89
858.063	1098
860.44	1088.67
862.816	1084.44
865.192	1093.33
867.566	1090.44
869.94	1094.67
872.313	1098.67
874.685	1095.11
877.057	1100.22
879.428	1095.56
881.798	1107.11
884.167	1104.89
886.536	1113.11
888.902	1101.78
891.269	1099.56
893.636	1118.22
896.001	1092.89
898.366	1102.44
900.73	1112.67
903.094	1105.78
905.455	1112.67
907.817	1111.56
910.178	1076.89
912.538	1093.78
914.898	1103.11
917.255	1102.22
919.613	1105.11
921.971	1095.11
924.327	1079.11
926.682	1096.89
929.037	1096.22
931.391	1091.56
933.744	1101.56
936.096	1094.44
938.449	1089.11
940.799	1093.56
943.149	1104.67
945.499	1096
947.847	1089.11
950.195	1104.44
952.542	1084.67
954.889	1115.33
957.235	1098.44
959.579	1110.67
961.924	1115.33
964.266	1125.56
966.609	1139.11
968.951	1118.67
971.292	1108.89
973.632	1108.67
975.972	1122.89
978.31	1114.89
980.649	1116.22
982.986	1131.56
985.323	1118
987.659	1125.11
989.994	1139.33
992.328	1139.11
994.662	1148.67
996.995	1161.78
999.326	1157.11
1001.66	1152.22
1003.99	1138
1006.32	1143.78
1008.65	1162.89
1010.98	1165.33
1013.3	1164.89
1015.63	1154.22
1017.96	1174.67
1020.28	1169.78
1022.61	1130.89
1024.93	1142.22
1027.25	1146
1029.58	1143.33
1031.9	1153.11
1034.22	1175.56
1036.54	1180.44
1038.86	1167.33
1041.18	1180.22
1043.49	1193.33
1045.81	1207.78
1048.13	1201.56
1050.44	1214.44
1052.76	1243.33
1055.07	1280
1057.39	1271.11
1059.7	1317.11
1062.01	1371.56
1064.32	1400.22
1066.63	1502.67
1068.94	1647.33
1071.25	1809.56
1073.56	1937.33
1075.87	2078.89
1078.17	2151.56
1080.48	2126.89
1082.79	2023.78
1085.09	1887.78
1087.39	1721.78
1089.7	1598.44
1092	1498
1094.3	1435.33
1096.6	1405.78
1098.9	1367.56
1101.2	1331.56
1103.5	1314
1105.8	1279.11
1108.1	1264.67
1110.39	1256.67
1112.69	1238
1114.98	1246.44
1117.28	1255.33
1119.57	1245.33
1121.86	1230
1124.16	1241.33
1126.45	1232.89
1128.74	1228.22
1131.03	1200.22
1133.32	1219.11
1135.61	1194
1137.89	1204
1140.18	1188.67
1142.47	1215.78
1144.75	1217.11
1147.04	1207.33
1149.32	1218
1151.61	1227.33
1153.89	1231.56
1156.17	1222.22
1158.45	1237.11
1160.73	1236.67
1163.01	1240.44
1165.29	1251.78
1167.57	1270
1169.85	1301.78
1172.12	1347.78
1174.4	1447.78
1176.68	1545.78
1178.95	1649.33
1181.22	1668.89
1183.5	1627.56
1185.77	1508.67
1188.04	1422.67
1190.31	1354.22
1192.58	1326.67
1194.85	1307.33
1197.12	1294.44
1199.39	1308.89
1201.66	1316.22
1203.92	1305.56
1206.19	1290.22
1208.45	1259.78
1210.72	1242.22
1212.98	1220.44
1215.25	1225.78
1217.51	1238
1219.77	1225.33
1222.03	1219.11
1224.29	1232.89
1226.55	1230.67
1228.81	1243.78
1231.07	1254.67
1233.33	1263.78
1235.58	1249.33
1237.84	1274
1240.09	1260.67
1242.35	1259.11
1244.6	1265.56
1246.86	1264.44
1249.11	1262.89
1251.36	1254.67
1253.61	1261.11
1255.86	1255.56
1258.11	1255.11
1260.36	1260.44
1262.61	1251.78
1264.86	1268
1267.1	1268.44
1269.35	1254.67
1271.6	1245.56
1273.84	1246.89
1276.08	1258.22
1278.33	1265.33
1280.57	1263.78
1282.81	1256.22
1285.05	1263.78
1287.29	1265.56
1289.53	1257.56
1291.77	1265.33
1294.01	1265.11
1296.25	1258.44
1298.48	1258
1300.72	1250.67
1302.96	1276.22
1305.19	1253.11
1307.42	1281.78
1309.66	1268.44
1311.89	1298.22
1314.12	1288.22
1316.35	1291.78
1318.58	1282
1320.81	1285.11
1323.04	1269.33
1325.27	1298.67
1327.5	1303.78
1329.73	1292.22
1331.95	1301.11
1334.18	1274.22
1336.4	1280.44
1338.63	1293.78
1340.85	1306.44
1343.08	1299.33
1345.3	1296.44
1347.52	1293.56
1349.74	1290.67
1351.96	1286
1354.18	1282.89
1356.4	1295.56
1358.61	1308
1360.83	1324.89
1363.05	1300.22
1365.27	1332.44
1367.48	1315.78
1369.69	1322
1371.91	1328
1374.12	1326.89
1376.33	1350.22
1378.55	1347.78
1380.76	1342.44
1382.97	1338.22
1385.18	1330.89
1387.39	1346.89
1389.59	1310.67
1391.8	1323.11
1394.01	1332.22
1396.21	1342.22
1398.42	1330.67
1400.63	1320.22
1402.83	1318.22
1405.03	1335.11
1407.24	1316.44
1409.44	1309.11
1411.64	1325.56
1413.84	1312.89
1416.04	1325.33
1418.24	1310.22
1420.44	1310.22
1422.64	1296.22
1424.83	1297.33
1427.03	1277.78
1429.23	1284.67
1431.42	1294
1433.62	1283.33
1435.81	1280.44
1438	1314
1440.19	1297.56
1442.39	1288
1444.58	1294
1446.77	1302.67
1448.96	1305.33
1451.15	1285.78
1453.34	1295.33
1455.52	1286.67
1457.71	1296.44
1459.9	1303.78
1462.08	1307.11
1464.27	1308
1466.45	1326.22
1468.64	1324.67
1470.82	1345.78
1473	1329.33
1475.18	1326.89
1477.36	1319.11
1479.54	1322.22
1481.72	1324.22
1483.9	1307.78
1486.08	1307.56
1488.26	1311.33
1490.43	1298.44
1492.61	1322
1494.78	1327.78
1496.96	1328.67
1499.13	1344
1501.31	1328.44
1503.48	1347.11
1505.65	1347.56
1507.82	1350.22
1509.99	1359.78
1512.16	1341.56
1514.33	1357.56
1516.5	1349.78
1518.67	1336.44
1520.84	1351.33
1523	1338.67
1525.17	1350.22
1527.34	1359.56
1529.5	1358.89
1531.66	1357.56
1533.83	1357.78
1535.99	1359.11
1538.15	1369.56
1540.31	1376.67
1542.47	1380
1544.63	1375.11
1546.79	1385.11
1548.95	1392.89
1551.11	1386
1553.27	1401.33
1555.42	1411.33
1557.58	1435.78
1559.73	1448
1561.89	1470.67
1564.04	1504.44
1566.2	1539.56
1568.35	1606
1570.5	1662.67
1572.65	1740.44
1574.8	1826.44
1576.95	1968.22
1579.1	2099.11
1581.25	2277.33
1583.4	2499.33
1585.55	2638
1587.69	2732.22
1589.84	2672
1591.99	2411.56
1594.13	2144.67
1596.27	1908
1598.42	1743.33
1600.56	1604.67
1602.7	1539.56
1604.84	1486.22
1606.98	1407.33
1609.12	1375.11
1611.26	1336
1613.4	1312
1615.54	1265.56
1617.68	1257.11
1619.81	1217.33
1621.95	1211.11
1624.08	1197.33
1626.22	1186.22
1628.35	1154.89
1630.49	1151.33
1632.62	1135.78
1634.75	1126.22
1636.88	1120.89
1639.01	1098.22
1641.14	1096
1643.27	1105.78
1645.4	1092.22
1647.53	1098.44
1649.66	1083.11
1651.79	1094.22
1653.91	1077.33
1656.04	1073.11
1658.16	1063.56
1660.29	1079.78
1662.41	1038.89
1664.53	1056
1666.66	1045.11
1668.78	1056.44
1670.9	1037.56
1673.02	1035.33
1675.14	1038.22
1677.26	1028.89
1679.38	1034.89
1681.49	1030.67
1683.61	1035.11
1685.73	1032
1687.84	1040.89
1689.96	1009.78
1692.07	1007.33
1694.19	1021.11
1696.3	1017.78
1698.41	1006.22
1700.52	1006.22
1702.64	997.555
1704.75	1006.89
1706.86	999.333
1708.97	1002.89
1711.07	1001.78
1713.18	1000
1715.29	1001.56
1717.4	994
1719.5	983.333
1721.61	984.889
1723.71	988.222
1725.82	976.667
1727.92	987.333
1730.02	988.222
1732.12	971.555
1734.23	982.889
1736.33	968.667
1738.43	965.111
1740.53	950.889
1742.63	964.889
1744.72	958.889
1746.82	948.444
1748.92	931.333
1751.02	955.778
1753.11	949.556
1755.21	929.333
1757.3	956.889
1759.4	934.444
1761.49	940
1763.58	949.778
1765.67	930
1767.76	933.111
1769.86	938.222
1771.95	944.889
1774.03	934.889
1776.12	938.667
1778.21	922.444
1780.3	904.222
1782.39	927.111
1784.47	930.222
1786.56	926.667
1788.64	926.444
1790.73	935.333
1792.81	929.111
1794.89	929.111
1796.98	924
1799.06	920.222
1801.14	919.778
1803.22	936.889
1805.3	927.333
1807.38	927.111
1809.46	909.778
1811.54	923.556
1813.61	913.778
1815.69	907.778
1817.77	919.333
1819.84	924.889
1821.92	906.444
1823.99	917.778
1826.06	914.889
1828.14	887.333
1830.21	891.333
1832.28	889.555
1834.35	894.889
1836.42	898
1838.49	899.333
1840.56	884.444
1842.63	894
1844.7	879.333
1846.77	890.222
1848.83	899.111
1850.9	875.556
1852.96	900.667
1855.03	887.778
1857.09	885.556
1859.15	886.445
1861.22	880.222
1863.28	862.889
1865.34	884.889
1867.4	873.333
1869.46	870.444
1871.52	871.111
1873.58	870.667
1875.64	863.556
1877.7	867.111
1879.76	888
1881.81	862.667
1883.87	858.222
1885.92	863.111
1887.98	853.111
1890.03	858
1892.09	852.222
1894.14	869.111
1896.19	865.333
1898.24	878
1900.29	862.667
1902.34	859.111
1904.4	848.222
1906.44	856.222
1908.49	861.111
1910.54	861.111
1912.59	847.778
1914.63	853.111
1916.68	834.667
1918.73	867.556
1920.77	856.222
1922.81	851.333
1924.86	852.889
1926.9	865.556
1928.94	834
1930.99	859.556
1933.03	847.333
1935.07	846.444
1937.11	840
1939.15	836.889
1941.19	851.556
1943.22	844.444
1945.26	828.222
1947.3	848.889
1949.33	832.444
1951.37	839.778
1953.4	845.555
1955.44	819.778
1957.47	837.556
1959.51	827.556
1961.54	834.444
1963.57	826.667
1965.6	825.556
1967.63	823.333
1969.66	832.667
1971.69	822
1973.72	831.111
1975.75	812.445
1977.78	824.222
1979.8	807.333
1981.83	825.556
1983.86	827.333
1985.88	810.222
1987.91	822.889
1989.93	815.778
1991.95	814.889
1993.98	793.111
1996	807.111
1998.02	800.667
2000.04	816.222
2002.06	807.111
2004.08	812.222
2006.1	805.556
2008.12	822.667
2010.14	805.778
2012.15	810.667
2014.17	821.333
2016.19	790.667
2018.2	804.222
2020.22	806.222
2022.23	803.778
2024.25	812.222
2026.26	808.667
2028.27	793.778
2030.28	803.556
2032.29	800.667
2034.3	805.778
2036.32	801.111
2038.32	794.222
2040.33	791.333
2042.34	796.667
2044.35	786.667
2046.36	789.556
2048.36	788.889
2050.37	791.111
2052.37	777.111
2054.38	789.333
2056.38	777.333
2058.39	782.667
2060.39	782.889
2062.39	777.333
2064.39	769.555
2066.39	780.889
2068.39	774
2070.39	771.333
2072.39	768
2074.39	752.445
2076.39	772.222
2078.39	776.667
2080.39	775.111
2082.38	773.556
2084.38	766.222
2086.37	761.556
2088.37	770
2090.36	754.444
2092.35	772.222
2094.35	754.667
2096.34	753.333
2098.33	771.778
2100.32	764.222
2102.31	756.667
2104.3	761.333
2106.29	768.889
2108.28	752.889
2110.27	763.333
2112.25	764
2114.24	751.111
2116.23	756.889
2118.21	744.222
2120.2	753.333
2122.18	748.444
2124.17	768.889
2126.15	754.889
2128.13	749.778
2130.11	764
2132.09	756
2134.08	764.667
2136.06	764.889
2138.04	754.222
2140.02	754
2141.99	754.667
2143.97	749.778
2145.95	755.111
2147.93	738.444
2149.9	753.556
2151.88	734.889
2153.85	741.556
2155.83	745.333
2157.8	750.445
2159.77	727.778
2161.75	731.556
2163.72	729.556
2165.69	738
2167.66	728.444
2169.63	731.556
2171.6	728.889
2173.57	734
2175.54	720.667
2177.51	723.111
2179.47	719.556
2181.44	730.667
2183.41	716
2185.37	717.778
2187.34	718
2189.3	715.778
2191.27	731.333
2193.23	712
2195.19	727.333
2197.15	709.778
2199.11	722
2201.08	730
2203.04	720.222
2205	728.222
2206.96	741.333
2208.91	740.667
2210.87	774.889
2212.83	796.222
2214.79	826.222
2216.74	850.444
2218.7	931.111
2220.65	992.222
2222.61	1088.89
2224.56	1202.67
2226.52	1263.78
2228.47	1310
2230.42	1259.78
2232.37	1228.89
2234.32	1137.56
2236.27	1054
2238.22	966.222
2240.17	896.667
2242.12	842.445
2244.07	813.111
2246.02	790.444
2247.97	768.889
2249.91	758.444
2251.86	754.222
2253.8	740.667
2255.75	746
2257.69	719.111
2259.64	715.333
2261.58	691.333
2263.52	696.222
2265.46	697.778
2267.4	690
2269.35	690.222
2271.29	684
2273.23	673.778
2275.16	671.333
2277.1	669.556
2279.04	672.444
2280.98	666.889
2282.92	669.111
2284.85	659.556
2286.79	655.111
2288.72	643.333
2290.66	661.778
2292.59	663.778
2294.52	662.444
2296.46	660.444
2298.39	643.778
2300.32	657.556
2302.25	653.333
2304.18	647.333
2306.11	638.889
2308.04	633.556
2309.97	644
2311.9	639.556
2313.83	655.111
2315.75	654
2317.68	648.222
2319.61	647.556
2321.53	641.778
2323.46	642.444
2325.38	636.889
2327.3	634.222
2329.23	646.444
2331.15	632
2333.07	635.333
2334.99	634
2336.91	630
2338.83	640.444
2340.75	627.111
2342.67	623.333
2344.59	620.889
2346.51	631.778
2348.43	634.222
2350.35	628.667
2352.26	625.556
2354.18	623.778
2356.09	621.111
2358.01	629.778
2359.92	619.333
2361.83	623.556
2363.75	614.667
2365.66	619.333
2367.57	634.222
2369.48	623.111
2371.39	624
2373.31	619.111
2375.21	623.778
2377.12	612.667
2379.03	603.111
2380.94	599.111
2382.85	605.778
2384.76	597.111
2386.66	591.556
2388.57	606.889
2390.47	584.889
2392.38	591.333
2394.28	606.889
2396.18	600.889
2398.09	610.222
2399.99	592.889
2401.89	591.333
2403.79	606.667
2405.69	606.889
2407.59	583.778
2409.49	589.111
2411.39	587.778
2413.29	582.222
2415.19	587.333
2417.09	590.222
2418.98	583.778
2420.88	577.778
2422.78	596.222
2424.67	587.333
2426.57	588.889
2428.46	585.778
2430.35	582.222
2432.25	580
2434.14	577.111
2436.03	582.889
2437.92	588.667
2439.81	576.444
2441.7	596.444
2443.59	590.222
2445.48	575.333
2447.37	584.222
2449.26	578.444
2451.15	586.667
2453.03	594.444
