186.85	533.778
189.449	531.111
192.047	534.222
194.645	534.222
197.241	535.333
199.837	536.889
202.431	536.667
205.025	545.333
207.619	541.111
210.21	543.111
212.802	538
215.392	538.222
217.982	530.889
220.57	545.111
223.158	555.333
225.744	541.778
228.331	550.889
230.915	538.667
233.5	549.556
236.083	548.667
238.666	550.667
241.247	552.222
243.827	556.444
246.408	552.444
248.986	548.667
251.565	553.111
254.142	558.889
256.719	563.111
259.294	556.444
261.868	543.111
264.443	551.333
267.015	542.667
269.587	538.444
272.159	529.556
274.729	521.556
277.298	524.222
279.867	516.222
282.435	512.667
285.001	523.333
287.568	515.111
290.133	514.667
292.697	508.222
295.26	506.889
297.824	502
300.385	517.111
302.945	515.333
305.505	511.111
308.064	514.222
310.623	513.556
313.18	520.667
315.737	516.667
318.292	513.111
320.847	513.778
323.402	509.556
325.955	500.667
328.507	505.556
331.058	510
333.609	528.222
336.158	526.889
338.707	519.556
341.255	518
343.802	520
346.349	530.222
348.895	525.778
351.439	530
353.983	535.111
356.526	526.667
359.068	533.778
361.609	537.333
364.149	539.111
366.689	533.778
369.227	524.667
371.765	535.778
374.302	526.667
376.838	538.889
379.374	552.222
381.908	545.556
384.442	540.222
386.973	514.444
389.505	515.333
392.036	501.111
394.567	512.222
397.096	520.889
399.625	509.111
402.153	513.778
404.68	514.667
407.206	528.889
409.73	514.889
412.254	526.889
414.778	522.444
417.301	528.444
419.823	522.889
422.343	524.667
424.863	527.556
427.383	528.444
429.901	527.111
432.418	528.667
434.935	544
437.451	546
439.966	542.444
442.48	543.333
444.993	538.667
447.506	538.889
450.019	531.333
452.528	534.222
455.039	537.111
457.549	541.778
460.056	536.667
462.564	533.111
465.07	526.889
467.576	520
470.082	539.778
472.585	531.111
475.089	539.333
477.591	538.667
480.093	542.889
482.595	550.222
485.094	547.333
487.594	568.889
490.091	558.667
492.59	564.444
495.086	560.667
497.582	555.111
500.076	539.556
502.571	550.889
505.064	540
507.558	544.444
510.049	542.444
512.54	544.889
515.03	530.667
517.518	538.667
520.008	543.111
522.495	541.333
524.983	537.778
527.468	524.889
529.954	528.889
532.438	520
534.921	524.889
537.404	519.111
539.886	529.778
542.366	521.111
544.848	532.444
547.327	530.667
549.805	535.333
552.284	527.111
554.76	525.111
557.236	520.445
559.711	523.556
562.186	518.445
564.66	528.222
567.132	530.222
569.604	526
572.076	537.778
574.547	535.556
577.016	567.778
579.484	572.222
581.952	588
584.419	578.667
586.887	574.667
589.352	557.333
591.816	551.556
594.28	531.333
596.743	524.889
599.205	529.111
601.667	519.556
604.127	521.111
606.588	518.667
609.047	524
611.505	515.111
613.963	528.222
616.419	518.667
618.875	521.556
621.33	524.444
623.784	526
626.238	529.111
628.69	530.222
631.142	534.444
633.593	536.222
636.043	526.889
638.493	523.556
640.941	532.889
643.389	522.889
645.835	534.444
648.281	524.444
650.727	522.444
653.171	522
655.615	515.333
658.058	518.222
660.501	524.667
662.942	520.222
665.382	522.667
667.822	510
670.261	512.444
672.699	528
675.137	512.667
677.574	516.222
680.008	514.667
682.443	524.444
684.878	523.556
687.312	522.222
689.743	528
692.175	531.556
694.607	527.333
697.037	517.111
699.466	513.556
701.895	525.778
704.323	525.333
706.749	522.222
709.175	517.333
711.601	527.556
714.025	521.111
716.449	533.111
718.871	526
721.294	527.111
723.716	529.556
726.136	521.778
728.556	526.444
730.975	523.111
733.394	517.556
735.812	530
738.228	518.889
740.644	515.556
743.058	516
745.473	514.444
747.886	516.444
750.3	519.556
752.711	507.556
755.123	524.444
757.533	510
759.942	512
762.351	513.333
764.759	515.778
767.167	512.667
769.573	530.222
771.979	517.556
774.383	533.333
776.787	547.556
779.191	544.444
781.593	545.556
783.994	535.333
786.396	522.444
788.796	525.556
791.195	520
793.595	517.333
795.992	521.778
798.389	532.222
800.786	522
803.181	521.778
805.576	538.222
807.969	519.333
810.363	531.111
812.755	515.111
815.147	529.111
817.537	524.889
819.927	515.778
822.318	529.556
824.706	529.556
827.093	513.556
829.48	520
831.866	518.444
834.251	520.667
836.636	515.778
839.021	517.111
841.404	526.222
843.786	522.222
846.167	516
848.548	520.889
850.928	513.778
853.307	522.889
855.685	518.222
858.063	517.333
860.44	515.778
862.816	515.111
865.192	516.889
867.566	514.889
869.94	514
872.313	517.111
874.685	515.778
877.057	508.222
879.428	512.444
881.798	510.444
884.167	509.111
886.536	519.778
888.902	530
891.269	523.778
893.636	518
896.001	521.111
898.366	522.444
900.73	524
903.094	518.222
905.455	515.333
907.817	512
910.178	508.444
912.538	509.333
914.898	509.333
917.255	502.667
919.613	502.889
921.971	517.111
924.327	515.556
926.682	513.778
929.037	521.333
931.391	530.667
933.744	540.889
936.096	539.556
938.449	537.333
940.799	555.111
943.149	533.778
945.499	533.778
947.847	522.222
950.195	532
952.542	520.667
954.889	512
957.235	524.444
959.579	524.889
961.924	518.667
964.266	522.222
966.609	522
968.951	526.889
971.292	525.778
973.632	518.444
975.972	524
978.31	522.222
980.649	525.111
982.986	522.889
985.323	522.889
987.659	521.778
989.994	526.889
992.328	528.889
994.662	526.444
996.995	528.222
999.326	530.444
1001.66	525.111
1003.99	525.111
1006.32	524
1008.65	522.222
1010.98	526.222
1013.3	513.556
1015.63	525.111
1017.96	522.667
1020.28	518.222
1022.61	521.556
1024.93	534.222
1027.25	525.111
1029.58	529.778
1031.9	535.111
1034.22	539.778
1036.54	551.111
1038.86	543.333
1041.18	542
1043.49	546
1045.81	565.778
1048.13	556
1050.44	561.778
1052.76	557.556
1055.07	557.111
1057.39	574.667
1059.7	576.667
1062.01	585.778
1064.32	606.444
1066.63	620.667
1068.94	666.889
1071.25	719.111
1073.56	779.111
1075.87	848.889
1078.17	908
1080.48	925.778
1082.79	898.889
1085.09	833.333
1087.39	765.333
1089.7	709.778
1092	664.444
1094.3	645.333
1096.6	644.222
1098.9	628
1101.2	602
1103.5	573.333
1105.8	568.444
1108.1	567.333
1110.39	558
1112.69	573.111
1114.98	557.778
1117.28	578
1119.57	584
1121.86	566
1124.16	556.444
1126.45	569.556
1128.74	557.111
1131.03	539.778
1133.32	528.889
1135.61	538.222
1137.89	534.889
1140.18	534.444
1142.47	528.667
1144.75	535.333
1147.04	540.444
1149.32	537.778
1151.61	547.556
1153.89	551.556
1156.17	545.333
1158.45	547.556
1160.73	542.444
1163.01	535.111
1165.29	544.444
1167.57	552.667
1169.85	554.889
1172.12	580
1174.4	612.667
1176.68	660.222
1178.95	703.111
1181.22	695.556
1183.5	670.444
1185.77	636.667
1188.04	604.889
1190.31	572.222
1192.58	557.333
1194.85	542.889
1197.12	553.556
1199.39	555.111
1201.66	557.778
1203.92	544.444
1206.19	538
1208.45	525.556
1210.72	517.556
1212.98	517.111
1215.25	515.556
1217.51	508.889
1219.77	504
1222.03	503.333
1224.29	504
1226.55	504.444
1228.81	512.444
1231.07	508.667
1233.33	511.778
1235.58	513.111
1237.84	494
1240.09	519.333
1242.35	519.111
1244.6	514
1246.86	512.222
1249.11	516.444
1251.36	515.333
1253.61	510.889
1255.86	508.222
1258.11	508
1260.36	512.667
1262.61	514.222
1264.86	519.555
1267.1	513.333
1269.35	506.222
1271.6	506.222
1273.84	508.667
1276.08	511.556
1278.33	516.889
1280.57	526.444
1282.81	527.555
1285.05	528.222
1287.29	520.667
1289.53	520
1291.77	527.556
1294.01	513.333
1296.25	521.556
1298.48	514
1300.72	519.333
1302.96	522.667
1305.19	523.333
1307.42	528
1309.66	509.778
1311.89	515.556
1314.12	522.889
1316.35	527.111
1318.58	518.889
1320.81	527.556
1323.04	525.778
1325.27	529.111
1327.5	534.445
1329.73	529.556
1331.95	534
1334.18	526.889
1336.4	536.889
1338.63	527.556
1340.85	535.333
1343.08	531.333
1345.3	535.556
1347.52	516.889
1349.74	524.444
1351.96	526.222
1354.18	536.222
1356.4	526.444
1358.61	529.111
1360.83	533.333
1363.05	534.222
1365.27	520.444
1367.48	538.889
1369.69	534.889
1371.91	537.556
1374.12	542.667
1376.33	538.667
1378.55	547.111
1380.76	550.667
1382.97	543.556
1385.18	541.778
1387.39	539.111
1389.59	528.667
1391.8	535.333
1394.01	530.889
1396.21	533.333
1398.42	532.444
1400.63	535.778
1402.83	523.555
1405.03	542.889
1407.24	534.444
1409.44	547.333
1411.64	534.222
1413.84	540.444
1416.04	532.222
1418.24	515.778
1420.44	516
1422.64	518.222
1424.83	510.444
1427.03	507.778
1429.23	505.778
1431.42	509.556
1433.62	504.889
1435.81	498.889
1438	493.556
1440.19	497.556
1442.39	504.444
1444.58	492
1446.77	510.667
1448.96	502.889
1451.15	500.222
1453.34	504.667
1455.52	507.556
1457.71	496.222
1459.9	511.778
1462.08	502
1464.27	508
1466.45	508.222
1468.64	508
1470.82	516.889
1473	514.667
1475.18	509.333
1477.36	516.222
1479.54	524.667
1481.72	524.889
1483.9	524.889
1486.08	516
1488.26	512.444
1490.43	505.111
1492.61	497.556
1494.78	501.778
1496.96	505.111
1499.13	506
1501.31	499.333
1503.48	496.222
1505.65	507.111
1507.82	513.333
1509.99	504
1512.16	509.333
1514.33	498.889
1516.5	508.667
1518.67	495.111
1520.84	503.333
1523	500.667
1525.17	504.667
1527.34	503.556
1529.5	498
1531.66	512.444
1533.83	499.333
1535.99	494
1538.15	506.222
1540.31	499.333
1542.47	510.667
1544.63	508.667
1546.79	508.667
1548.95	515.333
1551.11	517.556
1553.27	499.778
1555.42	513.778
1557.58	518
1559.73	512.444
1561.89	517.556
1564.04	524.889
1566.2	527.778
1568.35	536.889
1570.5	556.444
1572.65	578.444
1574.8	616.444
1576.95	642.889
1579.1	698.667
1581.25	753.556
1583.4	846.444
1585.55	952.889
1587.69	1035.11
1589.84	1016.67
1591.99	914.222
1594.13	805.333
1596.27	704.444
1598.42	649.111
1600.56	611.778
1602.7	568.444
1604.84	547.556
1606.98	526
1609.12	514.667
1611.26	504.667
1613.4	493.556
1615.54	488.222
1617.68	480.889
1619.81	489.111
1621.95	476.444
1624.08	470.667
1626.22	465.556
1628.35	468.444
1630.49	472
1632.62	463.556
1634.75	462.889
1636.88	458.222
1639.01	466.222
1641.14	458.889
1643.27	458
1645.4	460.889
1647.53	458
1649.66	453.111
1651.79	461.111
1653.91	448.667
1656.04	450.667
1658.16	444.222
1660.29	461.111
1662.41	442.444
1664.53	458
1666.66	460.222
1668.78	448.444
1670.9	450.444
1673.02	449.333
1675.14	444.444
1677.26	453.333
1679.38	445.556
1681.49	447.778
1683.61	447.333
1685.73	442.667
1687.84	440.222
1689.96	436.889
1692.07	442.444
1694.19	441.333
1696.3	447.333
1698.41	439.333
1700.52	449.556
1702.64	437.778
1704.75	439.333
1706.86	434.444
1708.97	439.556
1711.07	428.889
1713.18	433.778
1715.29	436.889
1717.4	430.667
1719.5	429.111
1721.61	428.222
1723.71	434.444
1725.82	426.222
1727.92	418
1730.02	430.667
1732.12	430.667
1734.23	428.889
1736.33	425.778
1738.43	418.667
1740.53	433.556
1742.63	429.778
1744.72	435.556
1746.82	416
1748.92	420.889
1751.02	422.667
1753.11	416.222
1755.21	420.444
1757.3	420.889
1759.4	417.111
1761.49	419.111
1763.58	421.778
1765.67	420.667
1767.76	416.889
1769.86	403.556
1771.95	416
1774.03	424.889
1776.12	418.667
1778.21	416.667
1780.3	418.444
1782.39	413.556
1784.47	421.333
1786.56	408.444
1788.64	405.111
1790.73	418.444
1792.81	398.222
1794.89	418.444
1796.98	410.889
1799.06	418.222
1801.14	414.667
1803.22	406
1805.3	410
1807.38	415.778
1809.46	409.556
1811.54	408
1813.61	410.222
1815.69	408.889
1817.77	408.222
1819.84	415.556
1821.92	410
1823.99	408.222
1826.06	404.667
1828.14	402.889
1830.21	409.111
1832.28	409.556
1834.35	394
1836.42	401.556
1838.49	405.778
1840.56	405.556
1842.63	398.444
1844.7	400.667
1846.77	396.444
1848.83	399.556
1850.9	400
1852.96	399.778
1855.03	401.556
1857.09	393.778
1859.15	395.778
1861.22	394.444
1863.28	398.667
1865.34	394.222
1867.4	398.222
1869.46	400
1871.52	391.778
1873.58	396.444
1875.64	392
1877.7	391.778
1879.76	398
1881.81	395.778
1883.87	395.333
1885.92	392.222
1887.98	386.889
1890.03	387.778
1892.09	399.778
1894.14	388.889
1896.19	388.444
1898.24	393.111
1900.29	392
1902.34	392.667
1904.4	387.778
1906.44	386.222
1908.49	403.556
1910.54	391.333
1912.59	387.778
1914.63	379.333
1916.68	388.222
1918.73	385.111
1920.77	399.333
1922.81	391.333
1924.86	383.778
1926.9	384.222
1928.94	378.444
1930.99	383.111
1933.03	385.556
1935.07	384.222
1937.11	378.444
1939.15	382.222
1941.19	379.778
1943.22	385.111
1945.26	389.556
1947.3	384.222
1949.33	381.333
1951.37	388
1953.4	380.889
1955.44	378.222
1957.47	374.667
1959.51	374.889
1961.54	381.333
1963.57	384
1965.6	376.667
1967.63	372.667
1969.66	376
1971.69	368.889
1973.72	374.667
1975.75	369.111
1977.78	376.222
1979.8	363.333
1981.83	371.556
1983.86	371.333
1985.88	365.778
1987.91	372
1989.93	373.556
1991.95	374.667
1993.98	364.889
1996	360.444
1998.02	369.111
2000.04	366.889
2002.06	353.778
2004.08	372
2006.1	361.111
2008.12	372.889
2010.14	365.333
2012.15	370.444
2014.17	373.778
2016.19	370.889
2018.2	364.222
2020.22	369.556
2022.23	370.444
2024.25	367.778
2026.26	367.333
2028.27	364.444
2030.28	364.889
2032.29	361.778
2034.3	356.667
2036.32	364.222
2038.32	366.889
2040.33	366.222
2042.34	366
2044.35	360.889
2046.36	366
2048.36	361.111
2050.37	366.222
2052.37	353.333
2054.38	359.111
2056.38	361.111
2058.39	356.667
2060.39	359.556
2062.39	358.444
2064.39	360.444
2066.39	355.333
2068.39	357.111
2070.39	356.889
2072.39	359.333
2074.39	352.889
2076.39	355.333
2078.39	350.444
2080.39	344.444
2082.38	352
2084.38	355.111
2086.37	343.778
2088.37	356.444
2090.36	349.778
2092.35	342.444
2094.35	356.889
2096.34	345.111
2098.33	356.222
2100.32	350.222
2102.31	351.778
2104.3	350.222
2106.29	348.889
2108.28	337.778
2110.27	347.333
2112.25	348.667
2114.24	350.222
2116.23	339.111
2118.21	340
2120.2	347.556
2122.18	339.556
2124.17	342.222
2126.15	341.778
2128.13	343.111
2130.11	338.667
2132.09	338.667
2134.08	331.556
2136.06	340
2138.04	335.556
2140.02	342.222
2141.99	340
2143.97	337.111
2145.95	339.333
2147.93	342.889
2149.9	334.667
2151.88	330.889
2153.85	338.667
2155.83	328.667
2157.8	333.111
2159.77	334.667
2161.75	337.333
2163.72	326.889
2165.69	338.444
2167.66	340
2169.63	337.556
2171.6	340
2173.57	335.111
2175.54	325.111
2177.51	335.111
2179.47	327.556
2181.44	332
2183.41	330.667
2185.37	325.556
2187.34	332
2189.3	321.111
2191.27	321.111
2193.23	324.667
2195.19	320.222
2197.15	332
2199.11	327.778
2201.08	327.333
2203.04	327.333
2205	339.778
2206.96	333.333
2208.91	337.111
2210.87	338.889
2212.83	345.333
2214.79	361.111
2216.74	376.667
2218.7	395.111
2220.65	432.667
2222.61	466.444
2224.56	508.444
2226.52	563.555
2228.47	595.111
2230.42	588.222
2232.37	568.444
2234.32	528.222
2236.27	483.333
2238.22	429.778
2240.17	405.556
2242.12	376.444
2244.07	362.222
2246.02	354.222
2247.97	331.778
2249.91	341.778
2251.86	331.111
2253.8	328.667
2255.75	329.778
2257.69	322.667
2259.64	316
2261.58	320
2263.52	322.889
2265.46	316.667
2267.4	304
2269.35	315.556
2271.29	311.778
2273.23	314
2275.16	306.889
2277.1	306
2279.04	312.444
2280.98	306
2282.92	300.444
2284.85	295.778
2286.79	300.667
2288.72	309.556
2290.66	299.111
2292.59	303.333
2294.52	311.556
2296.46	298.889
2298.39	305.778
2300.32	294.222
2302.25	298
2304.18	296.667
2306.11	293.333
2308.04	299.556
2309.97	299.778
2311.9	292.889
2313.83	290.889
2315.75	296.667
2317.68	293.333
2319.61	303.111
2321.53	295.333
2323.46	303.333
2325.38	290.222
2327.3	294.889
2329.23	291.111
2331.15	294.667
2333.07	291.333
2334.99	286.444
2336.91	289.778
2338.83	292.889
2340.75	288.889
2342.67	292.444
2344.59	299.333
2346.51	292.667
2348.43	293.111
2350.35	283.778
2352.26	286.667
2354.18	285.333
2356.09	291.778
2358.01	287.333
2359.92	292
2361.83	284.444
2363.75	294.889
2365.66	286
2367.57	283.556
2369.48	284.222
2371.39	289.778
2373.31	282.889
2375.21	276.667
2377.12	277.778
2379.03	275.556
2380.94	284.444
2382.85	276.222
2384.76	282.222
2386.66	278
2388.57	278.667
2390.47	276.889
2392.38	282
2394.28	280.222
2396.18	277.556
2398.09	277.111
2399.99	278
2401.89	272
2403.79	274
2405.69	282.889
2407.59	271.111
2409.49	272.667
2411.39	273.111
2413.29	264.889
2415.19	274.889
2417.09	273.778
2418.98	269.778
2420.88	270.444
2422.78	275.556
2424.67	262.222
2426.57	266.222
2428.46	269.556
2430.35	264.444
2432.25	267.556
2434.14	266.222
2436.03	275.556
2437.92	272.889
2439.81	271.778
2441.7	268.889
2443.59	266.889
2445.48	264.222
2447.37	266.889
2449.26	268.222
2451.15	268.889
2453.03	268
