186.85	558
189.449	555.778
192.047	550
194.645	566.445
197.241	564
199.837	564.667
202.431	564.667
205.025	573.556
207.619	567.556
210.21	567.778
212.802	560
215.392	566.889
217.982	558.889
220.57	571.778
223.158	576.222
225.744	567.333
228.331	573.111
230.915	571.111
233.5	573.556
236.083	578
238.666	585.333
241.247	581.778
243.827	592.667
246.408	587.556
248.986	587.555
251.565	593.556
254.142	594.889
256.719	587.556
259.294	598.444
261.868	594.667
264.443	586.667
267.015	582.222
269.587	586.222
272.159	597.111
274.729	584.222
277.298	578.667
279.867	586
282.435	580.444
285.001	578.444
287.568	575.333
290.133	579.111
292.697	587.333
295.26	579.333
297.824	578.222
300.385	577.333
302.945	582.222
305.505	596
308.064	590.889
310.623	589.111
313.18	595.111
315.737	590.889
318.292	585.778
320.847	605.333
323.402	582.889
325.955	602
328.507	604.889
331.058	603.778
333.609	613.778
336.158	608.222
338.707	606.444
341.255	613.111
343.802	619.111
346.349	624.222
348.895	626.889
351.439	625.333
353.983	616.889
356.526	619.333
359.068	631.333
361.609	636.667
364.149	636.667
366.689	631.333
369.227	627.111
371.765	634.222
374.302	636.444
376.838	644.889
379.374	662.444
381.908	663.333
384.442	658.667
386.973	626.444
389.505	630.889
392.036	606.444
394.567	607.556
397.096	600.667
399.625	619.333
402.153	627.556
404.68	626.667
407.206	621.333
409.73	619.555
412.254	623.111
414.778	624.667
417.301	618
419.823	623.333
422.343	628.889
424.863	632.889
427.383	633.111
429.901	630.667
432.418	645.111
434.935	656.444
437.451	648
439.966	645.556
442.48	644
444.993	641.333
447.506	644.444
450.019	640.667
452.528	635.333
455.039	642.444
457.549	648.222
460.056	656
462.564	641.556
465.07	640.889
467.576	639.556
470.082	636.667
472.585	631.778
475.089	626.889
477.591	644
480.093	630.889
482.595	641.556
485.094	644.222
487.594	635.333
490.091	644
492.59	650.222
495.086	650.222
497.582	638.889
500.076	649.778
502.571	638.667
505.064	634
507.558	647.778
510.049	645.333
512.54	639.556
515.03	647.778
517.518	642.889
520.008	659.333
522.495	654.667
524.983	640.889
527.468	635.111
529.954	645.333
532.438	624.444
534.921	636.444
537.404	633.333
539.886	637.556
542.366	635.333
544.848	635.556
547.327	649.778
549.805	632.444
552.284	637.111
554.76	648.444
557.236	651.556
559.711	642.444
562.186	629.778
564.66	637.333
567.132	644
569.604	642.444
572.076	653.778
574.547	639.111
577.016	667.778
579.484	672.667
581.952	674.222
584.419	673.111
586.887	686.667
589.352	666.667
591.816	642.222
594.28	641.111
596.743	649.333
599.205	631.333
601.667	633.556
604.127	634.222
606.588	640.222
609.047	631.333
611.505	647.333
613.963	633.333
616.419	631.556
618.875	636.667
621.33	646.889
623.784	635.556
626.238	645.111
628.69	636.222
631.142	647.778
633.593	642
636.043	644.222
638.493	652.222
640.941	644.222
643.389	637.778
645.835	646.667
648.281	646.222
650.727	632.444
653.171	653.556
655.615	639.778
658.058	639.556
660.501	633.111
662.942	643.333
665.382	634.444
667.822	644.889
670.261	632.444
672.699	628.444
675.137	636
677.574	648.667
680.008	622.667
682.443	630.667
684.878	626.222
687.312	644
689.743	632.222
692.175	624.222
694.607	633.778
697.037	630.444
699.466	641.333
701.895	638.222
704.323	642.444
706.749	641.556
709.175	641.333
711.601	638.667
714.025	626.444
716.449	640.889
718.871	640.667
721.294	640.444
723.716	641.556
726.136	631.778
728.556	625.556
730.975	633.333
733.394	633.556
735.812	624.222
738.228	636.889
740.644	640.222
743.058	625.111
745.473	622.667
747.886	622
750.3	633.111
752.711	628.667
755.123	622.222
757.533	618.889
759.942	615.556
762.351	626.444
764.759	617.333
767.167	634.444
769.573	629.778
771.979	617.555
774.383	634.889
776.787	641.778
779.191	656
781.593	653.556
783.994	647.333
786.396	642
788.796	635.556
791.195	633.556
793.595	626.444
795.992	626
798.389	632.444
800.786	631.556
803.181	620.889
805.576	634.667
807.969	632.889
810.363	635.556
812.755	634.222
815.147	624
817.537	623.778
819.927	617.111
822.318	633.333
824.706	628
827.093	623.111
829.48	623.556
831.866	637.556
834.251	622
836.636	627.778
839.021	621.556
841.404	625.778
843.786	621.778
846.167	614.444
848.548	608.444
850.928	606.222
853.307	608.889
855.685	619.556
858.063	626
860.44	627.333
862.816	625.111
865.192	624.444
867.566	615.778
869.94	624.222
872.313	614.889
874.685	612.444
877.057	617.333
879.428	615.333
881.798	624.667
884.167	611.333
886.536	628
888.902	620
891.269	615.556
893.636	623.111
896.001	626.667
898.366	620.667
900.73	626.444
903.094	622.222
905.455	632
907.817	622.222
910.178	618
912.538	607.111
914.898	620.444
917.255	618.667
919.613	611.556
921.971	609.556
924.327	611.556
926.682	602.889
929.037	614.222
931.391	608.667
933.744	609.333
936.096	607.111
938.449	606
940.799	609.556
943.149	600.667
945.499	607.333
947.847	602.667
950.195	612.889
952.542	608
954.889	613.111
957.235	621.778
959.579	608.444
961.924	606
964.266	615.333
966.609	609.333
968.951	612.444
971.292	624.667
973.632	618.667
975.972	621.111
978.31	620.889
980.649	619.111
982.986	604.222
985.323	605.778
987.659	610.444
989.994	618
992.328	632.667
994.662	620
996.995	611.556
999.326	622
1001.66	612.444
1003.99	622.889
1006.32	608.222
1008.65	607.556
1010.98	616.889
1013.3	620.889
1015.63	605.111
1017.96	614.667
1020.28	605.778
1022.61	604
1024.93	602.444
1027.25	619.111
1029.58	616.889
1031.9	628.889
1034.22	615.333
1036.54	629.556
1038.86	620.667
1041.18	622.667
1043.49	610
1045.81	636.222
1048.13	626.222
1050.44	634
1052.76	634.889
1055.07	638.444
1057.39	636.222
1059.7	653.556
1062.01	665.111
1064.32	664.444
1066.63	689.333
1068.94	729.556
1071.25	771.111
1073.56	815.333
1075.87	871.333
1078.17	886.222
1080.48	890.667
1082.79	891.778
1085.09	846.667
1087.39	796.444
1089.7	774.667
1092	755.778
1094.3	764.667
1096.6	755.333
1098.9	734
1101.2	718.444
1103.5	684.222
1105.8	683.111
1108.1	664
1110.39	654.222
1112.69	658.222
1114.98	652.889
1117.28	664
1119.57	674.667
1121.86	669.778
1124.16	674
1126.45	657.111
1128.74	653.111
1131.03	651.778
1133.32	625.555
1135.61	622.222
1137.89	628.222
1140.18	612.889
1142.47	607.556
1144.75	623.556
1147.04	622
1149.32	637.111
1151.61	624.444
1153.89	636
1156.17	631.556
1158.45	621.111
1160.73	628.444
1163.01	622.667
1165.29	633.111
1167.57	616.444
1169.85	616.889
1172.12	630.889
1174.4	669.778
1176.68	699.333
1178.95	742.667
1181.22	742.667
1183.5	723.333
1185.77	690
1188.04	659.778
1190.31	649.111
1192.58	626
1194.85	624.667
1197.12	622.667
1199.39	629.333
1201.66	635.111
1203.92	629.333
1206.19	625.778
1208.45	613.111
1210.72	604.889
1212.98	596.889
1215.25	591.111
1217.51	597.556
1219.77	591.556
1222.03	582
1224.29	577.778
1226.55	595.778
1228.81	589.778
1231.07	577.111
1233.33	593.111
1235.58	593.333
1237.84	588.889
1240.09	588.889
1242.35	596.667
1244.6	589.111
1246.86	596
1249.11	598.444
1251.36	598.222
1253.61	599.778
1255.86	593.333
1258.11	595.778
1260.36	599.111
1262.61	585.556
1264.86	593.556
1267.1	586.444
1269.35	586.889
1271.6	584.444
1273.84	588.444
1276.08	592.889
1278.33	590.444
1280.57	581.333
1282.81	582.667
1285.05	598.445
1287.29	581.333
1289.53	588.444
1291.77	596
1294.01	602.222
1296.25	596.667
1298.48	599.778
1300.72	584
1302.96	590
1305.19	585.556
1307.42	590
1309.66	584.889
1311.89	583.333
1314.12	590.889
1316.35	606.444
1318.58	591.333
1320.81	584.444
1323.04	593.111
1325.27	595.778
1327.5	595.555
1329.73	595.111
1331.95	600.444
1334.18	593.111
1336.4	607.333
1338.63	612
1340.85	594.444
1343.08	602.222
1345.3	604.889
1347.52	589.555
1349.74	592.667
1351.96	595.556
1354.18	595.333
1356.4	581.111
1358.61	603.556
1360.83	596.667
1363.05	587.778
1365.27	598.667
1367.48	604.889
1369.69	608.444
1371.91	601.556
1374.12	614
1376.33	615.111
1378.55	622.444
1380.76	628.889
1382.97	619.111
1385.18	602
1387.39	613.111
1389.59	612
1391.8	612.889
1394.01	589.333
1396.21	600.889
1398.42	596.889
1400.63	590.889
1402.83	590.222
1405.03	599.556
1407.24	587.556
1409.44	588.889
1411.64	585.333
1413.84	584.889
1416.04	594
1418.24	576.889
1420.44	581.111
1422.64	563.556
1424.83	573.778
1427.03	575.556
1429.23	564.667
1431.42	576.222
1433.62	556.222
1435.81	558
1438	566.444
1440.19	585.111
1442.39	570.222
1444.58	563.556
1446.77	570.667
1448.96	567.111
1451.15	575.778
1453.34	574
1455.52	568.889
1457.71	577.556
1459.9	586.667
1462.08	572
1464.27	564.222
1466.45	569.556
1468.64	562.889
1470.82	574.889
1473	580.667
1475.18	588.222
1477.36	583.111
1479.54	584
1481.72	580.444
1483.9	576.889
1486.08	567.111
1488.26	564.667
1490.43	571.333
1492.61	549.111
1494.78	550.222
1496.96	562.222
1499.13	552.444
1501.31	559.111
1503.48	563.111
1505.65	560.667
1507.82	560.445
1509.99	568.444
1512.16	567.111
1514.33	565.111
1516.5	555.111
1518.67	549.333
1520.84	555.333
1523	552
1525.17	554.667
1527.34	547.333
1529.5	545.333
1531.66	545.333
1533.83	552
1535.99	559.111
1538.15	553.778
1540.31	545.778
1542.47	562
1544.63	553.111
1546.79	561.556
1548.95	550.444
1551.11	565.111
1553.27	562.222
1555.42	566.222
1557.58	550.889
1559.73	566.445
1561.89	563.333
1564.04	568.444
1566.2	571.111
1568.35	578
1570.5	588
1572.65	615.556
1574.8	630.667
1576.95	649.333
1579.1	685.778
1581.25	740.444
1583.4	796.444
1585.55	888.667
1587.69	940.889
1589.84	956.667
1591.99	877.556
1594.13	800
1596.27	732.667
1598.42	666.889
1600.56	623.778
1602.7	605.556
1604.84	584.445
1606.98	571.333
1609.12	552
1611.26	552.444
1613.4	553.333
1615.54	544.667
1617.68	534.889
1619.81	545.556
1621.95	545.778
1624.08	538
1626.22	538.444
1628.35	533.778
1630.49	518.667
1632.62	523.555
1634.75	526.667
1636.88	527.111
1639.01	526
1641.14	523.556
1643.27	534.222
1645.4	524.667
1647.53	518
1649.66	514.889
1651.79	525.556
1653.91	518.444
1656.04	533.111
1658.16	509.556
1660.29	512
1662.41	512.889
1664.53	522.222
1666.66	517.556
1668.78	522.222
1670.9	512.222
1673.02	510.444
1675.14	515.556
1677.26	514.667
1679.38	513.333
1681.49	509.111
1683.61	513.556
1685.73	513.111
1687.84	502.667
1689.96	509.333
1692.07	515.111
1694.19	503.111
1696.3	502.667
1698.41	500.667
1700.52	506.667
1702.64	510.889
1704.75	514.444
1706.86	510.889
1708.97	502.667
1711.07	506.889
1713.18	517.333
1715.29	506
1717.4	505.111
1719.5	502.444
1721.61	505.111
1723.71	499.556
1725.82	497.778
1727.92	495.778
1730.02	496.444
1732.12	495.778
1734.23	497.556
1736.33	502
1738.43	493.333
1740.53	483.111
1742.63	487.556
1744.72	490
1746.82	492.889
1748.92	500.889
1751.02	483.111
1753.11	497.556
1755.21	486.889
1757.3	483.778
1759.4	477.778
1761.49	484.222
1763.58	484.444
1765.67	484
1767.76	486.667
1769.86	476.444
1771.95	480.222
1774.03	489.778
1776.12	490.889
1778.21	476
1780.3	478.222
1782.39	489.111
1784.47	492
1786.56	477.556
1788.64	495.111
1790.73	494.222
1792.81	486.889
1794.89	478
1796.98	486.444
1799.06	480.667
1801.14	477.556
1803.22	490.667
1805.3	478.667
1807.38	476.222
1809.46	482.222
1811.54	481.556
1813.61	478.889
1815.69	482.667
1817.77	479.333
1819.84	474
1821.92	484.222
1823.99	483.556
1826.06	474
1828.14	479.111
1830.21	473.556
1832.28	478.222
1834.35	470
1836.42	469.556
1838.49	473.111
1840.56	470
1842.63	471.556
1844.7	476.222
1846.77	470
1848.83	468.222
1850.9	464.889
1852.96	472.667
1855.03	457.333
1857.09	463.111
1859.15	469.333
1861.22	475.556
1863.28	460
1865.34	464.444
1867.4	465.111
1869.46	462.444
1871.52	468.889
1873.58	461.111
1875.64	458.889
1877.7	462.667
1879.76	458.222
1881.81	458.667
1883.87	460.444
1885.92	467.556
1887.98	449.333
1890.03	454.222
1892.09	459.333
1894.14	456.222
1896.19	451.778
1898.24	459.333
1900.29	456.222
1902.34	452.444
1904.4	462
1906.44	450.667
1908.49	452.889
1910.54	460.889
1912.59	458.222
1914.63	447.778
1916.68	453.778
1918.73	456.667
1920.77	457.556
1922.81	454
1924.86	455.333
1926.9	448
1928.94	448.444
1930.99	446.222
1933.03	452.222
1935.07	439.778
1937.11	444.667
1939.15	438.667
1941.19	447.111
1943.22	446
1945.26	442.222
1947.3	442.444
1949.33	446.667
1951.37	438.667
1953.4	430.667
1955.44	440.444
1957.47	441.111
1959.51	442.889
1961.54	432.667
1963.57	429.778
1965.6	430.889
1967.63	434.222
1969.66	432.444
1971.69	430.444
1973.72	438.222
1975.75	426.667
1977.78	420
1979.8	432
1981.83	436.222
1983.86	438.889
1985.88	425.778
1987.91	430.889
1989.93	431.778
1991.95	429.556
1993.98	430.222
1996	427.111
1998.02	428.444
2000.04	422.667
2002.06	426.222
2004.08	426.222
2006.1	423.111
2008.12	424.222
2010.14	431.333
2012.15	424.889
2014.17	420
2016.19	429.556
2018.2	421.778
2020.22	424.667
2022.23	421.778
2024.25	427.556
2026.26	424
2028.27	428.667
2030.28	414
2032.29	424.444
2034.3	421.778
2036.32	423.778
2038.32	418.444
2040.33	418.222
2042.34	413.778
2044.35	419.778
2046.36	421.556
2048.36	414.889
2050.37	419.333
2052.37	411.111
2054.38	415.778
2056.38	415.556
2058.39	423.333
2060.39	413.556
2062.39	414.667
2064.39	410.444
2066.39	416.222
2068.39	421.333
2070.39	410.222
2072.39	413.333
2074.39	417.333
2076.39	410
2078.39	405.556
2080.39	417.333
2082.38	407.778
2084.38	410.889
2086.37	408.444
2088.37	404.222
2090.36	407.556
2092.35	404.667
2094.35	396.889
2096.34	406.222
2098.33	404.222
2100.32	403.111
2102.31	413.111
2104.3	411.778
2106.29	399.333
2108.28	394
2110.27	389.556
2112.25	414.222
2114.24	398.222
2116.23	403.778
2118.21	400.444
2120.2	397.556
2122.18	391.778
2124.17	401.333
2126.15	398.889
2128.13	386.889
2130.11	397.333
2132.09	395.111
2134.08	399.111
2136.06	384.222
2138.04	393.111
2140.02	392.667
2141.99	394
2143.97	382.667
2145.95	388.444
2147.93	390
2149.9	391.556
2151.88	388.444
2153.85	392.222
2155.83	386.222
2157.8	383.333
2159.77	397.333
2161.75	387.778
2163.72	388.222
2165.69	383.111
2167.66	382.889
2169.63	386.889
2171.6	379.111
2173.57	386.667
2175.54	386.667
2177.51	384.222
2179.47	381.111
2181.44	378.444
2183.41	373.111
2185.37	381.111
2187.34	384.667
2189.3	369.333
2191.27	380.222
2193.23	377.111
2195.19	370.667
2197.15	374.444
2199.11	383.556
2201.08	380
2203.04	374.889
2205	385.778
2206.96	378
2208.91	374.444
2210.87	385.556
2212.83	386
2214.79	394.444
2216.74	409.111
2218.7	429.333
2220.65	443.111
2222.61	488.889
2224.56	525.333
2226.52	552
2228.47	579.778
2230.42	592.667
2232.37	577.111
2234.32	555.111
2236.27	519.778
2238.22	492.667
2240.17	454.222
2242.12	429.778
2244.07	416.667
2246.02	396.222
2247.97	385.111
2249.91	387.556
2251.86	379.111
2253.8	374.444
2255.75	369.556
2257.69	358
2259.64	366
2261.58	358.667
2263.52	365.333
2265.46	360.667
2267.4	358.889
2269.35	355.778
2271.29	359.778
2273.23	358
2275.16	358.667
2277.1	353.778
2279.04	350.222
2280.98	344.889
2282.92	347.333
2284.85	346.667
2286.79	345.111
2288.72	346.667
2290.66	350
2292.59	347.333
2294.52	337.333
2296.46	348.889
2298.39	341.556
2300.32	342.889
2302.25	345.778
2304.18	342.222
2306.11	339.333
2308.04	349.333
2309.97	343.111
2311.9	340.444
2313.83	345.111
2315.75	336.222
2317.68	341.111
2319.61	335.778
2321.53	339.111
2323.46	332.444
2325.38	334.889
2327.3	331.556
2329.23	344.667
2331.15	338.667
2333.07	329.111
2334.99	334.222
2336.91	337.556
2338.83	330.889
2340.75	333.111
2342.67	332.444
2344.59	335.111
2346.51	338.444
2348.43	337.333
2350.35	334.222
2352.26	339.111
2354.18	329.333
2356.09	325.333
2358.01	331.778
2359.92	321.333
2361.83	326.444
2363.75	327.556
2365.66	322.444
2367.57	322.444
2369.48	326
2371.39	325.333
2373.31	328.222
2375.21	318.889
2377.12	318.667
2379.03	320.222
2380.94	324.667
2382.85	319.111
2384.76	319.556
2386.66	317.111
2388.57	318.444
2390.47	321.333
2392.38	312.889
2394.28	319.556
2396.18	308.222
2398.09	317.556
2399.99	311.111
2401.89	320.444
2403.79	315.556
2405.69	317.111
2407.59	306.444
2409.49	314
2411.39	308.222
2413.29	315.778
2415.19	306.444
2417.09	312.222
2418.98	306.222
2420.88	309.778
2422.78	318.889
2424.67	315.778
2426.57	308.444
2428.46	307.111
2430.35	319.333
2432.25	310
2434.14	299.556
2436.03	307.778
2437.92	301.778
2439.81	308
2441.7	309.111
2443.59	308.889
2445.48	306.889
2447.37	302.889
2449.26	312
2451.15	300.222
2453.03	309.556
