186.85	709.333
189.449	716.445
192.047	720.222
194.645	708.667
197.241	711.333
199.837	705.556
202.431	711.778
205.025	707.333
207.619	716.889
210.21	709.333
212.802	704.444
215.392	722.667
217.982	708.444
220.57	710.444
223.158	711.111
225.744	717.556
228.331	711.778
230.915	726.222
233.5	714.222
236.083	713.778
238.666	735.556
241.247	725.778
243.827	721.556
246.408	743.555
248.986	735.111
251.565	730
254.142	720.222
256.719	732.444
259.294	722.444
261.868	736.667
264.443	734.444
267.015	728
269.587	715.111
272.159	717.111
274.729	712.444
277.298	710.889
279.867	692.667
282.435	695.778
285.001	686.889
287.568	693.111
290.133	700.222
292.697	686
295.26	684.889
297.824	693.556
300.385	695.333
302.945	695.778
305.505	698
308.064	710
310.623	690.222
313.18	702.222
315.737	703.556
318.292	717.778
320.847	697.556
323.402	710.667
325.955	705.111
328.507	711.333
331.058	725.556
333.609	724.444
336.158	724.222
338.707	735.111
341.255	736.889
343.802	737.333
346.349	738.444
348.895	754.667
351.439	737.333
353.983	745.111
356.526	751.111
359.068	751.556
361.609	760.444
364.149	754
366.689	755.778
369.227	749.556
371.765	746.667
374.302	768.444
376.838	772
379.374	760.667
381.908	780
384.442	768
386.973	738.445
389.505	742.222
392.036	717.333
394.567	716.444
397.096	722.222
399.625	737.333
402.153	756.667
404.68	747.333
407.206	743.778
409.73	732.667
412.254	743.111
414.778	742.667
417.301	755.778
419.823	751.778
422.343	750.444
424.863	749.111
427.383	733.111
429.901	754
432.418	759.556
434.935	769.333
437.451	774.667
439.966	776.667
442.48	770.889
444.993	775.111
447.506	755.556
450.019	768.667
452.528	768.889
455.039	773.111
457.549	772.444
460.056	779.111
462.564	772.222
465.07	751.556
467.576	759.111
470.082	768.222
472.585	771.111
475.089	753.556
477.591	759.111
480.093	760.667
482.595	756.667
485.094	766
487.594	765.111
490.091	762
492.59	757.778
495.086	768.889
497.582	763.778
500.076	768
502.571	756
505.064	755.556
507.558	745.778
510.049	759.111
512.54	762.444
515.03	744.889
517.518	768.444
520.008	774
522.495	761.333
524.983	750.889
527.468	749.111
529.954	757.333
532.438	744.222
534.921	746.222
537.404	762
539.886	751.333
542.366	753.778
544.848	759.111
547.327	758.222
549.805	768
552.284	778.889
554.76	758.667
557.236	764
559.711	746.667
562.186	744.222
564.66	748.889
567.132	749.556
569.604	761.111
572.076	756.889
574.547	754.444
577.016	776
579.484	790.889
581.952	794
584.419	810.667
586.887	797.111
589.352	799.778
591.816	778.444
594.28	744.889
596.743	741.556
599.205	744.445
601.667	746.444
604.127	746.222
606.588	745.111
609.047	747.556
611.505	731.111
613.963	741.556
616.419	742.444
618.875	751.333
621.33	737.556
623.784	735.111
626.238	747.778
628.69	747.333
631.142	743.111
633.593	772.889
636.043	750.444
638.493	753.778
640.941	752.889
643.389	746.667
645.835	758
648.281	744
650.727	757.778
653.171	762.222
655.615	742.222
658.058	762
660.501	744.667
662.942	735.333
665.382	735.778
667.822	740.444
670.261	740.667
672.699	756
675.137	738.222
677.574	729.778
680.008	745.111
682.443	752.444
684.878	727.778
687.312	738
689.743	742.222
692.175	746.444
694.607	746.222
697.037	747.333
699.466	733.111
701.895	757.111
704.323	734.222
706.749	744.667
709.175	735.333
711.601	744
714.025	747.556
716.449	754.222
718.871	749.333
721.294	758
723.716	749.111
726.136	733.111
728.556	741.111
730.975	741.333
733.394	736.444
735.812	732.222
738.228	735.556
740.644	722.222
743.058	732.889
745.473	721.556
747.886	739.555
750.3	727.778
752.711	717.778
755.123	722.444
757.533	723.556
759.942	711.778
762.351	739.333
764.759	705.556
767.167	727.556
769.573	718
771.979	744.667
774.383	740.667
776.787	750.444
779.191	755.333
781.593	761.778
783.994	759.556
786.396	742.667
788.796	753.111
791.195	739.111
793.595	722.444
795.992	738
798.389	734.667
800.786	742.222
803.181	744.222
805.576	741.778
807.969	740
810.363	746.222
812.755	743.333
815.147	738.222
817.537	746.444
819.927	754.444
822.318	747.556
824.706	738
827.093	753.333
829.48	726
831.866	741.778
834.251	736.667
836.636	738.445
839.021	740.444
841.404	739.111
843.786	726.889
846.167	745.333
848.548	736.889
850.928	738.667
853.307	739.333
855.685	722.667
858.063	723.333
860.44	731.778
862.816	737.333
865.192	736.889
867.566	740.222
869.94	742
872.313	759.556
874.685	743.111
877.057	734.889
879.428	746.889
881.798	743.778
884.167	746.444
886.536	746
888.902	735.111
891.269	754.444
893.636	755.556
896.001	750.222
898.366	746.444
900.73	745.111
903.094	747.111
905.455	741.333
907.817	740.667
910.178	738
912.538	739.556
914.898	733.333
917.255	727.778
919.613	713.556
921.971	728.222
924.327	731.556
926.682	722
929.037	726.889
931.391	715.111
933.744	718.889
936.096	716.889
938.449	718.444
940.799	728.222
943.149	718.444
945.499	733.333
947.847	718.444
950.195	731.333
952.542	727.778
954.889	739.111
957.235	722.444
959.579	731.111
961.924	727.556
964.266	742.444
966.609	740.222
968.951	745.778
971.292	746.667
973.632	753.556
975.972	735.778
978.31	751.778
980.649	738.444
982.986	746
985.323	753.111
987.659	754.889
989.994	754.444
992.328	741.556
994.662	749.111
996.995	757.111
999.326	763.333
1001.66	770.222
1003.99	764.667
1006.32	773.111
1008.65	786.889
1010.98	782.444
1013.3	782.889
1015.63	791.778
1017.96	782
1020.28	769.778
1022.61	784.889
1024.93	778.444
1027.25	768.667
1029.58	775.111
1031.9	792.444
1034.22	790.889
1036.54	790.667
1038.86	794.889
1041.18	790.889
1043.49	791.111
1045.81	800
1048.13	804.444
1050.44	826.889
1052.76	835.333
1055.07	836.222
1057.39	842.667
1059.7	854
1062.01	865.778
1064.32	877.556
1066.63	911.111
1068.94	970
1071.25	1016.67
1073.56	1089.56
1075.87	1145.33
1078.17	1218.44
1080.48	1256.44
1082.79	1250
1085.09	1215.56
1087.39	1116.22
1089.7	1042.44
1092	999.333
1094.3	967.111
1096.6	940.222
1098.9	923.111
1101.2	889.333
1103.5	857.555
1105.8	849.778
1108.1	845.111
1110.39	824
1112.69	831.556
1114.98	850.667
1117.28	858.889
1119.57	838.667
1121.86	861.778
1124.16	856.222
1126.45	844
1128.74	829.333
1131.03	818.222
1133.32	823.555
1135.61	808.444
1137.89	808.444
1140.18	808.222
1142.47	819.111
1144.75	801.333
1147.04	823.555
1149.32	806.444
1151.61	820
1153.89	826.222
1156.17	836.222
1158.45	828
1160.73	819.556
1163.01	824.889
1165.29	846
1167.57	826.222
1169.85	857.111
1172.12	876
1174.4	943.333
1176.68	969.333
1178.95	1019.33
1181.22	1017.56
1183.5	988.222
1185.77	945.111
1188.04	885.333
1190.31	876
1192.58	863.778
1194.85	848.667
1197.12	850.667
1199.39	863.333
1201.66	884.222
1203.92	862.667
1206.19	847.556
1208.45	822
1210.72	824.667
1212.98	823.333
1215.25	830.444
1217.51	834.667
1219.77	837.111
1222.03	845.333
1224.29	843.333
1226.55	840.222
1228.81	863.778
1231.07	862
1233.33	877.556
1235.58	872.444
1237.84	865.556
1240.09	872.222
1242.35	869.778
1244.6	879.333
1246.86	863.778
1249.11	868.222
1251.36	869.333
1253.61	873.111
1255.86	875.556
1258.11	856.667
1260.36	862.222
1262.61	881.778
1264.86	873.778
1267.1	872.222
1269.35	848.445
1271.6	856.889
1273.84	870.889
1276.08	847.556
1278.33	868.222
1280.57	858
1282.81	862.222
1285.05	869.111
1287.29	881.778
1289.53	873.778
1291.77	889.778
1294.01	902
1296.25	912.444
1298.48	898
1300.72	880.444
1302.96	899.111
1305.19	894.889
1307.42	900.222
1309.66	894.222
1311.89	905.333
1314.12	884.222
1316.35	900.444
1318.58	908.667
1320.81	895.555
1323.04	913.111
1325.27	913.111
1327.5	925.333
1329.73	921.556
1331.95	940.889
1334.18	935.111
1336.4	935.111
1338.63	915.556
1340.85	909.778
1343.08	915.778
1345.3	881.556
1347.52	896.222
1349.74	902.444
1351.96	911.778
1354.18	909.111
1356.4	919.556
1358.61	921.111
1360.83	928.889
1363.05	930.444
1365.27	936.889
1367.48	925.556
1369.69	935.111
1371.91	928.889
1374.12	933.111
1376.33	940.222
1378.55	951.333
1380.76	946
1382.97	946.444
1385.18	939.556
1387.39	940.222
1389.59	930.667
1391.8	934
1394.01	924.222
1396.21	915.333
1398.42	927.778
1400.63	925.111
1402.83	914.222
1405.03	920.667
1407.24	891.111
1409.44	915.556
1411.64	917.556
1413.84	918.444
1416.04	903.778
1418.24	908.889
1420.44	902.667
1422.64	900.222
1424.83	901.111
1427.03	910.667
1429.23	900.667
1431.42	900.889
1433.62	881.111
1435.81	877.556
1438	876.667
1440.19	873.556
1442.39	890.667
1444.58	882.667
1446.77	901.111
1448.96	886.889
1451.15	869.111
1453.34	887.111
1455.52	868.667
1457.71	895.778
1459.9	905.778
1462.08	906.889
1464.27	924.667
1466.45	925.111
1468.64	934
1470.82	935.333
1473	942.444
1475.18	922.667
1477.36	943.778
1479.54	929.778
1481.72	917.333
1483.9	912.222
1486.08	894.667
1488.26	908.222
1490.43	903.111
1492.61	897.333
1494.78	898.222
1496.96	917.111
1499.13	915.111
1501.31	913.111
1503.48	900.889
1505.65	909.111
1507.82	921.778
1509.99	905.556
1512.16	888.222
1514.33	903.778
1516.5	901.778
1518.67	892
1520.84	895.111
1523	896.889
1525.17	893.333
1527.34	885.778
1529.5	905.333
1531.66	894.667
1533.83	909.111
1535.99	904.444
1538.15	918.222
1540.31	901.778
1542.47	888.222
1544.63	906.667
1546.79	911.556
1548.95	907.556
1551.11	916
1553.27	925.111
1555.42	922.889
1557.58	942.222
1559.73	943.556
1561.89	938.444
1564.04	969.111
1566.2	967.555
1568.35	986.444
1570.5	1012.89
1572.65	1063.78
1574.8	1115.33
1576.95	1160
1579.1	1234.44
1581.25	1316.67
1583.4	1434.67
1585.55	1569.78
1587.69	1662
1589.84	1642.89
1591.99	1552.89
1594.13	1373.33
1596.27	1250
1598.42	1150
1600.56	1085.11
1602.7	1010.89
1604.84	954.222
1606.98	946.444
1609.12	918.889
1611.26	908
1613.4	889.333
1615.54	875.333
1617.68	879.333
1619.81	869.333
1621.95	847.111
1624.08	846.445
1626.22	836.667
1628.35	828.889
1630.49	816.222
1632.62	799.111
1634.75	790.667
1636.88	791.333
1639.01	782.444
1641.14	767.333
1643.27	772.667
1645.4	774.222
1647.53	765.778
1649.66	766.667
1651.79	764.444
1653.91	758.444
1656.04	744.889
1658.16	744.889
1660.29	727.333
1662.41	727.778
1664.53	724
1666.66	723.111
1668.78	725.778
1670.9	720
1673.02	710.667
1675.14	720.222
1677.26	713.111
1679.38	719.111
1681.49	709.111
1683.61	702.222
1685.73	701.556
1687.84	704.667
1689.96	700.222
1692.07	700.222
1694.19	696.222
1696.3	687.778
1698.41	698
1700.52	685.333
1702.64	682.889
1704.75	668.444
1706.86	669.333
1708.97	660.444
1711.07	669.333
1713.18	660.222
1715.29	666
1717.4	653.333
1719.5	653.111
1721.61	655.333
1723.71	650.889
1725.82	643.111
1727.92	656
1730.02	647.333
1732.12	657.556
1734.23	635.556
1736.33	636
1738.43	637.556
1740.53	651.556
1742.63	632.889
1744.72	633.556
1746.82	623.333
1748.92	621.556
1751.02	615.556
1753.11	615.556
1755.21	631.111
1757.3	621.778
1759.4	623.556
1761.49	629.556
1763.58	608.889
1765.67	609.111
1767.76	620
1769.86	615.333
1771.95	604.889
1774.03	614.889
1776.12	619.556
1778.21	639.333
1780.3	617.333
1782.39	628
1784.47	623.556
1786.56	611.333
1788.64	603.778
1790.73	607.333
1792.81	610.889
1794.89	622.667
1796.98	620.667
1799.06	617.333
1801.14	615.111
1803.22	622
1805.3	611.778
1807.38	610.889
1809.46	615.556
1811.54	613.333
1813.61	620.667
1815.69	607.556
1817.77	613.556
1819.84	606
1821.92	603.333
1823.99	615.333
1826.06	602
1828.14	596
1830.21	613.333
1832.28	596.444
1834.35	600
1836.42	589.778
1838.49	604.667
1840.56	600.889
1842.63	592
1844.7	594.889
1846.77	607.111
1848.83	591.111
1850.9	592
1852.96	587.778
1855.03	580.889
1857.09	576.889
1859.15	580.889
1861.22	584.889
1863.28	571.111
1865.34	584.889
1867.4	586.444
1869.46	572.667
1871.52	574.667
1873.58	574.222
1875.64	581.778
1877.7	566.222
1879.76	568.667
1881.81	571.778
1883.87	561.333
1885.92	567.111
1887.98	562.667
1890.03	569.556
1892.09	560.889
1894.14	568.444
1896.19	557.778
1898.24	561.111
1900.29	561.333
1902.34	565.556
1904.4	572.444
1906.44	559.111
1908.49	581.333
1910.54	568
1912.59	553.333
1914.63	562
1916.68	565.333
1918.73	563.111
1920.77	567.778
1922.81	557.111
1924.86	559.111
1926.9	560.222
1928.94	560.444
1930.99	557.556
1933.03	569.556
1935.07	552.889
1937.11	562.667
1939.15	554.444
1941.19	564.667
1943.22	545.111
1945.26	546.222
1947.3	547.778
1949.33	555.556
1951.37	549.333
1953.4	549.778
1955.44	556.222
1957.47	551.556
1959.51	539.111
1961.54	541.778
1963.57	546
1965.6	542.889
1967.63	542.667
1969.66	535.111
1971.69	542.222
1973.72	530.667
1975.75	540.889
1977.78	527.556
1979.8	535.111
1981.83	530.889
1983.86	522
1985.88	540.445
1987.91	540.444
1989.93	537.333
1991.95	531.556
1993.98	533.556
1996	534.667
1998.02	526
2000.04	528.889
2002.06	524.444
2004.08	523.333
2006.1	513.778
2008.12	524
2010.14	530.444
2012.15	534
2014.17	525.333
2016.19	523.556
2018.2	522
2020.22	525.556
2022.23	529.111
2024.25	524.444
2026.26	532.222
2028.27	513.556
2030.28	516.889
2032.29	532
2034.3	524.889
2036.32	521.778
2038.32	519.778
2040.33	514.444
2042.34	509.556
2044.35	521.111
2046.36	513.111
2048.36	506
2050.37	509.556
2052.37	511.556
2054.38	525.111
2056.38	519.778
2058.39	521.556
2060.39	509.111
2062.39	513.556
2064.39	515.111
2066.39	512.667
2068.39	506
2070.39	501.778
2072.39	502.889
2074.39	513.556
2076.39	512.222
2078.39	510.444
2080.39	507.333
2082.38	503.556
2084.38	508
2086.37	511.778
2088.37	505.111
2090.36	495.333
2092.35	513.111
2094.35	495.556
2096.34	489.111
2098.33	485.556
2100.32	489.778
2102.31	499.778
2104.3	491.111
2106.29	490.667
2108.28	491.556
2110.27	484
2112.25	476.667
2114.24	478
2116.23	478.889
2118.21	491.556
2120.2	488.444
2122.18	485.778
2124.17	483.556
2126.15	487.778
2128.13	467.111
2130.11	487.333
2132.09	480.222
2134.08	481.111
2136.06	489.333
2138.04	483.333
2140.02	479.111
2141.99	481.778
2143.97	479.111
2145.95	478.667
2147.93	484
2149.9	472.667
2151.88	478.667
2153.85	473.333
2155.83	476
2157.8	475.111
2159.77	481.333
2161.75	476.889
2163.72	470.889
2165.69	476.444
2167.66	478.222
2169.63	468.222
2171.6	474.444
2173.57	469.556
2175.54	474
2177.51	471.333
2179.47	472
2181.44	467.556
2183.41	468.444
2185.37	458.889
2187.34	468
2189.3	468.889
2191.27	454.444
2193.23	466
2195.19	462.667
2197.15	465.778
2199.11	454
2201.08	456.889
2203.04	455.111
2205	457.111
2206.96	462.667
2208.91	460
2210.87	468.444
2212.83	488.222
2214.79	500.889
2216.74	509.778
2218.7	533.333
2220.65	573.111
2222.61	616.889
2224.56	687.111
2226.52	724.667
2228.47	756.222
2230.42	736.222
2232.37	718.889
2234.32	661.333
2236.27	626.889
2238.22	573.778
2240.17	548.444
2242.12	510.889
2244.07	490.222
2246.02	478.667
2247.97	470.889
2249.91	466
2251.86	467.111
2253.8	455.111
2255.75	467.111
2257.69	441.556
2259.64	448.444
2261.58	446.889
2263.52	448.667
2265.46	438.889
2267.4	433.556
2269.35	423.556
2271.29	434.222
2273.23	439.111
2275.16	422
2277.1	443.778
2279.04	441.778
2280.98	434.667
2282.92	438
2284.85	425.556
2286.79	426.444
2288.72	418.667
2290.66	419.333
2292.59	426.889
2294.52	420.889
2296.46	433.556
2298.39	410.222
2300.32	412.889
2302.25	411.333
2304.18	416.444
2306.11	422
2308.04	412.222
2309.97	417.111
2311.9	411.111
2313.83	416.444
2315.75	416.889
2317.68	408
2319.61	423.333
2321.53	419.778
2323.46	403.556
2325.38	415.778
2327.3	406
2329.23	412.667
2331.15	413.778
2333.07	411.333
2334.99	406.667
2336.91	405.556
2338.83	403.333
2340.75	399.556
2342.67	402.444
2344.59	403.333
2346.51	406.889
2348.43	396.667
2350.35	401.333
2352.26	395.111
2354.18	410
2356.09	394.444
2358.01	402.222
2359.92	402.889
2361.83	399.333
2363.75	398.667
2365.66	411.778
2367.57	412.889
2369.48	398.667
2371.39	386.222
2373.31	389.111
2375.21	397.556
2377.12	396.444
2379.03	393.111
2380.94	393.333
2382.85	390.889
2384.76	392.667
2386.66	383.778
2388.57	386.444
2390.47	385.111
2392.38	383.556
2394.28	392.444
2396.18	384.222
2398.09	384
2399.99	383.111
2401.89	388
2403.79	389.778
2405.69	379.111
2407.59	378.222
2409.49	392.667
2411.39	386.889
2413.29	379.111
2415.19	369.556
2417.09	380.889
2418.98	376.667
2420.88	380.889
2422.78	379.778
2424.67	375.333
2426.57	371.778
2428.46	370.667
2430.35	373.778
2432.25	363.778
2434.14	361.556
2436.03	368.667
2437.92	362.222
2439.81	371.333
2441.7	373.333
2443.59	365.111
2445.48	359.111
2447.37	359.556
2449.26	368.667
2451.15	363.333
2453.03	355.111
