186.85	608.222
189.449	612.222
192.047	612
194.645	607.111
197.241	618.667
199.837	618.889
202.431	607.111
205.025	608.889
207.619	625.333
210.21	614.444
212.802	644.222
215.392	616.222
217.982	623.111
220.57	620
223.158	625.333
225.744	635.111
228.331	624.444
230.915	637.333
233.5	629.778
236.083	629.778
238.666	639.556
241.247	628
243.827	644.667
246.408	644.222
248.986	648.667
251.565	652.444
254.142	656.222
256.719	653.556
259.294	640
261.868	635.333
264.443	650.667
267.015	640.889
269.587	639.333
272.159	629.778
274.729	635.778
277.298	624.889
279.867	632.667
282.435	629.333
285.001	631.556
287.568	626.222
290.133	627.333
292.697	630.222
295.26	621.333
297.824	631.111
300.385	635.111
302.945	640.667
305.505	632.667
308.064	640.444
310.623	632.444
313.18	632.445
315.737	650.222
318.292	628.667
320.847	642.667
323.402	652
325.955	644.222
328.507	641.556
331.058	645.556
333.609	662.667
336.158	652.667
338.707	649.333
341.255	669.778
343.802	670.667
346.349	661.556
348.895	677.333
351.439	664.889
353.983	678.222
356.526	662.444
359.068	673.333
361.609	680.667
364.149	684.889
366.689	671.778
369.227	674.222
371.765	664.444
374.302	670.889
376.838	691.111
379.374	702.222
381.908	708.889
384.442	690.444
386.973	680.444
389.505	662.667
392.036	661.555
394.567	659.111
397.096	661.333
399.625	654.889
402.153	666.444
404.68	666.667
407.206	670.444
409.73	668
412.254	667.778
414.778	676.444
417.301	672.222
419.823	671.333
422.343	673.111
424.863	673.556
427.383	677.556
429.901	672.444
432.418	696.667
434.935	694.444
437.451	704.444
439.966	702
442.48	694.667
444.993	704.222
447.506	693.111
450.019	679.333
452.528	690.889
455.039	680.889
457.549	699.333
460.056	698.667
462.564	699.333
465.07	678.889
467.576	678.222
470.082	662.444
472.585	679.556
475.089	678
477.591	685.333
480.093	681.333
482.595	679.111
485.094	680.445
487.594	678.667
490.091	700
492.59	678.444
495.086	693.333
497.582	678.444
500.076	689.778
502.571	689.778
505.064	675.333
507.558	679.111
510.049	685.556
512.54	693.111
515.03	686.222
517.518	684.667
520.008	695.556
522.495	696.222
524.983	685.778
527.468	670.222
529.954	680.889
532.438	678
534.921	681.778
537.404	679.556
539.886	692.222
542.366	683.556
544.848	684.889
547.327	685.111
549.805	695.556
552.284	695.556
554.76	685.111
557.236	696.444
559.711	674.889
562.186	692.222
564.66	702.444
567.132	684.889
569.604	692.667
572.076	686.222
574.547	685.111
577.016	698.889
579.484	697.556
581.952	708.889
584.419	714.444
586.887	720.667
589.352	703.111
591.816	709.111
594.28	674.889
596.743	686.445
599.205	686.667
601.667	679.556
604.127	690.222
606.588	691.333
609.047	690
611.505	690.222
613.963	679.556
616.419	683.556
618.875	687.778
621.33	678.667
623.784	676.667
626.238	688.222
628.69	695.555
631.142	703.333
633.593	700.667
636.043	682.667
638.493	696.667
640.941	685.778
643.389	690.667
645.835	697.556
648.281	688.222
650.727	691.111
653.171	693.778
655.615	676.889
658.058	688.667
660.501	685.778
662.942	676.889
665.382	700.222
667.822	690
670.261	682
672.699	688.444
675.137	680.667
677.574	675.111
680.008	676.222
682.443	679.333
684.878	688.222
687.312	681.333
689.743	693.111
692.175	678.222
694.607	680.889
697.037	680.444
699.466	691.778
701.895	683.556
704.323	688.667
706.749	695.778
709.175	694.667
711.601	696.889
714.025	674
716.449	690.667
718.871	688.222
721.294	679.556
723.716	680.667
726.136	684.222
728.556	686.444
730.975	682.444
733.394	679.778
735.812	680.222
738.228	679.556
740.644	684.667
743.058	678.667
745.473	690.889
747.886	678.222
750.3	683.555
752.711	671.333
755.123	675.778
757.533	667.556
759.942	667.556
762.351	682.889
764.759	677.556
767.167	676.889
769.573	692
771.979	690.889
774.383	688.222
776.787	694.222
779.191	676.667
781.593	698.889
783.994	689.556
786.396	685.778
788.796	698.445
791.195	679.333
793.595	678.444
795.992	690.889
798.389	688.444
800.786	687.556
803.181	687.333
805.576	678.222
807.969	676.222
810.363	674.889
812.755	680.667
815.147	684.222
817.537	667.778
819.927	679.778
822.318	672
824.706	679.333
827.093	683.778
829.48	685.333
831.866	676.667
834.251	670.667
836.636	673.111
839.021	670
841.404	675.556
843.786	670.667
846.167	665.333
848.548	672.889
850.928	674.667
853.307	680.445
855.685	683.556
858.063	681.778
860.44	676.222
862.816	664.889
865.192	678.222
867.566	670.667
869.94	671.778
872.313	680.667
874.685	673.556
877.057	664.667
879.428	680.222
881.798	678.667
884.167	682.667
886.536	683.111
888.902	680.667
891.269	674
893.636	678.667
896.001	687.556
898.366	678.222
900.73	684.222
903.094	681.556
905.455	677.778
907.817	680.445
910.178	680
912.538	677.333
914.898	676.444
917.255	669.111
919.613	666
921.971	658.222
924.327	664.222
926.682	676
929.037	674.667
931.391	666.444
933.744	655.555
936.096	666.667
938.449	663.556
940.799	661.111
943.149	656.667
945.499	658.445
947.847	675.333
950.195	658.444
952.542	668.222
954.889	671.778
957.235	672.222
959.579	668.667
961.924	666.444
964.266	682
966.609	680.444
968.951	676.444
971.292	678.667
973.632	672.667
975.972	666.667
978.31	676.444
980.649	674.444
982.986	669.556
985.323	664.667
987.659	668.667
989.994	678.444
992.328	675.333
994.662	675.778
996.995	690.222
999.326	682.667
1001.66	669.111
1003.99	679.556
1006.32	673.556
1008.65	663.778
1010.98	665.333
1013.3	664
1015.63	678.445
1017.96	674
1020.28	663.333
1022.61	672.667
1024.93	674.444
1027.25	674.222
1029.58	677.778
1031.9	680.667
1034.22	668
1036.54	669.111
1038.86	686.889
1041.18	686.889
1043.49	677.556
1045.81	676.889
1048.13	687.111
1050.44	682.889
1052.76	699.111
1055.07	708.444
1057.39	700.222
1059.7	695.333
1062.01	694.444
1064.32	703.333
1066.63	730.222
1068.94	741.111
1071.25	761.556
1073.56	808.222
1075.87	841.333
1078.17	862.889
1080.48	870.889
1082.79	886.889
1085.09	865.778
1087.39	854.444
1089.7	817.556
1092	798.667
1094.3	796.444
1096.6	797.333
1098.9	786.222
1101.2	755.111
1103.5	743.778
1105.8	733.778
1108.1	710.444
1110.39	713.778
1112.69	719.111
1114.98	717.556
1117.28	723.556
1119.57	730.667
1121.86	732
1124.16	735.111
1126.45	718.889
1128.74	722
1131.03	704.889
1133.32	693.111
1135.61	682.444
1137.89	680.444
1140.18	679.333
1142.47	677.111
1144.75	687.778
1147.04	680.889
1149.32	683.556
1151.61	693.111
1153.89	689.333
1156.17	693.111
1158.45	682.667
1160.73	696.444
1163.01	681.778
1165.29	673.111
1167.57	680.889
1169.85	681.111
1172.12	696.667
1174.4	709.333
1176.68	754.889
1178.95	758
1181.22	760.667
1183.5	750
1185.77	733.778
1188.04	714.444
1190.31	687.333
1192.58	688.444
1194.85	678.889
1197.12	690
1199.39	690.889
1201.66	692.667
1203.92	696
1206.19	676
1208.45	670
1210.72	656
1212.98	664.667
1215.25	654.222
1217.51	667.333
1219.77	657.333
1222.03	659.111
1224.29	657.556
1226.55	665.556
1228.81	662
1231.07	654.667
1233.33	652.222
1235.58	653.778
1237.84	667.555
1240.09	656.889
1242.35	658.667
1244.6	651.111
1246.86	652.889
1249.11	656.889
1251.36	642.222
1253.61	657.333
1255.86	658.667
1258.11	655.111
1260.36	662.444
1262.61	650.222
1264.86	659.333
1267.1	651.333
1269.35	655.111
1271.6	658.222
1273.84	662.222
1276.08	671.333
1278.33	673.111
1280.57	661.556
1282.81	649.111
1285.05	652.889
1287.29	663.333
1289.53	667.333
1291.77	663.111
1294.01	670.222
1296.25	668.222
1298.48	654.667
1300.72	650.444
1302.96	660.667
1305.19	656.222
1307.42	659.111
1309.66	670.889
1311.89	661.556
1314.12	662.667
1316.35	655.333
1318.58	653.333
1320.81	648.222
1323.04	671.556
1325.27	659.778
1327.5	664.889
1329.73	658.667
1331.95	664.889
1334.18	670.889
1336.4	670.444
1338.63	685.111
1340.85	670.444
1343.08	678.667
1345.3	671.333
1347.52	674
1349.74	658.889
1351.96	665.333
1354.18	657.111
1356.4	662.445
1358.61	668.667
1360.83	658.667
1363.05	670.444
1365.27	670.889
1367.48	683.333
1369.69	681.111
1371.91	680.889
1374.12	675.333
1376.33	687.556
1378.55	687.778
1380.76	696.667
1382.97	683.778
1385.18	678.444
1387.39	674.889
1389.59	673.778
1391.8	659.111
1394.01	668.667
1396.21	653.556
1398.42	656.889
1400.63	670.444
1402.83	660.889
1405.03	665.778
1407.24	663.333
1409.44	655.556
1411.64	658.667
1413.84	650.444
1416.04	650.889
1418.24	645.556
1420.44	659.111
1422.64	644.444
1424.83	645.333
1427.03	646.667
1429.23	639.778
1431.42	637.556
1433.62	645.111
1435.81	636.667
1438	639.778
1440.19	641.111
1442.39	638.444
1444.58	630.889
1446.77	638.222
1448.96	637.778
1451.15	637.111
1453.34	643.333
1455.52	650.889
1457.71	633.778
1459.9	648
1462.08	644
1464.27	645.111
1466.45	645.778
1468.64	642.444
1470.82	642.667
1473	650.667
1475.18	653.111
1477.36	652.444
1479.54	662
1481.72	644.667
1483.9	637.778
1486.08	640.222
1488.26	641.333
1490.43	633.778
1492.61	634.889
1494.78	632.667
1496.96	639.556
1499.13	623.111
1501.31	638.667
1503.48	643.111
1505.65	635.556
1507.82	635.111
1509.99	634.667
1512.16	633.556
1514.33	624.222
1516.5	631.556
1518.67	626
1520.84	623.111
1523	640.667
1525.17	630.889
1527.34	631.111
1529.5	622.889
1531.66	632.222
1533.83	617.333
1535.99	626
1538.15	629.778
1540.31	628.889
1542.47	626.444
1544.63	633.778
1546.79	623.556
1548.95	627.778
1551.11	633.778
1553.27	633.556
1555.42	630.222
1557.58	646
1559.73	631.778
1561.89	640
1564.04	636
1566.2	644.889
1568.35	654.445
1570.5	663.111
1572.65	666
1574.8	690
1576.95	698.222
1579.1	734.889
1581.25	774.444
1583.4	822.667
1585.55	884.667
1587.69	932.444
1589.84	949.333
1591.99	898.889
1594.13	840
1596.27	770.889
1598.42	729.111
1600.56	696.444
1602.7	675.333
1604.84	661.556
1606.98	642.889
1609.12	651.333
1611.26	626.222
1613.4	629.333
1615.54	628.444
1617.68	611.556
1619.81	616
1621.95	604.667
1624.08	606.444
1626.22	601.333
1628.35	614.222
1630.49	606.222
1632.62	598.889
1634.75	599.333
1636.88	595.111
1639.01	593.556
1641.14	586.222
1643.27	592
1645.4	592.667
1647.53	590.444
1649.66	600
1651.79	594
1653.91	594.889
1656.04	600.222
1658.16	604
1660.29	598
1662.41	589.556
1664.53	589.778
1666.66	604.444
1668.78	591.556
1670.9	581.333
1673.02	593.333
1675.14	592.222
1677.26	580.222
1679.38	593.333
1681.49	585.556
1683.61	594.222
1685.73	590.667
1687.84	592.667
1689.96	579.556
1692.07	584
1694.19	581.333
1696.3	581.111
1698.41	583.111
1700.52	583.556
1702.64	580.667
1704.75	590.222
1706.86	574.889
1708.97	586.667
1711.07	571.333
1713.18	590.222
1715.29	574.667
1717.4	576.667
1719.5	582.444
1721.61	578.889
1723.71	570.445
1725.82	564.444
1727.92	576.444
1730.02	575.778
1732.12	564.222
1734.23	568
1736.33	570.222
1738.43	566.222
1740.53	572
1742.63	581.111
1744.72	562.444
1746.82	566.444
1748.92	561.333
1751.02	564
1753.11	558.667
1755.21	565.333
1757.3	563.333
1759.4	549.333
1761.49	553.333
1763.58	555.333
1765.67	568.444
1767.76	560.444
1769.86	552.445
1771.95	565.778
1774.03	566
1776.12	562.889
1778.21	555.333
1780.3	551.111
1782.39	570.444
1784.47	554.889
1786.56	557.556
1788.64	558.222
1790.73	552
1792.81	546.444
1794.89	553.111
1796.98	548
1799.06	548
1801.14	559.778
1803.22	551.333
1805.3	560.444
1807.38	554.444
1809.46	557.778
1811.54	544.222
1813.61	545.556
1815.69	546.222
1817.77	558
1819.84	555.111
1821.92	545.333
1823.99	557.111
1826.06	545.778
1828.14	550.889
1830.21	541.111
1832.28	542.222
1834.35	538.222
1836.42	548
1838.49	536.889
1840.56	534.222
1842.63	539.333
1844.7	534.444
1846.77	539.556
1848.83	532.222
1850.9	544.889
1852.96	543.111
1855.03	546
1857.09	523.111
1859.15	546.222
1861.22	542
1863.28	534.444
1865.34	531.556
1867.4	541.333
1869.46	535.778
1871.52	532.222
1873.58	535.333
1875.64	539.556
1877.7	528.889
1879.76	528
1881.81	531.111
1883.87	523.556
1885.92	534
1887.98	526.667
1890.03	529.333
1892.09	522.889
1894.14	510.667
1896.19	522.889
1898.24	528.667
1900.29	519.333
1902.34	529.111
1904.4	541.111
1906.44	521.111
1908.49	528.222
1910.54	524.444
1912.59	535.556
1914.63	527.111
1916.68	522.667
1918.73	512.667
1920.77	526.222
1922.81	519.333
1924.86	520.667
1926.9	521.778
1928.94	524.222
1930.99	517.333
1933.03	515.556
1935.07	526.222
1937.11	517.333
1939.15	526.889
1941.19	515.778
1943.22	519.111
1945.26	515.333
1947.3	518.667
1949.33	506.222
1951.37	506.667
1953.4	516.222
1955.44	508.222
1957.47	510.667
1959.51	502.444
1961.54	501.778
1963.57	508.889
1965.6	507.556
1967.63	500.667
1969.66	500.444
1971.69	510.667
1973.72	502.667
1975.75	498.444
1977.78	502.667
1979.8	499.556
1981.83	496.889
1983.86	496.889
1985.88	500.667
1987.91	513.111
1989.93	503.111
1991.95	504.444
1993.98	494.889
1996	499.111
1998.02	497.778
2000.04	507.333
2002.06	492
2004.08	491.333
2006.1	487.778
2008.12	492.889
2010.14	496.889
2012.15	488.444
2014.17	500
2016.19	496.667
2018.2	490.444
2020.22	494.889
2022.23	490.444
2024.25	497.556
2026.26	490.889
2028.27	489.778
2030.28	493.333
2032.29	503.333
2034.3	495.333
2036.32	494
2038.32	484.667
2040.33	497.333
2042.34	482.889
2044.35	478.222
2046.36	483.111
2048.36	493.778
2050.37	490.444
2052.37	492
2054.38	482.444
2056.38	478.444
2058.39	481.333
2060.39	486.222
2062.39	480
2064.39	477.778
2066.39	480.889
2068.39	468
2070.39	474.444
2072.39	483.333
2074.39	482
2076.39	483.333
2078.39	480.444
2080.39	484.444
2082.38	477.556
2084.38	475.333
2086.37	474.222
2088.37	475.111
2090.36	474.444
2092.35	477.333
2094.35	480.222
2096.34	466.889
2098.33	472.889
2100.32	472.889
2102.31	469.556
2104.3	463.556
2106.29	470.444
2108.28	471.333
2110.27	472
2112.25	471.333
2114.24	465.333
2116.23	461.556
2118.21	459.111
2120.2	463.333
2122.18	467.556
2124.17	458.444
2126.15	459.333
2128.13	463.556
2130.11	455.111
2132.09	463.778
2134.08	463.778
2136.06	465.333
2138.04	458.222
2140.02	456.889
2141.99	467.111
2143.97	465.111
2145.95	461.778
2147.93	464.667
2149.9	462.222
2151.88	465.778
2153.85	462
2155.83	450.222
2157.8	450.889
2159.77	451.333
2161.75	452.667
2163.72	450.444
2165.69	446.222
2167.66	447.778
2169.63	452.889
2171.6	438.667
2173.57	453.778
2175.54	439.778
2177.51	460.222
2179.47	450.667
2181.44	435.111
2183.41	456.667
2185.37	442.667
2187.34	442.444
2189.3	440
2191.27	446
2193.23	445.556
2195.19	444
2197.15	438.444
2199.11	429.111
2201.08	429.778
2203.04	443.333
2205	440.889
2206.96	438
2208.91	439.333
2210.87	452.889
2212.83	450.222
2214.79	449.778
2216.74	470
2218.7	479.111
2220.65	505.111
2222.61	534.444
2224.56	558.889
2226.52	597.111
2228.47	596
2230.42	605.111
2232.37	586.667
2234.32	573.333
2236.27	534
2238.22	504.667
2240.17	487.556
2242.12	476
2244.07	452.222
2246.02	443.778
2247.97	440.889
2249.91	442.889
2251.86	439.111
2253.8	442.222
2255.75	434.444
2257.69	425.778
2259.64	424
2261.58	428.222
2263.52	418.444
2265.46	422.889
2267.4	416.667
2269.35	421.333
2271.29	433.556
2273.23	406.667
2275.16	406.667
2277.1	423.778
2279.04	406.889
2280.98	419.333
2282.92	416
2284.85	421.111
2286.79	407.333
2288.72	411.333
2290.66	408.222
2292.59	411.556
2294.52	402.667
2296.46	408
2298.39	404.222
2300.32	409.556
2302.25	405.111
2304.18	409.111
2306.11	410.222
2308.04	400.444
2309.97	402
2311.9	403.111
2313.83	404.222
2315.75	407.333
2317.68	400.667
2319.61	390.222
2321.53	400
2323.46	398.222
2325.38	399.778
2327.3	404.444
2329.23	390.444
2331.15	405.111
2333.07	398
2334.99	391.778
2336.91	391.556
2338.83	399.111
2340.75	393.333
2342.67	396.444
2344.59	398
2346.51	396.222
2348.43	386.889
2350.35	396.444
2352.26	394.667
2354.18	396.889
2356.09	388
2358.01	402.222
2359.92	383.111
2361.83	388
2363.75	380.889
2365.66	386.889
2367.57	395.111
2369.48	381.778
2371.39	386.444
2373.31	381.111
2375.21	393.556
2377.12	378
2379.03	373.333
2380.94	378.444
2382.85	375.556
2384.76	378.444
2386.66	380.889
2388.57	379.556
2390.47	372.889
2392.38	371.111
2394.28	374.889
2396.18	372
2398.09	373.556
2399.99	373.556
2401.89	374.667
2403.79	374.222
2405.69	376.889
2407.59	374.222
2409.49	371.333
2411.39	374.889
2413.29	379.333
2415.19	369.333
2417.09	367.778
2418.98	374.667
2420.88	368.667
2422.78	367.333
2424.67	371.778
2426.57	368
2428.46	369.111
2430.35	367.333
2432.25	365.111
2434.14	366.222
2436.03	366.222
2437.92	366.222
2439.81	366
2441.7	373.778
2443.59	363.556
2445.48	365.333
2447.37	356.444
2449.26	362.667
2451.15	370
2453.03	360.444
