186.85	441.556
189.449	442.222
192.047	459.556
194.645	452.444
197.241	464.444
199.837	456.444
202.431	453.333
205.025	464
207.619	460.444
210.21	460.222
212.802	466
215.392	455.333
217.982	460.667
220.57	459.778
223.158	464.667
225.744	455.556
228.331	455.333
230.915	466.444
233.5	467.333
236.083	469.556
238.666	464.222
241.247	467.556
243.827	470.889
246.408	473.778
248.986	477.333
251.565	467.111
254.142	475.333
256.719	474
259.294	467.778
261.868	476.889
264.443	478
267.015	459.111
269.587	479.778
272.159	467.556
274.729	466.889
277.298	458.667
279.867	470.889
282.435	462.889
285.001	459.556
287.568	467.778
290.133	469.333
292.697	464.444
295.26	462.667
297.824	463.111
300.385	463.333
302.945	470.222
305.505	464.444
308.064	470.889
310.623	467.111
313.18	460.222
315.737	474
318.292	463.111
320.847	473.333
323.402	465.556
325.955	463.111
328.507	475.333
331.058	478.889
333.609	476
336.158	472.667
338.707	474
341.255	478.444
343.802	480.889
346.349	480.889
348.895	482.667
351.439	484
353.983	491.333
356.526	489.778
359.068	495.556
361.609	487.333
364.149	493.778
366.689	492.222
369.227	495.778
371.765	494.667
374.302	492.667
376.838	503.111
379.374	491.556
381.908	508
384.442	496.667
386.973	488.889
389.505	483.778
392.036	486.889
394.567	476.667
397.096	483.333
399.625	478.444
402.153	474
404.68	486.667
407.206	490.222
409.73	489.111
412.254	484.222
414.778	485.333
417.301	491.556
419.823	496
422.343	492.667
424.863	494.889
427.383	490.222
429.901	506.444
432.418	503.111
434.935	503.333
437.451	501.333
439.966	507.778
442.48	498.444
444.993	508.667
447.506	504.889
450.019	506.667
452.528	501.333
455.039	504.667
457.549	502.889
460.056	507.556
462.564	497.778
465.07	493.111
467.576	503.556
470.082	488.667
472.585	495.333
475.089	496
477.591	496.889
480.093	489.111
482.595	496.222
485.094	496.889
487.594	505.111
490.091	498
492.59	497.111
495.086	504.222
497.582	490.889
500.076	504.444
502.571	506.444
505.064	499.778
507.558	493.778
510.049	501.778
512.54	503.556
515.03	505.778
517.518	511.333
520.008	513.333
522.495	507.778
524.983	502
527.468	495.778
529.954	493.556
532.438	503.778
534.921	501.333
537.404	507.333
539.886	498.444
542.366	504.889
544.848	503.333
547.327	503.111
549.805	497.111
552.284	505.111
554.76	509.778
557.236	513.778
559.711	504.222
562.186	500
564.66	513.556
567.132	508
569.604	504.889
572.076	514.444
574.547	510.222
577.016	509.333
579.484	521.556
581.952	535.333
584.419	529.556
586.887	541.111
589.352	530.667
591.816	513.111
594.28	503.778
596.743	506.222
599.205	498.889
601.667	504.667
604.127	497.333
606.588	497.556
609.047	509.111
611.505	496.667
613.963	512
616.419	499.333
618.875	501.333
621.33	500.889
623.784	509.111
626.238	506.222
628.69	510.444
631.142	511.778
633.593	501.778
636.043	506.444
638.493	510.444
640.941	510.444
643.389	508
645.835	512.667
648.281	503.778
650.727	507.333
653.171	509.556
655.615	495.778
658.058	507.778
660.501	498.889
662.942	500.889
665.382	487.556
667.822	498.667
670.261	503.111
672.699	493.111
675.137	493.778
677.574	503.556
680.008	496.444
682.443	496.889
684.878	507.111
687.312	504.444
689.743	506.444
692.175	499.556
694.607	498.889
697.037	507.778
699.466	496.667
701.895	510.667
704.323	504.667
706.749	504.444
709.175	509.333
711.601	498.667
714.025	496.222
716.449	501.556
718.871	507.111
721.294	495.111
723.716	496.667
726.136	502.667
728.556	499.333
730.975	502.667
733.394	495.111
735.812	501.111
738.228	503.778
740.644	494
743.058	500.889
745.473	502
747.886	492
750.3	512.444
752.711	496
755.123	497.333
757.533	495.333
759.942	482.222
762.351	497.556
764.759	496.667
767.167	494.222
769.573	500.889
771.979	488.667
774.383	500.667
776.787	498.444
779.191	510.444
781.593	521.111
783.994	502.667
786.396	502.889
788.796	504.222
791.195	496.222
793.595	495.111
795.992	498.667
798.389	494.667
800.786	498.444
803.181	487.778
805.576	502.444
807.969	495.111
810.363	488.222
812.755	512
815.147	492.667
817.537	498.444
819.927	492.889
822.318	488.444
824.706	495.333
827.093	491.556
829.48	498.667
831.866	498.222
834.251	500.444
836.636	484
839.021	490
841.404	478.667
843.786	496.667
846.167	488.667
848.548	488.667
850.928	482
853.307	497.333
855.685	487.556
858.063	493.556
860.44	490.222
862.816	493.111
865.192	489.778
867.566	494.667
869.94	486.889
872.313	488.667
874.685	494.444
877.057	486.667
879.428	504.444
881.798	488.889
884.167	481.778
886.536	497.333
888.902	496
891.269	490.222
893.636	500.667
896.001	482.444
898.366	499.333
900.73	473.556
903.094	493.778
905.455	485.556
907.817	499.111
910.178	478
912.538	485.778
914.898	492.444
917.255	488.222
919.613	486.667
921.971	487.778
924.327	473.333
926.682	482.667
929.037	480.222
931.391	481.111
933.744	474.889
936.096	479.778
938.449	477.556
940.799	486.444
943.149	477.111
945.499	477.111
947.847	490.889
950.195	489.556
952.542	479.778
954.889	490.444
957.235	485.333
959.579	480.667
961.924	478.222
964.266	480.667
966.609	484.889
968.951	487.111
971.292	490.444
973.632	483.333
975.972	480
978.31	480
980.649	492.889
982.986	483.333
985.323	492
987.659	481.111
989.994	479.556
992.328	493.556
994.662	492.889
996.995	494
999.326	490
1001.66	485.333
1003.99	491.556
1006.32	480.667
1008.65	479.333
1010.98	486.222
1013.3	496.222
1015.63	486.222
1017.96	485.333
1020.28	490.889
1022.61	485.556
1024.93	487.333
1027.25	488
1029.58	486
1031.9	484.222
1034.22	487.111
1036.54	488
1038.86	481.333
1041.18	494.667
1043.49	499.111
1045.81	496.667
1048.13	487.111
1050.44	501.111
1052.76	508.889
1055.07	516.667
1057.39	507.333
1059.7	498.889
1062.01	518
1064.32	518.445
1066.63	531.333
1068.94	550
1071.25	569.556
1073.56	598
1075.87	623.778
1078.17	658.222
1080.48	677.333
1082.79	681.556
1085.09	663.556
1087.39	649.778
1089.7	602.889
1092	577.556
1094.3	575.111
1096.6	560.667
1098.9	550.444
1101.2	548.667
1103.5	522.889
1105.8	516.444
1108.1	516.222
1110.39	513.333
1112.69	522.222
1114.98	519.778
1117.28	523.778
1119.57	517.555
1121.86	514.222
1124.16	516.444
1126.45	512
1128.74	514.667
1131.03	508
1133.32	487.333
1135.61	490.667
1137.89	486.444
1140.18	496
1142.47	492.222
1144.75	488.444
1147.04	488.889
1149.32	490.444
1151.61	498.667
1153.89	496
1156.17	492.889
1158.45	483.778
1160.73	480.222
1163.01	495.333
1165.29	486.222
1167.57	495.333
1169.85	494
1172.12	513.333
1174.4	530.222
1176.68	561.778
1178.95	575.778
1181.22	570
1183.5	562.667
1185.77	543.333
1188.04	516.667
1190.31	501.111
1192.58	508.667
1194.85	496.444
1197.12	492.222
1199.39	498.222
1201.66	497.778
1203.92	500.667
1206.19	491.111
1208.45	486.889
1210.72	472.889
1212.98	474.222
1215.25	476
1217.51	468.667
1219.77	466.667
1222.03	477.556
1224.29	476.667
1226.55	474
1228.81	481.333
1231.07	471.333
1233.33	481.333
1235.58	475.111
1237.84	474.222
1240.09	479.333
1242.35	478.222
1244.6	477.778
1246.86	474
1249.11	480
1251.36	476.222
1253.61	475.556
1255.86	475.111
1258.11	470.667
1260.36	478.667
1262.61	478
1264.86	471.778
1267.1	468.667
1269.35	467.111
1271.6	473.778
1273.84	468.889
1276.08	490.889
1278.33	476.889
1280.57	473.333
1282.81	479.556
1285.05	470.889
1287.29	480.444
1289.53	480.889
1291.77	473.111
1294.01	483.333
1296.25	471.111
1298.48	470.444
1300.72	483.556
1302.96	483.556
1305.19	474.667
1307.42	480.444
1309.66	483.111
1311.89	472.889
1314.12	472.444
1316.35	472.444
1318.58	484.444
1320.81	487.556
1323.04	467.778
1325.27	472.667
1327.5	488.444
1329.73	477.333
1331.95	481.556
1334.18	480.444
1336.4	488.444
1338.63	489.111
1340.85	486.889
1343.08	485.333
1345.3	477.333
1347.52	480.889
1349.74	480.889
1351.96	484.889
1354.18	477.333
1356.4	482.444
1358.61	481.778
1360.83	483.778
1363.05	493.778
1365.27	483.333
1367.48	487.556
1369.69	490.667
1371.91	488.444
1374.12	491.778
1376.33	491.333
1378.55	496.667
1380.76	490.667
1382.97	490.889
1385.18	494
1387.39	489.111
1389.59	485.333
1391.8	490.444
1394.01	480.222
1396.21	474.667
1398.42	482.222
1400.63	475.333
1402.83	470.222
1405.03	468.889
1407.24	475.333
1409.44	479.333
1411.64	479.111
1413.84	478.222
1416.04	475.111
1418.24	473.333
1420.44	478.889
1422.64	470.667
1424.83	464.222
1427.03	472.889
1429.23	471.111
1431.42	460.667
1433.62	459.778
1435.81	475.333
1438	455.111
1440.19	473.778
1442.39	464.222
1444.58	455.778
1446.77	458.444
1448.96	466
1451.15	463.333
1453.34	465.111
1455.52	454.889
1457.71	474.667
1459.9	467.556
1462.08	481.111
1464.27	475.556
1466.45	479.778
1468.64	473.778
1470.82	486.444
1473	473.778
1475.18	468.667
1477.36	474
1479.54	475.333
1481.72	479.556
1483.9	476.222
1486.08	472.444
1488.26	473.556
1490.43	462.889
1492.61	468.444
1494.78	467.778
1496.96	468
1499.13	467.111
1501.31	455.111
1503.48	460.444
1505.65	464.222
1507.82	465.111
1509.99	471.333
1512.16	464.222
1514.33	465.111
1516.5	454.889
1518.67	458.444
1520.84	456.222
1523	463.778
1525.17	454.889
1527.34	450.444
1529.5	453.778
1531.66	456.222
1533.83	447.333
1535.99	458.222
1538.15	456.444
1540.31	447.556
1542.47	452.667
1544.63	456.667
1546.79	459.778
1548.95	453.111
1551.11	450
1553.27	469.556
1555.42	451.556
1557.58	462
1559.73	476.222
1561.89	451.556
1564.04	464.889
1566.2	468.222
1568.35	480.889
1570.5	482.889
1572.65	492.667
1574.8	506
1576.95	522.889
1579.1	553.778
1581.25	582.667
1583.4	622
1585.55	676.667
1587.69	734.667
1589.84	736.444
1591.99	684
1594.13	630.889
1596.27	568.889
1598.42	540.222
1600.56	516.444
1602.7	493.778
1604.84	482.889
1606.98	469.778
1609.12	462.667
1611.26	447.778
1613.4	445.111
1615.54	438.667
1617.68	448
1619.81	441.778
1621.95	439.111
1624.08	433.778
1626.22	435.778
1628.35	429.111
1630.49	440
1632.62	430.889
1634.75	422
1636.88	442.667
1639.01	424.222
1641.14	430.222
1643.27	432.222
1645.4	431.111
1647.53	424
1649.66	419.556
1651.79	421.333
1653.91	426.444
1656.04	421.333
1658.16	416
1660.29	426.444
1662.41	427.333
1664.53	418.222
1666.66	414
1668.78	417.111
1670.9	425.333
1673.02	418.667
1675.14	414.667
1677.26	411.556
1679.38	418.667
1681.49	418.889
1683.61	412.444
1685.73	420.222
1687.84	416.444
1689.96	417.111
1692.07	413.111
1694.19	412
1696.3	420.889
1698.41	414.444
1700.52	411.556
1702.64	415.556
1704.75	414
1706.86	406.667
1708.97	414.222
1711.07	411.556
1713.18	414
1715.29	410.222
1717.4	402.222
1719.5	416
1721.61	402.444
1723.71	414.667
1725.82	409.333
1727.92	411.778
1730.02	404.444
1732.12	396.222
1734.23	407.556
1736.33	406.667
1738.43	408.222
1740.53	404.444
1742.63	404.889
1744.72	397.111
1746.82	400.222
1748.92	400.222
1751.02	399.333
1753.11	403.556
1755.21	396.444
1757.3	392.222
1759.4	391.778
1761.49	400
1763.58	399.111
1765.67	392
1767.76	391.778
1769.86	400.222
1771.95	396.444
1774.03	390.444
1776.12	394.444
1778.21	396.667
1780.3	399.556
1782.39	393.778
1784.47	387.111
1786.56	400.667
1788.64	392.889
1790.73	392.222
1792.81	398
1794.89	401.111
1796.98	382.444
1799.06	392
1801.14	392.667
1803.22	393.778
1805.3	395.778
1807.38	398.444
1809.46	401.778
1811.54	388
1813.61	393.778
1815.69	395.556
1817.77	383.333
1819.84	398.444
1821.92	390.889
1823.99	384.667
1826.06	383.111
1828.14	389.333
1830.21	382.889
1832.28	381.778
1834.35	386.444
1836.42	380.667
1838.49	384
1840.56	389.111
1842.63	379.556
1844.7	384.444
1846.77	384.444
1848.83	378.889
1850.9	380.444
1852.96	378.889
1855.03	383.778
1857.09	379.778
1859.15	374
1861.22	376.444
1863.28	377.556
1865.34	372
1867.4	386
1869.46	372.889
1871.52	364.222
1873.58	380.889
1875.64	380
1877.7	372
1879.76	376.444
1881.81	378.889
1883.87	369.333
1885.92	375.111
1887.98	373.333
1890.03	373.111
1892.09	376
1894.14	370.444
1896.19	370
1898.24	372.667
1900.29	375.111
1902.34	380
1904.4	374
1906.44	376.222
1908.49	366
1910.54	377.556
1912.59	373.333
1914.63	375.778
1916.68	360
1918.73	370.222
1920.77	371.778
1922.81	371.111
1924.86	365.778
1926.9	364.889
1928.94	363.556
1930.99	369.333
1933.03	363.111
1935.07	359.556
1937.11	368.444
1939.15	356.667
1941.19	360.889
1943.22	362.222
1945.26	366.444
1947.3	366.667
1949.33	360.667
1951.37	358.444
1953.4	364
1955.44	364
1957.47	358.444
1959.51	360.222
1961.54	359.778
1963.57	360.667
1965.6	351.111
1967.63	351.111
1969.66	364.222
1971.69	357.333
1973.72	351.556
1975.75	360.667
1977.78	353.333
1979.8	350
1981.83	345.778
1983.86	360
1985.88	353.556
1987.91	350.444
1989.93	349.333
1991.95	345.556
1993.98	348
1996	352.889
1998.02	350
2000.04	350.444
2002.06	335.333
2004.08	351.778
2006.1	346.444
2008.12	352
2010.14	346.667
2012.15	346.444
2014.17	350.667
2016.19	355.556
2018.2	339.778
2020.22	360.667
2022.23	347.111
2024.25	347.778
2026.26	347.111
2028.27	342.222
2030.28	349.333
2032.29	349.778
2034.3	351.333
2036.32	340.667
2038.32	348.889
2040.33	349.333
2042.34	341.556
2044.35	340
2046.36	338.667
2048.36	348
2050.37	349.333
2052.37	337.111
2054.38	339.333
2056.38	335.111
2058.39	344.889
2060.39	340.667
2062.39	335.111
2064.39	338.889
2066.39	342.222
2068.39	340.222
2070.39	337.111
2072.39	335.333
2074.39	339.333
2076.39	340
2078.39	333.333
2080.39	339.778
2082.38	336.667
2084.38	335.778
2086.37	331.556
2088.37	334.667
2090.36	326.667
2092.35	331.778
2094.35	336.889
2096.34	330.222
2098.33	327.778
2100.32	325.333
2102.31	336
2104.3	331.333
2106.29	333.333
2108.28	320.889
2110.27	330.667
2112.25	322.889
2114.24	322.889
2116.23	324.667
2118.21	326.889
2120.2	326.889
2122.18	326.667
2124.17	325.111
2126.15	326
2128.13	329.111
2130.11	326.667
2132.09	326.444
2134.08	318.889
2136.06	320
2138.04	328.444
2140.02	320
2141.99	321.556
2143.97	316.222
2145.95	313.111
2147.93	320.667
2149.9	313.111
2151.88	319.778
2153.85	323.556
2155.83	321.556
2157.8	324
2159.77	315.333
2161.75	322.889
2163.72	308
2165.69	310.667
2167.66	312.889
2169.63	318.667
2171.6	317.778
2173.57	312
2175.54	318.667
2177.51	306.222
2179.47	322
2181.44	309.556
2183.41	313.111
2185.37	305.333
2187.34	308.667
2189.3	309.778
2191.27	309.556
2193.23	306.444
2195.19	306.667
2197.15	304.222
2199.11	315.556
2201.08	309.333
2203.04	306.889
2205	311.111
2206.96	300.444
2208.91	314.222
2210.87	316.222
2212.83	324.667
2214.79	317.111
2216.74	327.333
2218.7	344.444
2220.65	360
2222.61	380.667
2224.56	399.556
2226.52	423.778
2228.47	430.889
2230.42	437.556
2232.37	412.444
2234.32	405.333
2236.27	380.889
2238.22	363.111
2240.17	348.444
2242.12	324.222
2244.07	314.889
2246.02	306.889
2247.97	309.111
2249.91	304.222
2251.86	308.667
2253.8	299.778
2255.75	302.667
2257.69	290.889
2259.64	298.444
2261.58	291.111
2263.52	296.667
2265.46	295.111
2267.4	293.556
2269.35	291.556
2271.29	292
2273.23	287.778
2275.16	293.556
2277.1	288.667
2279.04	292.667
2280.98	292.222
2282.92	284.444
2284.85	295.778
2286.79	280.444
2288.72	286.444
2290.66	290.222
2292.59	281.778
2294.52	294
2296.46	292.444
2298.39	284.889
2300.32	280.222
2302.25	287.778
2304.18	282.889
2306.11	276.667
2308.04	274.889
2309.97	284
2311.9	284
2313.83	282.667
2315.75	277.333
2317.68	280.444
2319.61	285.111
2321.53	283.556
2323.46	280.222
2325.38	278.889
2327.3	278.222
2329.23	280.889
2331.15	279.778
2333.07	279.556
2334.99	278.667
2336.91	269.333
2338.83	270.889
2340.75	270
2342.67	269.111
2344.59	276.889
2346.51	277.556
2348.43	279.111
2350.35	277.333
2352.26	268.667
2354.18	277.778
2356.09	272.889
2358.01	271.778
2359.92	274.222
2361.83	271.333
2363.75	270.222
2365.66	268.889
2367.57	268.222
2369.48	267.556
2371.39	268.222
2373.31	265.111
2375.21	264.444
2377.12	264.667
2379.03	263.111
2380.94	267.111
2382.85	262.889
2384.76	261.333
2386.66	259.556
2388.57	265.333
2390.47	265.556
2392.38	271.333
2394.28	265.333
2396.18	259.111
2398.09	256.889
2399.99	259.333
2401.89	249.333
2403.79	258.889
2405.69	255.333
2407.59	266
2409.49	260.667
2411.39	259.778
2413.29	255.333
2415.19	258.889
2417.09	261.556
2418.98	262
2420.88	260.889
2422.78	259.111
2424.67	260.222
2426.57	250.444
2428.46	260.889
2430.35	248.889
2432.25	254.889
2434.14	247.556
2436.03	257.111
2437.92	256.889
2439.81	256.444
2441.7	254.889
2443.59	254.667
2445.48	255.556
2447.37	256.444
2449.26	252
2451.15	256
2453.03	248.222
