186.85	879.111
189.449	888
192.047	878.667
194.645	894.667
197.241	871.333
199.837	880.667
202.431	884.222
205.025	884.445
207.619	873.778
210.21	887.333
212.802	879.556
215.392	877.556
217.982	858.667
220.57	849.556
223.158	874.222
225.744	891.778
228.331	872.889
230.915	883.556
233.5	884.889
236.083	898.222
238.666	890.889
241.247	891.111
243.827	901.778
246.408	896.889
248.986	904.444
251.565	912.667
254.142	910.222
256.719	888.222
259.294	890.222
261.868	884.444
264.443	885.778
267.015	865.333
269.587	854
272.159	833.333
274.729	824.889
277.298	829.778
279.867	812
282.435	811.111
285.001	817.556
287.568	792
290.133	808
292.697	797.333
295.26	803.333
297.824	779.778
300.385	778.444
302.945	795.333
305.505	778.444
308.064	780.444
310.623	792
313.18	771.556
315.737	783.333
318.292	780.444
320.847	787.778
323.402	793.778
325.955	805.778
328.507	806.889
331.058	810
333.609	797.778
336.158	800.222
338.707	797.333
341.255	790.667
343.802	791.556
346.349	805.556
348.895	796.889
351.439	824
353.983	822.889
356.526	829.111
359.068	838.222
361.609	861.556
364.149	839.778
366.689	852.444
369.227	824.889
371.765	823.111
374.302	840.889
376.838	831.778
379.374	835.111
381.908	832.889
384.442	817.333
386.973	812.667
389.505	795.556
392.036	810
394.567	788.222
397.096	814.667
399.625	818.889
402.153	819.111
404.68	840.222
407.206	841.778
409.73	838
412.254	843.778
414.778	825.333
417.301	826.445
419.823	814.222
422.343	819.778
424.863	799.778
427.383	813.556
429.901	798.667
432.418	810.444
434.935	833.111
437.451	826.222
439.966	836.889
442.48	838
444.993	825.333
447.506	828.667
450.019	827.778
452.528	834.667
455.039	828.889
457.549	830.222
460.056	818.444
462.564	812.889
465.07	827.111
467.576	827.778
470.082	826
472.585	826.444
475.089	818.667
477.591	812
480.093	835.556
482.595	812
485.094	830.222
487.594	840.222
490.091	836.889
492.59	833.333
495.086	854.667
497.582	832.444
500.076	839.778
502.571	840.889
505.064	833.333
507.558	816.444
510.049	824.889
512.54	842.444
515.03	826.222
517.518	822.222
520.008	841.778
522.495	824.889
524.983	825.111
527.468	826.444
529.954	825.778
532.438	831.556
534.921	830.667
537.404	817.556
539.886	833.111
542.366	820.889
544.848	844.889
547.327	842.667
549.805	836
552.284	831.111
554.76	828.667
557.236	826
559.711	826.222
562.186	815.778
564.66	807.556
567.132	816.222
569.604	807.111
572.076	826.667
574.547	850.222
577.016	896.444
579.484	936.667
581.952	951.778
584.419	967.111
586.887	939.111
589.352	913.111
591.816	866
594.28	850
596.743	828.889
599.205	814.889
601.667	822.444
604.127	810.667
606.588	809.333
609.047	799.556
611.505	801.333
613.963	791.333
616.419	804.444
618.875	811.778
621.33	814
623.784	792.222
626.238	799.333
628.69	810.222
631.142	810.667
633.593	811.556
636.043	814.889
638.493	806
640.941	808.667
643.389	822.222
645.835	818.667
648.281	812.667
650.727	807.333
653.171	806.889
655.615	796.667
658.058	814.444
660.501	798.667
662.942	793.333
665.382	812
667.822	808.667
670.261	799.556
672.699	803.778
675.137	806.667
677.574	806
680.008	802.889
682.443	800.667
684.878	803.111
687.312	812.889
689.743	809.333
692.175	795.111
694.607	818
697.037	822.444
699.466	817.333
701.895	824.889
704.323	813.333
706.749	834.222
709.175	832.444
711.601	840.222
714.025	824.444
716.449	819.111
718.871	821.333
721.294	808.667
723.716	802.222
726.136	817.778
728.556	803.111
730.975	799.778
733.394	816.222
735.812	800.444
738.228	809.778
740.644	809.778
743.058	800.889
745.473	814.667
747.886	809.555
750.3	791.111
752.711	795.333
755.123	787.778
757.533	795.778
759.942	802.222
762.351	804
764.759	795.778
767.167	790.889
769.573	809.111
771.979	801.556
774.383	827.556
776.787	856.889
779.191	859.111
781.593	857.778
783.994	822.889
786.396	825.333
788.796	802.444
791.195	811.778
793.595	810.222
795.992	797.556
798.389	804.222
800.786	800.222
803.181	800.889
805.576	807.556
807.969	791.555
810.363	810.222
812.755	802.222
815.147	804.222
817.537	828
819.927	829.333
822.318	826
824.706	826.222
827.093	825.778
829.48	823.555
831.866	815.333
834.251	819.111
836.636	808.889
839.021	807.556
841.404	814.444
843.786	809.556
846.167	813.778
848.548	810.889
850.928	801.111
853.307	805.556
855.685	797.333
858.063	786.889
860.44	800
862.816	803.556
865.192	784.889
867.566	783.778
869.94	786
872.313	816.444
874.685	810
877.057	806.667
879.428	807.556
881.798	803.333
884.167	794.889
886.536	810.444
888.902	805.111
891.269	802.222
893.636	812.444
896.001	809.111
898.366	797.556
900.73	797.778
903.094	787.778
905.455	801.111
907.817	794.889
910.178	793.556
912.538	798
914.898	787.333
917.255	785.778
919.613	781.778
921.971	775.111
924.327	778.667
926.682	789.333
929.037	780.444
931.391	787.333
933.744	790.667
936.096	779.333
938.449	786.889
940.799	786
943.149	770.222
945.499	796
947.847	792.889
950.195	799.778
952.542	779.556
954.889	788.444
957.235	793.333
959.579	776.444
961.924	793.333
964.266	780.222
966.609	788.667
968.951	784.667
971.292	788.889
973.632	794.445
975.972	796.444
978.31	786.889
980.649	801.333
982.986	802.889
985.323	795.111
987.659	806.667
989.994	828.889
992.328	831.778
994.662	829.778
996.995	836.444
999.326	853.556
1001.66	858.667
1003.99	813.778
1006.32	831.778
1008.65	835.111
1010.98	860.444
1013.3	874.889
1015.63	869.111
1017.96	868
1020.28	848.889
1022.61	825.556
1024.93	836.889
1027.25	817.556
1029.58	836.222
1031.9	834.667
1034.22	835.111
1036.54	824.667
1038.86	846.889
1041.18	862.222
1043.49	883.333
1045.81	872.222
1048.13	898.444
1050.44	918.222
1052.76	941.111
1055.07	933.333
1057.39	963.778
1059.7	980
1062.01	1046.22
1064.32	1113.78
1066.63	1221.56
1068.94	1386.89
1071.25	1596.44
1073.56	1813.11
1075.87	2003.33
1078.17	2124
1080.48	2131.56
1082.79	2000.89
1085.09	1819.56
1087.39	1588
1089.7	1376.22
1092	1222
1094.3	1150.44
1096.6	1105.56
1098.9	1049.33
1101.2	1019.78
1103.5	975.333
1105.8	961.111
1108.1	936.667
1110.39	914
1112.69	925.333
1114.98	909.556
1117.28	918.667
1119.57	913.778
1121.86	908.889
1124.16	906.667
1126.45	902.444
1128.74	883.778
1131.03	888
1133.32	879.556
1135.61	875.778
1137.89	875.778
1140.18	869.111
1142.47	880.444
1144.75	880
1147.04	879.556
1149.32	905.111
1151.61	890
1153.89	894.222
1156.17	887.111
1158.45	899.333
1160.73	898.667
1163.01	923.778
1165.29	932.667
1167.57	951.556
1169.85	968.444
1172.12	1039.11
1174.4	1165.56
1176.68	1340
1178.95	1450.89
1181.22	1468.89
1183.5	1397.56
1185.77	1297.11
1188.04	1174.44
1190.31	1096
1192.58	1051.78
1194.85	1012.22
1197.12	1016.44
1199.39	1025.78
1201.66	1037.33
1203.92	1000.22
1206.19	967.556
1208.45	942.667
1210.72	908.444
1212.98	922.667
1215.25	896
1217.51	903.778
1219.77	896
1222.03	908.222
1224.29	904.444
1226.55	920.444
1228.81	920.444
1231.07	925.778
1233.33	928.445
1235.58	943.333
1237.84	934
1240.09	948.444
1242.35	945.333
1244.6	948.889
1246.86	951.778
1249.11	955.333
1251.36	942.889
1253.61	954
1255.86	944.889
1258.11	945.111
1260.36	946.222
1262.61	935.778
1264.86	934.222
1267.1	945.333
1269.35	941.778
1271.6	957.111
1273.84	959.556
1276.08	955.111
1278.33	970.889
1280.57	967.111
1282.81	962.222
1285.05	959.333
1287.29	953.333
1289.53	957.778
1291.77	943.778
1294.01	957.111
1296.25	941.556
1298.48	966.889
1300.72	964.444
1302.96	959.778
1305.19	957.778
1307.42	980.889
1309.66	975.778
1311.89	961.333
1314.12	954.667
1316.35	966
1318.58	970.444
1320.81	946.889
1323.04	946.889
1325.27	952.222
1327.5	943.111
1329.73	970.889
1331.95	974
1334.18	960
1336.4	978.222
1338.63	966.667
1340.85	972.444
1343.08	973.333
1345.3	966.889
1347.52	960.889
1349.74	966
1351.96	976.889
1354.18	975.778
1356.4	961.556
1358.61	988.444
1360.83	973.556
1363.05	967.778
1365.27	985.778
1367.48	960.889
1369.69	971.333
1371.91	971.111
1374.12	983.111
1376.33	977.333
1378.55	986.444
1380.76	985.556
1382.97	988.444
1385.18	973.111
1387.39	986.222
1389.59	991.778
1391.8	979.556
1394.01	990.667
1396.21	990.667
1398.42	987.556
1400.63	989.333
1402.83	998.667
1405.03	977.556
1407.24	982.889
1409.44	970.444
1411.64	973.556
1413.84	978.667
1416.04	968
1418.24	972
1420.44	965.111
1422.64	953.555
1424.83	954
1427.03	948.445
1429.23	960.444
1431.42	954.222
1433.62	944.444
1435.81	960.889
1438	953.333
1440.19	970.667
1442.39	967.333
1444.58	966.222
1446.77	978
1448.96	992.667
1451.15	952
1453.34	980
1455.52	980
1457.71	985.111
1459.9	990.667
1462.08	998
1464.27	989.333
1466.45	1013.33
1468.64	1023.56
1470.82	1034
1473	1015.56
1475.18	1002
1477.36	980
1479.54	984.222
1481.72	978.889
1483.9	963.333
1486.08	978.889
1488.26	980.889
1490.43	974.667
1492.61	982
1494.78	1013.78
1496.96	1019.56
1499.13	1034.89
1501.31	1034.89
1503.48	1049.56
1505.65	1046
1507.82	1030.44
1509.99	1044
1512.16	1028.67
1514.33	1010.44
1516.5	996.667
1518.67	979.333
1520.84	986.667
1523	990.444
1525.17	991.111
1527.34	1012.44
1529.5	991.111
1531.66	996.667
1533.83	999.111
1535.99	997.778
1538.15	1003.11
1540.31	989.556
1542.47	994.667
1544.63	987.333
1546.79	984.667
1548.95	999.111
1551.11	999.111
1553.27	1008.22
1555.42	1017.78
1557.58	1038.22
1559.73	1055.33
1561.89	1080.89
1564.04	1116
1566.2	1162.44
1568.35	1217.11
1570.5	1294.22
1572.65	1369.78
1574.8	1467.11
1576.95	1623.78
1579.1	1817.11
1581.25	2009.78
1583.4	2269.78
1585.55	2535.56
1587.69	2714.89
1589.84	2624.44
1591.99	2317.11
1594.13	1992.89
1596.27	1710
1598.42	1506
1600.56	1344
1602.7	1263.33
1604.84	1143.78
1606.98	1090.22
1609.12	1032.44
1611.26	987.556
1613.4	953.333
1615.54	941.111
1617.68	917.111
1619.81	863.556
1621.95	877.556
1624.08	871.111
1626.22	837.778
1628.35	820.444
1630.49	799.778
1632.62	808.889
1634.75	800.667
1636.88	789.333
1639.01	779.333
1641.14	764
1643.27	768
1645.4	762.667
1647.53	760.889
1649.66	762
1651.79	751.556
1653.91	745.556
1656.04	744.889
1658.16	746.222
1660.29	737.111
1662.41	723.111
1664.53	729.333
1666.66	722.444
1668.78	716
1670.9	721.111
1673.02	714.889
1675.14	701.556
1677.26	706.222
1679.38	702.667
1681.49	704.444
1683.61	707.778
1685.73	687.778
1687.84	684.444
1689.96	674.889
1692.07	690.222
1694.19	687.778
1696.3	675.778
1698.41	668.444
1700.52	671.333
1702.64	682.889
1704.75	669.556
1706.86	673.778
1708.97	661.333
1711.07	665.111
1713.18	666.667
1715.29	658.667
1717.4	650.222
1719.5	665.111
1721.61	661.556
1723.71	650.889
1725.82	627.556
1727.92	654.222
1730.02	636.222
1732.12	641.778
1734.23	648
1736.33	640.444
1738.43	636.222
1740.53	636.444
1742.63	625.556
1744.72	616.667
1746.82	624.222
1748.92	619.111
1751.02	618.667
1753.11	628.667
1755.21	613.111
1757.3	612.222
1759.4	617.556
1761.49	609.111
1763.58	614.889
1765.67	614.889
1767.76	607.111
1769.86	606
1771.95	608.889
1774.03	606.222
1776.12	594.889
1778.21	610.222
1780.3	598.444
1782.39	606
1784.47	607.111
1786.56	595.556
1788.64	598.222
1790.73	590.222
1792.81	604.667
1794.89	595.111
1796.98	592.667
1799.06	590.445
1801.14	591.111
1803.22	583.333
1805.3	581.778
1807.38	596.222
1809.46	589.111
1811.54	574.889
1813.61	594.667
1815.69	595.778
1817.77	582.667
1819.84	600
1821.92	583.111
1823.99	588.222
1826.06	584.222
1828.14	581.556
1830.21	576.889
1832.28	583.333
1834.35	575.556
1836.42	570.889
1838.49	585.111
1840.56	567.556
1842.63	584
1844.7	565.333
1846.77	570.444
1848.83	553.556
1850.9	558.444
1852.96	562.444
1855.03	567.556
1857.09	562.444
1859.15	557.333
1861.22	549.333
1863.28	562.444
1865.34	568.222
1867.4	547.778
1869.46	566.889
1871.52	561.333
1873.58	550.444
1875.64	551.556
1877.7	550.667
1879.76	560
1881.81	542.889
1883.87	548
1885.92	550
1887.98	550
1890.03	542.889
1892.09	550
1894.14	554.889
1896.19	546.222
1898.24	549.556
1900.29	545.778
1902.34	550.667
1904.4	548.444
1906.44	551.333
1908.49	560.667
1910.54	547.111
1912.59	541.778
1914.63	544
1916.68	546.889
1918.73	546.667
1920.77	547.778
1922.81	556.667
1924.86	547.778
1926.9	544.667
1928.94	535.556
1930.99	540
1933.03	540.444
1935.07	545.556
1937.11	536.667
1939.15	543.556
1941.19	544
1943.22	542.222
1945.26	543.778
1947.3	529.333
1949.33	534.444
1951.37	529.333
1953.4	544.222
1955.44	530
1957.47	530.222
1959.51	536.222
1961.54	529.333
1963.57	530.444
1965.6	527.333
1967.63	534.222
1969.66	526.667
1971.69	523.556
1973.72	526.667
1975.75	527.333
1977.78	522.667
1979.8	522.444
1981.83	525.556
1983.86	509.778
1985.88	520.889
1987.91	520
1989.93	523.778
1991.95	523.111
1993.98	525.556
1996	524.222
1998.02	535.111
2000.04	519.111
2002.06	527.556
2004.08	516.222
2006.1	521.556
2008.12	519.778
2010.14	521.778
2012.15	515.333
2014.17	523.111
2016.19	522
2018.2	519.111
2020.22	507.333
2022.23	514.667
2024.25	510
2026.26	513.556
2028.27	518.222
2030.28	515.111
2032.29	518.444
2034.3	514
2036.32	514.667
2038.32	523.111
2040.33	513.778
2042.34	527.333
2044.35	514.667
2046.36	499.556
2048.36	519.111
2050.37	513.333
2052.37	515.778
2054.38	500.889
2056.38	509.778
2058.39	511.778
2060.39	523.333
2062.39	506.889
2064.39	517.111
2066.39	503.556
2068.39	514.889
2070.39	498.444
2072.39	515.111
2074.39	503.556
2076.39	506.667
2078.39	500.889
2080.39	501.333
2082.38	504.889
2084.38	492.444
2086.37	488.667
2088.37	506.667
2090.36	503.778
2092.35	518.222
2094.35	494
2096.34	502
2098.33	493.556
2100.32	501.778
2102.31	506
2104.3	500.889
2106.29	490.222
2108.28	502.667
2110.27	500.889
2112.25	500.667
2114.24	493.333
2116.23	499.556
2118.21	493.556
2120.2	500.667
2122.18	490.667
2124.17	489.111
2126.15	485.333
2128.13	501.333
2130.11	481.556
2132.09	488.889
2134.08	485.778
2136.06	497.333
2138.04	489.111
2140.02	487.333
2141.99	480.222
2143.97	503.111
2145.95	481.778
2147.93	502.222
2149.9	485.556
2151.88	485.778
2153.85	488.444
2155.83	484.889
2157.8	482.444
2159.77	478.889
2161.75	491.333
2163.72	486.889
2165.69	477.556
2167.66	477.111
2169.63	489.556
2171.6	486
2173.57	485.778
2175.54	492
2177.51	475.778
2179.47	480.889
2181.44	482.667
2183.41	469.778
2185.37	477.333
2187.34	474.444
2189.3	466.889
2191.27	471.556
2193.23	459.556
2195.19	470.444
2197.15	475.556
2199.11	470.444
2201.08	481.111
2203.04	482.667
2205	496
2206.96	505.333
2208.91	500.667
2210.87	513.111
2212.83	538.222
2214.79	585.556
2216.74	616.889
2218.7	676.222
2220.65	743.556
2222.61	848.889
2224.56	947.778
2226.52	1036.89
2228.47	1096
2230.42	1079.33
2232.37	1033.11
2234.32	926.889
2236.27	846.667
2238.22	759.111
2240.17	691.111
2242.12	640.222
2244.07	608.444
2246.02	573.333
2247.97	537.778
2249.91	541.333
2251.86	528.445
2253.8	512.667
2255.75	500.889
2257.69	495.778
2259.64	479.556
2261.58	485.778
2263.52	481.111
2265.46	466.444
2267.4	465.778
2269.35	455.778
2271.29	447.333
2273.23	459.111
2275.16	459.778
2277.1	460.889
2279.04	450.667
2280.98	446.889
2282.92	444.889
2284.85	442.222
2286.79	444.222
2288.72	435.556
2290.66	425.556
2292.59	444.222
2294.52	437.333
2296.46	437.556
2298.39	446
2300.32	440
2302.25	426.667
2304.18	430.444
2306.11	427.333
2308.04	432
2309.97	444.889
2311.9	420
2313.83	422.889
2315.75	431.333
2317.68	424.222
2319.61	440.889
2321.53	432.444
2323.46	437.111
2325.38	429.778
2327.3	432.667
2329.23	418.444
2331.15	414
2333.07	424
2334.99	433.778
2336.91	420.222
2338.83	427.778
2340.75	422
2342.67	428.667
2344.59	421.556
2346.51	427.556
2348.43	420.667
2350.35	418.444
2352.26	427.778
2354.18	420.889
2356.09	422.667
2358.01	424.444
2359.92	425.111
2361.83	427.333
2363.75	421.333
2365.66	422
2367.57	416.667
2369.48	413.333
2371.39	418.444
2373.31	421.556
2375.21	426.667
2377.12	410.222
2379.03	418
2380.94	415.333
2382.85	416
2384.76	414.889
2386.66	408.444
2388.57	416.444
2390.47	409.778
2392.38	410.222
2394.28	411.778
2396.18	399.556
2398.09	401.778
2399.99	405.111
2401.89	395.556
2403.79	412.222
2405.69	400.222
2407.59	410.667
2409.49	396.444
2411.39	411.333
2413.29	410.444
2415.19	397.111
2417.09	392.444
2418.98	392.444
2420.88	390.667
2422.78	399.111
2424.67	392.889
2426.57	397.556
2428.46	398.444
2430.35	398.222
2432.25	389.556
2434.14	399.556
2436.03	397.556
2437.92	395.333
2439.81	393.111
2441.7	384.889
2443.59	401.111
2445.48	389.111
2447.37	392
2449.26	390
2451.15	408
2453.03	396.667
