186.85	529.111
189.449	517.556
192.047	522
194.645	529.778
197.241	527.556
199.837	526.667
202.431	523.333
205.025	519.111
207.619	519.333
210.21	525.333
212.802	514.667
215.392	522.444
217.982	529.333
220.57	524.445
223.158	523.778
225.744	529.333
228.331	530.889
230.915	536.889
233.5	530.445
236.083	535.333
238.666	532.222
241.247	543.333
243.827	547.778
246.408	548.667
248.986	543.333
251.565	552.667
254.142	553.556
256.719	545.778
259.294	547.333
261.868	539.111
264.443	551.778
267.015	547.556
269.587	546
272.159	542.889
274.729	554.889
277.298	531.556
279.867	547.111
282.435	533.778
285.001	539.556
287.568	537.111
290.133	544.889
292.697	535.778
295.26	542
297.824	553.556
300.385	548.222
302.945	545.778
305.505	549.778
308.064	553.556
310.623	562.222
313.18	544.444
315.737	556
318.292	549.778
320.847	545.111
323.402	558.444
325.955	559.556
328.507	568
331.058	565.333
333.609	565.778
336.158	561.556
338.707	558.222
341.255	569.111
343.802	580.222
346.349	578.444
348.895	565.333
351.439	568.667
353.983	578
356.526	580.444
359.068	578.444
361.609	594.889
364.149	592
366.689	588
369.227	589.778
371.765	594
374.302	596
376.838	585.778
379.374	601.333
381.908	609.333
384.442	598.222
386.973	583.111
389.505	579.778
392.036	574
394.567	565.333
397.096	567.556
399.625	578.222
402.153	579.111
404.68	576
407.206	574
409.73	573.556
412.254	579.333
414.778	580.667
417.301	576
419.823	570.444
422.343	592.444
424.863	590.889
427.383	583.778
429.901	586.889
432.418	598.444
434.935	603.333
437.451	601.778
439.966	611.333
442.48	600
444.993	594.222
447.506	594
450.019	587.111
452.528	593.333
455.039	600
457.549	598
460.056	606.444
462.564	603.556
465.07	595.333
467.576	585.778
470.082	582.444
472.585	598.444
475.089	572.889
477.591	590.889
480.093	586.222
482.595	585.333
485.094	586.444
487.594	590.889
490.091	589.111
492.59	594.667
495.086	601.111
497.582	592
500.076	589.333
502.571	594
505.064	592.667
507.558	592
510.049	575.778
512.54	608
515.03	596.889
517.518	588.444
520.008	600
522.495	597.111
524.983	588.444
527.468	590.222
529.954	592.445
532.438	593.333
534.921	581.111
537.404	582
539.886	592.444
542.366	595.556
544.848	596.889
547.327	589.778
549.805	602.667
552.284	596.222
554.76	594
557.236	591.556
559.711	598
562.186	598.667
564.66	604.667
567.132	605.556
569.604	596.222
572.076	600.445
574.547	597.556
577.016	607.111
579.484	628.444
581.952	626.889
584.419	624.444
586.887	631.778
589.352	620.222
591.816	610.667
594.28	595.556
596.743	598.222
599.205	592.222
601.667	594
604.127	595.556
606.588	595.111
609.047	594.222
611.505	589.556
613.963	596.444
616.419	588.667
618.875	581.556
621.33	592.667
623.784	586
626.238	596.444
628.69	597.778
631.142	600.667
633.593	589.778
636.043	604.889
638.493	598
640.941	584.889
643.389	590.667
645.835	598.889
648.281	590.667
650.727	593.556
653.171	596.444
655.615	597.778
658.058	592
660.501	591.333
662.942	576.444
665.382	583.556
667.822	595.778
670.261	584
672.699	583.111
675.137	590.667
677.574	588.222
680.008	592
682.443	585.556
684.878	598
687.312	585.778
689.743	589.111
692.175	591.778
694.607	588.444
697.037	590.444
699.466	593.556
701.895	579.333
704.323	604.667
706.749	598.667
709.175	591.556
711.601	595.333
714.025	598.222
716.449	585.778
718.871	584
721.294	591.556
723.716	592.222
726.136	589.333
728.556	593.333
730.975	602.444
733.394	593.556
735.812	584.889
738.228	588.667
740.644	592.444
743.058	589.111
745.473	573.778
747.886	584
750.3	591.111
752.711	574.889
755.123	582.222
757.533	586.444
759.942	575.556
762.351	574.444
764.759	577.111
767.167	584.889
769.573	575.778
771.979	580.889
774.383	584
776.787	594
779.191	590.889
781.593	596.889
783.994	589.111
786.396	589.556
788.796	577.111
791.195	585.333
793.595	590
795.992	587.778
798.389	586.222
800.786	583.555
803.181	586
805.576	581.333
807.969	575.556
810.363	591.778
812.755	587.556
815.147	579.556
817.537	581.111
819.927	572.444
822.318	583.778
824.706	576.444
827.093	588
829.48	584
831.866	586.667
834.251	568.889
836.636	575.556
839.021	581.111
841.404	568.889
843.786	566
846.167	582.222
848.548	579.778
850.928	564.667
853.307	579.556
855.685	565.333
858.063	570.889
860.44	571.333
862.816	573.778
865.192	570.667
867.566	576
869.94	570.444
872.313	571.111
874.685	578
877.057	580.444
879.428	578.667
881.798	576.889
884.167	587.111
886.536	574
888.902	570.889
891.269	582.889
893.636	581.778
896.001	578.444
898.366	578.889
900.73	587.555
903.094	579.778
905.455	578.667
907.817	571.333
910.178	572.667
912.538	573.555
914.898	575.111
917.255	572.222
919.613	571.778
921.971	559.556
924.327	565.556
926.682	570
929.037	563.333
931.391	556.222
933.744	562
936.096	558.222
938.449	564
940.799	561.333
943.149	567.333
945.499	556
947.847	571.333
950.195	572.444
952.542	558.667
954.889	571.778
957.235	558.667
959.579	570.444
961.924	569.333
964.266	572.889
966.609	576
968.951	557.333
971.292	568.667
973.632	564.222
975.972	569.333
978.31	569.778
980.649	562.667
982.986	559.111
985.323	570.889
987.659	565.556
989.994	570.667
992.328	568.222
994.662	583.333
996.995	569.778
999.326	573.778
1001.66	570.667
1003.99	563.111
1006.32	555.556
1008.65	570.222
1010.98	568.889
1013.3	559.111
1015.63	563.778
1017.96	561.778
1020.28	566.667
1022.61	558.667
1024.93	563.111
1027.25	572.667
1029.58	573.111
1031.9	568.444
1034.22	566
1036.54	578.889
1038.86	569.556
1041.18	571.333
1043.49	569.778
1045.81	571.778
1048.13	568.222
1050.44	583.556
1052.76	591.556
1055.07	593.333
1057.39	592.667
1059.7	592.222
1062.01	603.556
1064.32	599.333
1066.63	625.111
1068.94	649.778
1071.25	685.778
1073.56	713.333
1075.87	734.445
1078.17	782.222
1080.48	791.111
1082.79	791.778
1085.09	772.222
1087.39	742.444
1089.7	699.333
1092	680.667
1094.3	686.445
1096.6	682.889
1098.9	662.667
1101.2	646
1103.5	625.556
1105.8	605.778
1108.1	610.222
1110.39	610.889
1112.69	598
1114.98	604
1117.28	616.445
1119.57	605.556
1121.86	607.333
1124.16	606.667
1126.45	598.667
1128.74	596
1131.03	589.111
1133.32	585.556
1135.61	585.778
1137.89	567.556
1140.18	568.667
1142.47	560.445
1144.75	567.778
1147.04	562.889
1149.32	573.778
1151.61	570.444
1153.89	571.111
1156.17	576.889
1158.45	574.889
1160.73	571.333
1163.01	572.222
1165.29	576.667
1167.57	572
1169.85	574.667
1172.12	582.222
1174.4	603.111
1176.68	647.778
1178.95	661.556
1181.22	672.889
1183.5	655.111
1185.77	629.333
1188.04	593.778
1190.31	575.778
1192.58	568.444
1194.85	576
1197.12	567.778
1199.39	569.111
1201.66	575.778
1203.92	578.889
1206.19	566.222
1208.45	560.889
1210.72	559.111
1212.98	553.333
1215.25	540.889
1217.51	550.444
1219.77	538.222
1222.03	554
1224.29	547.778
1226.55	552
1228.81	554.667
1231.07	542.222
1233.33	547.556
1235.58	548
1237.84	547.556
1240.09	545.111
1242.35	550.222
1244.6	553.778
1246.86	546
1249.11	555.111
1251.36	554.889
1253.61	545.111
1255.86	543.778
1258.11	546.444
1260.36	535.778
1262.61	544
1264.86	555.111
1267.1	538
1269.35	537.778
1271.6	543.333
1273.84	544.444
1276.08	548.667
1278.33	554.889
1280.57	546.222
1282.81	545.111
1285.05	538.222
1287.29	541.778
1289.53	543.556
1291.77	551.556
1294.01	541.778
1296.25	542.667
1298.48	543.556
1300.72	537.111
1302.96	545.111
1305.19	538.444
1307.42	547.111
1309.66	542.889
1311.89	551.111
1314.12	550.889
1316.35	545.778
1318.58	542.444
1320.81	546
1323.04	555.333
1325.27	542
1327.5	556.667
1329.73	554.222
1331.95	552
1334.18	556.222
1336.4	573.556
1338.63	559.333
1340.85	554.444
1343.08	563.111
1345.3	555.111
1347.52	547.556
1349.74	553.333
1351.96	552
1354.18	552.667
1356.4	548.889
1358.61	536.667
1360.83	554.667
1363.05	550.445
1365.27	545.556
1367.48	545.556
1369.69	562.889
1371.91	558.444
1374.12	562.667
1376.33	560.667
1378.55	569.778
1380.76	580
1382.97	557.333
1385.18	560.889
1387.39	567.778
1389.59	554
1391.8	555.111
1394.01	556.222
1396.21	552.222
1398.42	554.222
1400.63	543.556
1402.83	546.444
1405.03	549.778
1407.24	545.778
1409.44	539.333
1411.64	553.556
1413.84	547.778
1416.04	542.889
1418.24	537.556
1420.44	529.555
1422.64	536
1424.83	525.556
1427.03	530.667
1429.23	522
1431.42	530.222
1433.62	539.333
1435.81	512.222
1438	538.444
1440.19	526
1442.39	538.889
1444.58	524.444
1446.77	531.556
1448.96	531.333
1451.15	525.111
1453.34	516.222
1455.52	525.778
1457.71	527.111
1459.9	530.222
1462.08	528
1464.27	528.445
1466.45	539.333
1468.64	538.889
1470.82	526.222
1473	543.111
1475.18	532
1477.36	545.555
1479.54	533.111
1481.72	539.556
1483.9	535.333
1486.08	528.667
1488.26	512
1490.43	522.444
1492.61	513.556
1494.78	517.556
1496.96	517.778
1499.13	534
1501.31	516.889
1503.48	521.556
1505.65	520
1507.82	529.333
1509.99	527.556
1512.16	508.889
1514.33	512.667
1516.5	516.889
1518.67	511.111
1520.84	520.667
1523	520
1525.17	513.111
1527.34	513.556
1529.5	518.222
1531.66	522.889
1533.83	517.778
1535.99	519.778
1538.15	508.444
1540.31	518.667
1542.47	523.556
1544.63	515.333
1546.79	513.111
1548.95	520.444
1551.11	513.333
1553.27	525.556
1555.42	529.778
1557.58	511.333
1559.73	526.889
1561.89	519.333
1564.04	529.111
1566.2	539.111
1568.35	546
1570.5	543.778
1572.65	558.222
1574.8	572.222
1576.95	596
1579.1	630
1581.25	680.667
1583.4	734.667
1585.55	805.111
1587.69	860.889
1589.84	880.222
1591.99	807.778
1594.13	735.333
1596.27	670
1598.42	631.333
1600.56	578.222
1602.7	566.667
1604.84	550.444
1606.98	540.222
1609.12	528.444
1611.26	509.333
1613.4	522.222
1615.54	498.667
1617.68	508.889
1619.81	502.444
1621.95	502.444
1624.08	502.222
1626.22	499.333
1628.35	500.667
1630.49	487.333
1632.62	491.111
1634.75	480.444
1636.88	480.222
1639.01	494.667
1641.14	481.778
1643.27	485.111
1645.4	490.222
1647.53	492.667
1649.66	478.889
1651.79	494.444
1653.91	485.778
1656.04	479.333
1658.16	482.222
1660.29	480.222
1662.41	482
1664.53	482.444
1666.66	487.333
1668.78	488.667
1670.9	465.778
1673.02	469.111
1675.14	472
1677.26	481.333
1679.38	477.778
1681.49	468.222
1683.61	479.111
1685.73	476
1687.84	471.778
1689.96	466
1692.07	469.556
1694.19	486.222
1696.3	476.889
1698.41	465.556
1700.52	469.111
1702.64	479.111
1704.75	475.333
1706.86	472.444
1708.97	468.222
1711.07	473.333
1713.18	463.333
1715.29	473.333
1717.4	474.444
1719.5	470
1721.61	464.444
1723.71	463.333
1725.82	467.111
1727.92	458.889
1730.02	469.778
1732.12	475.556
1734.23	468.444
1736.33	458.889
1738.43	454.222
1740.53	465.111
1742.63	465.333
1744.72	464.889
1746.82	456.222
1748.92	460
1751.02	457.778
1753.11	456
1755.21	452.444
1757.3	451.111
1759.4	456.667
1761.49	455.333
1763.58	456.667
1765.67	451.778
1767.76	458.667
1769.86	448.444
1771.95	443.333
1774.03	452.889
1776.12	452
1778.21	453.556
1780.3	450.444
1782.39	447.111
1784.47	454.444
1786.56	446
1788.64	451.333
1790.73	450
1792.81	449.333
1794.89	442.889
1796.98	446.667
1799.06	449.556
1801.14	452.444
1803.22	445.111
1805.3	444.667
1807.38	444.889
1809.46	442
1811.54	443.778
1813.61	440.667
1815.69	444.667
1817.77	445.333
1819.84	437.556
1821.92	437.778
1823.99	438.222
1826.06	436
1828.14	439.556
1830.21	433.333
1832.28	434.444
1834.35	440.667
1836.42	437.556
1838.49	432.222
1840.56	440
1842.63	428
1844.7	426
1846.77	440.667
1848.83	432.667
1850.9	437.333
1852.96	433.333
1855.03	432.444
1857.09	423.333
1859.15	429.556
1861.22	423.333
1863.28	433.778
1865.34	428.444
1867.4	427.778
1869.46	427.556
1871.52	429.333
1873.58	428.222
1875.64	429.556
1877.7	426
1879.76	431.778
1881.81	416
1883.87	422
1885.92	424.889
1887.98	416.889
1890.03	420.444
1892.09	416
1894.14	418.444
1896.19	428
1898.24	418.667
1900.29	417.111
1902.34	415.778
1904.4	420.889
1906.44	426
1908.49	418.889
1910.54	424.889
1912.59	428.222
1914.63	423.556
1916.68	415.111
1918.73	413.333
1920.77	429.333
1922.81	420.667
1924.86	427.333
1926.9	416.889
1928.94	411.333
1930.99	415.556
1933.03	417.333
1935.07	415.556
1937.11	416.444
1939.15	399.778
1941.19	403.778
1943.22	416
1945.26	412.222
1947.3	412
1949.33	402.222
1951.37	409.778
1953.4	409.778
1955.44	403.333
1957.47	400.444
1959.51	413.556
1961.54	404.444
1963.57	407.778
1965.6	403.333
1967.63	406.667
1969.66	401.556
1971.69	394.889
1973.72	407.556
1975.75	394.222
1977.78	391.778
1979.8	393.111
1981.83	398.667
1983.86	404.222
1985.88	405.778
1987.91	390.667
1989.93	397.111
1991.95	394
1993.98	393.333
1996	392.667
1998.02	402.889
2000.04	388.444
2002.06	391.778
2004.08	386.667
2006.1	390.667
2008.12	390.222
2010.14	388.667
2012.15	401.778
2014.17	409.111
2016.19	390.667
2018.2	388.444
2020.22	378
2022.23	385.778
2024.25	390.889
2026.26	398.222
2028.27	392.667
2030.28	394.222
2032.29	392.667
2034.3	383.778
2036.32	380.889
2038.32	385.556
2040.33	393.333
2042.34	392.889
2044.35	388.667
2046.36	379.778
2048.36	390.222
2050.37	384.222
2052.37	387.778
2054.38	380.667
2056.38	384.667
2058.39	379.556
2060.39	382.222
2062.39	381.333
2064.39	386.222
2066.39	383.111
2068.39	379.333
2070.39	378.222
2072.39	382
2074.39	375.111
2076.39	382.889
2078.39	366.444
2080.39	373.778
2082.38	379.778
2084.38	376.667
2086.37	372.222
2088.37	374.222
2090.36	375.111
2092.35	369.778
2094.35	382.667
2096.34	371.111
2098.33	374.222
2100.32	362.667
2102.31	368.222
2104.3	373.333
2106.29	376.667
2108.28	374.222
2110.27	361.333
2112.25	365.778
2114.24	370.889
2116.23	365.556
2118.21	359.556
2120.2	369.333
2122.18	368.889
2124.17	361.778
2126.15	359.333
2128.13	364.889
2130.11	373.111
2132.09	362.667
2134.08	364.889
2136.06	361.778
2138.04	360.222
2140.02	361.333
2141.99	356.889
2143.97	362
2145.95	359.778
2147.93	369.111
2149.9	361.556
2151.88	359.333
2153.85	360.222
2155.83	356.889
2157.8	352
2159.77	363.778
2161.75	360.222
2163.72	357.556
2165.69	352.222
2167.66	361.111
2169.63	358.222
2171.6	350.444
2173.57	352.889
2175.54	355.778
2177.51	350.889
2179.47	347.111
2181.44	357.111
2183.41	352
2185.37	348
2187.34	347.556
2189.3	350.222
2191.27	350
2193.23	346.444
2195.19	351.778
2197.15	348.667
2199.11	345.556
2201.08	348.444
2203.04	346.889
2205	347.556
2206.96	348.667
2208.91	354
2210.87	356.889
2212.83	352
2214.79	366.444
2216.74	372.444
2218.7	375.333
2220.65	402.444
2222.61	438.222
2224.56	474.889
2226.52	497.556
2228.47	513.778
2230.42	510
2232.37	499.333
2234.32	473.333
2236.27	444.222
2238.22	416.444
2240.17	388.667
2242.12	373.778
2244.07	358
2246.02	360.222
2247.97	351.333
2249.91	350
2251.86	336.889
2253.8	341.333
2255.75	335.333
2257.69	342
2259.64	336.444
2261.58	326
2263.52	337.333
2265.46	330
2267.4	321.333
2269.35	331.333
2271.29	326
2273.23	320.889
2275.16	319.111
2277.1	322.667
2279.04	318.667
2280.98	319.778
2282.92	321.333
2284.85	321.333
2286.79	316.889
2288.72	317.111
2290.66	314
2292.59	318.444
2294.52	318.444
2296.46	322
2298.39	317.111
2300.32	315.111
2302.25	312.667
2304.18	316
2306.11	313.778
2308.04	307.556
2309.97	311.111
2311.9	301.778
2313.83	312.222
2315.75	309.111
2317.68	306.889
2319.61	310.667
2321.53	308.667
2323.46	306.222
2325.38	307.111
2327.3	312.667
2329.23	303.556
2331.15	308
2333.07	311.111
2334.99	308
2336.91	310
2338.83	298.889
2340.75	310.889
2342.67	302
2344.59	313.778
2346.51	305.333
2348.43	299.111
2350.35	303.556
2352.26	301.111
2354.18	300.889
2356.09	302.222
2358.01	304.444
2359.92	297.333
2361.83	304.889
2363.75	304
2365.66	303.111
2367.57	296.444
2369.48	299.333
2371.39	299.556
2373.31	302.444
2375.21	298
2377.12	293.556
2379.03	299.111
2380.94	300.667
2382.85	294
2384.76	289.111
2386.66	294.667
2388.57	294.444
2390.47	291.778
2392.38	281.556
2394.28	297.333
2396.18	297.111
2398.09	286.667
2399.99	290.667
2401.89	289.333
2403.79	284.889
2405.69	286.222
2407.59	295.111
2409.49	288.889
2411.39	290.667
2413.29	284.667
2415.19	282.889
2417.09	280.667
2418.98	287.556
2420.88	279.111
2422.78	278.444
2424.67	286.667
2426.57	285.556
2428.46	280.444
2430.35	281.778
2432.25	282.444
2434.14	287.333
2436.03	279.556
2437.92	282.889
2439.81	286.222
2441.7	273.778
2443.59	279.333
2445.48	276.222
2447.37	282
2449.26	281.111
2451.15	274.889
2453.03	277.333
