186.85	539.556
189.449	535.111
192.047	530
194.645	537.111
197.241	530.667
199.837	539.111
202.431	530.444
205.025	542.889
207.619	542.222
210.21	535.778
212.802	543.778
215.392	534.444
217.982	525.111
220.57	529.111
223.158	523.111
225.744	534.444
228.331	517.111
230.915	534.444
233.5	538.889
236.083	542
238.666	541.111
241.247	539.111
243.827	545.778
246.408	520.889
248.986	550.667
251.565	553.333
254.142	543.111
256.719	546.444
259.294	539.333
261.868	550.222
264.443	522.889
267.015	534.889
269.587	518.444
272.159	518.445
274.729	504.667
277.298	506
279.867	512.222
282.435	506.889
285.001	502.444
287.568	496.444
290.133	492
292.697	492.222
295.26	498
297.824	489.333
300.385	490.222
302.945	498.444
305.505	493.111
308.064	489.556
310.623	494
313.18	484.889
315.737	500
318.292	496.444
320.847	502
323.402	503.778
325.955	510.889
328.507	513.556
331.058	507.333
333.609	512.222
336.158	511.333
338.707	496.889
341.255	507.556
343.802	500.667
346.349	505.778
348.895	511.556
351.439	525.556
353.983	518.222
356.526	527.556
359.068	542.444
361.609	540.222
364.149	559.333
366.689	536
369.227	530.667
371.765	526.444
374.302	526.222
376.838	527.778
379.374	533.556
381.908	538.667
384.442	528
386.973	514.222
389.505	510
392.036	504.667
394.567	508
397.096	517.778
399.625	513.778
402.153	523.556
404.68	518
407.206	530
409.73	528
412.254	521.778
414.778	517.778
417.301	512.222
419.823	520
422.343	525.556
424.863	518.222
427.383	519.111
429.901	526.889
432.418	521.333
434.935	513.111
437.451	527.111
439.966	526.444
442.48	537.111
444.993	533.111
447.506	529.556
450.019	529.778
452.528	525.778
455.039	517.111
457.549	529.111
460.056	528.444
462.564	525.778
465.07	528.667
467.576	519.333
470.082	529.556
472.585	517.778
475.089	519.111
477.591	523.556
480.093	518.222
482.595	522.667
485.094	517.556
487.594	526.444
490.091	524.444
492.59	535.111
495.086	528.889
497.582	524.444
500.076	536.222
502.571	526.444
505.064	527.333
507.558	509.556
510.049	507.111
512.54	511.111
515.03	515.556
517.518	518.222
520.008	527.778
522.495	517.556
524.983	520.222
527.468	537.111
529.954	522
532.438	534.667
534.921	524
537.404	524.445
539.886	528
542.366	523.333
544.848	521.556
547.327	521.333
549.805	515.333
552.284	514
554.76	531.556
557.236	522.889
559.711	515.333
562.186	516.667
564.66	515.778
567.132	516
569.604	520
572.076	527.556
574.547	550.222
577.016	576.889
579.484	579.778
581.952	609.333
584.419	594
586.887	574.444
589.352	564.667
591.816	533.556
594.28	526.889
596.743	515.333
599.205	506.444
601.667	506
604.127	506.444
606.588	501.333
609.047	517.778
611.505	516
613.963	502.222
616.419	522.667
618.875	507.556
621.33	506.222
623.784	518.222
626.238	520.222
628.69	512
631.142	517.111
633.593	517.111
636.043	517.556
638.493	508.222
640.941	508.889
643.389	532.667
645.835	513.778
648.281	509.556
650.727	507.556
653.171	508.444
655.615	520.222
658.058	526.445
660.501	517.333
662.942	516.444
665.382	520.667
667.822	508.667
670.261	511.333
672.699	510.444
675.137	504.667
677.574	511.556
680.008	523.556
682.443	504.222
684.878	514.667
687.312	514.667
689.743	515.111
692.175	515.333
694.607	512.889
697.037	509.778
699.466	514.222
701.895	518.222
704.323	513.111
706.749	514.444
709.175	518.444
711.601	506.444
714.025	521.333
716.449	513.556
718.871	521.556
721.294	518.444
723.716	519.778
726.136	516.445
728.556	506.667
730.975	511.556
733.394	516
735.812	505.333
738.228	513.111
740.644	510.222
743.058	506.444
745.473	504.667
747.886	502.222
750.3	499.778
752.711	496
755.123	503.556
757.533	510.444
759.942	499.111
762.351	499.333
764.759	510
767.167	503.111
769.573	505.333
771.979	514.667
774.383	517.556
776.787	539.333
779.191	542.444
781.593	537.333
783.994	526.222
786.396	522
788.796	526
791.195	525.556
793.595	528.222
795.992	521.111
798.389	509.333
800.786	518.889
803.181	506.222
805.576	510.444
807.969	519.556
810.363	509.333
812.755	512.444
815.147	516
817.537	502
819.927	509.333
822.318	513.333
824.706	519.778
827.093	520.667
829.48	522.889
831.866	522
834.251	508.667
836.636	517.333
839.021	515.333
841.404	514.222
843.786	516
846.167	497.778
848.548	503.778
850.928	500.667
853.307	503.556
855.685	508.444
858.063	498.889
860.44	513.111
862.816	509.333
865.192	510.222
867.566	502.222
869.94	504.667
872.313	509.556
874.685	500.667
877.057	503.556
879.428	513.111
881.798	505.333
884.167	507.556
886.536	509.111
888.902	512.222
891.269	516.667
893.636	512
896.001	514
898.366	509.111
900.73	513.778
903.094	503.556
905.455	511.556
907.817	506.667
910.178	504.444
912.538	504.889
914.898	501.778
917.255	489.333
919.613	500
921.971	501.333
924.327	493.111
926.682	502
929.037	496.667
931.391	500.222
933.744	501.556
936.096	504.889
938.449	497.111
940.799	508.889
943.149	512.667
945.499	507.111
947.847	498
950.195	503.111
952.542	500
954.889	509.333
957.235	521.333
959.579	503.556
961.924	493.778
964.266	505.111
966.609	510
968.951	503.333
971.292	504
973.632	510.444
975.972	515.111
978.31	510
980.649	514
982.986	517.111
985.323	508
987.659	510.667
989.994	520.889
992.328	523.333
994.662	528.667
996.995	523.111
999.326	528.889
1001.66	524.222
1003.99	514.889
1006.32	522.667
1008.65	522
1010.98	532
1013.3	537.778
1015.63	543.111
1017.96	550.667
1020.28	537.111
1022.61	529.556
1024.93	528.444
1027.25	530
1029.58	517.111
1031.9	520.667
1034.22	538.222
1036.54	530.444
1038.86	541.111
1041.18	536.667
1043.49	546.667
1045.81	538.444
1048.13	549.778
1050.44	557.778
1052.76	586
1055.07	599.778
1057.39	606.444
1059.7	618.444
1062.01	649.333
1064.32	695.778
1066.63	780.667
1068.94	878
1071.25	1000.89
1073.56	1142
1075.87	1229.78
1078.17	1282.67
1080.48	1248.89
1082.79	1186.22
1085.09	1051.78
1087.39	932.889
1089.7	816
1092	748.222
1094.3	711.111
1096.6	683.333
1098.9	656.889
1101.2	628
1103.5	604.889
1105.8	591.111
1108.1	582.444
1110.39	572.667
1112.69	570
1114.98	559.778
1117.28	579.778
1119.57	568.444
1121.86	588
1124.16	569.111
1126.45	568.444
1128.74	556
1131.03	551.555
1133.32	556
1135.61	550.889
1137.89	544.222
1140.18	537.778
1142.47	542.889
1144.75	536.667
1147.04	547.111
1149.32	549.778
1151.61	543.111
1153.89	553.111
1156.17	548.444
1158.45	546.667
1160.73	555.111
1163.01	552
1165.29	550.667
1167.57	557.111
1169.85	588.222
1172.12	618.444
1174.4	681.111
1176.68	756.667
1178.95	834.667
1181.22	838
1183.5	829.778
1185.77	771.333
1188.04	726.222
1190.31	670
1192.58	631.778
1194.85	608.889
1197.12	623.778
1199.39	616.667
1201.66	619.111
1203.92	601.556
1206.19	584.889
1208.45	562.889
1210.72	545.778
1212.98	546.667
1215.25	538
1217.51	539.778
1219.77	544.444
1222.03	531.778
1224.29	533.333
1226.55	538.667
1228.81	533.555
1231.07	546.667
1233.33	535.333
1235.58	543.778
1237.84	532.889
1240.09	538.222
1242.35	542.444
1244.6	547.778
1246.86	542.889
1249.11	545.333
1251.36	550
1253.61	550
1255.86	551.556
1258.11	551.778
1260.36	555.333
1262.61	548.889
1264.86	546.222
1267.1	543.556
1269.35	544
1271.6	554.444
1273.84	554
1276.08	551.111
1278.33	555.111
1280.57	560.667
1282.81	542.222
1285.05	565.556
1287.29	565.333
1289.53	558
1291.77	563.556
1294.01	566
1296.25	569.333
1298.48	557.556
1300.72	552.889
1302.96	559.556
1305.19	548.222
1307.42	543.556
1309.66	546.667
1311.89	557.778
1314.12	550.444
1316.35	571.778
1318.58	574.889
1320.81	573.111
1323.04	574.889
1325.27	571.111
1327.5	568.444
1329.73	558.667
1331.95	569.555
1334.18	558.222
1336.4	569.555
1338.63	569.556
1340.85	570
1343.08	559.333
1345.3	561.778
1347.52	554.889
1349.74	558.444
1351.96	556.222
1354.18	569.555
1356.4	555.778
1358.61	564.222
1360.83	562
1363.05	567.333
1365.27	566.444
1367.48	566.444
1369.69	579.111
1371.91	561.333
1374.12	574.667
1376.33	573.111
1378.55	577.333
1380.76	574
1382.97	571.778
1385.18	568.667
1387.39	571.333
1389.59	566.222
1391.8	564.444
1394.01	571.555
1396.21	572.667
1398.42	580.444
1400.63	588.667
1402.83	568.889
1405.03	583.333
1407.24	572.667
1409.44	583.556
1411.64	586.222
1413.84	577.333
1416.04	583.111
1418.24	580.444
1420.44	575.556
1422.64	584.667
1424.83	566
1427.03	558.889
1429.23	562.222
1431.42	557.778
1433.62	550.889
1435.81	547.778
1438	546
1440.19	544.667
1442.39	566.444
1444.58	559.556
1446.77	558.444
1448.96	554.667
1451.15	562
1453.34	548.222
1455.52	549.555
1457.71	545.333
1459.9	547.556
1462.08	546.667
1464.27	549.778
1466.45	559.778
1468.64	566.222
1470.82	565.333
1473	557.778
1475.18	571.556
1477.36	581.556
1479.54	567.778
1481.72	568.222
1483.9	573.333
1486.08	558.444
1488.26	546.444
1490.43	548
1492.61	532.444
1494.78	550.667
1496.96	552.667
1499.13	545.556
1501.31	547.778
1503.48	555.111
1505.65	574.222
1507.82	557.556
1509.99	556.667
1512.16	564
1514.33	560.222
1516.5	559.556
1518.67	554.444
1520.84	564.444
1523	558.222
1525.17	559.111
1527.34	562
1529.5	562.889
1531.66	569.111
1533.83	572.889
1535.99	558.667
1538.15	568
1540.31	575.778
1542.47	580
1544.63	590
1546.79	595.556
1548.95	593.333
1551.11	602.889
1553.27	607.333
1555.42	614.889
1557.58	630
1559.73	628.889
1561.89	655.556
1564.04	677.111
1566.2	704
1568.35	716.222
1570.5	766.667
1572.65	811.556
1574.8	882
1576.95	953.111
1579.1	1076.44
1581.25	1209.33
1583.4	1360
1585.55	1512.89
1587.69	1635.56
1589.84	1589.56
1591.99	1403.78
1594.13	1192.89
1596.27	1004.89
1598.42	888.667
1600.56	805.333
1602.7	733.778
1604.84	700.889
1606.98	653.111
1609.12	621.333
1611.26	604.222
1613.4	586.889
1615.54	566.444
1617.68	546.889
1619.81	544.889
1621.95	536.222
1624.08	527.111
1626.22	526
1628.35	526.444
1630.49	517.556
1632.62	505.556
1634.75	501.556
1636.88	493.778
1639.01	500.444
1641.14	501.556
1643.27	485.556
1645.4	495.333
1647.53	482.222
1649.66	478.889
1651.79	488.889
1653.91	490.444
1656.04	480.889
1658.16	470.667
1660.29	477.556
1662.41	470.222
1664.53	472.444
1666.66	472.222
1668.78	472
1670.9	473.556
1673.02	450.889
1675.14	465.111
1677.26	468.222
1679.38	462
1681.49	457.778
1683.61	450.444
1685.73	460
1687.84	460.889
1689.96	460.889
1692.07	459.778
1694.19	463.778
1696.3	463.111
1698.41	444.222
1700.52	448
1702.64	456.667
1704.75	456.667
1706.86	439.333
1708.97	447.111
1711.07	449.333
1713.18	449.778
1715.29	441.333
1717.4	453.778
1719.5	437.556
1721.61	435.111
1723.71	446.444
1725.82	432.667
1727.92	444
1730.02	437.333
1732.12	436
1734.23	440.222
1736.33	429.111
1738.43	419.111
1740.53	431.333
1742.63	427.333
1744.72	425.556
1746.82	432.667
1748.92	426.444
1751.02	417.333
1753.11	419.111
1755.21	423.778
1757.3	425.778
1759.4	418.889
1761.49	416.444
1763.58	414.222
1765.67	420.444
1767.76	425.111
1769.86	418.222
1771.95	414.444
1774.03	406.222
1776.12	408.667
1778.21	415.333
1780.3	415.111
1782.39	421.556
1784.47	410
1786.56	421.333
1788.64	416.222
1790.73	408.444
1792.81	409.556
1794.89	416.444
1796.98	417.778
1799.06	408.444
1801.14	414.889
1803.22	407.778
1805.3	412.667
1807.38	418.222
1809.46	416.889
1811.54	415.333
1813.61	401.556
1815.69	412.444
1817.77	393.556
1819.84	406
1821.92	411.778
1823.99	409.111
1826.06	414
1828.14	405.111
1830.21	408.222
1832.28	398.667
1834.35	406
1836.42	399.556
1838.49	402
1840.56	408.889
1842.63	403.778
1844.7	396
1846.77	406.444
1848.83	411.556
1850.9	402.667
1852.96	401.778
1855.03	394.444
1857.09	395.111
1859.15	393.778
1861.22	398.667
1863.28	386.667
1865.34	390.444
1867.4	391.333
1869.46	399.333
1871.52	396
1873.58	393.333
1875.64	393.778
1877.7	390.444
1879.76	386.444
1881.81	385.111
1883.87	396
1885.92	386.222
1887.98	393.111
1890.03	392.889
1892.09	392.444
1894.14	391.556
1896.19	398.222
1898.24	378
1900.29	384
1902.34	388.222
1904.4	395.111
1906.44	387.778
1908.49	384.889
1910.54	395.556
1912.59	387.556
1914.63	380.667
1916.68	388.444
1918.73	388
1920.77	395.111
1922.81	384.222
1924.86	389.556
1926.9	376.222
1928.94	382.889
1930.99	390.444
1933.03	383.333
1935.07	380.222
1937.11	388.889
1939.15	387.111
1941.19	388.222
1943.22	382.222
1945.26	377.556
1947.3	379.111
1949.33	372.222
1951.37	380.889
1953.4	380.444
1955.44	371.556
1957.47	376.889
1959.51	374.444
1961.54	376.222
1963.57	373.111
1965.6	368.444
1967.63	372.667
1969.66	375.556
1971.69	371.111
1973.72	362.667
1975.75	375.778
1977.78	375.333
1979.8	368.222
1981.83	373.111
1983.86	365.333
1985.88	377.111
1987.91	379.333
1989.93	358.222
1991.95	371.556
1993.98	377.556
1996	373.778
1998.02	365.778
2000.04	364.222
2002.06	371.111
2004.08	365.333
2006.1	371.333
2008.12	366.222
2010.14	370.222
2012.15	366.444
2014.17	362.444
2016.19	364
2018.2	372
2020.22	368
2022.23	372.222
2024.25	370.889
2026.26	367.111
2028.27	372
2030.28	367.333
2032.29	368
2034.3	368.222
2036.32	353.333
2038.32	367.111
2040.33	360.444
2042.34	365.333
2044.35	367.556
2046.36	352
2048.36	358.444
2050.37	364.444
2052.37	352.444
2054.38	350.444
2056.38	357.778
2058.39	369.111
2060.39	359.333
2062.39	360.889
2064.39	358.667
2066.39	348
2068.39	367.111
2070.39	356.444
2072.39	355.556
2074.39	356
2076.39	354.667
2078.39	354
2080.39	357.111
2082.38	355.333
2084.38	353.111
2086.37	354.889
2088.37	355.111
2090.36	359.333
2092.35	349.556
2094.35	356.444
2096.34	344.889
2098.33	356
2100.32	342
2102.31	345.556
2104.3	348.667
2106.29	344.667
2108.28	352.222
2110.27	348.444
2112.25	343.778
2114.24	343.778
2116.23	347.556
2118.21	344
2120.2	349.333
2122.18	342.667
2124.17	342.667
2126.15	337.556
2128.13	342.222
2130.11	340.667
2132.09	354.889
2134.08	348.667
2136.06	343.556
2138.04	341.556
2140.02	350.667
2141.99	340.889
2143.97	347.556
2145.95	342.444
2147.93	345.778
2149.9	352.667
2151.88	342
2153.85	345.333
2155.83	340.889
2157.8	348.444
2159.77	335.111
2161.75	343.778
2163.72	337.111
2165.69	343.556
2167.66	343.778
2169.63	337.111
2171.6	340
2173.57	345.778
2175.54	330
2177.51	341.778
2179.47	341.556
2181.44	329.333
2183.41	337.778
2185.37	332.444
2187.34	325.778
2189.3	333.556
2191.27	332.667
2193.23	336.222
2195.19	335.333
2197.15	329.556
2199.11	339.556
2201.08	331.778
2203.04	339.556
2205	338.444
2206.96	338.222
2208.91	344.667
2210.87	366.444
2212.83	376
2214.79	394.667
2216.74	408.222
2218.7	447.778
2220.65	498.444
2222.61	566.667
2224.56	652.889
2226.52	729.111
2228.47	770.222
2230.42	792.667
2232.37	748.889
2234.32	704.667
2236.27	627.778
2238.22	556.444
2240.17	481.333
2242.12	437.556
2244.07	412
2246.02	394.444
2247.97	370
2249.91	360
2251.86	361.556
2253.8	361.778
2255.75	354.667
2257.69	339.556
2259.64	339.111
2261.58	320.889
2263.52	328
2265.46	322
2267.4	322.444
2269.35	314.222
2271.29	315.111
2273.23	315.778
2275.16	309.556
2277.1	304.889
2279.04	312.222
2280.98	311.111
2282.92	312.222
2284.85	313.778
2286.79	313.556
2288.72	309.111
2290.66	316
2292.59	306.222
2294.52	310
2296.46	302.667
2298.39	314
2300.32	307.556
2302.25	308.444
2304.18	299.333
2306.11	296.889
2308.04	305.333
2309.97	307.111
2311.9	300.444
2313.83	302.889
2315.75	293.333
2317.68	296.444
2319.61	296.222
2321.53	292.667
2323.46	294.222
2325.38	302.222
2327.3	299.333
2329.23	303.778
2331.15	298.889
2333.07	299.556
2334.99	299.778
2336.91	306.889
2338.83	295.778
2340.75	293.333
2342.67	302.222
2344.59	296.222
2346.51	293.556
2348.43	304.889
2350.35	297.556
2352.26	297.333
2354.18	300
2356.09	301.556
2358.01	300.667
2359.92	293.778
2361.83	296.889
2363.75	301.556
2365.66	294.667
2367.57	294.222
2369.48	296.667
2371.39	291.556
2373.31	291.333
2375.21	296.444
2377.12	287.778
2379.03	297.111
2380.94	285.333
2382.85	289.556
2384.76	293.111
2386.66	285.333
2388.57	289.111
2390.47	289.556
2392.38	293.778
2394.28	277.333
2396.18	280.444
2398.09	287.778
2399.99	278.222
2401.89	285.778
2403.79	284.667
2405.69	279.556
2407.59	285.333
2409.49	286.444
2411.39	280.889
2413.29	280.222
2415.19	282.667
2417.09	272.222
2418.98	278
2420.88	283.111
2422.78	281.556
2424.67	278.222
2426.57	279.778
2428.46	281.111
2430.35	279.333
2432.25	279.333
2434.14	273.778
2436.03	277.778
2437.92	275.333
2439.81	275.556
2441.7	275.333
2443.59	282.889
2445.48	278.667
2447.37	280.667
2449.26	283.778
2451.15	272
2453.03	279.778
