178.677	2057.33
181.278	2038.44
183.879	2073.56
186.48	2116.22
189.078	2135.78
191.677	2202
194.275	2290.89
196.871	2333.56
199.467	2450
202.061	2514.22
204.656	2631.33
207.248	2731.33
209.841	2835.78
212.431	2961.56
215.022	3062.44
217.613	3220.89
220.201	3388.22
222.789	3579.11
225.375	3808.67
227.962	4086.44
230.547	4393.11
233.13	4740.22
235.714	5102.22
238.296	5455.78
240.879	5753.33
243.459	5889.56
246.04	5820.22
248.618	5564.44
251.196	5109.33
253.774	4578.67
256.35	4043.56
258.927	3545.56
261.501	3137.11
264.074	2768.89
266.648	2483.11
269.22	2233.11
271.791	2053.56
274.362	1900.67
276.931	1768.89
279.5	1666
282.069	1572
284.635	1506.67
287.201	1449.11
289.766	1402.44
292.331	1347.11
294.894	1306.22
297.457	1269.11
300.018	1238.22
302.58	1214.44
305.14	1198.89
307.699	1171.11
310.257	1148.67
312.814	1120.44
315.372	1107.11
317.928	1123.33
320.482	1094.22
323.036	1080.22
325.589	1084.22
328.142	1068
330.693	1077.33
333.243	1064.44
335.795	1054.89
338.343	1051.56
340.891	1052.44
343.439	1058.22
345.985	1046.44
348.53	1045.56
351.075	1034.22
353.619	1018.67
356.162	1041.78
358.704	1036.44
361.245	1018.89
363.786	1032
366.325	1017.33
368.864	1024.67
371.402	1029.33
373.939	1012.89
376.475	1047.78
379.011	1039.33
381.545	1052
384.079	1057.33
386.612	1013.33
389.144	1007.78
391.674	1008.67
394.204	1000.89
396.734	1013.56
399.263	1014
401.791	1016.89
404.318	1010.67
406.844	1003.56
409.368	989.111
411.893	1004.67
414.417	1011.78
416.94	990.667
419.462	1008
421.982	1009.56
424.502	1002.89
427.022	1007.11
429.541	990
432.057	1013.56
434.574	1008.67
437.091	998.889
439.606	1013.11
442.12	1006.44
444.634	986.444
447.147	992.889
449.657	974
452.169	991.111
454.68	973.111
457.188	986.445
459.697	983.556
462.205	992.444
464.711	990.222
467.217	978.222
469.722	980.222
472.227	963.778
474.731	971.556
477.232	981.778
479.735	978.222
482.235	973.333
484.736	966
487.234	970.667
489.734	963.556
492.23	971.778
494.728	968.444
497.223	977.778
499.719	952.222
502.213	958.444
504.707	955.778
507.199	954
509.692	944.889
512.182	939.778
514.673	950
517.162	936.667
519.65	952
522.139	954
524.625	929.111
527.112	932.667
529.597	941.111
532.081	933.556
534.565	938.667
537.047	932
539.529	947.111
542.011	943.556
544.491	934.222
546.97	948
549.45	920.889
551.927	947.333
554.404	941.111
556.88	932
559.356	946.667
561.831	948.222
564.304	942
566.777	956.667
569.25	937.111
571.721	936.889
574.191	936
576.661	930.667
579.129	939.111
581.599	932.444
584.066	927.111
586.532	940.444
588.997	914.667
591.462	924
593.926	925.111
596.389	915.333
598.851	925.556
601.314	935.778
603.775	934.889
606.235	929.778
608.694	943.333
611.152	953.111
613.609	942.667
616.066	948.445
618.522	952.222
620.977	959.333
623.431	945.111
625.885	953.333
628.338	947.111
630.79	950.889
633.241	952.222
635.691	961.778
638.141	957.333
640.589	955.111
643.036	973.556
645.483	951.555
647.929	972.222
650.375	961.556
652.82	975.333
655.264	974.222
657.707	943.778
660.149	939.778
662.59	937.555
665.031	943.333
667.471	950.889
669.91	944.889
672.349	953.556
674.786	953.556
677.222	953.778
679.658	956.222
682.093	945.778
684.528	955.778
686.96	934.222
689.393	950.222
691.826	945.111
694.256	946.889
696.686	939.778
699.116	946.222
701.545	941.333
703.972	963.556
706.4	945.333
708.826	957.333
711.251	959.556
713.676	945.111
716.099	956.444
718.523	954.889
720.946	964.222
723.366	954.889
725.788	953.111
728.207	970
730.627	968.222
733.044	951.111
735.462	958.667
737.88	951.111
740.295	961.778
742.711	941.111
745.125	953.111
747.539	959.778
749.951	965.111
752.363	950.222
754.775	952
757.185	970.667
759.595	990.889
762.003	1014.44
764.412	1057.11
766.819	1050
769.225	1020
771.632	998.889
774.036	993.111
776.441	974.222
778.844	978.222
781.246	983.556
783.649	993.333
786.05	978.667
788.449	977.778
790.85	980.222
793.248	969.556
795.646	976.667
798.042	979.778
800.44	975.778
802.835	975.778
805.23	964.667
807.623	975.333
810.018	978.222
812.41	975.333
814.801	969.333
817.192	983.778
819.582	975.333
821.972	967.778
824.361	976.667
826.748	980.222
829.135	954.444
831.521	975.333
833.907	959.556
836.291	970.667
838.675	987.778
841.059	977.111
843.442	983.111
845.823	984.222
848.204	992
850.584	968
852.963	974
855.342	977.778
857.72	985.111
860.097	969.556
862.473	982.444
864.848	997.333
867.223	988
869.597	980
871.97	981.778
874.343	987.556
876.714	982.889
879.084	985.555
881.454	976
883.824	993.111
886.192	986.444
888.56	980.445
890.927	984.889
893.294	982.889
895.66	971.111
898.023	986.667
900.387	981.555
902.751	973.333
905.114	985.111
907.476	973.111
909.835	962.667
912.196	961.111
914.555	969.111
916.914	972.667
919.271	971.778
921.629	956
923.985	962.889
926.341	956.444
928.695	965.333
931.05	967.778
933.404	957.111
935.755	956
938.107	956
940.459	969.778
942.808	973.333
945.158	960
947.508	973.111
949.855	974.667
952.202	963.555
954.548	972.444
956.894	964.445
959.239	964.222
961.583	980
963.928	969.333
966.27	980.889
968.612	979.333
970.953	990.667
973.294	990
975.633	987.778
977.972	970.222
980.31	991.333
982.647	989.556
984.984	993.333
987.32	986
989.656	1004.67
991.989	1000.67
994.324	1004.89
996.656	1024.44
998.988	1054
1001.32	1070.22
1003.65	1141.78
1005.98	1270.67
1008.31	1439.56
1010.64	1498.44
1012.97	1378.67
1015.29	1238
1017.62	1123.11
1019.94	1065.33
1022.27	1116.44
1024.59	1167.56
1026.92	1236.44
1029.24	1274.44
1031.56	1277.56
1033.88	1248.44
1036.2	1244
1038.52	1203.33
1040.84	1110.89
1043.16	1058.22
1045.48	1052.67
1047.79	1040
1050.11	1044.67
1052.42	1057.33
1054.74	1068.89
1057.05	1084.89
1059.36	1084.89
1061.67	1073.56
1063.99	1056.22
1066.3	1035.11
1068.61	1029.56
1070.92	1049.11
1073.22	1028.67
1075.53	997.778
1077.84	1020.89
1080.15	1009.78
1082.45	1004.22
1084.76	1015.11
1087.06	1005.78
1089.36	1035.11
1091.66	1044.67
1093.97	1045.11
1096.27	1048
1098.57	1043.11
1100.87	1037.33
1103.17	1032.67
1105.46	1025.78
1107.76	1036.22
1110.06	1016.22
1112.35	1032.44
1114.65	1023.78
1116.94	1041.56
1119.24	1028
1121.53	1040.67
1123.82	1053.33
1126.11	1035.33
1128.4	1028.22
1130.7	1021.11
1132.98	1014.22
1135.27	1003.33
1137.56	1008.67
1139.85	1013.11
1142.13	1004.44
1144.42	1023.11
1146.71	1006.22
1148.99	1013.11
1151.27	992.222
1153.56	1010.22
1155.84	1026.44
1158.12	1018.44
1160.4	1018.67
1162.68	1011.56
1164.96	1014.22
1167.24	1015.56
1169.51	1005.78
1171.79	1005.33
1174.07	1002
1176.34	990
1178.62	1009.11
1180.89	998.445
1183.17	995.556
1185.44	997.556
1187.71	1002.67
1189.98	1011.56
1192.25	1014.22
1194.52	1010.22
1196.79	1015.78
1199.06	997.778
1201.33	1019.33
1203.59	1008.44
1205.86	1001.11
1208.12	999.111
1210.39	1002.44
1212.65	1014.44
1214.92	1010.89
1217.18	1020.89
1219.44	1005.78
1221.7	1007.33
1223.96	1004.44
1226.22	1001.56
1228.48	1002.67
1230.74	996.444
1233	982.667
1235.25	990.444
1237.51	1002.44
1239.77	990.667
1242.02	1017.33
1244.27	1011.56
1246.53	1000
1248.78	1000.44
1251.03	1002.44
1253.28	1004.67
1255.53	1001.33
1257.78	1015.11
1260.03	1001.56
1262.28	994.444
1264.53	1004.67
1266.78	999.556
1269.02	1008.22
1271.27	1015.33
1273.51	1006.22
1275.76	1001.33
1278	1004.67
1280.24	1011.56
1282.48	1005.33
1284.72	1011.78
1286.97	1001.78
1289.21	996.667
1291.44	1017.11
1293.68	1040
1295.92	1029.33
1298.16	1037.33
1300.39	1025.11
1302.63	1053.33
1304.86	1046.89
1307.1	1031.33
1309.33	1029.78
1311.56	1023.11
1313.8	1022.89
1316.03	1018.44
1318.26	1018.67
1320.49	1017.11
1322.72	1020.67
1324.95	1006.89
1327.17	1013.33
1329.4	1009.33
1331.63	1017.33
1333.85	1014.67
1336.08	1015.78
1338.3	1018
1340.53	1006
1342.75	1021.11
1344.97	1003.33
1347.19	1004
1349.41	1010.22
1351.63	999.556
1353.85	1001.56
1356.07	1016.67
1358.29	1014.44
1360.51	1004
1362.72	1021.56
1364.94	1023.11
1367.16	1004.44
1369.37	1002.89
1371.58	1020.89
1373.8	1015.56
1376.01	1024
1378.22	1020.67
1380.43	1024.89
1382.64	1032.22
1384.85	1014.67
1387.06	1001.78
1389.27	1023.56
1391.48	1011.56
1393.68	1009.11
1395.89	1001.78
1398.1	1006
1400.3	990.222
1402.51	994.222
1404.71	997.556
1406.91	987.556
1409.11	999.556
1411.32	1000.67
1413.52	1004.44
1415.72	986
1417.92	993.333
1420.11	1003.78
1422.31	978
1424.51	981.778
1426.71	990
1428.9	983.778
1431.1	996.222
1433.29	989.111
1435.49	996.222
1437.68	1009.11
1439.87	997.555
1442.06	1006.44
1444.25	998.222
1446.45	1000.89
1448.64	1014.22
1450.82	988.667
1453.01	1009.11
1455.2	1011.11
1457.39	1003.33
1459.57	1010.67
1461.76	1002.89
1463.94	1000.89
1466.13	999.333
1468.31	1008.44
1470.5	1003.56
1472.68	992
1474.86	1011.33
1477.04	1008
1479.22	1018.22
1481.4	1028
1483.58	1027.33
1485.76	1004.89
1487.94	990.667
1490.11	994.667
1492.29	987.111
1494.46	975.333
1496.64	990.889
1498.81	981.333
1500.99	984.889
1503.16	988.889
1505.33	996.222
1507.5	988.667
1509.67	990.667
1511.84	986.667
1514.01	981.333
1516.18	986.889
1518.35	975.556
1520.52	982.222
1522.68	981.333
1524.85	990.667
1527.02	989.111
1529.18	995.111
1531.35	987.778
1533.51	991.333
1535.67	971.556
1537.83	985.778
1539.99	989.556
1542.16	976
1544.31	966.667
1546.47	977.555
1548.63	978.667
1550.79	994.444
1552.95	992.222
1555.11	990.889
1557.26	990.667
1559.42	984
1561.57	989.333
1563.73	979.333
1565.88	998.222
1568.03	977.556
1570.18	992
1572.34	1001.11
1574.49	1000.44
1576.64	998.889
1578.79	1000.44
1580.93	989.111
1583.08	999.555
1585.23	1004.67
1587.38	997.333
1589.52	1006
1591.67	995.333
1593.81	1021.78
1595.96	1019.78
1598.1	1028
1600.24	1014
1602.38	1015.78
1604.53	1007.78
1606.67	997.111
1608.81	1003.11
1610.95	992.889
1613.09	997.111
1615.22	1003.11
1617.36	992.444
1619.5	995.111
1621.63	997.778
1623.77	993.778
1625.9	1005.56
1628.04	1012.89
1630.17	1019.56
1632.3	1006.89
1634.44	1012.44
1636.57	1010.22
1638.7	981.333
1640.83	975.778
1642.96	983.556
1645.09	977.556
1647.22	965.778
1649.34	964.444
1651.47	966.445
1653.6	952.222
1655.72	955.333
1657.85	960
1659.97	960.222
1662.1	936.444
1664.22	945.333
1666.34	937.556
1668.46	953.111
1670.58	956.889
1672.7	952.667
1674.82	937.556
1676.94	947.111
1679.06	955.556
1681.18	962.667
1683.3	956.889
1685.41	944.667
1687.53	939.778
1689.64	956.889
1691.76	947.111
1693.87	942.667
1695.99	955.555
1698.1	940.667
1700.21	958.889
1702.32	949.556
1704.43	947.778
1706.54	934.667
1708.65	946.889
1710.76	951.556
1712.87	945.111
1714.98	942
1717.08	935.555
1719.19	945.111
1721.29	940
1723.4	938
1725.5	954.222
1727.61	940.667
1729.71	945.333
1731.81	940.889
1733.91	943.778
1736.02	938
1738.12	937.778
1740.22	937.778
1742.31	920
1744.41	932.222
1746.51	929.333
1748.61	915.555
1750.7	932.667
1752.8	916.222
1754.9	938.444
1756.99	926.667
1759.08	925.556
1761.18	932
1763.27	929.556
1765.36	928.667
1767.45	924.222
1769.54	927.333
1771.63	925.778
1773.72	924.667
1775.81	927.778
1777.9	921.556
1779.99	922.667
1782.08	921.556
1784.16	934.889
1786.25	932
1788.33	928.222
1790.42	929.333
1792.5	915.778
1794.58	930.889
1796.67	935.333
1798.75	937.111
1800.83	923.333
1802.91	925.111
1804.99	927.111
1807.07	920
1809.15	924.444
1811.23	925.556
1813.3	932.444
1815.38	902.667
1817.46	927.333
1819.53	918.667
1821.61	918.889
1823.68	924.889
1825.75	919.778
1827.83	915.778
1829.9	915.111
1831.97	905.333
1834.04	919.111
1836.11	915.333
1838.18	914
1840.25	916.444
1842.32	921.333
1844.39	902.667
1846.46	904.444
1848.52	902.222
1850.59	904.889
1852.65	910.222
1854.72	896.444
1856.78	903.778
1858.85	902
1860.91	905.333
1862.97	908.444
1865.03	928
1867.09	890.889
1869.16	897.556
1871.22	905.556
1873.27	899.778
1875.33	893.556
1877.39	895.555
1879.45	908.444
1881.51	905.778
1883.56	887.556
1885.62	908.889
1887.67	891.111
1889.73	903.556
1891.78	903.556
1893.83	891.111
1895.89	893.333
1897.94	888.444
1899.99	895.556
1902.04	900.222
1904.09	891.111
1906.14	895.333
1908.19	898.667
1910.23	902.444
1912.28	908.222
1914.33	905.111
1916.37	903.333
1918.42	896.444
1920.46	899.333
1922.51	894.222
1924.55	896.444
1926.6	893.556
1928.64	889.778
1930.68	893.111
1932.72	896
1934.76	892.222
1936.8	890.667
1938.84	874.889
1940.88	874.222
1942.92	890.667
1944.96	878.667
1946.99	880.444
1949.03	883.556
1951.06	879.778
1953.1	878.444
1955.13	886.444
1957.17	867.111
1959.2	866.222
1961.23	872.222
1963.27	858.222
1965.3	868.667
1967.33	866.444
1969.36	860.667
1971.39	866.444
1973.42	875.556
1975.44	877.333
1977.47	871.111
1979.5	858.444
1981.53	869.333
1983.55	865.111
1985.58	867.333
1987.6	860.889
1989.63	876
1991.65	864.889
1993.67	875.556
1995.69	865.556
1997.72	855.333
1999.74	874.667
2001.76	868
2003.78	852.444
2005.8	855.778
2007.82	861.556
2009.83	857.111
2011.85	858.222
2013.87	857.333
2015.88	843.778
2017.9	866.667
2019.91	872
2021.93	853.778
2023.94	856.667
2025.96	857.111
2027.97	857.111
2029.98	854.889
2031.99	851.556
2034	855.778
2036.01	850.444
2038.02	864.222
2040.03	859.556
2042.04	859.111
2044.05	857.778
2046.05	852.667
2048.06	834.222
2050.07	839.556
2052.07	848.667
2054.08	845.111
2056.08	844.889
2058.08	848
2060.09	844.667
2062.09	844.222
2064.09	846
2066.09	837.111
2068.09	845.111
2070.09	846
2072.09	831.778
2074.09	843.111
2076.09	845.556
2078.09	824.222
2080.08	824
2082.08	841.556
2084.08	852.889
2086.07	838.222
2088.07	840.444
2090.06	827.333
2092.05	824.222
2094.05	829.556
2096.04	829.556
2098.03	843.556
2100.02	833.778
2102.01	833.778
2104	830.222
2105.99	819.111
2107.98	824.444
2109.97	824.889
2111.95	798.444
2113.94	831.778
2115.93	812.889
2117.91	819.333
2119.9	811.333
2121.88	808
2123.87	825.778
2125.85	820.889
2127.83	818
2129.81	816.667
2131.8	821.556
2133.78	825.111
2135.76	832.222
2137.74	813.556
2139.72	823.556
2141.69	823.778
2143.67	806
2145.65	806.222
2147.63	798.222
2149.6	822
2151.58	805.556
2153.55	811.333
2155.53	798.222
2157.5	803.111
2159.48	804.889
2161.45	792.667
2163.42	801.111
2165.39	805.556
2167.36	792.667
2169.33	790
2171.3	792.444
2173.27	787.556
2175.24	797.333
2177.21	787.111
2179.18	794.667
2181.14	793.111
2183.11	791.111
2185.07	782.222
2187.04	791.333
2189	785.556
2190.97	793.556
2192.93	795.111
2194.89	781.778
2196.86	778.667
2198.82	766.222
2200.78	782
2202.74	784.444
2204.7	771.778
2206.66	770.889
2208.62	780.667
2210.57	782.222
2212.53	784.444
2214.49	778.667
2216.45	783.556
2218.4	790.667
2220.36	780
2222.31	776
2224.27	776.222
2226.22	768.222
2228.17	776.444
2230.12	767.111
2232.08	785.111
2234.03	773.333
2235.98	766.889
2237.93	772.667
2239.88	783.333
2241.83	759.111
2243.78	772
2245.72	758.444
2247.67	766.889
2249.62	760
2251.56	766.222
2253.51	758.667
2255.45	761.556
2257.4	764.222
2259.34	759.556
2261.28	758.444
2263.23	756.889
2265.17	768.222
2267.11	759.333
2269.05	737.556
2270.99	770.222
2272.93	749.333
2274.87	760
2276.81	753.111
2278.75	752.445
2280.68	744
2282.62	756.667
2284.56	749.556
2286.49	744
2288.43	748
2290.36	755.111
2292.3	743.778
2294.23	742.667
2296.16	740
2298.09	743.111
2300.03	731.333
2301.96	739.333
2303.89	742.222
2305.82	743.555
2307.75	730.444
2309.68	743.556
2311.6	737.111
2313.53	733.778
2315.46	722.222
2317.39	720.667
2319.31	732
2321.24	729.333
2323.16	727.111
2325.09	726.222
2327.01	724.667
2328.93	721.778
2330.86	728.222
2332.78	726.222
2334.7	719.778
2336.62	738.889
2338.54	726.889
2340.46	729.111
2342.38	726.444
2344.3	724.222
2346.22	719.333
2348.14	717.333
2350.05	718.222
2351.97	710.222
2353.89	714.445
2355.8	708.889
2357.71	714.667
2359.63	717.333
2361.54	696.222
2363.46	700.444
2365.37	707.778
2367.28	705.333
2369.19	706.889
2371.1	698.222
2373.01	699.556
2374.92	698
2376.83	706.667
2378.74	705.333
2380.65	710.222
2382.56	695.778
2384.46	700.889
2386.37	699.778
2388.27	691.111
2390.18	696
2392.08	687.333
2393.99	687.778
2395.89	694.889
2397.8	675.778
2399.7	689.111
2401.6	690
2403.5	687.778
2405.4	680
2407.3	673.111
2409.2	683.556
2411.1	677.333
2413	682.667
2414.9	676
2416.8	673.778
2418.69	674.444
2420.59	679.111
2422.48	679.333
2424.38	683.333
2426.28	682
2428.17	670.889
2430.06	667.333
2431.96	680.667
2433.85	671.778
2435.74	681.556
2437.63	678.889
2439.52	683.778
2441.41	678.222
2443.3	687.111
2445.19	673.778
2447.08	682.222
