178.677	1394.89
181.278	1402.67
183.879	1422.22
186.48	1452.22
189.078	1485.56
191.677	1493.78
194.275	1543.33
196.871	1580.89
199.467	1631.56
202.061	1692.22
204.656	1756.44
207.248	1800.67
209.841	1854.67
212.431	1951.11
215.022	2014.89
217.613	2104.22
220.201	2200.22
222.789	2308.44
225.375	2440.44
227.962	2593.78
230.547	2789.78
233.13	2955.33
235.714	3162
238.296	3350.44
240.879	3523.11
243.459	3558.44
246.04	3541.78
248.618	3357.11
251.196	3122.44
253.774	2791.78
256.35	2506
258.927	2223.78
261.501	1988.44
264.074	1778.89
266.648	1617.56
269.22	1489.78
271.791	1383.56
274.362	1316
276.931	1224.67
279.5	1172.44
282.069	1135.78
284.635	1088.22
287.201	1059.56
289.766	1030.67
292.331	1016.22
294.894	985.555
297.457	970
300.018	957.333
302.58	938.889
305.14	932.222
307.699	919.111
310.257	904
312.814	888
315.372	896
317.928	879.556
320.482	885.333
323.036	877.556
325.589	868.444
328.142	876.667
330.693	864.889
333.243	854.889
335.795	865.556
338.343	850.667
340.891	859.778
343.439	864.222
345.985	878
348.53	864.667
351.075	862.889
353.619	855.778
356.162	848.667
358.704	858.222
361.245	848.222
363.786	846
366.325	856.444
368.864	841.778
371.402	855.333
373.939	858.889
376.475	860.667
379.011	861.778
381.545	869.556
384.079	860.444
386.612	858.444
389.144	838.889
391.674	845.111
394.204	838.667
396.734	851.556
399.263	843.333
401.791	835.778
404.318	836.222
406.844	832.444
409.368	852.444
411.893	847.333
414.417	850.889
416.94	839.111
419.462	844.444
421.982	845.333
424.502	839.333
427.022	841.111
429.541	838.889
432.057	837.111
434.574	865.556
437.091	861.556
439.606	860.889
442.12	842.444
444.634	834.222
447.147	834.445
449.657	835.778
452.169	837.111
454.68	835.778
457.188	829.556
459.697	847.556
462.205	835.556
464.711	839.111
467.217	830.222
469.722	828.889
472.227	820
474.731	840.667
477.232	834.222
479.735	825.556
482.235	823.111
484.736	835.778
487.234	840.667
489.734	835.778
492.23	833.778
494.728	849.111
497.223	840.889
499.719	829.111
502.213	829.111
504.707	820.444
507.199	824.667
509.692	823.556
512.182	832.444
514.673	819.333
517.162	815.333
519.65	824
522.139	808
524.625	817.333
527.112	818.889
529.597	810
532.081	818.222
534.565	819.333
537.047	818.222
539.529	821.556
542.011	808.667
544.491	823.778
546.97	829.556
549.45	818
551.927	821.556
554.404	821.556
556.88	813.333
559.356	828.444
561.831	827.556
564.304	823.333
566.777	843.778
569.25	830.667
571.721	828.889
574.191	824.445
576.661	824.889
579.129	813.333
581.599	826.444
584.066	826.889
586.532	826.667
588.997	808.222
591.462	814.222
593.926	817.556
596.389	825.111
598.851	821.111
601.314	812.444
603.775	824
606.235	820.445
608.694	816.222
611.152	836
613.609	847.778
616.066	820.889
618.522	837.778
620.977	830.444
623.431	832
625.885	829.778
628.338	831.556
630.79	820.889
633.241	829.333
635.691	833.333
638.141	849.778
640.589	842.889
643.036	836.889
645.483	827.111
647.929	844
650.375	839.333
652.82	826
655.264	824.444
657.707	817.111
660.149	824
662.59	822.222
665.031	819.111
667.471	825.111
669.91	816.222
672.349	815.778
674.786	824.889
677.222	818.667
679.658	824.222
682.093	819.333
684.528	817.556
686.96	829.778
689.393	817.111
691.826	826.889
694.256	822.222
696.686	830.667
699.116	825.778
701.545	824.889
703.972	825.333
706.4	828.222
708.826	820.444
711.251	827.556
713.676	845.333
716.099	828.667
718.523	829.778
720.946	827.556
723.366	831.111
725.788	832
728.207	832.667
730.627	836.667
733.044	839.556
735.462	839.333
737.88	832.222
740.295	841.778
742.711	826.667
745.125	838
747.539	832
749.951	828.889
752.363	831.333
754.775	825.111
757.185	826.444
759.595	837.556
762.003	865.778
764.412	890
766.819	890
769.225	876.889
771.632	854.444
774.036	854.222
776.441	837.333
778.844	837.333
781.246	834.667
783.649	863.333
786.05	848
788.449	847.333
790.85	829.778
793.248	845.111
795.646	842.444
798.042	848.889
800.44	847.778
802.835	844.222
805.23	838.222
807.623	842.667
810.018	836.222
812.41	843.778
814.801	826
817.192	837.556
819.582	837.778
821.972	836.889
824.361	840
826.748	839.556
829.135	826
831.521	836.444
833.907	837.778
836.291	822.889
838.675	838.889
841.059	837.778
843.442	820.445
845.823	839.111
848.204	843.333
850.584	839.556
852.963	834.444
855.342	831.778
857.72	843.556
860.097	841.333
862.473	844.889
864.848	851.778
867.223	844
869.597	845.333
871.97	836.667
874.343	836
876.714	850
879.084	835.333
881.454	828
883.824	834.444
886.192	829.556
888.56	828.889
890.927	836
893.294	840.889
895.66	852.444
898.023	846.222
900.387	819.556
902.751	834.444
905.114	834.667
907.476	838
909.835	826.667
912.196	825.333
914.555	832.667
916.914	834
919.271	825.778
921.629	842
923.985	827.111
926.341	825.333
928.695	811.333
931.05	826.222
933.404	827.556
935.755	826
938.107	839.556
940.459	834.222
942.808	836
945.158	824.445
947.508	830
949.855	839.111
952.202	842.667
954.548	840
956.894	833.111
959.239	822.667
961.583	836.444
963.928	829.778
966.27	826.222
968.612	848.222
970.953	847.333
973.294	846.667
975.633	836
977.972	832.222
980.31	848.889
982.647	854.667
984.984	855.556
987.32	840
989.656	843.111
991.989	849.778
994.324	859.555
996.656	856.222
998.988	888.444
1001.32	931.111
1003.65	984.667
1005.98	1099.78
1008.31	1226.22
1010.64	1251.11
1012.97	1157.78
1015.29	1027.33
1017.62	946
1019.94	921.111
1022.27	939.778
1024.59	971.111
1026.92	1014.22
1029.24	1025.56
1031.56	1018.89
1033.88	1043.56
1036.2	1046.44
1038.52	986.667
1040.84	941.333
1043.16	887.556
1045.48	863.778
1047.79	865.333
1050.11	860.222
1052.42	878.444
1054.74	891.556
1057.05	911.778
1059.36	914.444
1061.67	899.556
1063.99	875.111
1066.3	874
1068.61	863.555
1070.92	868.222
1073.22	864.889
1075.53	846.444
1077.84	856.889
1080.15	846.444
1082.45	853.333
1084.76	859.111
1087.06	861.778
1089.36	862.444
1091.66	855.556
1093.97	869.111
1096.27	872
1098.57	869.556
1100.87	864.444
1103.17	868.889
1105.46	862.444
1107.76	853.111
1110.06	839.556
1112.35	856.222
1114.65	855.333
1116.94	877.778
1119.24	861.778
1121.53	862.444
1123.82	889.778
1126.11	867.333
1128.4	852.667
1130.7	846.444
1132.98	851.333
1135.27	855.111
1137.56	850
1139.85	862.444
1142.13	847.556
1144.42	861.778
1146.71	852.667
1148.99	839.333
1151.27	859.333
1153.56	859.111
1155.84	850.222
1158.12	854
1160.4	841.556
1162.68	838.222
1164.96	849.333
1167.24	839.333
1169.51	837.111
1171.79	848.444
1174.07	838.222
1176.34	843.333
1178.62	834
1180.89	835.556
1183.17	846.222
1185.44	828.889
1187.71	834.444
1189.98	841.778
1192.25	843.111
1194.52	844
1196.79	848.222
1199.06	853.778
1201.33	844.889
1203.59	844.444
1205.86	832.222
1208.12	829.556
1210.39	846.889
1212.65	838.667
1214.92	852
1217.18	851.778
1219.44	847.111
1221.7	850
1223.96	841.556
1226.22	838.667
1228.48	824
1230.74	838.444
1233	847.778
1235.25	836.222
1237.51	833.333
1239.77	838.889
1242.02	830
1244.27	825.111
1246.53	828.444
1248.78	836.667
1251.03	836.444
1253.28	836.889
1255.53	827.333
1257.78	846.444
1260.03	829.111
1262.28	838.222
1264.53	827.556
1266.78	831.111
1269.02	835.556
1271.27	820.667
1273.51	819.778
1275.76	834
1278	846.667
1280.24	842
1282.48	847.556
1284.72	835.333
1286.97	843.111
1289.21	847.778
1291.44	851.556
1293.68	842.667
1295.92	862.445
1298.16	856.889
1300.39	860.889
1302.63	862
1304.86	864.222
1307.1	865.333
1309.33	859.778
1311.56	859.778
1313.8	833.111
1316.03	847.778
1318.26	835.333
1320.49	840.222
1322.72	849.111
1324.95	834.667
1327.17	840.222
1329.4	842.222
1331.63	848.444
1333.85	830.222
1336.08	836.222
1338.3	835.111
1340.53	834
1342.75	843.556
1344.97	841.111
1347.19	836.222
1349.41	825.333
1351.63	838.667
1353.85	841.556
1356.07	844.667
1358.29	841.111
1360.51	842
1362.72	844.444
1364.94	837.556
1367.16	844.889
1369.37	847.556
1371.58	843.333
1373.8	840.444
1376.01	848.667
1378.22	844.444
1380.43	846.222
1382.64	840.667
1384.85	856.667
1387.06	843.556
1389.27	840.667
1391.48	825.778
1393.68	835.111
1395.89	828.667
1398.1	833.778
1400.3	829.556
1402.51	825.778
1404.71	835.556
1406.91	824.889
1409.11	813.778
1411.32	825.333
1413.52	821.333
1415.72	822.444
1417.92	832
1420.11	815.111
1422.31	816
1424.51	826.667
1426.71	827.333
1428.9	824.444
1431.1	822.444
1433.29	821.556
1435.49	817.556
1437.68	833.556
1439.87	817.111
1442.06	830
1444.25	813.111
1446.45	820.444
1448.64	832.667
1450.82	841.111
1453.01	827.556
1455.2	829.555
1457.39	823.333
1459.57	814.889
1461.76	827.333
1463.94	816.222
1466.13	831.333
1468.31	816
1470.5	822
1472.68	830.444
1474.86	815.333
1477.04	830
1479.22	829.556
1481.4	827.333
1483.58	843.111
1485.76	816.667
1487.94	821.111
1490.11	814.222
1492.29	805.333
1494.46	810
1496.64	804.667
1498.81	819.778
1500.99	807.556
1503.16	806.889
1505.33	809.333
1507.5	806.889
1509.67	803.111
1511.84	798.222
1514.01	816.889
1516.18	792.222
1518.35	801.333
1520.52	814.222
1522.68	795.556
1524.85	785.111
1527.02	801.111
1529.18	805.778
1531.35	798.222
1533.51	796.889
1535.67	799.556
1537.83	808.889
1539.99	799.778
1542.16	786.444
1544.31	807.778
1546.47	806.444
1548.63	787.778
1550.79	810.222
1552.95	798.444
1555.11	807.778
1557.26	800.667
1559.42	804.444
1561.57	809.778
1563.73	797.556
1565.88	801.111
1568.03	822.222
1570.18	812
1572.34	798
1574.49	821.556
1576.64	817.333
1578.79	820.667
1580.93	804.444
1583.08	799.333
1585.23	817.556
1587.38	812.222
1589.52	816.889
1591.67	834.667
1593.81	831.556
1595.96	840.444
1598.1	848.222
1600.24	827.333
1602.38	820
1604.53	806
1606.67	818
1608.81	820.667
1610.95	807.111
1613.09	798.889
1615.22	785.778
1617.36	798.889
1619.5	794
1621.63	800.444
1623.77	816.889
1625.9	816.667
1628.04	818
1630.17	822
1632.3	810.889
1634.44	816
1636.57	813.556
1638.7	799.111
1640.83	794
1642.96	785.778
1645.09	786.889
1647.22	790.222
1649.34	780
1651.47	790.889
1653.6	783.778
1655.72	780.222
1657.85	785.333
1659.97	788
1662.1	774.889
1664.22	768.889
1666.34	771.111
1668.46	779.556
1670.58	773.333
1672.7	784.889
1674.82	779.111
1676.94	781.333
1679.06	784.222
1681.18	780.667
1683.3	761.556
1685.41	766.889
1687.53	782
1689.64	773.778
1691.76	780.222
1693.87	781.111
1695.99	776
1698.1	763.333
1700.21	773.111
1702.32	773.778
1704.43	762.889
1706.54	778.222
1708.65	769.333
1710.76	765.333
1712.87	757.556
1714.98	775.111
1717.08	772
1719.19	773.111
1721.29	766.667
1723.4	764.444
1725.5	768.222
1727.61	763.333
1729.71	767.555
1731.81	772.667
1733.91	759.111
1736.02	758.889
1738.12	765.111
1740.22	765.111
1742.31	768.444
1744.41	760.222
1746.51	750.667
1748.61	749.778
1750.7	752.667
1752.8	752.222
1754.9	751.778
1756.99	752.889
1759.08	748.889
1761.18	748.667
1763.27	763.111
1765.36	735.556
1767.45	747.333
1769.54	752.222
1771.63	750.667
1773.72	741.111
1775.81	751.111
1777.9	740
1779.99	748.444
1782.08	750.222
1784.16	746
1786.25	739.556
1788.33	738.444
1790.42	746.444
1792.5	746.444
1794.58	745.111
1796.67	736.667
1798.75	736.444
1800.83	746.445
1802.91	739.111
1804.99	740.667
1807.07	747.333
1809.15	751.333
1811.23	754.222
1813.3	741.111
1815.38	740.222
1817.46	732.889
1819.53	736.667
1821.61	733.778
1823.68	734.889
1825.75	746.667
1827.83	738.222
1829.9	742.444
1831.97	756.667
1834.04	730.444
1836.11	738.444
1838.18	741.556
1840.25	732
1842.32	732
1844.39	725.111
1846.46	725.111
1848.52	735.778
1850.59	729.333
1852.65	729.333
1854.72	737.556
1856.78	735.778
1858.85	725.778
1860.91	715.333
1862.97	732
1865.03	723.778
1867.09	711.556
1869.16	722.444
1871.22	723.556
1873.27	716.222
1875.33	718.889
1877.39	710
1879.45	728
1881.51	718.222
1883.56	720
1885.62	711.778
1887.67	727.333
1889.73	724.889
1891.78	714
1893.83	709.333
1895.89	712.667
1897.94	711.333
1899.99	716.667
1902.04	705.333
1904.09	722.889
1906.14	715.333
1908.19	713.111
1910.23	707.333
1912.28	711.778
1914.33	718.889
1916.37	720.222
1918.42	706.222
1920.46	712.222
1922.51	711.111
1924.55	719.556
1926.6	715.333
1928.64	695.556
1930.68	716.222
1932.72	700.444
1934.76	700
1936.8	693.778
1938.84	694.667
1940.88	693.333
1942.92	705.333
1944.96	704.667
1946.99	693.333
1949.03	689.556
1951.06	688.667
1953.1	679.111
1955.13	696.667
1957.17	705.333
1959.2	683.778
1961.23	698
1963.27	686.444
1965.3	696.444
1967.33	697.778
1969.36	700.444
1971.39	688.889
1973.42	692.667
1975.44	680
1977.47	696
1979.5	679.111
1981.53	690.667
1983.55	665.333
1985.58	682.667
1987.6	680
1989.63	682.444
1991.65	687.333
1993.67	673.556
1995.69	682.889
1997.72	672
1999.74	678.222
2001.76	665.778
2003.78	684.889
2005.8	683.778
2007.82	679.333
2009.83	679.778
2011.85	680.889
2013.87	676.889
2015.88	686.667
2017.9	666.222
2019.91	677.333
2021.93	683.556
2023.94	678.889
2025.96	684.667
2027.97	678.667
2029.98	673.778
2031.99	675.778
2034	685.778
2036.01	674
2038.02	672.889
2040.03	677.555
2042.04	677.556
2044.05	688.222
2046.05	672.222
2048.06	686.444
2050.07	665.778
2052.07	655.333
2054.08	658.667
2056.08	669.111
2058.08	661.333
2060.09	665.778
2062.09	668.667
2064.09	651.111
2066.09	662.445
2068.09	664.222
2070.09	659.778
2072.09	664.667
2074.09	662.444
2076.09	657.111
2078.09	656.444
2080.08	646
2082.08	656
2084.08	661.333
2086.07	650.667
2088.07	653.111
2090.06	652.667
2092.05	655.778
2094.05	655.111
2096.04	656
2098.03	645.556
2100.02	648.444
2102.01	648.667
2104	656.667
2105.99	647.333
2107.98	640.222
2109.97	654.222
2111.95	645.111
2113.94	648.444
2115.93	650.444
2117.91	647.333
2119.9	637.556
2121.88	635.556
2123.87	651.333
2125.85	633.556
2127.83	639.111
2129.81	643.111
2131.8	639.778
2133.78	639.778
2135.76	636.222
2137.74	633.111
2139.72	634.667
2141.69	642
2143.67	630
2145.65	638
2147.63	628
2149.6	618.222
2151.58	626.444
2153.55	629.556
2155.53	622
2157.5	622.667
2159.48	621.333
2161.45	628
2163.42	632
2165.39	625.556
2167.36	624.222
2169.33	628.444
2171.3	618.222
2173.27	631.333
2175.24	611.111
2177.21	615.556
2179.18	616.222
2181.14	607.778
2183.11	618.444
2185.07	613.111
2187.04	611.778
2189	618.667
2190.97	613.778
2192.93	603.111
2194.89	610.667
2196.86	618.667
2198.82	606.444
2200.78	608.222
2202.74	616.222
2204.7	612.222
2206.66	609.556
2208.62	606.889
2210.57	612
2212.53	603.556
2214.49	612.889
2216.45	602.889
2218.4	612.889
2220.36	599.111
2222.31	596
2224.27	595.111
2226.22	598.444
2228.17	597.111
2230.12	603.111
2232.08	605.333
2234.03	598.667
2235.98	591.111
2237.93	591.333
2239.88	601.333
2241.83	608
2243.78	595.333
2245.72	595.333
2247.67	592.222
2249.62	588.222
2251.56	586
2253.51	587.333
2255.45	588
2257.4	596.222
2259.34	587.556
2261.28	584.444
2263.23	594.889
2265.17	593.333
2267.11	588.444
2269.05	589.111
2270.99	586.667
2272.93	580.444
2274.87	584.889
2276.81	584.222
2278.75	567.556
2280.68	583.556
2282.62	580
2284.56	584
2286.49	573.111
2288.43	578.889
2290.36	573.111
2292.3	580.667
2294.23	573.778
2296.16	576.667
2298.09	560
2300.03	564.889
2301.96	571.111
2303.89	580
2305.82	573.778
2307.75	566.222
2309.68	576.222
2311.6	559.556
2313.53	563.778
2315.46	566.222
2317.39	563.778
2319.31	562.667
2321.24	560.667
2323.16	561.556
2325.09	558.667
2327.01	561.556
2328.93	554.444
2330.86	555.778
2332.78	566.889
2334.7	550.444
2336.62	560.444
2338.54	548.889
2340.46	558.667
2342.38	559.333
2344.3	558
2346.22	559.333
2348.14	557.333
2350.05	554.889
2351.97	550.222
2353.89	549.111
2355.8	548.444
2357.71	545.333
2359.63	554.889
2361.54	554.667
2363.46	548.445
2365.37	547.556
2367.28	542.222
2369.19	536.667
2371.1	548.667
2373.01	538
2374.92	544.222
2376.83	532.889
2378.74	540.889
2380.65	537.556
2382.56	539.333
2384.46	536.444
2386.37	549.111
2388.27	542
2390.18	536.889
2392.08	537.778
2393.99	522.222
2395.89	526.222
2397.8	536
2399.7	530
2401.6	536.222
2403.5	532.222
2405.4	536.889
2407.3	528
2409.2	533.111
2411.1	532.222
2413	536
2414.9	534.889
2416.8	533.111
2418.69	535.556
2420.59	527.333
2422.48	521.333
2424.38	537.111
2426.28	530.667
2428.17	531.778
2430.06	529.778
2431.96	528.222
2433.85	533.556
2435.74	525.556
2437.63	529.556
2439.52	524.444
2441.41	528.222
2443.3	522
2445.19	531.111
2447.08	533.778
