178.677	1606.44
181.278	1590.22
183.879	1598.22
186.48	1628
189.078	1637.33
191.677	1680
194.275	1710.89
196.871	1780.22
199.467	1847.78
202.061	1903.33
204.656	1968.89
207.248	2032.67
209.841	2084.22
212.431	2182.22
215.022	2282
217.613	2374.22
220.201	2495.11
222.789	2592.22
225.375	2756
227.962	2961.11
230.547	3152.22
233.13	3390.67
235.714	3599.56
238.296	3845.56
240.879	3995.11
243.459	4095.56
246.04	4026
248.618	3851.78
251.196	3582
253.774	3207.56
256.35	2841.33
258.927	2523.33
261.501	2243.56
264.074	2021.11
266.648	1842.67
269.22	1690.67
271.791	1562.89
274.362	1456.44
276.931	1389.78
279.5	1345.11
282.069	1276.67
284.635	1239.33
287.201	1199.33
289.766	1161.33
292.331	1134
294.894	1116
297.457	1105.33
300.018	1073.78
302.58	1066.67
305.14	1066.22
307.699	1056
310.257	1042.22
312.814	1019.56
315.372	1012.89
317.928	994.444
320.482	1011.78
323.036	997.778
325.589	1002.89
328.142	993.111
330.693	996.667
333.243	994.444
335.795	976.889
338.343	982.667
340.891	975.556
343.439	969.556
345.985	978.444
348.53	986.222
351.075	978.222
353.619	981.333
356.162	975.333
358.704	969.556
361.245	964.667
363.786	997.111
366.325	970.444
368.864	971.556
371.402	970.222
373.939	989.111
376.475	988.667
379.011	979.778
381.545	1004
384.079	966
386.612	968.445
389.144	968.667
391.674	959.111
394.204	956.889
396.734	956.222
399.263	966.222
401.791	960
404.318	970.444
406.844	959.556
409.368	953.111
411.893	966.222
414.417	960.444
416.94	976.444
419.462	960.667
421.982	970.667
424.502	967.333
427.022	963.556
429.541	976
432.057	981.333
434.574	985.556
437.091	979.556
439.606	969.333
442.12	957.111
444.634	956.222
447.147	950.444
449.657	966.222
452.169	950.222
454.68	970.444
457.188	953.111
459.697	963.778
462.205	966.444
464.711	959.111
467.217	962.889
469.722	951.556
472.227	947.333
474.731	936.444
477.232	947.111
479.735	957.778
482.235	962.222
484.736	944.444
487.234	950.222
489.734	947.778
492.23	953.556
494.728	954
497.223	952
499.719	939.333
502.213	951.556
504.707	954.667
507.199	955.111
509.692	938
512.182	934.222
514.673	951.111
517.162	942.889
519.65	942
522.139	943.111
524.625	930.667
527.112	940.222
529.597	925.111
532.081	924.444
534.565	926.445
537.047	947.333
539.529	936.667
542.011	935.333
544.491	944.444
546.97	941.333
549.45	935.111
551.927	943.778
554.404	940.667
556.88	942.667
559.356	946
561.831	954
564.304	945.778
566.777	950.222
569.25	954
571.721	947.556
574.191	946.667
576.661	959.333
579.129	942.889
581.599	936.889
584.066	946
586.532	936.667
588.997	947.111
591.462	928.222
593.926	947.111
596.389	945.778
598.851	933.333
601.314	933.333
603.775	929.333
606.235	936.222
608.694	956
611.152	969.333
613.609	952.889
616.066	955.556
618.522	961.333
620.977	946
623.431	950.667
625.885	956.889
628.338	950.444
630.79	952.222
633.241	951.333
635.691	966.889
638.141	968.889
640.589	961.111
643.036	966.889
645.483	948.222
647.929	952.222
650.375	965.778
652.82	965.333
655.264	956.667
657.707	950.889
660.149	941.556
662.59	960.444
665.031	943.555
667.471	956
669.91	949.333
672.349	938
674.786	943.111
677.222	938
679.658	952.667
682.093	948
684.528	945.333
686.96	942.889
689.393	954.222
691.826	946
694.256	952.444
696.686	955.333
699.116	952.889
701.545	956.667
703.972	942.889
706.4	947.556
708.826	935.778
711.251	960.667
713.676	952.222
716.099	954.444
718.523	954.889
720.946	960.444
723.366	958.444
725.788	954.667
728.207	950.889
730.627	950.444
733.044	953.111
735.462	948.444
737.88	961.333
740.295	949.778
742.711	956
745.125	944.667
747.539	948.444
749.951	945.556
752.363	926.222
754.775	960.444
757.185	948
759.595	955.556
762.003	987.778
764.412	1027.78
766.819	1028.44
769.225	1016.67
771.632	981.111
774.036	971.556
776.441	984.444
778.844	986.667
781.246	970.444
783.649	983.111
786.05	964
788.449	963.111
790.85	976.889
793.248	966.889
795.646	958.889
798.042	967.333
800.44	963.333
802.835	955.111
805.23	960.667
807.623	964.889
810.018	964.444
812.41	967.778
814.801	969.333
817.192	960
819.582	964
821.972	952
824.361	966
826.748	949.111
829.135	967.111
831.521	960.222
833.907	945.333
836.291	956
838.675	952.667
841.059	947.778
843.442	965.778
845.823	957.778
848.204	957.111
850.584	956.667
852.963	965.556
855.342	955.778
857.72	959.778
860.097	960.222
862.473	972.222
864.848	966.444
867.223	969.556
869.597	962
871.97	966.667
874.343	973.111
876.714	962
879.084	979.333
881.454	962.667
883.824	968.444
886.192	970
888.56	969.778
890.927	974.667
893.294	976.444
895.66	964.667
898.023	947.111
900.387	966.222
902.751	961.778
905.114	958.222
907.476	958.667
909.835	949.778
912.196	968.444
914.555	942.222
916.914	934
919.271	970.667
921.629	951.778
923.985	950.444
926.341	950.222
928.695	949.333
931.05	955.555
933.404	946
935.755	953.333
938.107	956.444
940.459	943.778
942.808	944
945.158	941.778
947.508	956.444
949.855	948.222
952.202	953.111
954.548	968.444
956.894	952.222
959.239	961.556
961.583	950
963.928	955.111
966.27	952.444
968.612	956.222
970.953	953.333
973.294	960.444
975.633	968
977.972	942.444
980.31	958.222
982.647	984.667
984.984	964.222
987.32	959.333
989.656	975.333
991.989	974.889
994.324	1004.22
996.656	981.778
998.988	1021.56
1001.32	1065.11
1003.65	1137.78
1005.98	1299.56
1008.31	1461.11
1010.64	1468
1012.97	1340.67
1015.29	1183.33
1017.62	1114
1019.94	1078.89
1022.27	1114
1024.59	1178.89
1026.92	1221.56
1029.24	1229.33
1031.56	1226
1033.88	1230
1036.2	1196.22
1038.52	1150.89
1040.84	1071.33
1043.16	1022.67
1045.48	1008.89
1047.79	987.556
1050.11	1004.89
1052.42	1023.33
1054.74	1046.22
1057.05	1054.67
1059.36	1052.22
1061.67	1039.78
1063.99	1026.67
1066.3	994
1068.61	1010.67
1070.92	1003.11
1073.22	994.222
1075.53	992.222
1077.84	978.889
1080.15	980.444
1082.45	982.889
1084.76	972.222
1087.06	982.222
1089.36	993.778
1091.66	1014.67
1093.97	1021.11
1096.27	1036.22
1098.57	1019.11
1100.87	1008.22
1103.17	1007.11
1105.46	989.111
1107.76	1002.44
1110.06	987.778
1112.35	1000
1114.65	991.111
1116.94	1004.89
1119.24	1000.67
1121.53	1009.11
1123.82	1004.44
1126.11	1001.56
1128.4	992.889
1130.7	982.667
1132.98	976
1135.27	977.778
1137.56	974
1139.85	978.889
1142.13	974.889
1144.42	986.444
1146.71	975.556
1148.99	985.333
1151.27	991.333
1153.56	991.556
1155.84	985.778
1158.12	982.889
1160.4	974.889
1162.68	963.778
1164.96	970.889
1167.24	962.444
1169.51	954
1171.79	964.889
1174.07	979.556
1176.34	956.222
1178.62	965.556
1180.89	965.333
1183.17	958.889
1185.44	966.667
1187.71	957.111
1189.98	965.111
1192.25	946.889
1194.52	979.111
1196.79	976.667
1199.06	990.222
1201.33	978.889
1203.59	976.667
1205.86	977.333
1208.12	986
1210.39	987.778
1212.65	983.778
1214.92	982.444
1217.18	970.667
1219.44	978.222
1221.7	979.333
1223.96	956.889
1226.22	953.333
1228.48	944.444
1230.74	958.667
1233	968.667
1235.25	970
1237.51	969.111
1239.77	972.444
1242.02	964
1244.27	965.778
1246.53	971.778
1248.78	957.111
1251.03	961.778
1253.28	968.889
1255.53	966.444
1257.78	974
1260.03	972
1262.28	979.333
1264.53	959.556
1266.78	964.222
1269.02	960.889
1271.27	981.111
1273.51	980.889
1275.76	966.222
1278	961.111
1280.24	976.889
1282.48	967.333
1284.72	962
1286.97	963.778
1289.21	978.667
1291.44	967.778
1293.68	979.555
1295.92	990
1298.16	987.333
1300.39	1003.11
1302.63	993.333
1304.86	1001.33
1307.1	990.889
1309.33	974.222
1311.56	973.111
1313.8	970.445
1316.03	976.667
1318.26	970.667
1320.49	964.667
1322.72	965.111
1324.95	966.222
1327.17	960.222
1329.4	968.667
1331.63	968
1333.85	965.556
1336.08	970.444
1338.3	976.889
1340.53	978.222
1342.75	963.778
1344.97	959.111
1347.19	974.667
1349.41	973.333
1351.63	972.222
1353.85	970.444
1356.07	975.333
1358.29	954.889
1360.51	960
1362.72	952.667
1364.94	969.333
1367.16	962.667
1369.37	963.778
1371.58	965.333
1373.8	972.889
1376.01	971.778
1378.22	981.778
1380.43	967.111
1382.64	954.444
1384.85	979.111
1387.06	965.333
1389.27	954.889
1391.48	962.667
1393.68	939.556
1395.89	933.111
1398.1	948.444
1400.3	948.444
1402.51	941.111
1404.71	943.778
1406.91	957.333
1409.11	951.556
1411.32	959.778
1413.52	948.222
1415.72	956.667
1417.92	950.889
1420.11	943.556
1422.31	944.667
1424.51	950
1426.71	952.667
1428.9	945.333
1431.1	940.222
1433.29	955.111
1435.49	951.333
1437.68	949.556
1439.87	953.333
1442.06	949.333
1444.25	953.556
1446.45	964.889
1448.64	944
1450.82	960.667
1453.01	940.889
1455.2	962
1457.39	954.889
1459.57	960
1461.76	951.333
1463.94	947.111
1466.13	953.778
1468.31	962
1470.5	948.222
1472.68	953.555
1474.86	968.889
1477.04	960
1479.22	965.556
1481.4	955.778
1483.58	962.889
1485.76	945.556
1487.94	950.889
1490.11	943.778
1492.29	943.111
1494.46	922.222
1496.64	941.111
1498.81	913.333
1500.99	916
1503.16	922.444
1505.33	914.222
1507.5	917.778
1509.67	927.778
1511.84	923.556
1514.01	915.111
1516.18	935.556
1518.35	908.444
1520.52	928.222
1522.68	917.556
1524.85	922.444
1527.02	933.556
1529.18	924.667
1531.35	930.222
1533.51	920.444
1535.67	915.778
1537.83	920.889
1539.99	920.667
1542.16	912
1544.31	924
1546.47	924.889
1548.63	923.778
1550.79	931.111
1552.95	932.222
1555.11	925.556
1557.26	933.333
1559.42	930.667
1561.57	937.111
1563.73	928.222
1565.88	931.778
1568.03	943.778
1570.18	943.111
1572.34	950.222
1574.49	936.444
1576.64	932.444
1578.79	931.333
1580.93	941.333
1583.08	949.778
1585.23	926.444
1587.38	928.222
1589.52	948.889
1591.67	941.778
1593.81	962.444
1595.96	953.111
1598.1	957.111
1600.24	966
1602.38	948.667
1604.53	931.556
1606.67	944.667
1608.81	915.333
1610.95	938
1613.09	922.667
1615.22	934.667
1617.36	928.222
1619.5	936
1621.63	935.111
1623.77	947.556
1625.9	933.556
1628.04	955.556
1630.17	963.778
1632.3	949.111
1634.44	940.889
1636.57	929.333
1638.7	930.222
1640.83	906.667
1642.96	908.444
1645.09	912.222
1647.22	910.667
1649.34	897.778
1651.47	896.889
1653.6	911.333
1655.72	894.889
1657.85	886.667
1659.97	887.333
1662.1	897.333
1664.22	901.111
1666.34	888.222
1668.46	894
1670.58	888.444
1672.7	880
1674.82	899.556
1676.94	901.778
1679.06	895.556
1681.18	893.111
1683.3	890.444
1685.41	893.555
1687.53	881.333
1689.64	887.333
1691.76	896
1693.87	893.556
1695.99	881.778
1698.1	890.444
1700.21	883.111
1702.32	884.222
1704.43	873.556
1706.54	888.889
1708.65	892
1710.76	885.556
1712.87	880.444
1714.98	878
1717.08	880.667
1719.19	883.111
1721.29	873.111
1723.4	881.333
1725.5	859.333
1727.61	890.222
1729.71	868.889
1731.81	871.778
1733.91	868.222
1736.02	868.889
1738.12	872.667
1740.22	883.556
1742.31	872
1744.41	868.889
1746.51	853.555
1748.61	856.889
1750.7	861.111
1752.8	882.667
1754.9	856
1756.99	881.778
1759.08	862.667
1761.18	864.444
1763.27	866.667
1765.36	853.778
1767.45	856.444
1769.54	870.222
1771.63	864.667
1773.72	873.556
1775.81	850.667
1777.9	857.556
1779.99	869.556
1782.08	848.222
1784.16	836.667
1786.25	854.889
1788.33	860.222
1790.42	862
1792.5	863.778
1794.58	874.889
1796.67	857.333
1798.75	849.778
1800.83	856.222
1802.91	859.333
1804.99	854
1807.07	858.222
1809.15	860.667
1811.23	855.111
1813.3	842.889
1815.38	856.667
1817.46	851.333
1819.53	857.111
1821.61	870.444
1823.68	861.556
1825.75	860
1827.83	854.222
1829.9	846
1831.97	856.222
1834.04	851.556
1836.11	850.222
1838.18	856.444
1840.25	850
1842.32	842.667
1844.39	826.444
1846.46	834.444
1848.52	852.889
1850.59	842.667
1852.65	845.111
1854.72	836.889
1856.78	826.222
1858.85	824.889
1860.91	836.222
1862.97	844.222
1865.03	834.445
1867.09	835.556
1869.16	841.111
1871.22	829.111
1873.27	839.556
1875.33	831.778
1877.39	826.222
1879.45	830.889
1881.51	820.889
1883.56	835.111
1885.62	816.667
1887.67	822.889
1889.73	821.111
1891.78	833.778
1893.83	829.333
1895.89	821.111
1897.94	822.444
1899.99	827.555
1902.04	826.222
1904.09	816.667
1906.14	825.555
1908.19	824.667
1910.23	819.333
1912.28	815.778
1914.33	817.556
1916.37	814.444
1918.42	834.889
1920.46	822.445
1922.51	825.111
1924.55	810.889
1926.6	814.222
1928.64	809.778
1930.68	811.778
1932.72	813.111
1934.76	808.222
1936.8	810.889
1938.84	802.444
1940.88	811.556
1942.92	811.778
1944.96	804.889
1946.99	794.667
1949.03	798.667
1951.06	801.778
1953.1	803.333
1955.13	799.778
1957.17	819.111
1959.2	787.555
1961.23	774.667
1963.27	786.667
1965.3	794.889
1967.33	790.222
1969.36	784.889
1971.39	794.667
1973.42	787.556
1975.44	788
1977.47	789.556
1979.5	780.889
1981.53	780.889
1983.55	786.667
1985.58	782.222
1987.6	774.889
1989.63	800.222
1991.65	780
1993.67	782.667
1995.69	778
1997.72	764.222
1999.74	773.556
2001.76	780.889
2003.78	771.111
2005.8	774
2007.82	769.556
2009.83	776.889
2011.85	773.556
2013.87	780.667
2015.88	770
2017.9	778.444
2019.91	783.333
2021.93	769.556
2023.94	771.556
2025.96	769.333
2027.97	769.333
2029.98	763.111
2031.99	774.222
2034	777.778
2036.01	771.556
2038.02	759.555
2040.03	769.556
2042.04	771.778
2044.05	764.889
2046.05	754.222
2048.06	776.667
2050.07	762
2052.07	769.333
2054.08	759.556
2056.08	754.667
2058.08	763.556
2060.09	757.556
2062.09	778.667
2064.09	753.111
2066.09	759.111
2068.09	767.333
2070.09	754.889
2072.09	763.778
2074.09	757.333
2076.09	751.778
2078.09	760.444
2080.08	747.778
2082.08	745.556
2084.08	752
2086.07	746
2088.07	741.778
2090.06	732
2092.05	731.556
2094.05	746.667
2096.04	744.444
2098.03	746
2100.02	737.111
2102.01	741.556
2104	737.556
2105.99	741.556
2107.98	728.222
2109.97	726
2111.95	740
2113.94	726.667
2115.93	742.667
2117.91	746.222
2119.9	728.889
2121.88	735.778
2123.87	734
2125.85	724.222
2127.83	725.333
2129.81	720.889
2131.8	738.222
2133.78	733.333
2135.76	735.111
2137.74	723.333
2139.72	714.889
2141.69	718.889
2143.67	724
2145.65	733.556
2147.63	721.778
2149.6	727.778
2151.58	727.333
2153.55	708.444
2155.53	708.444
2157.5	708.222
2159.48	716.222
2161.45	700.889
2163.42	714.667
2165.39	722.889
2167.36	712.222
2169.33	702.222
2171.3	713.778
2173.27	694.222
2175.24	694.444
2177.21	700.667
2179.18	709.111
2181.14	712.889
2183.11	694.445
2185.07	692.667
2187.04	692.222
2189	696.667
2190.97	688
2192.93	694
2194.89	688.667
2196.86	692.667
2198.82	681.778
2200.78	673.556
2202.74	688.889
2204.7	693.556
2206.66	686.444
2208.62	691.111
2210.57	689.778
2212.53	690.444
2214.49	696.667
2216.45	684.667
2218.4	680
2220.36	665.111
2222.31	681.111
2224.27	671.333
2226.22	677.556
2228.17	672.444
2230.12	681.333
2232.08	679.778
2234.03	674.889
2235.98	672.444
2237.93	691.111
2239.88	664.444
2241.83	674.222
2243.78	679.333
2245.72	663.333
2247.67	656.889
2249.62	676.889
2251.56	680.667
2253.51	662
2255.45	672.889
2257.4	658.889
2259.34	676
2261.28	655.556
2263.23	661.111
2265.17	654.444
2267.11	662.889
2269.05	663.333
2270.99	659.333
2272.93	658.222
2274.87	663.333
2276.81	662.222
2278.75	650.222
2280.68	664.667
2282.62	647.556
2284.56	643.111
2286.49	652
2288.43	650.889
2290.36	644.889
2292.3	641.111
2294.23	644.667
2296.16	634.444
2298.09	648.222
2300.03	649.333
2301.96	633.778
2303.89	638.222
2305.82	639.111
2307.75	635.111
2309.68	628.444
2311.6	619.778
2313.53	638
2315.46	632.222
2317.39	641.556
2319.31	630
2321.24	637.111
2323.16	624.667
2325.09	630.444
2327.01	626.445
2328.93	627.333
2330.86	616.889
2332.78	631.778
2334.7	613.556
2336.62	620.444
2338.54	626
2340.46	617.333
2342.38	626
2344.3	619.556
2346.22	632.444
2348.14	621.556
2350.05	615.556
2351.97	616.444
2353.89	622.444
2355.8	626.444
2357.71	615.556
2359.63	620.667
2361.54	626
2363.46	613.778
2365.37	619.556
2367.28	618
2369.19	617.111
2371.1	611.556
2373.01	616.889
2374.92	614.222
2376.83	622.667
2378.74	609.111
2380.65	611.556
2382.56	610.222
2384.46	597.333
2386.37	604.222
2388.27	600.222
2390.18	597.778
2392.08	594.222
2393.99	600.444
2395.89	599.111
2397.8	590.667
2399.7	594
2401.6	603.778
2403.5	592.667
2405.4	587.333
2407.3	593.111
2409.2	586.889
2411.1	599.333
2413	590
2414.9	596
2416.8	584.889
2418.69	594.889
2420.59	590.444
2422.48	589.778
2424.38	579.778
2426.28	578.667
2428.17	584.889
2430.06	598.667
2431.96	586.667
2433.85	602.222
2435.74	595.555
2437.63	582.444
2439.52	585.333
2441.41	578.222
2443.3	580
2445.19	587.333
2447.08	584.889
