178.677	750.667
181.278	750
183.879	740.889
186.48	745.111
189.078	742
191.677	757.111
194.275	762.667
196.871	757.556
199.467	759.556
202.061	783.333
204.656	760.444
207.248	782.222
209.841	788
212.431	781.556
215.022	792.667
217.613	787.111
220.201	788.444
222.789	791.778
225.375	805.556
227.962	802.222
230.547	809.778
233.13	804.889
235.714	812.222
238.296	795.111
240.879	798.889
243.459	799.333
246.04	794.444
248.618	784.889
251.196	783.778
253.774	770
256.35	762.667
258.927	745.556
261.501	747.778
264.074	721.111
266.648	710.444
269.22	711.556
271.791	689.778
274.362	687.556
276.931	680
279.5	678.667
282.069	675.556
284.635	670.667
287.201	670.445
289.766	665.111
292.331	649.778
294.894	649.333
297.457	661.333
300.018	666.889
302.58	657.556
305.14	660.667
307.699	663.778
310.257	650.889
312.814	642.889
315.372	643.111
317.928	649.333
320.482	634.667
323.036	647.111
325.589	643.111
328.142	657.111
330.693	655.556
333.243	652
335.795	648.222
338.343	654.667
340.891	649.333
343.439	660.667
345.985	675.333
348.53	667.556
351.075	677.778
353.619	676.667
356.162	676.444
358.704	661.556
361.245	681.333
363.786	666.222
366.325	674.445
368.864	680.889
371.402	679.111
373.939	675.778
376.475	705.333
379.011	716
381.545	721.333
384.079	706
386.612	681.778
389.144	662.444
391.674	676.889
394.204	656.667
396.734	649.556
399.263	654.222
401.791	658
404.318	653.556
406.844	653.333
409.368	652.667
411.893	669.778
414.417	663.778
416.94	658.667
419.462	667.333
421.982	664
424.502	677.111
427.022	677.333
429.541	681.333
432.057	683.333
434.574	687.111
437.091	690.222
439.606	677.111
442.12	667.778
444.634	672.889
447.147	665.111
449.657	658.444
452.169	676.444
454.68	671.111
457.188	676.444
459.697	689.111
462.205	668.444
464.711	676.667
467.217	682.667
469.722	677.778
472.227	674.889
474.731	660
477.232	669.111
479.735	657.778
482.235	675.111
484.736	674.667
487.234	667.111
489.734	700.222
492.23	700.889
494.728	678.222
497.223	682.889
499.719	673.111
502.213	681.111
504.707	693.556
507.199	668.445
509.692	673.333
512.182	662
514.673	680.444
517.162	673.778
519.65	684.667
522.139	679.333
524.625	668.444
527.112	680.889
529.597	691.778
532.081	684.667
534.565	682.889
537.047	669.333
539.529	675.333
542.011	682.444
544.491	678.222
546.97	676.444
549.45	695.556
551.927	688
554.404	698
556.88	691.778
559.356	694
561.831	699.333
564.304	693.556
566.777	693.556
569.25	706.667
571.721	708.444
574.191	704.444
576.661	712.667
579.129	707.556
581.599	710
584.066	705.556
586.532	716.889
588.997	714.444
591.462	705.555
593.926	709.111
596.389	699.111
598.851	710.222
601.314	709.333
603.775	719.111
606.235	720.667
608.694	712.444
611.152	704.889
613.609	709.333
616.066	705.556
618.522	713.111
620.977	706.889
623.431	727.333
625.885	717.778
628.338	718.889
630.79	714.444
633.241	726.222
635.691	736.889
638.141	707.333
640.589	723.111
643.036	714.444
645.483	702.667
647.929	724
650.375	720.667
652.82	713.333
655.264	707.778
657.707	713.556
660.149	714
662.59	693.556
665.031	696.444
667.471	687.556
669.91	693.778
672.349	695.778
674.786	699.111
677.222	695.556
679.658	692.667
682.093	687.556
684.528	689.111
686.96	680.222
689.393	682.667
691.826	683.333
694.256	671.778
696.686	688
699.116	685.556
701.545	685.556
703.972	677.333
706.4	692.667
708.826	683.556
711.251	698.667
713.676	688.444
716.099	681.556
718.523	670.889
720.946	677.778
723.366	684.444
725.788	683.111
728.207	680.444
730.627	681.556
733.044	688
735.462	682.222
737.88	674
740.295	667.556
742.711	676.444
745.125	690.889
747.539	684.667
749.951	690.222
752.363	682.667
754.775	663.778
757.185	677.333
759.595	670.889
762.003	683.333
764.412	671.778
766.819	690
769.225	683.778
771.632	681.111
774.036	689.333
776.441	686.222
778.844	682.444
781.246	678
783.649	674.889
786.05	680.444
788.449	690.889
790.85	692.444
793.248	689.556
795.646	699.778
798.042	704.445
800.44	696.889
802.835	693.111
805.23	710.222
807.623	695.556
810.018	716.889
812.41	702.889
814.801	708.222
817.192	706.444
819.582	702.667
821.972	701.333
824.361	695.778
826.748	706.222
829.135	699.556
831.521	714.889
833.907	701.111
836.291	715.333
838.675	696.667
841.059	698.444
843.442	710.667
845.823	708.222
848.204	713.111
850.584	711.111
852.963	720.444
855.342	718.889
857.72	718
860.097	703.555
862.473	728
864.848	715.556
867.223	704.444
869.597	724.222
871.97	713.556
874.343	702.667
876.714	721.556
879.084	710.222
881.454	706.889
883.824	702.667
886.192	720.444
888.56	730
890.927	716.222
893.294	721.778
895.66	726
898.023	730.889
900.387	721.333
902.751	707.778
905.114	728
907.476	708
909.835	722.445
912.196	708.444
914.555	717.556
916.914	716.222
919.271	712.667
921.629	703.111
923.985	714.667
926.341	696.444
928.695	712.222
931.05	709.556
933.404	697.778
935.755	711.778
938.107	708.889
940.459	705.111
942.808	710.889
945.158	706.222
947.508	706.222
949.855	712.889
952.202	714.222
954.548	718
956.894	713.778
959.239	710.889
961.583	697.556
963.928	709.556
966.27	712.889
968.612	714
970.953	719.333
973.294	723.556
975.633	717.778
977.972	726.889
980.31	717.333
982.647	726.222
984.984	715.111
987.32	723.111
989.656	704.667
991.989	721.333
994.324	720.889
996.656	744.667
998.988	739.556
1001.32	724.444
1003.65	742.222
1005.98	717.111
1008.31	714.222
1010.64	720.444
1012.97	730.444
1015.29	713.111
1017.62	719.111
1019.94	723.556
1022.27	713.333
1024.59	728
1026.92	732.444
1029.24	735.111
1031.56	735.778
1033.88	732.889
1036.2	737.556
1038.52	745.111
1040.84	743.556
1043.16	732.222
1045.48	740.667
1047.79	734.444
1050.11	744
1052.42	736.444
1054.74	729.778
1057.05	747.333
1059.36	760.222
1061.67	738
1063.99	731.333
1066.3	738.222
1068.61	741.778
1070.92	754.222
1073.22	754.444
1075.53	741.778
1077.84	758.444
1080.15	764.667
1082.45	778.667
1084.76	784
1087.06	794.444
1089.36	808.889
1091.66	804.444
1093.97	828
1096.27	832.222
1098.57	854.444
1100.87	848.889
1103.17	837.333
1105.46	831.778
1107.76	838.667
1110.06	834.667
1112.35	835.333
1114.65	837.111
1116.94	848.222
1119.24	855.111
1121.53	866
1123.82	857.333
1126.11	859.778
1128.4	874.889
1130.7	856.667
1132.98	867.778
1135.27	870.222
1137.56	883.778
1139.85	892.444
1142.13	884.444
1144.42	899.778
1146.71	931.556
1148.99	934.889
1151.27	952
1153.56	940.667
1155.84	949.111
1158.12	937.333
1160.4	941.333
1162.68	948.889
1164.96	942.889
1167.24	936.444
1169.51	942.667
1171.79	923.333
1174.07	918.222
1176.34	932
1178.62	939.333
1180.89	916.889
1183.17	927.333
1185.44	927.556
1187.71	937.111
1189.98	931.778
1192.25	905.333
1194.52	908.444
1196.79	901.556
1199.06	879.556
1201.33	905.556
1203.59	874.667
1205.86	862.222
1208.12	859.333
1210.39	874.222
1212.65	866.222
1214.92	870.667
1217.18	873.556
1219.44	861.556
1221.7	878.444
1223.96	869.111
1226.22	874
1228.48	871.556
1230.74	865.333
1233	878.889
1235.25	894.667
1237.51	892
1239.77	904
1242.02	899.556
1244.27	896.222
1246.53	890.667
1248.78	912.222
1251.03	920.222
1253.28	914
1255.53	908.889
1257.78	913.333
1260.03	912
1262.28	905.778
1264.53	934
1266.78	924
1269.02	926.889
1271.27	934.667
1273.51	924.222
1275.76	941.333
1278	953.111
1280.24	964.444
1282.48	962.667
1284.72	937.333
1286.97	948.667
1289.21	910.444
1291.44	927.778
1293.68	930.667
1295.92	945.555
1298.16	947.111
1300.39	922.444
1302.63	919.556
1304.86	899.778
1307.1	908.889
1309.33	908.444
1311.56	905.778
1313.8	898.667
1316.03	903.778
1318.26	903.556
1320.49	908.889
1322.72	928.222
1324.95	915.333
1327.17	916.667
1329.4	923.556
1331.63	928.667
1333.85	924.444
1336.08	946.667
1338.3	918.667
1340.53	951.778
1342.75	934.667
1344.97	927.555
1347.19	920.889
1349.41	933.111
1351.63	931.555
1353.85	937.556
1356.07	933.778
1358.29	927.333
1360.51	940.222
1362.72	950
1364.94	949.778
1367.16	963.333
1369.37	952.889
1371.58	970
1373.8	986.889
1376.01	994.667
1378.22	991.778
1380.43	1012.89
1382.64	1038.44
1384.85	1035.11
1387.06	1030
1389.27	1020.67
1391.48	1027.78
1393.68	1001.11
1395.89	999.778
1398.1	985.778
1400.3	980.222
1402.51	965.111
1404.71	966.222
1406.91	963.778
1409.11	970.444
1411.32	965.778
1413.52	972.889
1415.72	966.222
1417.92	973.111
1420.11	991.333
1422.31	997.778
1424.51	997.111
1426.71	998.667
1428.9	984
1431.1	995.333
1433.29	972.889
1435.49	979.333
1437.68	989.111
1439.87	978.222
1442.06	972.667
1444.25	985.111
1446.45	988
1448.64	1009.78
1450.82	1015.11
1453.01	1017.56
1455.2	1033.33
1457.39	1035.33
1459.57	1038.22
1461.76	1064.89
1463.94	1050.89
1466.13	1036.89
1468.31	1080.22
1470.5	1074.89
1472.68	1088
1474.86	1103.56
1477.04	1107.33
1479.22	1122.44
1481.4	1102.89
1483.58	1103.56
1485.76	1113.78
1487.94	1116.67
1490.11	1119.33
1492.29	1121.33
1494.46	1101.78
1496.64	1095.11
1498.81	1090
1500.99	1098.22
1503.16	1086.22
1505.33	1102.22
1507.5	1112.89
1509.67	1119.56
1511.84	1129.56
1514.01	1115.56
1516.18	1121.78
1518.35	1138.22
1520.52	1154
1522.68	1166.89
1524.85	1168.67
1527.02	1191.33
1529.18	1213.56
1531.35	1223.78
1533.51	1235.33
1535.67	1233.11
1537.83	1244.44
1539.99	1226.44
1542.16	1226.44
1544.31	1228.44
1546.47	1237.56
1548.63	1221.56
1550.79	1237.56
1552.95	1252.89
1555.11	1236
1557.26	1222.22
1559.42	1256.22
1561.57	1279.78
1563.73	1292.89
1565.88	1333.78
1568.03	1339.78
1570.18	1325.33
1572.34	1354
1574.49	1306.89
1576.64	1320.22
1578.79	1283.56
1580.93	1281.11
1583.08	1243.11
1585.23	1224.89
1587.38	1237.33
1589.52	1214.22
1591.67	1214.89
1593.81	1186.67
1595.96	1180.67
1598.1	1145.78
1600.24	1152
1602.38	1128.89
1604.53	1126.67
1606.67	1116.67
1608.81	1109.78
1610.95	1104.22
1613.09	1077.56
1615.22	1029.11
1617.36	1012.44
1619.5	971.111
1621.63	948.667
1623.77	921.111
1625.9	901.556
1628.04	896.667
1630.17	877.333
1632.3	873.778
1634.44	853.778
1636.57	836
1638.7	803.111
1640.83	790.889
1642.96	798.667
1645.09	787.556
1647.22	768.444
1649.34	756.444
1651.47	730.889
1653.6	720
1655.72	720.444
1657.85	714.222
1659.97	696
1662.1	696
1664.22	686.889
1666.34	695.111
1668.46	677.111
1670.58	672.444
1672.7	673.778
1674.82	673.778
1676.94	664
1679.06	655.333
1681.18	659.556
1683.3	665.111
1685.41	654.222
1687.53	658.889
1689.64	646.444
1691.76	658.889
1693.87	645.111
1695.99	649.778
1698.1	637.556
1700.21	645.778
1702.32	636.444
1704.43	642
1706.54	631.333
1708.65	633.556
1710.76	632.667
1712.87	629.111
1714.98	636.667
1717.08	624.222
1719.19	634.222
1721.29	615.333
1723.4	623.333
1725.5	622.889
1727.61	615.111
1729.71	608
1731.81	620.889
1733.91	612.667
1736.02	604.889
1738.12	619.111
1740.22	619.333
1742.31	606.222
1744.41	591.556
1746.51	601.111
1748.61	609.333
1750.7	604
1752.8	590.667
1754.9	589.333
1756.99	588.222
1759.08	588.222
1761.18	593.111
1763.27	588.889
1765.36	586.222
1767.45	590.889
1769.54	584.444
1771.63	577.111
1773.72	575.111
1775.81	586
1777.9	583.778
1779.99	571.333
1782.08	577.111
1784.16	584.222
1786.25	582.444
1788.33	578.444
1790.42	581.111
1792.5	575.333
1794.58	570.667
1796.67	569.778
1798.75	568.667
1800.83	574.222
1802.91	580
1804.99	570.889
1807.07	564.667
1809.15	569.556
1811.23	561.333
1813.3	573.778
1815.38	571.111
1817.46	574
1819.53	562
1821.61	559.556
1823.68	570.444
1825.75	565.111
1827.83	569.778
1829.9	568.444
1831.97	570.667
1834.04	567.111
1836.11	564.667
1838.18	570.667
1840.25	561.111
1842.32	570.889
1844.39	563.333
1846.46	553.556
1848.52	560.444
1850.59	565.556
1852.65	560.222
1854.72	561.333
1856.78	563.778
1858.85	574.444
1860.91	559.333
1862.97	563.556
1865.03	548.444
1867.09	566.444
1869.16	560
1871.22	569.556
1873.27	565.556
1875.33	560.444
1877.39	570.444
1879.45	567.111
1881.51	560.667
1883.56	553.556
1885.62	558.444
1887.67	566.889
1889.73	565.778
1891.78	552.222
1893.83	545.556
1895.89	549.778
1897.94	560
1899.99	557.333
1902.04	548.667
1904.09	562.444
1906.14	566.444
1908.19	551.778
1910.23	568.222
1912.28	568.667
1914.33	551.778
1916.37	546.889
1918.42	547.778
1920.46	549.333
1922.51	557.111
1924.55	549.556
1926.6	550.222
1928.64	550.222
1930.68	554
1932.72	550.667
1934.76	554.889
1936.8	548.889
1938.84	544.667
1940.88	546.889
1942.92	552
1944.96	547.778
1946.99	555.111
1949.03	540.222
1951.06	541.333
1953.1	548.667
1955.13	546.667
1957.17	545.556
1959.2	532.444
1961.23	551.111
1963.27	540.222
1965.3	534.444
1967.33	537.778
1969.36	539.556
1971.39	536.667
1973.42	534.889
1975.44	539.778
1977.47	536.667
1979.5	530.444
1981.53	530.889
1983.55	535.778
1985.58	540.222
1987.6	526.889
1989.63	531.333
1991.65	532
1993.67	533.111
1995.69	546.889
1997.72	521.778
1999.74	544.222
2001.76	538.444
2003.78	535.111
2005.8	533.556
2007.82	541.111
2009.83	534.222
2011.85	534.444
2013.87	525.556
2015.88	534.444
2017.9	541.111
2019.91	533.333
2021.93	534.222
2023.94	533.778
2025.96	533.111
2027.97	524
2029.98	521.556
2031.99	528.889
2034	537.556
2036.01	530.667
2038.02	533.778
2040.03	530
2042.04	534.445
2044.05	529.778
2046.05	528.444
2048.06	525.333
2050.07	532.444
2052.07	545.778
2054.08	533.333
2056.08	526.222
2058.08	535.333
2060.09	522.889
2062.09	531.556
2064.09	532.889
2066.09	523.333
2068.09	530.889
2070.09	535.778
2072.09	524
2074.09	517.333
2076.09	526.667
2078.09	526
2080.08	517.778
2082.08	507.778
2084.08	521.333
2086.07	525.111
2088.07	516.222
2090.06	499.333
2092.05	514.667
2094.05	508.444
2096.04	504.444
2098.03	504.444
2100.02	514.889
2102.01	523.111
2104	507.333
2105.99	519.778
2107.98	503.333
2109.97	512.667
2111.95	506.667
2113.94	516.445
2115.93	513.333
2117.91	513.111
2119.9	506.889
2121.88	512.444
2123.87	505.556
2125.85	518
2127.83	510.889
2129.81	507.556
2131.8	502.667
2133.78	506.222
2135.76	503.556
2137.74	516.667
2139.72	494.444
2141.69	502.667
2143.67	504.222
2145.65	507.778
2147.63	513.333
2149.6	502.889
2151.58	507.333
2153.55	506.222
2155.53	502.667
2157.5	503.778
2159.48	497.556
2161.45	494.222
2163.42	495.778
2165.39	504.444
2167.36	503.556
2169.33	498.667
2171.3	496.889
2173.27	506
2175.24	498.889
2177.21	494.222
2179.18	506.889
2181.14	487.778
2183.11	492
2185.07	488
2187.04	489.778
2189	485.778
2190.97	489.333
2192.93	492.667
2194.89	495.111
2196.86	494.222
2198.82	502.667
2200.78	495.333
2202.74	483.111
2204.7	497.333
2206.66	484
2208.62	490.667
2210.57	490.222
2212.53	478.889
2214.49	496.889
2216.45	482.222
2218.4	489.556
2220.36	482.222
2222.31	492
2224.27	482.222
2226.22	486.444
2228.17	491.778
2230.12	480.667
2232.08	486
2234.03	489.333
2235.98	490.889
2237.93	477.333
2239.88	491.333
2241.83	482
2243.78	488.444
2245.72	486.889
2247.67	487.556
2249.62	484.444
2251.56	479.111
2253.51	468.444
2255.45	478.444
2257.4	485.778
2259.34	475.556
2261.28	476.889
2263.23	476
2265.17	474
2267.11	478.667
2269.05	476
2270.99	479.556
2272.93	467.556
2274.87	475.778
2276.81	462.444
2278.75	464.667
2280.68	459.778
2282.62	455.556
2284.56	465.111
2286.49	462.889
2288.43	470.444
2290.36	465.556
2292.3	448.667
2294.23	457.778
2296.16	454.889
2298.09	453.778
2300.03	456.667
2301.96	453.333
2303.89	463.778
2305.82	463.333
2307.75	454
2309.68	461.556
2311.6	455.333
2313.53	453.333
2315.46	457.333
2317.39	464.889
2319.31	468
2321.24	454.222
2323.16	464.667
2325.09	464.444
2327.01	460.667
2328.93	458.444
2330.86	468.444
2332.78	449.333
2334.7	451.778
2336.62	446.444
2338.54	449.111
2340.46	446.222
2342.38	447.778
2344.3	450.889
2346.22	442.667
2348.14	462.222
2350.05	454.444
2351.97	461.333
2353.89	451.556
2355.8	451.333
2357.71	454.667
2359.63	447.778
2361.54	439.111
2363.46	451.556
2365.37	452.667
2367.28	441.111
2369.19	452.222
2371.1	446.889
2373.01	452.444
2374.92	442.222
2376.83	446.667
2378.74	458.222
2380.65	446.667
2382.56	442.667
2384.46	450.444
2386.37	446.889
2388.27	453.778
2390.18	434.222
2392.08	454.444
2393.99	457.333
2395.89	449.111
2397.8	444.444
2399.7	460.222
2401.6	445.333
2403.5	455.111
2405.4	444.444
2407.3	444.667
2409.2	446
2411.1	453.556
2413	447.778
2414.9	447.333
2416.8	461.556
2418.69	446.444
2420.59	445.778
2422.48	444.889
2424.38	452.444
2426.28	445.111
2428.17	444.222
2430.06	438.444
2431.96	447.556
2433.85	443.333
2435.74	452.667
2437.63	439.111
2439.52	451.778
2441.41	448.222
2443.3	436.444
2445.19	437.333
2447.08	441.333
