178.677	1907.56
181.278	1888.89
183.879	1888.67
186.48	1878.89
189.078	1897.33
191.677	1870.89
194.275	1860
196.871	1889.11
199.467	1901.78
202.061	1869.11
204.656	1852
207.248	1891.56
209.841	1916.22
212.431	1897.56
215.022	1918.67
217.613	1925.78
220.201	1910.67
222.789	1937.78
225.375	1935.11
227.962	1944.89
230.547	1947.33
233.13	1931.11
235.714	1938.67
238.296	1928.89
240.879	1902
243.459	1895.78
246.04	1874
248.618	1845.33
251.196	1800.67
253.774	1793.11
256.35	1738.22
258.927	1708.44
261.501	1693.11
264.074	1671.33
266.648	1655.78
269.22	1652
271.791	1637.33
274.362	1627.11
276.931	1616.67
279.5	1605.56
282.069	1590.22
284.635	1584.67
287.201	1576.44
289.766	1553.11
292.331	1548.67
294.894	1555.78
297.457	1531.56
300.018	1548.22
302.58	1536.22
305.14	1534.22
307.699	1532.89
310.257	1524.22
312.814	1530
315.372	1521.11
317.928	1511.56
320.482	1517.78
323.036	1510.67
325.589	1506
328.142	1483.11
330.693	1499.33
333.243	1487.11
335.795	1485.78
338.343	1476.67
340.891	1496.44
343.439	1488.89
345.985	1489.78
348.53	1498.67
351.075	1498.44
353.619	1483.11
356.162	1501.33
358.704	1506.67
361.245	1522.67
363.786	1524.89
366.325	1482
368.864	1517.78
371.402	1516.44
373.939	1514.89
376.475	1518
379.011	1557.56
381.545	1551.56
384.079	1529.56
386.612	1500.89
389.144	1520
391.674	1499.56
394.204	1504.67
396.734	1519.78
399.263	1532.22
401.791	1536.44
404.318	1563.33
406.844	1542.44
409.368	1541.56
411.893	1548.89
414.417	1540
416.94	1531.78
419.462	1509.56
421.982	1519.56
424.502	1498.89
427.022	1525.11
429.541	1526.22
432.057	1527.33
434.574	1515.33
437.091	1515.56
439.606	1517.56
442.12	1528.44
444.634	1495.78
447.147	1505.33
449.657	1498.67
452.169	1513.11
454.68	1501.33
457.188	1528
459.697	1534.89
462.205	1557.56
464.711	1530
467.217	1523.56
469.722	1541.56
472.227	1528.67
474.731	1560.22
477.232	1582.89
479.735	1588.89
482.235	1594
484.736	1570.44
487.234	1587.33
489.734	1592
492.23	1601.33
494.728	1609.11
497.223	1605.78
499.719	1619.78
502.213	1598.67
504.707	1605.56
507.199	1615.11
509.692	1618
512.182	1569.56
514.673	1549.11
517.162	1543.56
519.65	1507.33
522.139	1493.11
524.625	1493.56
527.112	1482.67
529.597	1484.44
532.081	1490.89
534.565	1494.44
537.047	1512.67
539.529	1524.67
542.011	1517.78
544.491	1515.33
546.97	1522.67
549.45	1525.56
551.927	1529.33
554.404	1523.78
556.88	1508.44
559.356	1531.11
561.831	1538.67
564.304	1543.56
566.777	1558.67
569.25	1568.67
571.721	1571.78
574.191	1560.67
576.661	1566.44
579.129	1568.22
581.599	1564.67
584.066	1576.89
586.532	1554.67
588.997	1585.78
591.462	1582.67
593.926	1571.33
596.389	1559.33
598.851	1573.11
601.314	1579.56
603.775	1560.89
606.235	1600.22
608.694	1601.33
611.152	1616.22
613.609	1640.67
616.066	1644.22
618.522	1633.33
620.977	1647.11
623.431	1666.67
625.885	1663.11
628.338	1680.67
630.79	1680.22
633.241	1676.67
635.691	1661.11
638.141	1650.22
640.589	1615.56
643.036	1592.44
645.483	1583.33
647.929	1592.67
650.375	1580.44
652.82	1589.11
655.264	1591.78
657.707	1583.33
660.149	1564
662.59	1586
665.031	1575.56
667.471	1591.56
669.91	1610.67
672.349	1622.67
674.786	1624.44
677.222	1623.11
679.658	1628.44
682.093	1617.78
684.528	1626.44
686.96	1629.11
689.393	1606.89
691.826	1615.78
694.256	1595.78
696.686	1579.11
699.116	1585.78
701.545	1579.56
703.972	1575.78
706.4	1583.11
708.826	1586.89
711.251	1587.56
713.676	1586
716.099	1586.67
718.523	1560.67
720.946	1553.11
723.366	1556.22
725.788	1572.89
728.207	1561.56
730.627	1563.11
733.044	1570
735.462	1577.33
737.88	1602.44
740.295	1584.89
742.711	1589.33
745.125	1605.33
747.539	1579.11
749.951	1593.78
752.363	1596
754.775	1588.67
757.185	1588.44
759.595	1542.44
762.003	1552.22
764.412	1559.33
766.819	1570.67
769.225	1553.33
771.632	1564.44
774.036	1568.44
776.441	1583.78
778.844	1607.56
781.246	1618.89
783.649	1666.67
786.05	1669.78
788.449	1671.78
790.85	1645.33
793.248	1672.44
795.646	1663.78
798.042	1683.11
800.44	1674.67
802.835	1686.89
805.23	1700.67
807.623	1678.44
810.018	1705.56
812.41	1702.22
814.801	1712
817.192	1722.89
819.582	1731.78
821.972	1723.33
824.361	1688.44
826.748	1682.89
829.135	1660.67
831.521	1661.11
833.907	1635.33
836.291	1612.89
838.675	1605.56
841.059	1626.22
843.442	1603.11
845.823	1631.33
848.204	1603.11
850.584	1624.22
852.963	1622.89
855.342	1622.22
857.72	1626.22
860.097	1651.11
862.473	1666.67
864.848	1660.22
867.223	1673.11
869.597	1651.56
871.97	1644.22
874.343	1633.78
876.714	1628
879.084	1640.67
881.454	1637.11
883.824	1654.67
886.192	1657.33
888.56	1667.11
890.927	1681.11
893.294	1679.33
895.66	1646
898.023	1637.33
900.387	1621.11
902.751	1614
905.114	1604.44
907.476	1600.44
909.835	1613.56
912.196	1614
914.555	1620.67
916.914	1606.22
919.271	1617.11
921.629	1631.11
923.985	1640.89
926.341	1665.56
928.695	1658.67
931.05	1678.67
933.404	1685.78
935.755	1679.56
938.107	1679.11
940.459	1708
942.808	1714.89
945.158	1729.78
947.508	1764.89
949.855	1767.33
952.202	1752.44
954.548	1756.67
956.894	1772
959.239	1786.44
961.583	1784.89
963.928	1782.22
966.27	1783.33
968.612	1790.22
970.953	1795.78
973.294	1778.22
975.633	1763.33
977.972	1727.33
980.31	1750.44
982.647	1723.56
984.984	1722.22
987.32	1699.78
989.656	1696.89
991.989	1702.67
994.324	1714.67
996.656	1730.67
998.988	1751.56
1001.32	1759.78
1003.65	1755.11
1005.98	1776
1008.31	1772.22
1010.64	1794.89
1012.97	1787.78
1015.29	1766.44
1017.62	1761.78
1019.94	1763.33
1022.27	1799.33
1024.59	1811.11
1026.92	1821.56
1029.24	1837.33
1031.56	1844.22
1033.88	1820.44
1036.2	1798
1038.52	1801.78
1040.84	1822.44
1043.16	1844
1045.48	1846.22
1047.79	1895.56
1050.11	1911.33
1052.42	1949.33
1054.74	1956.67
1057.05	1972.44
1059.36	1947.33
1061.67	1965.11
1063.99	1945.56
1066.3	1946
1068.61	1955.11
1070.92	1976.22
1073.22	1976
1075.53	1995.56
1077.84	1990
1080.15	1967.33
1082.45	1903.56
1084.76	1900.89
1087.06	1879.78
1089.36	1883.56
1091.66	1896.67
1093.97	1938.22
1096.27	1988.89
1098.57	1983.78
1100.87	2001.33
1103.17	1981.11
1105.46	2010
1107.76	2023.78
1110.06	2049.56
1112.35	2072.67
1114.65	2078.67
1116.94	2062.44
1119.24	2081.56
1121.53	2085.33
1123.82	2134.89
1126.11	2157.11
1128.4	2207.56
1130.7	2263.33
1132.98	2364.67
1135.27	2404.22
1137.56	2530.89
1139.85	2618.89
1142.13	2677.78
1144.42	2668.44
1146.71	2611.33
1148.99	2602.67
1151.27	2583.56
1153.56	2581.56
1155.84	2582.44
1158.12	2613.33
1160.4	2608.67
1162.68	2618.22
1164.96	2608
1167.24	2581.33
1169.51	2573.56
1171.79	2561.11
1174.07	2557.33
1176.34	2528.22
1178.62	2531.78
1180.89	2497.33
1183.17	2499.56
1185.44	2497.33
1187.71	2506.67
1189.98	2474.22
1192.25	2508.44
1194.52	2507.78
1196.79	2539.11
1199.06	2537.56
1201.33	2552.22
1203.59	2563.33
1205.86	2541.33
1208.12	2522.44
1210.39	2498.89
1212.65	2482.22
1214.92	2491.78
1217.18	2500
1219.44	2533.78
1221.7	2564
1223.96	2574
1226.22	2572.89
1228.48	2584.67
1230.74	2580
1233	2642.67
1235.25	2681.11
1237.51	2699.56
1239.77	2712.22
1242.02	2691.56
1244.27	2657.56
1246.53	2682.67
1248.78	2701.56
1251.03	2699.78
1253.28	2750.89
1255.53	2763.78
1257.78	2804.89
1260.03	2821.33
1262.28	2797.11
1264.53	2821.33
1266.78	2819.11
1269.02	2805.56
1271.27	2806.22
1273.51	2797.78
1275.76	2768.44
1278	2773.33
1280.24	2758.67
1282.48	2789.78
1284.72	2792.44
1286.97	2809.78
1289.21	2804.89
1291.44	2863.78
1293.68	2852.67
1295.92	2896.67
1298.16	2886.89
1300.39	2884.44
1302.63	2910.22
1304.86	2917.78
1307.1	2948.44
1309.33	2988.44
1311.56	3050
1313.8	3096.89
1316.03	3120.22
1318.26	3125.78
1320.49	3122.67
1322.72	3144.22
1324.95	3109.33
1327.17	3134.89
1329.4	3157.56
1331.63	3189.11
1333.85	3219.11
1336.08	3251.11
1338.3	3338.67
1340.53	3350.67
1342.75	3418.67
1344.97	3484.44
1347.19	3536.22
1349.41	3594.44
1351.63	3615.56
1353.85	3647.56
1356.07	3650.67
1358.29	3642
1360.51	3626.67
1362.72	3643.78
1364.94	3676.22
1367.16	3731.33
1369.37	3744
1371.58	3760
1373.8	3746
1376.01	3724.22
1378.22	3664.89
1380.43	3651.56
1382.64	3628.22
1384.85	3536.67
1387.06	3483.11
1389.27	3433.33
1391.48	3433.33
1393.68	3377.78
1395.89	3363.78
1398.1	3364
1400.3	3327.56
1402.51	3261.33
1404.71	3234.89
1406.91	3203.56
1409.11	3196.67
1411.32	3237.33
1413.52	3220.44
1415.72	3226.22
1417.92	3211.56
1420.11	3145.11
1422.31	3113.33
1424.51	3118.67
1426.71	3144
1428.9	3184
1431.1	3236
1433.29	3258.67
1435.49	3295.78
1437.68	3277.78
1439.87	3248.89
1442.06	3244.67
1444.25	3215.11
1446.45	3171.56
1448.64	3236.22
1450.82	3203.11
1453.01	3207.78
1455.2	3224.44
1457.39	3242.67
1459.57	3235.33
1461.76	3240.67
1463.94	3239.56
1466.13	3267.78
1468.31	3284.89
1470.5	3320.44
1472.68	3315.78
1474.86	3327.56
1477.04	3317.56
1479.22	3301.11
1481.4	3314.67
1483.58	3358.89
1485.76	3400.44
1487.94	3433.33
1490.11	3471.11
1492.29	3470.89
1494.46	3516
1496.64	3503.33
1498.81	3544.22
1500.99	3578.67
1503.16	3680.89
1505.33	3769.56
1507.5	3852.67
1509.67	3972.44
1511.84	4088.89
1514.01	4191.56
1516.18	4297.11
1518.35	4402
1520.52	4418.67
1522.68	4385.11
1524.85	4422.67
1527.02	4433.33
1529.18	4470.67
1531.35	4448.89
1533.51	4474.89
1535.67	4525.33
1537.83	4549.56
1539.99	4584
1542.16	4597.78
1544.31	4605.78
1546.47	4644
1548.63	4677.56
1550.79	4683.56
1552.95	4730
1555.11	4732
1557.26	4740.89
1559.42	4770.89
1561.57	4778
1563.73	4825.78
1565.88	4900
1568.03	4983.33
1570.18	5150.44
1572.34	5225.56
1574.49	5243.56
1576.64	5270
1578.79	5259.11
1580.93	5202.67
1583.08	5148.22
1585.23	5042.89
1587.38	4919.33
1589.52	4781.33
1591.67	4647.78
1593.81	4542.22
1595.96	4473.33
1598.1	4464.22
1600.24	4418.44
1602.38	4410.89
1604.53	4332
1606.67	4253.56
1608.81	4127.33
1610.95	4064.44
1613.09	3982
1615.22	3882.67
1617.36	3798.44
1619.5	3708.89
1621.63	3640.44
1623.77	3571.33
1625.9	3481.78
1628.04	3389.33
1630.17	3247.33
1632.3	3162.22
1634.44	3065.33
1636.57	2933.33
1638.7	2838.89
1640.83	2717.56
1642.96	2600.22
1645.09	2505.33
1647.22	2409.56
1649.34	2305.56
1651.47	2210.44
1653.6	2156
1655.72	2104.89
1657.85	2027.78
1659.97	1998.89
1662.1	1985.56
1664.22	1962
1666.34	1946.67
1668.46	1906.67
1670.58	1903.33
1672.7	1904.22
1674.82	1880.44
1676.94	1864.89
1679.06	1834
1681.18	1819.78
1683.3	1800.22
1685.41	1780.22
1687.53	1766.67
1689.64	1738.67
1691.76	1697.56
1693.87	1689.33
1695.99	1662.44
1698.1	1665.56
1700.21	1648.22
1702.32	1619.78
1704.43	1591.56
1706.54	1598.89
1708.65	1590.67
1710.76	1576
1712.87	1569.11
1714.98	1554.89
1717.08	1524.22
1719.19	1533.78
1721.29	1526
1723.4	1518.44
1725.5	1486
1727.61	1468.22
1729.71	1479.33
1731.81	1447.56
1733.91	1450.89
1736.02	1446.44
1738.12	1434
1740.22	1442
1742.31	1418.22
1744.41	1418.22
1746.51	1398.44
1748.61	1411.11
1750.7	1417.56
1752.8	1404.22
1754.9	1385.56
1756.99	1373.78
1759.08	1397.78
1761.18	1370.44
1763.27	1366.44
1765.36	1379.78
1767.45	1362.22
1769.54	1352.67
1771.63	1333.56
1773.72	1326.67
1775.81	1328.22
1777.9	1340.22
1779.99	1310.89
1782.08	1310
1784.16	1289.78
1786.25	1315.56
1788.33	1293.11
1790.42	1298.89
1792.5	1280
1794.58	1273.78
1796.67	1278.22
1798.75	1263.33
1800.83	1268.44
1802.91	1273.33
1804.99	1249.78
1807.07	1267.56
1809.15	1260.22
1811.23	1240.67
1813.3	1247.56
1815.38	1234.22
1817.46	1240.44
1819.53	1247.33
1821.61	1253.78
1823.68	1229.11
1825.75	1246
1827.83	1226.44
1829.9	1238.67
1831.97	1223.33
1834.04	1248.44
1836.11	1238.89
1838.18	1230.89
1840.25	1239.11
1842.32	1222
1844.39	1213.78
1846.46	1216.67
1848.52	1211.33
1850.59	1202.44
1852.65	1198.22
1854.72	1196
1856.78	1190.44
1858.85	1216
1860.91	1213.33
1862.97	1183.33
1865.03	1188.44
1867.09	1194.44
1869.16	1195.56
1871.22	1192.67
1873.27	1184.22
1875.33	1186.67
1877.39	1181.11
1879.45	1186.44
1881.51	1166.67
1883.56	1185.11
1885.62	1185.56
1887.67	1173.78
1889.73	1174
1891.78	1177.11
1893.83	1181.78
1895.89	1171.33
1897.94	1165.33
1899.99	1172
1902.04	1168.44
1904.09	1143.78
1906.14	1164.22
1908.19	1168.44
1910.23	1167.78
1912.28	1155.11
1914.33	1160.44
1916.37	1152.67
1918.42	1154.44
1920.46	1156.89
1922.51	1162
1924.55	1178
1926.6	1156.44
1928.64	1154.44
1930.68	1148.89
1932.72	1165.33
1934.76	1161.78
1936.8	1171.11
1938.84	1166.22
1940.88	1159.56
1942.92	1195.56
1944.96	1188.44
1946.99	1187.33
1949.03	1214.89
1951.06	1214.89
1953.1	1236.22
1955.13	1246.44
1957.17	1287.78
1959.2	1268.44
1961.23	1313.11
1963.27	1323.56
1965.3	1340.89
1967.33	1335.33
1969.36	1349.78
1971.39	1354.67
1973.42	1338.22
1975.44	1331.56
1977.47	1326.67
1979.5	1325.78
1981.53	1297.33
1983.55	1309.56
1985.58	1269.56
1987.6	1272.89
1989.63	1248.89
1991.65	1228.44
1993.67	1231.11
1995.69	1193.78
1997.72	1171.56
1999.74	1152.67
2001.76	1149.33
2003.78	1129.11
2005.8	1146.89
2007.82	1118
2009.83	1114.22
2011.85	1091.11
2013.87	1088.44
2015.88	1072.67
2017.9	1082.67
2019.91	1076.22
2021.93	1070.67
2023.94	1066.89
2025.96	1069.33
2027.97	1052.44
2029.98	1049.11
2031.99	1029.11
2034	1045.33
2036.01	1048.89
2038.02	1044.67
2040.03	1054.89
2042.04	1054
2044.05	1036.67
2046.05	1038.89
2048.06	1040.22
2050.07	1034.67
2052.07	1040
2054.08	1031.11
2056.08	1017.33
2058.08	1041.33
2060.09	1035.56
2062.09	1032.67
2064.09	1030
2066.09	1022.44
2068.09	1032
2070.09	1052.67
2072.09	1011.11
2074.09	1030.22
2076.09	1026.44
2078.09	1011.11
2080.08	999.556
2082.08	1008
2084.08	992.889
2086.07	993.556
2088.07	1004
2090.06	1004.22
2092.05	983.333
2094.05	992.667
2096.04	996.667
2098.03	986.444
2100.02	992
2102.01	985.333
2104	990.444
2105.99	974
2107.98	992.222
2109.97	961.111
2111.95	988.444
2113.94	980.444
2115.93	991.778
2117.91	964.444
2119.9	957.778
2121.88	967.111
2123.87	963.778
2125.85	965.111
2127.83	964
2129.81	958.444
2131.8	956.667
2133.78	954.444
2135.76	971.778
2137.74	956.667
2139.72	956.444
2141.69	958.222
2143.67	958.889
2145.65	948.889
2147.63	946.889
2149.6	934.889
2151.58	947.778
2153.55	950.667
2155.53	936.444
2157.5	958
2159.48	944
2161.45	932.222
2163.42	949.333
2165.39	934.445
2167.36	919.778
2169.33	934.667
2171.3	933.111
2173.27	913.333
2175.24	927.111
2177.21	928.222
2179.18	918.444
2181.14	909.556
2183.11	904.889
2185.07	916.222
2187.04	906.889
2189	895.333
2190.97	908.222
2192.93	900
2194.89	887.555
2196.86	898
2198.82	890.222
2200.78	883.778
2202.74	888
2204.7	879.111
2206.66	881.333
2208.62	882.444
2210.57	871.556
2212.53	876.667
2214.49	875.556
2216.45	869.778
2218.4	865.778
2220.36	867.778
2222.31	879.556
2224.27	868
2226.22	866.444
2228.17	869.333
2230.12	859.556
2232.08	860.444
2234.03	889.111
2235.98	860.667
2237.93	862.667
2239.88	864
2241.83	857.333
2243.78	849.556
2245.72	837.556
2247.67	856
2249.62	842.667
2251.56	843.111
2253.51	840.444
2255.45	842.667
2257.4	844.444
2259.34	826.889
2261.28	825.556
2263.23	837.111
2265.17	832.444
2267.11	854.444
2269.05	840.667
2270.99	824
2272.93	824.222
2274.87	837.778
2276.81	834.667
2278.75	819.556
2280.68	815.333
2282.62	805.556
2284.56	826.222
2286.49	828.889
2288.43	820.222
2290.36	814.444
2292.3	813.333
2294.23	808
2296.16	799.556
2298.09	807.556
2300.03	803.778
2301.96	805.778
2303.89	805.333
2305.82	795.111
2307.75	797.111
2309.68	803.111
2311.6	794
2313.53	796.889
2315.46	794
2317.39	795.111
2319.31	785.556
2321.24	794.667
2323.16	782.222
2325.09	784.667
2327.01	799.778
2328.93	781.111
2330.86	782.667
2332.78	786.889
2334.7	773.556
2336.62	784.222
2338.54	778
2340.46	784.444
2342.38	777.111
2344.3	762.222
2346.22	766.222
2348.14	767.556
2350.05	764
2351.97	759.111
2353.89	771.556
2355.8	760.444
2357.71	757.556
2359.63	746.222
2361.54	758.889
2363.46	764.889
2365.37	759.111
2367.28	759.556
2369.19	758.444
2371.1	752.889
2373.01	764.444
2374.92	760
2376.83	749.555
2378.74	757.778
2380.65	756.667
2382.56	754.889
2384.46	744.889
2386.37	756.444
2388.27	745.778
2390.18	749.556
2392.08	737.556
2393.99	735.333
2395.89	740.889
2397.8	738.222
2399.7	741.333
2401.6	743.556
2403.5	731.333
2405.4	738
2407.3	716.889
2409.2	740
2411.1	735.333
2413	729.333
2414.9	737.333
2416.8	722.889
2418.69	716.444
2420.59	731.556
2422.48	717.556
2424.38	726.667
2426.28	721.778
2428.17	715.111
2430.06	711.333
2431.96	731.333
2433.85	731.333
2435.74	714.667
2437.63	717.556
2439.52	729.556
2441.41	719.333
2443.3	714.444
2445.19	713.778
2447.08	715.333
