178.677	324.889
181.278	317.778
183.879	310.444
186.48	313.778
189.078	309.556
191.677	311.556
194.275	314.222
196.871	306
199.467	309.778
202.061	308
204.656	302
207.248	298.889
209.841	306.667
212.431	306.889
215.022	296
217.613	301.778
220.201	293.778
222.789	291.111
225.375	294
227.962	296.667
230.547	296
233.13	292
235.714	284.667
238.296	290.667
240.879	296
243.459	292.889
246.04	295.778
248.618	295.556
251.196	294.667
253.774	294.667
256.35	293.111
258.927	294.444
261.501	289.333
264.074	286
266.648	286.667
269.22	283.556
271.791	287.778
274.362	297.556
276.931	298.667
279.5	290.222
282.069	296.889
284.635	293.556
287.201	299.333
289.766	301.556
292.331	296.222
294.894	308.667
297.457	296.222
300.018	302
302.58	299.556
305.14	302.667
307.699	292
310.257	291.333
312.814	293.333
315.372	287.333
317.928	278.222
320.482	276.889
323.036	279.778
325.589	270.889
328.142	274.889
330.693	276.444
333.243	279.111
335.795	277.778
338.343	281.778
340.891	289.333
343.439	276.222
345.985	287.556
348.53	290
351.075	287.333
353.619	285.333
356.162	278.889
358.704	291.556
361.245	289.556
363.786	294
366.325	302.444
368.864	304.444
371.402	310.444
373.939	313.778
376.475	310
379.011	318.444
381.545	306.222
384.079	306.889
386.612	306.889
389.144	301.111
391.674	298.667
394.204	307.778
396.734	301.556
399.263	306.444
401.791	302.889
404.318	307.111
406.844	308
409.368	307.333
411.893	302.889
414.417	304.444
416.94	315.111
419.462	312.667
421.982	306.222
424.502	306.889
427.022	311.778
429.541	315.111
432.057	312.222
434.574	305.556
437.091	316.444
439.606	322.667
442.12	316.889
444.634	308.444
447.147	316.667
449.657	314
452.169	316.889
454.68	309.556
457.188	315.333
459.697	304.889
462.205	314.444
464.711	310.222
467.217	314.667
469.722	307.778
472.227	311.111
474.731	312
477.232	300.667
479.735	310
482.235	308.889
484.736	313.556
487.234	317.333
489.734	315.333
492.23	318.667
494.728	313.556
497.223	321.778
499.719	320
502.213	320
504.707	334.889
507.199	322
509.692	320.444
512.182	320.444
514.673	324.444
517.162	319.333
519.65	320.667
522.139	320.889
524.625	313.778
527.112	318.889
529.597	307.556
532.081	316.889
534.565	308.667
537.047	315.556
539.529	314.222
542.011	317.778
544.491	318.667
546.97	318.889
549.45	322
551.927	322
554.404	325.333
556.88	324
559.356	320.667
561.831	314
564.304	315.778
566.777	313.333
569.25	323.778
571.721	318.222
574.191	326
576.661	321.333
579.129	323.778
581.599	321.778
584.066	325.111
586.532	317.333
588.997	313.333
591.462	322
593.926	320.889
596.389	320
598.851	321.111
601.314	323.333
603.775	329.333
606.235	322
608.694	330.222
611.152	323.111
613.609	324.222
616.066	325.778
618.522	321.111
620.977	327.556
623.431	330.667
625.885	341.556
628.338	343.111
630.79	352.889
633.241	362.444
635.691	369.556
638.141	368.667
640.589	354.444
643.036	370.889
645.483	354.889
647.929	343.778
650.375	350.889
652.82	335.111
655.264	349.778
657.707	336.667
660.149	336.222
662.59	343.778
665.031	343.556
667.471	341.111
669.91	341.556
672.349	336.222
674.786	337.111
677.222	345.556
679.658	334
682.093	344.444
684.528	340.667
686.96	346.889
689.393	345.778
691.826	342.444
694.256	340.889
696.686	339.333
699.116	339.778
701.545	342.889
703.972	345.111
706.4	340.222
708.826	355.333
711.251	354.222
713.676	354.222
716.099	349.333
718.523	343.333
720.946	343.556
723.366	351.556
725.788	353.111
728.207	352.667
730.627	351.556
733.044	356.222
735.462	354
737.88	359.111
740.295	359.111
742.711	368
745.125	378
747.539	381.111
749.951	374.667
752.363	364.889
754.775	359.778
757.185	368.222
759.595	356.889
762.003	347.778
764.412	359.333
766.819	356
769.225	356.889
771.632	352.222
774.036	348.889
776.441	354.222
778.844	353.333
781.246	358.667
783.649	358
786.05	372.222
788.449	368.222
790.85	374.667
793.248	373.778
795.646	370.444
798.042	380.889
800.44	371.556
802.835	376.667
805.23	383.333
807.623	398.222
810.018	399.333
812.41	405.333
814.801	418.222
817.192	427.778
819.582	415.556
821.972	420.222
824.361	414.889
826.748	411.556
829.135	411.778
831.521	410.222
833.907	422.889
836.291	420.889
838.675	434.889
841.059	437.778
843.442	433.778
845.823	446
848.204	462
850.584	476
852.963	485.333
855.342	480.667
857.72	476.667
860.097	483.333
862.473	491.333
864.848	478.889
867.223	467.333
869.597	428.889
871.97	418.444
874.343	400.444
876.714	393.778
879.084	395.111
881.454	380.667
883.824	376.444
886.192	369.556
888.56	373.556
890.927	372.222
893.294	372.222
895.66	364.889
898.023	368.889
900.387	372.222
902.751	373.556
905.114	366.667
907.476	364.222
909.835	363.556
912.196	362.444
914.555	376.222
916.914	375.556
919.271	371.778
921.629	375.333
923.985	364.444
926.341	373.111
928.695	373.333
931.05	371.111
933.404	380.444
935.755	379.778
938.107	381.778
940.459	378
942.808	384.667
945.158	384.667
947.508	388
949.855	386
952.202	378.667
954.548	387.111
956.894	376.444
959.239	386.667
961.583	375.778
963.928	378
966.27	381.556
968.612	374.444
970.953	376.667
973.294	375.556
975.633	379.333
977.972	384.444
980.31	385.778
982.647	382
984.984	388.889
987.32	374.667
989.656	385.778
991.989	385.333
994.324	375.333
996.656	363.778
998.988	371.111
1001.32	380.889
1003.65	373.333
1005.98	382.889
1008.31	368.444
1010.64	382
1012.97	389.333
1015.29	391.111
1017.62	381.333
1019.94	378
1022.27	380
1024.59	373.778
1026.92	378.667
1029.24	379.778
1031.56	374.222
1033.88	373.111
1036.2	376.889
1038.52	372
1040.84	386.222
1043.16	375.778
1045.48	374
1047.79	375.111
1050.11	370.222
1052.42	377.111
1054.74	380.667
1057.05	375.556
1059.36	373.556
1061.67	377.111
1063.99	377.111
1066.3	391.778
1068.61	384.889
1070.92	388.889
1073.22	389.778
1075.53	394.667
1077.84	389.333
1080.15	388.222
1082.45	398.444
1084.76	404.667
1087.06	399.111
1089.36	403.778
1091.66	406
1093.97	410.889
1096.27	424.889
1098.57	426.222
1100.87	431.778
1103.17	458.222
1105.46	471.111
1107.76	501.333
1110.06	509.333
1112.35	514.667
1114.65	493.556
1116.94	461.111
1119.24	446.889
1121.53	433.333
1123.82	432.667
1126.11	441.333
1128.4	457.778
1130.7	462
1132.98	471.556
1135.27	469.556
1137.56	473.333
1139.85	479.111
1142.13	477.556
1144.42	476
1146.71	463.556
1148.99	450.667
1151.27	462
1153.56	461.333
1155.84	455.778
1158.12	452.222
1160.4	447.778
1162.68	455.778
1164.96	439.111
1167.24	444
1169.51	440.444
1171.79	438
1174.07	424.889
1176.34	436.444
1178.62	436
1180.89	423.333
1183.17	444.444
1185.44	436.222
1187.71	443.556
1189.98	441.778
1192.25	458.222
1194.52	456.889
1196.79	462.444
1199.06	470.889
1201.33	467.333
1203.59	467.111
1205.86	473.778
1208.12	486.444
1210.39	488.222
1212.65	488.444
1214.92	502.889
1217.18	505.111
1219.44	510.667
1221.7	512
1223.96	525.556
1226.22	524.667
1228.48	531.333
1230.74	539.778
1233	549.778
1235.25	544.667
1237.51	545.556
1239.77	555.778
1242.02	547.778
1244.27	565.778
1246.53	556.889
1248.78	575.556
1251.03	592
1253.28	594.222
1255.53	598.889
1257.78	607.555
1260.03	604.889
1262.28	622.889
1264.53	628.667
1266.78	639.111
1269.02	630.222
1271.27	641.778
1273.51	649.111
1275.76	653.556
1278	675.556
1280.24	681.778
1282.48	689.556
1284.72	721.111
1286.97	732.667
1289.21	748.889
1291.44	755.333
1293.68	749.111
1295.92	752.444
1298.16	757.333
1300.39	755.555
1302.63	737.556
1304.86	730.889
1307.1	722.667
1309.33	719.333
1311.56	707.333
1313.8	725.778
1316.03	716.222
1318.26	708.889
1320.49	722.222
1322.72	722.444
1324.95	723.556
1327.17	722.444
1329.4	723.556
1331.63	701.333
1333.85	708.445
1336.08	695.556
1338.3	700.889
1340.53	658.667
1342.75	649.111
1344.97	621.111
1347.19	598.667
1349.41	574.222
1351.63	539.556
1353.85	520.222
1356.07	507.778
1358.29	495.333
1360.51	479.556
1362.72	475.333
1364.94	462.667
1367.16	462
1369.37	460.444
1371.58	466
1373.8	469.556
1376.01	468.889
1378.22	465.333
1380.43	481.333
1382.64	468.444
1384.85	472.667
1387.06	474.444
1389.27	469.778
1391.48	479.556
1393.68	471.111
1395.89	481.778
1398.1	475.333
1400.3	469.333
1402.51	463.778
1404.71	462
1406.91	460
1409.11	460.889
1411.32	460.667
1413.52	465.111
1415.72	468.889
1417.92	468
1420.11	464.889
1422.31	461.111
1424.51	453.111
1426.71	457.556
1428.9	452.667
1431.1	449.111
1433.29	445.556
1435.49	443.556
1437.68	453.556
1439.87	447.111
1442.06	452.444
1444.25	443.333
1446.45	440.889
1448.64	449.778
1450.82	446.889
1453.01	444.222
1455.2	458.444
1457.39	443.556
1459.57	449.778
1461.76	442.222
1463.94	441.556
1466.13	441.333
1468.31	438.222
1470.5	448.222
1472.68	442.222
1474.86	430.444
1477.04	447.778
1479.22	443.333
1481.4	443.778
1483.58	440
1485.76	446.444
1487.94	436.667
1490.11	452.889
1492.29	451.778
1494.46	449.333
1496.64	453.111
1498.81	445.111
1500.99	448.889
1503.16	450.444
1505.33	457.778
1507.5	445.111
1509.67	445.333
1511.84	449.333
1514.01	449.778
1516.18	440.222
1518.35	438.444
1520.52	438.889
1522.68	430.667
1524.85	433.333
1527.02	437.556
1529.18	452.889
1531.35	436
1533.51	450.222
1535.67	446
1537.83	438.667
1539.99	440.222
1542.16	450.222
1544.31	442
1546.47	444.444
1548.63	444.889
1550.79	447.333
1552.95	447.333
1555.11	450.444
1557.26	457.778
1559.42	440.444
1561.57	454.222
1563.73	454
1565.88	454.222
1568.03	465.333
1570.18	449.111
1572.34	463.111
1574.49	468.667
1576.64	461.111
1578.79	466
1580.93	473.333
1583.08	479.778
1585.23	492.667
1587.38	500.222
1589.52	508
1591.67	504
1593.81	508.667
1595.96	503.333
1598.1	499.778
1600.24	482
1602.38	480.889
1604.53	476.889
1606.67	465.556
1608.81	478.667
1610.95	471.556
1613.09	460.444
1615.22	463.111
1617.36	459.778
1619.5	455.111
1621.63	459.556
1623.77	445.556
1625.9	439.111
1628.04	433.778
1630.17	417.556
1632.3	419.778
1634.44	413.333
1636.57	421.111
1638.7	407.111
1640.83	403.111
1642.96	402.444
1645.09	401.333
1647.22	390.889
1649.34	396.444
1651.47	394.444
1653.6	394.222
1655.72	388.667
1657.85	378.222
1659.97	380.444
1662.1	386.889
1664.22	374.444
1666.34	378.889
1668.46	371.333
1670.58	374.667
1672.7	366.889
1674.82	364.444
1676.94	375.556
1679.06	369.111
1681.18	355.333
1683.3	366
1685.41	361.111
1687.53	358.889
1689.64	356.444
1691.76	360.889
1693.87	366.889
1695.99	356.222
1698.1	364.444
1700.21	358.667
1702.32	355.111
1704.43	355.556
1706.54	357.333
1708.65	355.778
1710.76	355.111
1712.87	354
1714.98	353.556
1717.08	354.444
1719.19	347.556
1721.29	360
1723.4	352.444
1725.5	351.111
1727.61	353.111
1729.71	350.667
1731.81	344.222
1733.91	346.667
1736.02	351.778
1738.12	347.556
1740.22	347.111
1742.31	348
1744.41	349.333
1746.51	342.667
1748.61	346
1750.7	346.444
1752.8	347.778
1754.9	346.667
1756.99	341.556
1759.08	336
1761.18	341.333
1763.27	338.667
1765.36	336.222
1767.45	345.556
1769.54	344.667
1771.63	346
1773.72	339.778
1775.81	336.222
1777.9	338.444
1779.99	348
1782.08	345.111
1784.16	340
1786.25	342.889
1788.33	336
1790.42	336.444
1792.5	344
1794.58	334.889
1796.67	343.111
1798.75	344.667
1800.83	348.889
1802.91	341.111
1804.99	337.111
1807.07	344
1809.15	340
1811.23	338.222
1813.3	332.667
1815.38	340.444
1817.46	333.333
1819.53	336.889
1821.61	338.667
1823.68	340.222
1825.75	348.889
1827.83	339.111
1829.9	331.111
1831.97	324.222
1834.04	338.444
1836.11	332.889
1838.18	332.889
1840.25	341.333
1842.32	323.333
1844.39	337.556
1846.46	334.444
1848.52	329.333
1850.59	325.111
1852.65	327.111
1854.72	324
1856.78	330.444
1858.85	323.556
1860.91	331.778
1862.97	325.778
1865.03	322.889
1867.09	327.111
1869.16	323.556
1871.22	325.333
1873.27	320.222
1875.33	319.778
1877.39	328
1879.45	322.222
1881.51	325.333
1883.56	328.889
1885.62	325.333
1887.67	332.889
1889.73	321.333
1891.78	333.778
1893.83	333.778
1895.89	327.333
1897.94	324.444
1899.99	330.444
1902.04	326.444
1904.09	326.889
1906.14	331.333
1908.19	328.889
1910.23	325.333
1912.28	322.222
1914.33	329.111
1916.37	325.111
1918.42	325.778
1920.46	319.778
1922.51	326.667
1924.55	311.778
1926.6	318.889
1928.64	319.556
1930.68	320.444
1932.72	329.111
1934.76	320.889
1936.8	322.222
1938.84	324.667
1940.88	318.889
1942.92	325.111
1944.96	321.111
1946.99	319.778
1949.03	319.111
1951.06	324.222
1953.1	312
1955.13	312.444
1957.17	318
1959.2	318.667
1961.23	312
1963.27	318.667
1965.3	322.889
1967.33	311.778
1969.36	316.889
1971.39	309.333
1973.42	319.556
1975.44	306.667
1977.47	312.222
1979.5	319.111
1981.53	308.444
1983.55	316.444
1985.58	308
1987.6	312.889
1989.63	313.778
1991.65	312
1993.67	307.778
1995.69	311.333
1997.72	310.889
1999.74	305.333
2001.76	311.333
2003.78	314.222
2005.8	310.667
2007.82	305.556
2009.83	313.556
2011.85	310.444
2013.87	319.333
2015.88	314.889
2017.9	311.333
2019.91	308.222
2021.93	310.889
2023.94	315.556
2025.96	318.222
2027.97	309.111
2029.98	311.333
2031.99	307.778
2034	306.222
2036.01	308.889
2038.02	312.889
2040.03	310
2042.04	319.778
2044.05	310.222
2046.05	311.333
2048.06	315.333
2050.07	309.333
2052.07	313.556
2054.08	308
2056.08	307.778
2058.08	306.444
2060.09	311.778
2062.09	308
2064.09	303.333
2066.09	301.556
2068.09	313.111
2070.09	308.444
2072.09	310.667
2074.09	306.444
2076.09	310
2078.09	311.333
2080.08	295.333
2082.08	305.111
2084.08	310.444
2086.07	309.778
2088.07	295.778
2090.06	294.889
2092.05	307.333
2094.05	305.556
2096.04	303.333
2098.03	306.667
2100.02	298.222
2102.01	296.222
2104	300.889
2105.99	296.667
2107.98	305.778
2109.97	296
2111.95	296.444
2113.94	298.222
2115.93	304
2117.91	305.111
2119.9	303.333
2121.88	303.111
2123.87	310.444
2125.85	306.444
2127.83	302
2129.81	301.778
2131.8	304.667
2133.78	308.889
2135.76	306.889
2137.74	299.111
2139.72	300.667
2141.69	309.111
2143.67	304.222
2145.65	302.667
2147.63	297.778
2149.6	294.444
2151.58	292.444
2153.55	300.222
2155.53	296.444
2157.5	301.333
2159.48	293.111
2161.45	294.667
2163.42	288.889
2165.39	295.111
2167.36	290.444
2169.33	297.333
2171.3	297.111
2173.27	295.111
2175.24	297.556
2177.21	291.111
2179.18	291.556
2181.14	292
2183.11	297.333
2185.07	291.778
2187.04	298.444
2189	288.222
2190.97	290
2192.93	290.444
2194.89	285.556
2196.86	292
2198.82	295.111
2200.78	291.778
2202.74	284.889
2204.7	294.222
2206.66	283.556
2208.62	285.556
2210.57	286
2212.53	296
2214.49	285.333
2216.45	288.444
2218.4	289.111
2220.36	293.778
2222.31	285.111
2224.27	282.444
2226.22	294.667
2228.17	283.333
2230.12	281.556
2232.08	285.778
2234.03	286
2235.98	286.889
2237.93	289.333
2239.88	276.667
2241.83	287.556
2243.78	289.556
2245.72	283.333
2247.67	288.667
2249.62	282
2251.56	277.778
2253.51	283.111
2255.45	282
2257.4	280.889
2259.34	282.667
2261.28	285.333
2263.23	283.111
2265.17	277.333
2267.11	274.222
2269.05	276.889
2270.99	276.444
2272.93	276
2274.87	289.778
2276.81	276.889
2278.75	276.222
2280.68	282.889
2282.62	280
2284.56	283.333
2286.49	279.778
2288.43	278.667
2290.36	281.556
2292.3	284
2294.23	271.556
2296.16	284.889
2298.09	274.667
2300.03	272.222
2301.96	269.333
2303.89	274
2305.82	276.889
2307.75	280.222
2309.68	275.556
2311.6	271.778
2313.53	275.111
2315.46	270.222
2317.39	272.444
2319.31	275.111
2321.24	275.556
2323.16	276.222
2325.09	276
2327.01	273.333
2328.93	274.222
2330.86	276.889
2332.78	270.444
2334.7	271.333
2336.62	268.889
2338.54	266.889
2340.46	273.111
2342.38	266
2344.3	271.333
2346.22	265.111
2348.14	269.333
2350.05	272.889
2351.97	268.667
2353.89	275.333
2355.8	272.667
2357.71	273.778
2359.63	266.889
2361.54	267.778
2363.46	268.667
2365.37	271.111
2367.28	260.222
2369.19	265.111
2371.1	269.333
2373.01	267.333
2374.92	267.556
2376.83	273.111
2378.74	268.889
2380.65	262.889
2382.56	264.889
2384.46	259.556
2386.37	263.333
2388.27	269.111
2390.18	268
2392.08	265.778
2393.99	267.556
2395.89	264
2397.8	260.444
2399.7	270
2401.6	259.778
2403.5	260.667
2405.4	261.111
2407.3	259.556
2409.2	258.667
2411.1	264
2413	265.333
2414.9	261.333
2416.8	261.556
2418.69	259.333
2420.59	264.889
2422.48	258.222
2424.38	260.667
2426.28	267.111
2428.17	258.667
2430.06	261.111
2431.96	270.667
2433.85	259.556
2435.74	261.333
2437.63	257.111
2439.52	260
2441.41	268
2443.3	264.889
2445.19	264.667
2447.08	266
