178.677	306
181.278	302.667
183.879	303.111
186.48	300.222
189.078	298
191.677	300.222
194.275	296.667
196.871	297.111
199.467	293.778
202.061	292.222
204.656	294.444
207.248	286
209.841	281.778
212.431	287.111
215.022	283.111
217.613	289.556
220.201	280.667
222.789	280.889
225.375	275.111
227.962	271.333
230.547	272
233.13	266.222
235.714	274.667
238.296	267.111
240.879	269.333
243.459	266
246.04	270.667
248.618	268
251.196	263.556
253.774	259.111
256.35	264.667
258.927	266.667
261.501	263.778
264.074	261.778
266.648	261.778
269.22	266
271.791	265.333
274.362	252.222
276.931	265.111
279.5	263.333
282.069	270
284.635	269.333
287.201	270.444
289.766	274
292.331	274
294.894	272
297.457	284.889
300.018	264.667
302.58	273.333
305.14	263.333
307.699	266.889
310.257	259.111
312.814	259.111
315.372	254
317.928	251.778
320.482	244.889
323.036	245.111
325.589	243.333
328.142	244.667
330.693	248.667
333.243	238.444
335.795	243.556
338.343	243.556
340.891	238.667
343.439	244.667
345.985	252.222
348.53	243.556
351.075	245.778
353.619	244.444
356.162	244.444
358.704	250
361.245	253.556
363.786	266.222
366.325	261.556
368.864	269.778
371.402	272.889
373.939	277.111
376.475	280.444
379.011	282.889
381.545	268.889
384.079	270.889
386.612	265.111
389.144	266
391.674	267.333
394.204	266
396.734	260.444
399.263	268.444
401.791	260.444
404.318	265.333
406.844	267.778
409.368	269.111
411.893	263.111
414.417	268.222
416.94	267.556
419.462	270.222
421.982	267.333
424.502	259.556
427.022	262
429.541	267.333
432.057	266.222
434.574	275.111
437.091	264.444
439.606	274.889
442.12	279.111
444.634	274.222
447.147	268
449.657	269.778
452.169	275.333
454.68	273.111
457.188	271.556
459.697	264.444
462.205	264.444
464.711	263.778
467.217	264.222
469.722	263.111
472.227	261.111
474.731	260.222
477.232	263.111
479.735	269.111
482.235	265.556
484.736	264
487.234	272.444
489.734	263.556
492.23	266.667
494.728	270
497.223	276.222
499.719	274.889
502.213	278.444
504.707	281.556
507.199	281.778
509.692	279.111
512.182	280
514.673	282.667
517.162	280.667
519.65	277.111
522.139	278.889
524.625	276.889
527.112	268.889
529.597	268
532.081	262.222
534.565	264
537.047	258.444
539.529	260.444
542.011	266.444
544.491	263.778
546.97	268.667
549.45	263.333
551.927	272.889
554.404	268.667
556.88	270.222
559.356	270.444
561.831	262.667
564.304	266.889
566.777	272
569.25	269.333
571.721	263.111
574.191	274.222
576.661	261.111
579.129	268
581.599	274.222
584.066	265.333
586.532	266.889
588.997	261.778
591.462	267.111
593.926	268.222
596.389	272
598.851	273.333
601.314	273.556
603.775	269.556
606.235	271.556
608.694	273.556
611.152	270
613.609	272.222
616.066	279.556
618.522	269.778
620.977	277.556
623.431	271.333
625.885	287.778
628.338	295.111
630.79	306.222
633.241	318
635.691	323.111
638.141	321.333
640.589	315.111
643.036	316.667
645.483	309.778
647.929	297.111
650.375	306.222
652.82	302
655.264	297.778
657.707	289.778
660.149	294.222
662.59	291.333
665.031	286.889
667.471	289.556
669.91	296.667
672.349	291.556
674.786	286.444
677.222	291.778
679.658	285.333
682.093	287.333
684.528	295.556
686.96	291.556
689.393	293.778
691.826	287.111
694.256	293.333
696.686	288.222
699.116	294.667
701.545	290.222
703.972	299.111
706.4	304
708.826	299.556
711.251	293.111
713.676	300.889
716.099	294
718.523	298.667
720.946	295.556
723.366	299.111
725.788	303.333
728.207	304
730.627	307.556
733.044	302.667
735.462	302.667
737.88	310.444
740.295	318.667
742.711	336.444
745.125	336.889
747.539	331.556
749.951	327.556
752.363	321.556
754.775	310
757.185	315.333
759.595	308.667
762.003	304.222
764.412	302.889
766.819	306.222
769.225	305.111
771.632	306.222
774.036	307.556
776.441	305.111
778.844	309.111
781.246	310.667
783.649	319.111
786.05	318.667
788.449	322
790.85	318.444
793.248	331.778
795.646	326.444
798.042	335.111
800.44	332.889
802.835	336.222
805.23	349.333
807.623	364.889
810.018	363.111
812.41	380.889
814.801	386.444
817.192	386.889
819.582	386
821.972	391.333
824.361	396.667
826.748	388
829.135	387.556
831.521	387.111
833.907	393.556
836.291	391.111
838.675	399.556
841.059	391.111
843.442	415.556
845.823	441.333
848.204	458.889
850.584	465.778
852.963	470
855.342	476.444
857.72	484.667
860.097	486.444
862.473	494.667
864.848	482.222
867.223	460.889
869.597	423.333
871.97	381.333
874.343	373.333
876.714	356.222
879.084	351.778
881.454	337.778
883.824	336.222
886.192	336.222
888.56	327.111
890.927	330.667
893.294	322.667
895.66	332.222
898.023	321.333
900.387	320.667
902.751	321.333
905.114	320.889
907.476	323.333
909.835	313.556
912.196	314.222
914.555	319.556
916.914	325.778
919.271	328.667
921.629	321.778
923.985	328.667
926.341	331.556
928.695	326
931.05	337.778
933.404	335.333
935.755	343.556
938.107	326.667
940.459	350.889
942.808	339.556
945.158	328.667
947.508	327.778
949.855	338.889
952.202	334.222
954.548	338
956.894	336
959.239	338.667
961.583	324.444
963.928	327.333
966.27	327.333
968.612	324.889
970.953	332.889
973.294	321.556
975.633	334.222
977.972	330.222
980.31	330.889
982.647	325.111
984.984	342
987.32	341.778
989.656	332.222
991.989	333.111
994.324	335.778
996.656	329.333
998.988	328.667
1001.32	324.889
1003.65	341.778
1005.98	333.111
1008.31	334.667
1010.64	340.889
1012.97	338.444
1015.29	343.778
1017.62	342
1019.94	329.111
1022.27	323.111
1024.59	329.111
1026.92	321.333
1029.24	332.444
1031.56	333.556
1033.88	321.111
1036.2	319.333
1038.52	331.111
1040.84	330.889
1043.16	328.222
1045.48	325.333
1047.79	321.333
1050.11	325.556
1052.42	332.667
1054.74	321.778
1057.05	327.111
1059.36	327.556
1061.67	337.333
1063.99	326.889
1066.3	336.889
1068.61	339.778
1070.92	337.333
1073.22	341.556
1075.53	342.667
1077.84	341.333
1080.15	344.667
1082.45	357.556
1084.76	355.111
1087.06	365.556
1089.36	366
1091.66	371.556
1093.97	368.444
1096.27	381.778
1098.57	397.556
1100.87	414.667
1103.17	434.889
1105.46	462.444
1107.76	484.667
1110.06	517.111
1112.35	506.444
1114.65	484.222
1116.94	470.444
1119.24	425.556
1121.53	408.444
1123.82	404.222
1126.11	412.667
1128.4	427.111
1130.7	433.333
1132.98	432.889
1135.27	436
1137.56	447.111
1139.85	446.667
1142.13	448.444
1144.42	446.667
1146.71	442.667
1148.99	431.333
1151.27	443.111
1153.56	433.111
1155.84	426.889
1158.12	429.556
1160.4	421.556
1162.68	420
1164.96	415.333
1167.24	422.222
1169.51	417.556
1171.79	408
1174.07	413.111
1176.34	408.444
1178.62	409.333
1180.89	408.444
1183.17	410.444
1185.44	406.667
1187.71	421.333
1189.98	423.556
1192.25	424.667
1194.52	431.778
1196.79	432
1199.06	445.778
1201.33	447.778
1203.59	455.778
1205.86	473.111
1208.12	480.889
1210.39	473.333
1212.65	495.111
1214.92	496.667
1217.18	506.667
1219.44	501.778
1221.7	515.333
1223.96	516.445
1226.22	525.333
1228.48	545.111
1230.74	543.555
1233	552.667
1235.25	552.444
1237.51	555.778
1239.77	565.111
1242.02	564.889
1244.27	576
1246.53	592.667
1248.78	591.333
1251.03	603.556
1253.28	614
1255.53	620.889
1257.78	655.556
1260.03	658.667
1262.28	657.333
1264.53	680.889
1266.78	689.555
1269.02	680.889
1271.27	703.333
1273.51	720.667
1275.76	727.111
1278	740.889
1280.24	770.222
1282.48	797.333
1284.72	826.889
1286.97	844.444
1289.21	879.111
1291.44	887.556
1293.68	892.222
1295.92	890.444
1298.16	894
1300.39	894.444
1302.63	895.555
1304.86	869.111
1307.1	866.889
1309.33	837.333
1311.56	822.667
1313.8	826.444
1316.03	825.111
1318.26	808.444
1320.49	819.111
1322.72	838.222
1324.95	844.667
1327.17	827.778
1329.4	825.111
1331.63	800
1333.85	794
1336.08	784.889
1338.3	742
1340.53	721.778
1342.75	684.444
1344.97	637.333
1347.19	604.667
1349.41	571.333
1351.63	537.111
1353.85	512.444
1356.07	483.111
1358.29	472.667
1360.51	447.111
1362.72	445.778
1364.94	450.667
1367.16	434.222
1369.37	448.444
1371.58	436.222
1373.8	453.333
1376.01	439.778
1378.22	450
1380.43	451.111
1382.64	451.333
1384.85	448.889
1387.06	461.333
1389.27	453.778
1391.48	458.222
1393.68	452.889
1395.89	454
1398.1	448.444
1400.3	436.667
1402.51	442.222
1404.71	439.778
1406.91	433.333
1409.11	451.556
1411.32	442.444
1413.52	438.444
1415.72	446.889
1417.92	445.778
1420.11	444
1422.31	444
1424.51	427.111
1426.71	438.444
1428.9	428.889
1431.1	436.889
1433.29	432.889
1435.49	421.333
1437.68	427.778
1439.87	415.778
1442.06	418.444
1444.25	415.778
1446.45	422.667
1448.64	432.667
1450.82	417.111
1453.01	414.222
1455.2	408.667
1457.39	410.222
1459.57	412.667
1461.76	415.556
1463.94	419.111
1466.13	406.667
1468.31	412.667
1470.5	411.778
1472.68	412.444
1474.86	416
1477.04	417.111
1479.22	426.889
1481.4	413.333
1483.58	426
1485.76	414.667
1487.94	417.111
1490.11	419.556
1492.29	414.889
1494.46	423.556
1496.64	419.778
1498.81	420.889
1500.99	416
1503.16	437.556
1505.33	434.444
1507.5	426.222
1509.67	417.333
1511.84	426.444
1514.01	417.778
1516.18	409.333
1518.35	411.333
1520.52	416.444
1522.68	406.222
1524.85	415.111
1527.02	412.889
1529.18	416.667
1531.35	421.556
1533.51	418.222
1535.67	416.222
1537.83	420.889
1539.99	410.222
1542.16	424
1544.31	419.556
1546.47	411.111
1548.63	422.667
1550.79	419.556
1552.95	418.222
1555.11	419.556
1557.26	428.444
1559.42	432.222
1561.57	426.444
1563.73	433.556
1565.88	427.333
1568.03	433.556
1570.18	446
1572.34	438.667
1574.49	451.556
1576.64	443.111
1578.79	445.333
1580.93	460.889
1583.08	454.444
1585.23	466.667
1587.38	487.111
1589.52	490.667
1591.67	502
1593.81	491.556
1595.96	492.889
1598.1	475.333
1600.24	467.111
1602.38	454.667
1604.53	448.222
1606.67	438.667
1608.81	432.222
1610.95	432
1613.09	434.444
1615.22	437.111
1617.36	423.778
1619.5	432.222
1621.63	411.111
1623.77	416.667
1625.9	403.333
1628.04	397.111
1630.17	394.444
1632.3	384.889
1634.44	381.778
1636.57	382.667
1638.7	378.889
1640.83	370
1642.96	370
1645.09	364.889
1647.22	367.111
1649.34	369.111
1651.47	357.556
1653.6	351.111
1655.72	351.778
1657.85	348.889
1659.97	351.111
1662.1	349.556
1664.22	345.111
1666.34	353.333
1668.46	341.778
1670.58	339.333
1672.7	335.333
1674.82	334.444
1676.94	329.778
1679.06	329.778
1681.18	330
1683.3	336
1685.41	333.333
1687.53	323.778
1689.64	329.333
1691.76	323.111
1693.87	328.222
1695.99	326
1698.1	322.444
1700.21	329.778
1702.32	324.667
1704.43	329.778
1706.54	325.333
1708.65	322
1710.76	319.556
1712.87	322.667
1714.98	326.889
1717.08	322
1719.19	319.333
1721.29	312.889
1723.4	310.889
1725.5	322
1727.61	314.667
1729.71	312.667
1731.81	320.889
1733.91	324.222
1736.02	310
1738.12	319.778
1740.22	307.333
1742.31	318.222
1744.41	313.111
1746.51	311.778
1748.61	311.778
1750.7	310.222
1752.8	312.889
1754.9	311.556
1756.99	311.111
1759.08	302.667
1761.18	313.778
1763.27	309.556
1765.36	307.333
1767.45	306.667
1769.54	303.111
1771.63	310.222
1773.72	300.889
1775.81	305.778
1777.9	316.667
1779.99	309.333
1782.08	308.444
1784.16	305.778
1786.25	314.444
1788.33	309.556
1790.42	319.333
1792.5	307.333
1794.58	311.333
1796.67	311.778
1798.75	308.222
1800.83	316
1802.91	312.889
1804.99	309.111
1807.07	312.222
1809.15	310.667
1811.23	308.444
1813.3	302.667
1815.38	301.778
1817.46	309.556
1819.53	308.667
1821.61	311.556
1823.68	305.556
1825.75	301.778
1827.83	300
1829.9	307.111
1831.97	296.222
1834.04	297.556
1836.11	306.222
1838.18	303.333
1840.25	294.667
1842.32	289.556
1844.39	303.778
1846.46	297.778
1848.52	300.444
1850.59	299.111
1852.65	297.778
1854.72	295.778
1856.78	302.222
1858.85	296
1860.91	294.444
1862.97	292.889
1865.03	300
1867.09	295.111
1869.16	293.111
1871.22	302.667
1873.27	296.444
1875.33	299.333
1877.39	292.444
1879.45	294.889
1881.51	295.556
1883.56	296.444
1885.62	302.222
1887.67	294.444
1889.73	296
1891.78	296
1893.83	296.444
1895.89	301.778
1897.94	294
1899.99	289.111
1902.04	304
1904.09	302.889
1906.14	288.222
1908.19	295.556
1910.23	294.222
1912.28	298.222
1914.33	299.111
1916.37	300.444
1918.42	299.111
1920.46	299.556
1922.51	299.778
1924.55	304.444
1926.6	293.111
1928.64	294.444
1930.68	296.667
1932.72	291.778
1934.76	291.778
1936.8	290.889
1938.84	293.556
1940.88	296.889
1942.92	288.444
1944.96	296
1946.99	282.889
1949.03	298
1951.06	293.778
1953.1	279.333
1955.13	289.778
1957.17	284.444
1959.2	294.222
1961.23	288.222
1963.27	284.889
1965.3	295.333
1967.33	282.222
1969.36	286.667
1971.39	288.889
1973.42	289.778
1975.44	286.889
1977.47	288
1979.5	288.222
1981.53	282.889
1983.55	280.667
1985.58	284.889
1987.6	288.444
1989.63	283.778
1991.65	289.778
1993.67	284.222
1995.69	287.556
1997.72	287.778
1999.74	289.778
2001.76	282.667
2003.78	277.333
2005.8	287.111
2007.82	284.444
2009.83	280
2011.85	288.889
2013.87	285.333
2015.88	291.778
2017.9	288
2019.91	288.444
2021.93	280.889
2023.94	288.667
2025.96	282.444
2027.97	285.111
2029.98	280
2031.99	284.222
2034	279.333
2036.01	285.778
2038.02	284.222
2040.03	280
2042.04	285.333
2044.05	284
2046.05	281.778
2048.06	286.667
2050.07	286.222
2052.07	280
2054.08	290.889
2056.08	285.556
2058.08	283.556
2060.09	283.778
2062.09	285.111
2064.09	288.444
2066.09	282
2068.09	279.333
2070.09	277.778
2072.09	292.444
2074.09	279.111
2076.09	284
2078.09	282.222
2080.08	285.333
2082.08	281.333
2084.08	279.111
2086.07	272.222
2088.07	281.556
2090.06	275.556
2092.05	284.444
2094.05	276.222
2096.04	281.111
2098.03	276.667
2100.02	282.889
2102.01	279.111
2104	285.333
2105.99	280.222
2107.98	281.778
2109.97	288.889
2111.95	286.222
2113.94	281.111
2115.93	279.111
2117.91	281.778
2119.9	287.111
2121.88	277.333
2123.87	289.556
2125.85	280.889
2127.83	277.111
2129.81	274.889
2131.8	284.889
2133.78	284
2135.76	286.222
2137.74	271.111
2139.72	276.889
2141.69	281.556
2143.67	278.889
2145.65	279.556
2147.63	268
2149.6	276.222
2151.58	277.333
2153.55	276.667
2155.53	275.778
2157.5	277.556
2159.48	279.778
2161.45	273.111
2163.42	268.444
2165.39	271.778
2167.36	276.222
2169.33	277.333
2171.3	270.222
2173.27	268.222
2175.24	273.333
2177.21	277.778
2179.18	278.222
2181.14	277.556
2183.11	265.778
2185.07	276.222
2187.04	270.889
2189	271.333
2190.97	272
2192.93	269.111
2194.89	266.444
2196.86	272.222
2198.82	267.778
2200.78	266.222
2202.74	269.111
2204.7	266.444
2206.66	266.444
2208.62	268.222
2210.57	269.556
2212.53	274.889
2214.49	273.111
2216.45	274.667
2218.4	267.778
2220.36	273.556
2222.31	266
2224.27	262.444
2226.22	262.667
2228.17	272.444
2230.12	266.444
2232.08	262.444
2234.03	261.556
2235.98	268.444
2237.93	262.222
2239.88	263.778
2241.83	261.333
2243.78	262.444
2245.72	262
2247.67	254.444
2249.62	261.778
2251.56	261.333
2253.51	264.222
2255.45	258.667
2257.4	264
2259.34	259.778
2261.28	266.222
2263.23	260
2265.17	274.667
2267.11	257.333
2269.05	262.889
2270.99	259.111
2272.93	259.556
2274.87	264.222
2276.81	256.222
2278.75	262
2280.68	261.333
2282.62	263.111
2284.56	261.111
2286.49	260.444
2288.43	258.889
2290.36	255.333
2292.3	255.111
2294.23	256
2296.16	258.222
2298.09	260.222
2300.03	256.222
2301.96	254.667
2303.89	253.778
2305.82	254.222
2307.75	254.444
2309.68	262.444
2311.6	258.889
2313.53	259.333
2315.46	257.778
2317.39	256
2319.31	256.667
2321.24	250.222
2323.16	258
2325.09	255.111
2327.01	255.111
2328.93	257.556
2330.86	254.667
2332.78	258.444
2334.7	254.667
2336.62	263.556
2338.54	248.444
2340.46	259.778
2342.38	256.444
2344.3	253.111
2346.22	256.667
2348.14	255.556
2350.05	252
2351.97	256
2353.89	246.889
2355.8	254.667
2357.71	256
2359.63	250.444
2361.54	248
2363.46	250.222
2365.37	254.889
2367.28	257.111
2369.19	248.444
2371.1	243.333
2373.01	249.556
2374.92	257.778
2376.83	245.111
2378.74	249.778
2380.65	249.556
2382.56	252.667
2384.46	242.444
2386.37	242
2388.27	250
2390.18	250
2392.08	249.111
2393.99	243.778
2395.89	246.667
2397.8	244.889
2399.7	248
2401.6	248.667
2403.5	248
2405.4	248.222
2407.3	250.222
2409.2	254.667
2411.1	246.889
2413	238.667
2414.9	250
2416.8	246
2418.69	250.444
2420.59	240.667
2422.48	247.333
2424.38	243.333
2426.28	242.889
2428.17	238
2430.06	246.889
2431.96	251.778
2433.85	246
2435.74	249.333
2437.63	245.111
2439.52	240.889
2441.41	247.556
2443.3	241.778
2445.19	245.333
2447.08	244.667
