178.677	365.556
181.278	353.778
183.879	344.444
186.48	359.333
189.078	349.556
191.677	347.778
194.275	343.333
196.871	334.889
199.467	337.556
202.061	335.111
204.656	328.889
207.248	325.111
209.841	326
212.431	325.333
215.022	319.333
217.613	323.333
220.201	314.667
222.789	305.333
225.375	310.222
227.962	302.667
230.547	300.222
233.13	297.111
235.714	300
238.296	301.778
240.879	300.222
243.459	291.333
246.04	298.222
248.618	294.667
251.196	293.333
253.774	298.444
256.35	276.889
258.927	285.556
261.501	285.556
264.074	292.667
266.648	286
269.22	282.889
271.791	283.556
274.362	282
276.931	283.111
279.5	292.222
282.069	288.889
284.635	291.333
287.201	299.556
289.766	301.111
292.331	304.444
294.894	306.889
297.457	310
300.018	306.667
302.58	300.222
305.14	295.333
307.699	289.111
310.257	272.444
312.814	279.556
315.372	264.667
317.928	263.778
320.482	256.889
323.036	258
325.589	256.889
328.142	259.556
330.693	248.667
333.243	249.556
335.795	253.778
338.343	251.778
340.891	246.667
343.439	247.333
345.985	251.556
348.53	250.222
351.075	252.444
353.619	258
356.162	258.222
358.704	255.778
361.245	264.222
363.786	271.556
366.325	280.444
368.864	285.556
371.402	299.333
373.939	301.333
376.475	294.667
379.011	295.778
381.545	291.556
384.079	293.333
386.612	283.333
389.144	280
391.674	281.333
394.204	280
396.734	274.889
399.263	278
401.791	281.333
404.318	276.667
406.844	287.111
409.368	282.444
411.893	280.889
414.417	286
416.94	272.444
419.462	283.333
421.982	278.444
424.502	272
427.022	271.556
429.541	280.222
432.057	277.778
434.574	275.556
437.091	279.778
439.606	284.222
442.12	283.556
444.634	293.333
447.147	288.889
449.657	287.778
452.169	276.222
454.68	276
457.188	277.778
459.697	275.111
462.205	272
464.711	265.556
467.217	268.444
469.722	267.778
472.227	265.556
474.731	260
477.232	269.111
479.735	266.222
482.235	264.889
484.736	267.778
487.234	271.778
489.734	278.667
492.23	274.444
494.728	279.556
497.223	277.333
499.719	290.889
502.213	293.556
504.707	284.444
507.199	292.889
509.692	292
512.182	297.556
514.673	296.889
517.162	296
519.65	292.889
522.139	286
524.625	291.556
527.112	283.778
529.597	275.778
532.081	272.889
534.565	278.444
537.047	281.556
539.529	278
542.011	271.111
544.491	273.111
546.97	268
549.45	270.222
551.927	276.222
554.404	277.778
556.88	272
559.356	270.889
561.831	273.778
564.304	272
566.777	272.222
569.25	277.778
571.721	263.778
574.191	270.444
576.661	275.333
579.129	273.111
581.599	273.111
584.066	271.556
586.532	275.111
588.997	273.333
591.462	269.333
593.926	276.667
596.389	273.556
598.851	281.111
601.314	278.222
603.775	279.111
606.235	280.222
608.694	283.333
611.152	279.778
613.609	274.222
616.066	279.778
618.522	282.667
620.977	288
623.431	289.778
625.885	301.333
628.338	312
630.79	325.778
633.241	334.889
635.691	347.556
638.141	345.333
640.589	343.778
643.036	340.222
645.483	333.111
647.929	324.444
650.375	310.667
652.82	296.889
655.264	305.111
657.707	302.667
660.149	296.444
662.59	294.667
665.031	301.778
667.471	297.778
669.91	296.222
672.349	309.333
674.786	297.111
677.222	309.556
679.658	295.111
682.093	297.556
684.528	306
686.96	308.889
689.393	307.556
691.826	314
694.256	302.889
696.686	308.222
699.116	306.222
701.545	305.556
703.972	304.889
706.4	306.889
708.826	301.111
711.251	311.556
713.676	314.444
716.099	307.778
718.523	308.667
720.946	306
723.366	306.444
725.788	309.333
728.207	313.778
730.627	313.333
733.044	328.444
735.462	320.667
737.88	330.444
740.295	347.111
742.711	349.111
745.125	365.333
747.539	354.444
749.951	348.667
752.363	342.444
754.775	325.333
757.185	332.667
759.595	317.556
762.003	313.778
764.412	314.889
766.819	319.778
769.225	315.778
771.632	313.111
774.036	320.222
776.441	320.667
778.844	327.111
781.246	333.556
783.649	332.889
786.05	340
788.449	335.333
790.85	340
793.248	340.444
795.646	352
798.042	357.556
800.44	362
802.835	363.778
805.23	386
807.623	391.778
810.018	402.889
812.41	418.889
814.801	431.778
817.192	442.667
819.582	442.667
821.972	442.667
824.361	432.444
826.748	434.889
829.135	430.222
831.521	430
833.907	440
836.291	449.111
838.675	459.778
841.059	459.111
843.442	477.333
845.823	505.778
848.204	537.333
850.584	568.222
852.963	572
855.342	570.444
857.72	579.111
860.097	582.889
862.473	598.444
864.848	576
867.223	535.778
869.597	479.556
871.97	429.778
874.343	403.111
876.714	388.444
879.084	376
881.454	360.889
883.824	354
886.192	353.111
888.56	342.444
890.927	345.111
893.294	350
895.66	341.778
898.023	341.333
900.387	330.444
902.751	332.889
905.114	332.444
907.476	338.667
909.835	336.667
912.196	321.111
914.555	330.444
916.914	337.556
919.271	334.889
921.629	336.889
923.985	348.889
926.341	352.222
928.695	347.778
931.05	353.778
933.404	364.667
935.755	370.222
938.107	359.556
940.459	366.222
942.808	358.667
945.158	356.667
947.508	357.333
949.855	355.778
952.202	357.556
954.548	352.444
956.894	352.444
959.239	343.778
961.583	350.222
963.928	346
966.27	332.889
968.612	342.667
970.953	347.778
973.294	338.667
975.633	338.667
977.972	350
980.31	350.222
982.647	362.889
984.984	349.333
987.32	354.222
989.656	351.778
991.989	351.111
994.324	345.556
996.656	351.778
998.988	348.667
1001.32	342
1003.65	347.333
1005.98	350.222
1008.31	353.333
1010.64	365.556
1012.97	376.667
1015.29	373.333
1017.62	352.222
1019.94	336.667
1022.27	343.778
1024.59	338.222
1026.92	336.667
1029.24	331.333
1031.56	324.444
1033.88	342.667
1036.2	341.778
1038.52	348.222
1040.84	342.667
1043.16	339.333
1045.48	340.667
1047.79	337.333
1050.11	333.778
1052.42	349.333
1054.74	332.667
1057.05	337.333
1059.36	340.444
1061.67	336.222
1063.99	347.778
1066.3	344
1068.61	349.333
1070.92	355.778
1073.22	348
1075.53	350.889
1077.84	353.778
1080.15	362.222
1082.45	372.889
1084.76	381.333
1087.06	383.333
1089.36	385.333
1091.66	398.222
1093.97	402.222
1096.27	412.889
1098.57	432
1100.87	464.667
1103.17	488.222
1105.46	520.889
1107.76	562.667
1110.06	597.555
1112.35	596.667
1114.65	564.222
1116.94	515.778
1119.24	461.778
1121.53	443.333
1123.82	448
1126.11	450.667
1128.4	459.778
1130.7	474.444
1132.98	481.778
1135.27	493.778
1137.56	489.111
1139.85	492.444
1142.13	491.111
1144.42	494.889
1146.71	495.778
1148.99	479.556
1151.27	484.667
1153.56	475.778
1155.84	472.444
1158.12	465.111
1160.4	460
1162.68	468.889
1164.96	463.333
1167.24	457.111
1169.51	449.111
1171.79	436.889
1174.07	438.222
1176.34	442.667
1178.62	430
1180.89	430
1183.17	440
1185.44	437.778
1187.71	445.778
1189.98	451.556
1192.25	456.444
1194.52	461.556
1196.79	472.889
1199.06	489.333
1201.33	482.444
1203.59	497.333
1205.86	499.111
1208.12	515.111
1210.39	533.333
1212.65	548.667
1214.92	556.444
1217.18	562.889
1219.44	570.889
1221.7	575.111
1223.96	589.556
1226.22	616.222
1228.48	608.444
1230.74	608.667
1233	628.444
1235.25	635.333
1237.51	633.556
1239.77	642.889
1242.02	658.445
1244.27	671.556
1246.53	683.333
1248.78	696.667
1251.03	710.889
1253.28	726.667
1255.53	755.556
1257.78	766.889
1260.03	780.667
1262.28	798.667
1264.53	806.889
1266.78	847.333
1269.02	834.667
1271.27	861.333
1273.51	871.111
1275.76	890
1278	906
1280.24	936.667
1282.48	1009.33
1284.72	1027.33
1286.97	1071.11
1289.21	1092.67
1291.44	1118.22
1293.68	1113.56
1295.92	1116.67
1298.16	1129.78
1300.39	1121.56
1302.63	1104
1304.86	1090.22
1307.1	1071.56
1309.33	1038
1311.56	1024.89
1313.8	1012
1316.03	999.778
1318.26	1003.33
1320.49	1013.33
1322.72	1024.67
1324.95	1021.33
1327.17	1003.33
1329.4	982.889
1331.63	955.778
1333.85	926.889
1336.08	908.444
1338.3	862.444
1340.53	816.222
1342.75	767.111
1344.97	701.333
1347.19	658.222
1349.41	605.556
1351.63	569.778
1353.85	541.778
1356.07	500.222
1358.29	481.778
1360.51	484.222
1362.72	463.778
1364.94	466.222
1367.16	462.889
1369.37	463.333
1371.58	463.778
1373.8	488.444
1376.01	486.889
1378.22	482.444
1380.43	490.889
1382.64	495.778
1384.85	497.333
1387.06	494.889
1389.27	494.889
1391.48	495.556
1393.68	494.667
1395.89	486.222
1398.1	475.111
1400.3	484.444
1402.51	475.778
1404.71	472.444
1406.91	480
1409.11	467.333
1411.32	465.333
1413.52	487.111
1415.72	482
1417.92	478
1420.11	471.556
1422.31	471.111
1424.51	461.333
1426.71	451.111
1428.9	450
1431.1	451.111
1433.29	445.111
1435.49	443.778
1437.68	428.222
1439.87	436.222
1442.06	440.444
1444.25	444
1446.45	432.444
1448.64	435.556
1450.82	436.222
1453.01	430.667
1455.2	431.778
1457.39	436.889
1459.57	431.778
1461.76	429.333
1463.94	420.667
1466.13	428.667
1468.31	438.889
1470.5	427.778
1472.68	431.778
1474.86	429.111
1477.04	434.667
1479.22	422.889
1481.4	432.667
1483.58	430.889
1485.76	436.222
1487.94	441.111
1490.11	432.889
1492.29	436
1494.46	446.667
1496.64	443.556
1498.81	434.667
1500.99	440.667
1503.16	442.222
1505.33	444.889
1507.5	452.889
1509.67	448.222
1511.84	445.333
1514.01	433.111
1516.18	423.556
1518.35	430
1520.52	421.778
1522.68	424.444
1524.85	427.778
1527.02	409.111
1529.18	411.778
1531.35	424.444
1533.51	436.444
1535.67	430.889
1537.83	430
1539.99	432.889
1542.16	427.333
1544.31	429.333
1546.47	428
1548.63	435.111
1550.79	435.556
1552.95	435.333
1555.11	430
1557.26	445.333
1559.42	442.889
1561.57	439.556
1563.73	440.889
1565.88	452
1568.03	436.889
1570.18	442.889
1572.34	448.444
1574.49	458.444
1576.64	466.222
1578.79	472.444
1580.93	477.778
1583.08	479.111
1585.23	498.444
1587.38	518.889
1589.52	528.222
1591.67	534
1593.81	521.778
1595.96	515.111
1598.1	497.556
1600.24	482.222
1602.38	476.222
1604.53	469.556
1606.67	455.778
1608.81	444.889
1610.95	452.222
1613.09	452.222
1615.22	442.222
1617.36	438.444
1619.5	439.778
1621.63	434.222
1623.77	422.667
1625.9	406
1628.04	397.556
1630.17	396
1632.3	389.333
1634.44	381.556
1636.57	380.667
1638.7	384
1640.83	382.222
1642.96	381.333
1645.09	376
1647.22	366.667
1649.34	372.889
1651.47	358.889
1653.6	356.667
1655.72	362.444
1657.85	357.556
1659.97	362.889
1662.1	353.333
1664.22	351.111
1666.34	354.889
1668.46	345.778
1670.58	349.556
1672.7	345.556
1674.82	345.333
1676.94	338.889
1679.06	342.222
1681.18	328.222
1683.3	329.778
1685.41	334.889
1687.53	331.111
1689.64	332.222
1691.76	336.222
1693.87	330.222
1695.99	332.667
1698.1	339.778
1700.21	332
1702.32	335.333
1704.43	328
1706.54	326.222
1708.65	337.778
1710.76	322.667
1712.87	332.444
1714.98	330.667
1717.08	327.333
1719.19	333.333
1721.29	322.222
1723.4	330.667
1725.5	323.778
1727.61	325.333
1729.71	320.889
1731.81	321.556
1733.91	328
1736.02	317.778
1738.12	318.444
1740.22	317.556
1742.31	320.889
1744.41	325.111
1746.51	320.889
1748.61	311.333
1750.7	315.333
1752.8	321.111
1754.9	320.667
1756.99	322.222
1759.08	313.556
1761.18	310.444
1763.27	320.444
1765.36	325.111
1767.45	314.889
1769.54	323.111
1771.63	312.222
1773.72	319.111
1775.81	321.111
1777.9	315.111
1779.99	317.778
1782.08	327.778
1784.16	316.667
1786.25	318
1788.33	318.889
1790.42	315.556
1792.5	320
1794.58	318
1796.67	327.778
1798.75	316.889
1800.83	324
1802.91	309.333
1804.99	317.556
1807.07	310
1809.15	314.889
1811.23	317.111
1813.3	312
1815.38	315.778
1817.46	314.667
1819.53	300.889
1821.61	316
1823.68	313.333
1825.75	317.778
1827.83	309.778
1829.9	309.111
1831.97	305.111
1834.04	306
1836.11	307.111
1838.18	307.111
1840.25	310.889
1842.32	301.333
1844.39	305.556
1846.46	302.222
1848.52	311.111
1850.59	303.556
1852.65	309.333
1854.72	306.444
1856.78	308.667
1858.85	305.333
1860.91	298.444
1862.97	307.778
1865.03	303.333
1867.09	308.667
1869.16	307.333
1871.22	308.222
1873.27	291.333
1875.33	308.444
1877.39	297.333
1879.45	296.444
1881.51	303.111
1883.56	306.444
1885.62	311.333
1887.67	297.333
1889.73	303.111
1891.78	297.333
1893.83	303.778
1895.89	303.556
1897.94	299.778
1899.99	302.889
1902.04	304.889
1904.09	311.778
1906.14	300
1908.19	306.444
1910.23	295.333
1912.28	300.222
1914.33	305.556
1916.37	301.111
1918.42	310.667
1920.46	303.111
1922.51	303.111
1924.55	308.667
1926.6	301.556
1928.64	298
1930.68	299.111
1932.72	300.444
1934.76	307.111
1936.8	294.222
1938.84	301.778
1940.88	300
1942.92	297.111
1944.96	300
1946.99	285.778
1949.03	300.222
1951.06	299.333
1953.1	295.333
1955.13	296.667
1957.17	293.333
1959.2	292
1961.23	292.222
1963.27	291.556
1965.3	296.667
1967.33	300.667
1969.36	292
1971.39	300.889
1973.42	292
1975.44	298.222
1977.47	295.111
1979.5	295.778
1981.53	285.556
1983.55	294.667
1985.58	296.667
1987.6	295.111
1989.63	295.333
1991.65	296.444
1993.67	295.333
1995.69	295.778
1997.72	292.889
1999.74	293.778
2001.76	293.333
2003.78	290
2005.8	294.889
2007.82	300
2009.83	293.111
2011.85	296.222
2013.87	287.556
2015.88	285.778
2017.9	285.333
2019.91	290.889
2021.93	298.222
2023.94	292.444
2025.96	286
2027.97	295.556
2029.98	293.333
2031.99	291.333
2034	289.778
2036.01	302.444
2038.02	296
2040.03	287.333
2042.04	277.111
2044.05	297.778
2046.05	285.333
2048.06	292
2050.07	280.889
2052.07	291.556
2054.08	291.111
2056.08	295.333
2058.08	293.333
2060.09	294.889
2062.09	288
2064.09	287.333
2066.09	286.222
2068.09	290.889
2070.09	288.889
2072.09	288.444
2074.09	293.556
2076.09	287.111
2078.09	290.444
2080.08	289.556
2082.08	287.778
2084.08	290
2086.07	284.444
2088.07	282.444
2090.06	283.111
2092.05	288.889
2094.05	285.556
2096.04	285.778
2098.03	283.556
2100.02	288.222
2102.01	289.778
2104	292.667
2105.99	290.444
2107.98	280.889
2109.97	295.556
2111.95	285.556
2113.94	292.444
2115.93	283.556
2117.91	294.222
2119.9	298.667
2121.88	292.444
2123.87	284
2125.85	294
2127.83	297.778
2129.81	286
2131.8	291.333
2133.78	299.778
2135.76	294
2137.74	290.889
2139.72	294.444
2141.69	283.556
2143.67	283.333
2145.65	288.889
2147.63	282.222
2149.6	280.667
2151.58	283.556
2153.55	281.333
2155.53	287.333
2157.5	292
2159.48	283.333
2161.45	283.778
2163.42	282.444
2165.39	283.778
2167.36	281.778
2169.33	282.889
2171.3	280.222
2173.27	278.889
2175.24	278
2177.21	272.889
2179.18	279.556
2181.14	282.889
2183.11	281.778
2185.07	286.222
2187.04	279.333
2189	275.556
2190.97	282.444
2192.93	277.778
2194.89	270.889
2196.86	270
2198.82	274.667
2200.78	277.111
2202.74	276.667
2204.7	275.778
2206.66	276.222
2208.62	272.222
2210.57	266.222
2212.53	272.667
2214.49	261.111
2216.45	283.778
2218.4	266.444
2220.36	272
2222.31	269.778
2224.27	274.222
2226.22	276.667
2228.17	268.222
2230.12	276.444
2232.08	275.778
2234.03	276.444
2235.98	272.889
2237.93	264.444
2239.88	281.333
2241.83	272
2243.78	265.333
2245.72	266
2247.67	266
2249.62	275.778
2251.56	267.556
2253.51	267.778
2255.45	269.333
2257.4	268
2259.34	269.778
2261.28	261.778
2263.23	262.667
2265.17	270.667
2267.11	264.222
2269.05	263.111
2270.99	264.667
2272.93	256.889
2274.87	263.111
2276.81	257.333
2278.75	267.556
2280.68	262
2282.62	272
2284.56	256.222
2286.49	267.111
2288.43	264
2290.36	267.111
2292.3	272.444
2294.23	254.444
2296.16	262
2298.09	265.556
2300.03	266
2301.96	258.444
2303.89	259.111
2305.82	263.778
2307.75	262.667
2309.68	261.333
2311.6	258
2313.53	261.111
2315.46	260.889
2317.39	265.778
2319.31	263.333
2321.24	257.333
2323.16	260.444
2325.09	266
2327.01	265.556
2328.93	265.556
2330.86	258.222
2332.78	258.889
2334.7	248.667
2336.62	257.778
2338.54	256.889
2340.46	261.778
2342.38	254.222
2344.3	256.444
2346.22	257.556
2348.14	257.111
2350.05	256.444
2351.97	257.778
2353.89	262
2355.8	265.333
2357.71	249.778
2359.63	260.222
2361.54	254.667
2363.46	258
2365.37	254
2367.28	257.778
2369.19	255.778
2371.1	252.222
2373.01	257.778
2374.92	257.778
2376.83	257.556
2378.74	254.222
2380.65	255.556
2382.56	252.889
2384.46	255.333
2386.37	256.889
2388.27	255.111
2390.18	255.111
2392.08	257.333
2393.99	255.111
2395.89	251.333
2397.8	255.333
2399.7	252.222
2401.6	251.556
2403.5	250.444
2405.4	254.667
2407.3	252.667
2409.2	250.222
2411.1	251.556
2413	251.556
2414.9	244.444
2416.8	250.222
2418.69	253.111
2420.59	252.444
2422.48	252
2424.38	250.444
2426.28	255.111
2428.17	253.111
2430.06	258
2431.96	252.444
2433.85	251.778
2435.74	256
2437.63	255.111
2439.52	256.889
2441.41	246.889
2443.3	243.333
2445.19	252.444
2447.08	256.889
