178.677	326.222
181.278	322
183.879	324.667
186.48	325.556
189.078	319.556
191.677	320.667
194.275	311.778
196.871	312.667
199.467	315.778
202.061	310
204.656	306.667
207.248	306.222
209.841	303.333
212.431	301.111
215.022	304.444
217.613	306.444
220.201	303.778
222.789	298
225.375	294.444
227.962	297.111
230.547	298
233.13	295.333
235.714	292.667
238.296	286.889
240.879	297.111
243.459	294.667
246.04	291.333
248.618	288.667
251.196	288
253.774	288.889
256.35	285.778
258.927	280.444
261.501	297.333
264.074	287.778
266.648	286.667
269.22	281.333
271.791	288.444
274.362	287.333
276.931	292.667
279.5	291.556
282.069	289.556
284.635	289.111
287.201	291.778
289.766	305.556
292.331	293.111
294.894	306.444
297.457	306
300.018	299.556
302.58	297.778
305.14	297.111
307.699	282.889
310.257	283.333
312.814	286.444
315.372	276.222
317.928	274
320.482	272.667
323.036	266.444
325.589	270.889
328.142	269.556
330.693	262.889
333.243	272.667
335.795	273.111
338.343	269.111
340.891	263.333
343.439	267.556
345.985	268.444
348.53	274.444
351.075	268.889
353.619	278.444
356.162	278.889
358.704	284
361.245	288.667
363.786	291.111
366.325	289.778
368.864	293.333
371.402	300.222
373.939	304.444
376.475	309.778
379.011	297.778
381.545	304.222
384.079	295.556
386.612	294.889
389.144	301.778
391.674	294
394.204	297.333
396.734	300.222
399.263	290.444
401.791	300.222
404.318	293.111
406.844	298.889
409.368	299.111
411.893	303.778
414.417	298.222
416.94	288.889
419.462	305.333
421.982	301.333
424.502	299.111
427.022	296.444
429.541	309.333
432.057	302
434.574	308.222
437.091	309.111
439.606	298.667
442.12	319.333
444.634	308.222
447.147	305.111
449.657	308.889
452.169	307.556
454.68	305.333
457.188	303.556
459.697	288.889
462.205	294
464.711	295.778
467.217	290.889
469.722	298.444
472.227	293.111
474.731	295.778
477.232	298.222
479.735	294.444
482.235	300.222
484.736	301.556
487.234	309.111
489.734	304.889
492.23	306.444
494.728	316.889
497.223	306.667
499.719	312.667
502.213	312.889
504.707	312.222
507.199	316.222
509.692	314.444
512.182	316.889
514.673	313.111
517.162	306.889
519.65	318.222
522.139	307.778
524.625	313.333
527.112	302.889
529.597	307.778
532.081	303.333
534.565	303.778
537.047	306
539.529	305.111
542.011	297.778
544.491	302.889
546.97	299.556
549.45	298.222
551.927	307.333
554.404	302.222
556.88	302.444
559.356	298.889
561.831	312.444
564.304	304.444
566.777	300.889
569.25	300.444
571.721	307.333
574.191	306.222
576.661	300.889
579.129	300.667
581.599	304.222
584.066	308.667
586.532	308
588.997	304.444
591.462	312.889
593.926	304.889
596.389	304.667
598.851	313.333
601.314	312.889
603.775	315.333
606.235	314.222
608.694	313.556
611.152	305.333
613.609	313.111
616.066	306
618.522	309.556
620.977	317.333
623.431	318.889
625.885	320.889
628.338	338.667
630.79	349.556
633.241	362.222
635.691	359.111
638.141	350.444
640.589	366.889
643.036	356
645.483	336.444
647.929	348.444
650.375	332.222
652.82	341.111
655.264	330
657.707	320.667
660.149	332
662.59	323.556
665.031	341.111
667.471	333.556
669.91	321.556
672.349	316.444
674.786	327.111
677.222	332
679.658	332
682.093	329.111
684.528	337.333
686.96	332.444
689.393	326.667
691.826	337.111
694.256	330.889
696.686	331.333
699.116	326.667
701.545	330.222
703.972	333.778
706.4	334.222
708.826	341.333
711.251	349.333
713.676	337.778
716.099	340.444
718.523	331.111
720.946	332
723.366	332.667
725.788	339.556
728.207	342.222
730.627	339.778
733.044	347.333
735.462	353.778
737.88	350
740.295	363.111
742.711	370.444
745.125	368
747.539	371.556
749.951	365.333
752.363	354.667
754.775	354.889
757.185	355.556
759.595	349.556
762.003	344
764.412	342.222
766.819	355.111
769.225	343.778
771.632	348.667
774.036	347.111
776.441	342.444
778.844	351.111
781.246	354
783.649	358.889
786.05	359.111
788.449	364.889
790.85	350.889
793.248	374.667
795.646	365.778
798.042	373.111
800.44	372.889
802.835	385.778
805.23	382.667
807.623	400.889
810.018	393.111
812.41	408
814.801	416.667
817.192	434.889
819.582	432.444
821.972	426.889
824.361	412.667
826.748	411.778
829.135	415.778
831.521	424
833.907	415.778
836.291	428.222
838.675	428
841.059	435.333
843.442	448
845.823	463.111
848.204	481.111
850.584	491.556
852.963	499.556
855.342	497.333
857.72	493.778
860.097	507.333
862.473	507.556
864.848	506.667
867.223	480.444
869.597	447.778
871.97	416.889
874.343	411.111
876.714	391.778
879.084	384.667
881.454	376.667
883.824	382.667
886.192	364.222
888.56	364.444
890.927	364.444
893.294	368.889
895.66	363.556
898.023	359.556
900.387	354.889
902.751	359.111
905.114	360.889
907.476	356.222
909.835	360.444
912.196	357.333
914.555	351.556
916.914	363.556
919.271	365.333
921.629	357.333
923.985	373.333
926.341	364.889
928.695	363.111
931.05	378.444
933.404	369.556
935.755	378.222
938.107	374.444
940.459	372
942.808	374.444
945.158	385.778
947.508	376
949.855	376
952.202	368.889
954.548	377.556
956.894	371.333
959.239	372.444
961.583	369.111
963.928	365.333
966.27	378
968.612	365.556
970.953	368
973.294	369.556
975.633	373.778
977.972	375.556
980.31	378
982.647	372.667
984.984	378.889
987.32	374.222
989.656	381.333
991.989	365.778
994.324	371.333
996.656	358.667
998.988	364.667
1001.32	368.889
1003.65	366.667
1005.98	374.222
1008.31	374.222
1010.64	370.889
1012.97	382.222
1015.29	384
1017.62	368.222
1019.94	366.889
1022.27	372.667
1024.59	360.889
1026.92	360.667
1029.24	362.667
1031.56	374.889
1033.88	367.778
1036.2	362
1038.52	372.444
1040.84	369.556
1043.16	365.111
1045.48	357.778
1047.79	370.667
1050.11	372.667
1052.42	369.556
1054.74	366.444
1057.05	370.444
1059.36	373.778
1061.67	376
1063.99	374.667
1066.3	379.333
1068.61	379.556
1070.92	385.333
1073.22	380.222
1075.53	381.556
1077.84	385.778
1080.15	379.333
1082.45	399.778
1084.76	388.667
1087.06	406
1089.36	408.222
1091.66	415.556
1093.97	417.778
1096.27	428.667
1098.57	440.889
1100.87	453.556
1103.17	465.333
1105.46	491.111
1107.76	510.222
1110.06	535.556
1112.35	546.222
1114.65	520.889
1116.94	495.333
1119.24	462.667
1121.53	457.556
1123.82	468.222
1126.11	456.444
1128.4	469.333
1130.7	469.111
1132.98	496.444
1135.27	494.222
1137.56	507.556
1139.85	500.889
1142.13	500.222
1144.42	498.444
1146.71	483.778
1148.99	499.556
1151.27	494.222
1153.56	474.444
1155.84	474.222
1158.12	465.333
1160.4	455.333
1162.68	460.889
1164.96	461.556
1167.24	464.667
1169.51	443.556
1171.79	445.111
1174.07	440.667
1176.34	447.778
1178.62	460
1180.89	449.556
1183.17	452.222
1185.44	457.333
1187.71	459.333
1189.98	461.556
1192.25	471.556
1194.52	480
1196.79	470.222
1199.06	477.111
1201.33	486
1203.59	505.556
1205.86	498
1208.12	510.222
1210.39	525.111
1212.65	539.778
1214.92	532.889
1217.18	533.111
1219.44	544.444
1221.7	549.111
1223.96	551.556
1226.22	540.444
1228.48	570
1230.74	558.444
1233	576.222
1235.25	581.778
1237.51	586.444
1239.77	591.333
1242.02	586.667
1244.27	602.667
1246.53	614
1248.78	615.333
1251.03	626.667
1253.28	646.889
1255.53	639.778
1257.78	662.444
1260.03	673.778
1262.28	683.778
1264.53	681.556
1266.78	711.778
1269.02	717.778
1271.27	716.222
1273.51	711.111
1275.76	732.667
1278	744.222
1280.24	773.778
1282.48	800.222
1284.72	824.889
1286.97	844.222
1289.21	849.333
1291.44	848.889
1293.68	864
1295.92	855.555
1298.16	864.667
1300.39	866.889
1302.63	876.444
1304.86	850.222
1307.1	853.111
1309.33	829.333
1311.56	824.444
1313.8	813.333
1316.03	812
1318.26	805.111
1320.49	810.667
1322.72	826.889
1324.95	826.444
1327.17	810.222
1329.4	819.333
1331.63	807.333
1333.85	794
1336.08	794.222
1338.3	754.667
1340.53	735.111
1342.75	708.889
1344.97	678.444
1347.19	648.444
1349.41	619.556
1351.63	577.778
1353.85	555.778
1356.07	529.778
1358.29	515.556
1360.51	497.111
1362.72	484.889
1364.94	494.222
1367.16	484.222
1369.37	485.333
1371.58	494
1373.8	484.667
1376.01	491.778
1378.22	498
1380.43	505.556
1382.64	502.889
1384.85	518.444
1387.06	503.556
1389.27	509.556
1391.48	503.111
1393.68	500.444
1395.89	502.444
1398.1	500
1400.3	496
1402.51	490
1404.71	504.667
1406.91	490.222
1409.11	496.889
1411.32	503.111
1413.52	513.111
1415.72	517.778
1417.92	495.556
1420.11	507.556
1422.31	493.333
1424.51	494.667
1426.71	479.556
1428.9	478.889
1431.1	472.889
1433.29	481.111
1435.49	478.222
1437.68	470.889
1439.87	467.333
1442.06	472.667
1444.25	462.889
1446.45	460.889
1448.64	468.667
1450.82	470.444
1453.01	461.111
1455.2	460.667
1457.39	457.333
1459.57	462.889
1461.76	451.778
1463.94	465.111
1466.13	456.222
1468.31	464.444
1470.5	459.333
1472.68	454
1474.86	462.222
1477.04	458
1479.22	460.889
1481.4	463.556
1483.58	464.889
1485.76	466.889
1487.94	465.778
1490.11	466.444
1492.29	473.111
1494.46	465.111
1496.64	473.333
1498.81	464.667
1500.99	461.111
1503.16	476.889
1505.33	474.222
1507.5	478.222
1509.67	470.222
1511.84	469.556
1514.01	463.556
1516.18	464.667
1518.35	464.222
1520.52	456.444
1522.68	465.778
1524.85	463.111
1527.02	458
1529.18	463.556
1531.35	460.222
1533.51	465.333
1535.67	468.667
1537.83	473.556
1539.99	464
1542.16	459.778
1544.31	467.778
1546.47	460.667
1548.63	467.556
1550.79	469.111
1552.95	470.889
1555.11	475.556
1557.26	482.222
1559.42	468.667
1561.57	475.333
1563.73	483.111
1565.88	481.556
1568.03	478
1570.18	485.333
1572.34	484
1574.49	496.444
1576.64	494.444
1578.79	500.444
1580.93	514.444
1583.08	515.778
1585.23	530.667
1587.38	535.778
1589.52	542
1591.67	552.222
1593.81	549.111
1595.96	536
1598.1	536.222
1600.24	529.556
1602.38	514.889
1604.53	490.667
1606.67	504.444
1608.81	487.111
1610.95	500.222
1613.09	486.444
1615.22	481.333
1617.36	479.111
1619.5	478.444
1621.63	467.556
1623.77	455.778
1625.9	457.111
1628.04	458.667
1630.17	440.889
1632.3	426.667
1634.44	424.667
1636.57	423.333
1638.7	420.222
1640.83	418.222
1642.96	409.778
1645.09	412.667
1647.22	415.111
1649.34	402.667
1651.47	400.444
1653.6	402.889
1655.72	388.222
1657.85	392.667
1659.97	398.222
1662.1	388.444
1664.22	383.556
1666.34	378.222
1668.46	378
1670.58	372.667
1672.7	377.333
1674.82	374
1676.94	371.556
1679.06	378.667
1681.18	368.889
1683.3	362.667
1685.41	364.889
1687.53	359.556
1689.64	362.444
1691.76	373.333
1693.87	367.111
1695.99	368.667
1698.1	359.778
1700.21	347.556
1702.32	356.667
1704.43	356
1706.54	349.556
1708.65	359.333
1710.76	351.556
1712.87	358.889
1714.98	364
1717.08	353.111
1719.19	358.444
1721.29	352.222
1723.4	350.444
1725.5	357.556
1727.61	361.778
1729.71	354.667
1731.81	351.111
1733.91	356.667
1736.02	350.444
1738.12	350.667
1740.22	357.333
1742.31	347.778
1744.41	352.889
1746.51	346.222
1748.61	343.556
1750.7	339.556
1752.8	342
1754.9	344.667
1756.99	345.556
1759.08	341.778
1761.18	345.778
1763.27	346.889
1765.36	339.333
1767.45	348.444
1769.54	346.222
1771.63	343.778
1773.72	346.667
1775.81	336.889
1777.9	341.556
1779.99	348.667
1782.08	341.778
1784.16	348
1786.25	347.778
1788.33	351.111
1790.42	344
1792.5	339.111
1794.58	344
1796.67	346.889
1798.75	339.778
1800.83	346
1802.91	339.556
1804.99	340.889
1807.07	354.889
1809.15	346.444
1811.23	344.222
1813.3	346.444
1815.38	338.444
1817.46	343.333
1819.53	339.556
1821.61	330.667
1823.68	339.111
1825.75	336
1827.83	332.889
1829.9	333.333
1831.97	337.556
1834.04	325.333
1836.11	333.778
1838.18	335.778
1840.25	335.556
1842.32	326.444
1844.39	337.111
1846.46	341.111
1848.52	336.889
1850.59	339.778
1852.65	332.222
1854.72	330.889
1856.78	326.444
1858.85	325.778
1860.91	332.222
1862.97	326.667
1865.03	335.778
1867.09	339.778
1869.16	327.778
1871.22	327.333
1873.27	331.556
1875.33	335.333
1877.39	327.333
1879.45	326.444
1881.51	326.667
1883.56	331.111
1885.62	331.556
1887.67	330.667
1889.73	329.556
1891.78	329.333
1893.83	334.222
1895.89	328.667
1897.94	323.333
1899.99	332.444
1902.04	330.667
1904.09	329.333
1906.14	326.889
1908.19	324
1910.23	332.222
1912.28	329.778
1914.33	326
1916.37	328
1918.42	325.556
1920.46	318.667
1922.51	336
1924.55	327.111
1926.6	333.111
1928.64	330.444
1930.68	326.889
1932.72	322.667
1934.76	325.333
1936.8	324.222
1938.84	328.222
1940.88	328
1942.92	328.222
1944.96	326.444
1946.99	331.111
1949.03	320
1951.06	323.333
1953.1	320.889
1955.13	327.111
1957.17	316.444
1959.2	309.556
1961.23	320.667
1963.27	319.556
1965.3	314.889
1967.33	320
1969.36	314.889
1971.39	314.667
1973.42	317.778
1975.44	316.222
1977.47	312
1979.5	317.778
1981.53	321.556
1983.55	312.889
1985.58	317.556
1987.6	315.333
1989.63	308.667
1991.65	318.667
1993.67	314.889
1995.69	322
1997.72	316.222
1999.74	313.778
2001.76	308.222
2003.78	315.333
2005.8	313.111
2007.82	313.111
2009.83	321.111
2011.85	323.556
2013.87	316.444
2015.88	314.667
2017.9	314
2019.91	317.778
2021.93	311.778
2023.94	321.333
2025.96	315.333
2027.97	315.333
2029.98	316.889
2031.99	318.222
2034	316.444
2036.01	318.889
2038.02	314.444
2040.03	315.778
2042.04	319.556
2044.05	323.111
2046.05	315.778
2048.06	311.333
2050.07	311.333
2052.07	314.889
2054.08	313.778
2056.08	310.444
2058.08	315.556
2060.09	312.667
2062.09	313.778
2064.09	314.667
2066.09	311.556
2068.09	315.778
2070.09	309.778
2072.09	303.111
2074.09	314.222
2076.09	314.444
2078.09	307.333
2080.08	319.333
2082.08	314.222
2084.08	309.111
2086.07	307.556
2088.07	310.889
2090.06	312.889
2092.05	314.444
2094.05	309.111
2096.04	311.556
2098.03	309.333
2100.02	308.444
2102.01	311.778
2104	313.778
2105.99	311.778
2107.98	304.667
2109.97	310.222
2111.95	309.556
2113.94	305.111
2115.93	298.667
2117.91	308.444
2119.9	309.111
2121.88	309.778
2123.87	313.111
2125.85	308.889
2127.83	304.444
2129.81	311.556
2131.8	314.444
2133.78	308.667
2135.76	315.111
2137.74	316.222
2139.72	314.889
2141.69	304.444
2143.67	309.556
2145.65	308.889
2147.63	302
2149.6	307.778
2151.58	304.444
2153.55	304.222
2155.53	309.556
2157.5	309.556
2159.48	296.222
2161.45	302.889
2163.42	305.333
2165.39	295.111
2167.36	308.222
2169.33	297.333
2171.3	303.778
2173.27	302.444
2175.24	304
2177.21	298
2179.18	299.111
2181.14	302.889
2183.11	302.889
2185.07	297.333
2187.04	303.333
2189	295.111
2190.97	300.444
2192.93	294.889
2194.89	297.556
2196.86	299.556
2198.82	290.222
2200.78	292.889
2202.74	296.444
2204.7	286.889
2206.66	297.556
2208.62	296
2210.57	295.778
2212.53	297.333
2214.49	290.444
2216.45	293.333
2218.4	301.556
2220.36	295.556
2222.31	294.889
2224.27	291.333
2226.22	292
2228.17	295.778
2230.12	294.444
2232.08	295.111
2234.03	300
2235.98	295.111
2237.93	295.333
2239.88	288.667
2241.83	285.778
2243.78	291.111
2245.72	278.889
2247.67	289.778
2249.62	289.556
2251.56	286
2253.51	295.333
2255.45	293.111
2257.4	290.222
2259.34	292
2261.28	288
2263.23	295.333
2265.17	295.333
2267.11	281.333
2269.05	280.667
2270.99	289.556
2272.93	281.111
2274.87	281.333
2276.81	284.444
2278.75	290.667
2280.68	289.556
2282.62	282.222
2284.56	286.889
2286.49	284
2288.43	284.667
2290.36	283.111
2292.3	287.556
2294.23	287.111
2296.16	277.778
2298.09	281.556
2300.03	274.889
2301.96	291.778
2303.89	286
2305.82	278.444
2307.75	277.333
2309.68	279.333
2311.6	278.444
2313.53	285.778
2315.46	276.222
2317.39	276
2319.31	290.667
2321.24	286.889
2323.16	277.111
2325.09	282.444
2327.01	272.667
2328.93	284.889
2330.86	285.778
2332.78	285.333
2334.7	287.556
2336.62	285.333
2338.54	277.556
2340.46	281.111
2342.38	281.778
2344.3	278
2346.22	279.333
2348.14	286
2350.05	280.667
2351.97	276
2353.89	274.667
2355.8	275.333
2357.71	276.444
2359.63	274
2361.54	281.778
2363.46	272.222
2365.37	267.778
2367.28	278.667
2369.19	274.222
2371.1	274.222
2373.01	268.889
2374.92	271.111
2376.83	278
2378.74	272.222
2380.65	270
2382.56	276
2384.46	270.222
2386.37	270.444
2388.27	273.111
2390.18	276
2392.08	279.778
2393.99	273.778
2395.89	277.556
2397.8	276.444
2399.7	265.556
2401.6	268.667
2403.5	275.556
2405.4	271.556
2407.3	278.444
2409.2	270.667
2411.1	273.556
2413	275.333
2414.9	274.889
2416.8	277.333
2418.69	266.222
2420.59	269.111
2422.48	274
2424.38	266.889
2426.28	273.556
2428.17	273.778
2430.06	274
2431.96	274.222
2433.85	270.667
2435.74	267.111
2437.63	269.111
2439.52	270
2441.41	270.444
2443.3	268.222
2445.19	273.556
2447.08	268.667
