105.443	581.403
108.528	555.598
111.612	521.094
114.693	477.603
117.774	450.656
120.854	428.156
123.931	406.331
127.007	376.444
130.081	367.174
133.155	345.141
136.226	337.252
139.296	321.634
142.364	309.681
145.431	288.785
148.496	279.961
151.559	266.225
154.622	252.838
157.682	235.984
160.741	227.403
163.799	218.274
166.855	207.063
169.91	209.508
172.963	188.821
176.014	186.449
179.064	177.082
182.113	165.78
185.16	164.142
188.205	157.913
191.249	150.526
194.291	163.885
197.333	160.415
200.372	153.934
203.409	146.973
206.446	151.195
209.48	150.409
212.514	141.308
215.546	151.934
218.577	150.465
221.605	149.956
224.633	147.746
227.658	144.41
230.682	143.311
233.706	152.012
236.727	146.749
239.747	146.172
242.765	140.632
245.782	141.388
248.797	143.437
251.811	139.669
254.823	142.901
257.834	134.51
260.844	129.034
263.852	135.202
266.858	133.594
269.863	140.717
272.866	153.481
275.868	155.576
278.869	176.98
281.867	190.661
284.865	215.975
287.861	233.449
290.856	271.755
293.848	292.689
296.84	311.206
299.83	323.197
302.819	336.793
305.806	343.456
308.791	341.684
311.775	336.85
314.758	328.792
317.739	327.468
320.719	332.609
323.697	336.7
326.674	299.492
329.649	260.944
332.623	225.106
335.595	204.31
338.566	174.619
341.535	177.978
344.504	174.239
347.47	184.181
350.434	209.842
353.399	264.426
356.36	361.582
359.321	458.206
362.281	472.641
365.238	384.265
368.194	276.174
371.149	205.485
374.102	182.811
377.054	166.01
380.005	160.93
382.954	178.953
385.901	219.978
388.847	260.345
391.792	295.034
394.735	286.176
397.676	239.008
400.617	191.067
403.555	147.014
406.493	127.747
409.429	109.961
412.363	111.799
415.297	105.609
418.228	102.353
421.158	97.7095
424.087	101.358
427.014	97.9431
429.94	107.276
432.864	114.55
435.787	130.294
438.709	137.701
441.629	155.907
444.547	165.621
447.464	154.719
450.38	131.721
453.294	112.712
456.208	103.058
459.119	94.7389
462.028	95.0538
464.938	95.055
467.844	100.39
470.75	99.9269
473.654	103.684
476.557	108.264
479.459	108.026
482.359	105.576
485.257	90.734
488.154	89.3451
491.05	81.6964
493.945	79.2433
496.838	79.2049
499.729	75.3124
502.619	74.7077
505.508	75.8465
508.395	77.5182
511.281	75.4676
514.165	68.8137
517.049	64.7281
519.93	60.575
522.81	57.913
525.689	62.2632
528.566	60.5192
531.442	59.9503
534.317	53.6054
537.19	57.671
540.062	61.2462
542.932	51.208
545.801	50.2342
548.669	53.8818
551.534	57.0674
554.399	54.2881
557.262	50.7013
560.124	55.6922
562.985	47.9226
565.844	51.0447
568.702	50.3326
571.558	51.5991
574.413	55.2987
577.266	54.004
580.118	49.2363
582.969	51.8225
585.819	52.2671
588.666	51.9373
591.513	52.3449
594.359	51.7017
597.202	52.9336
600.045	51.5304
602.885	48.3474
605.725	49.3604
608.564	49.5981
611.4	47.3911
614.236	53.838
617.07	52.5322
619.902	49.066
622.734	51.2581
625.564	50.4
628.393	49.1228
631.219	53.4423
634.045	50.7234
636.87	51.9226
639.693	54.8941
642.515	49.4952
645.335	51.9619
648.153	51.6222
650.971	51.8541
653.787	51.8508
656.602	53.052
659.416	49.857
662.228	50.1964
665.038	51.3103
667.848	51.7279
670.655	48.4128
673.462	46.9451
676.268	53.0717
679.071	48.7244
681.874	53.1075
684.675	53.7558
687.475	54.7247
690.273	58.1433
693.07	53.3691
695.866	55.4277
698.66	59.2765
701.453	61.6108
704.244	56.6745
707.035	65.7897
709.824	63.4616
712.612	65.8019
715.397	68.5143
718.183	82.4892
720.966	86.2515
723.748	90.783
726.529	90.8468
729.308	93.9081
732.087	103.39
734.863	114.82
737.639	114.641
740.413	119.07
743.186	111.799
745.956	113.711
748.726	108.299
751.495	110.121
754.262	94.2921
757.029	95.1227
759.793	89.2114
762.557	85.467
765.318	86.8694
768.079	89.9421
770.839	91.9218
773.597	89.5608
776.353	95.6563
779.109	98.9087
781.862	112.265
784.615	117.363
787.366	124.928
790.116	124.817
792.865	126.846
795.612	157.156
798.358	196.558
801.102	237.69
803.846	246.314
806.588	254.152
809.329	285.145
812.068	331.128
814.806	349.57
817.542	317.104
820.278	253.557
823.012	183.549
825.744	150.741
828.476	123.498
831.206	109.533
833.935	105.532
836.662	102.378
839.388	101.328
842.113	101.498
844.836	112.832
847.558	127.986
850.279	153.859
852.999	216.257
855.718	292.035
858.435	367.234
861.15	384.462
863.865	319.715
866.577	247.508
869.289	191.955
871.999	191.62
874.709	217.532
877.417	284.009
880.123	376.619
882.828	428.118
885.531	423.088
888.234	416.696
890.936	382.384
893.635	310.372
896.334	247.615
899.031	198.637
901.728	158.712
904.422	124.753
907.116	109.508
909.808	97.9592
912.499	92.9855
915.188	79.7949
917.877	75.1722
920.563	73.7342
923.249	75.4123
925.934	73.0666
928.617	79.3692
931.298	80.8789
933.979	83.3166
936.658	90.3351
939.336	91.035
942.013	98.8605
944.688	104.03
947.362	89.9087
950.035	88.9652
952.706	90.1432
955.377	85.8747
958.045	85.8908
960.714	93.0204
963.38	100.545
966.044	102.128
968.709	100.22
971.372	90.0878
974.033	84.1609
976.693	80.9003
979.351	78.8328
982.009	84.2651
984.665	91.7483
987.32	104.812
989.974	116.941
992.626	139.388
995.277	161.279
997.926	171.971
1000.57	158.292
1003.22	151.789
1005.87	137.166
1008.51	126.31
1011.16	117.869
1013.8	109.73
1016.44	117.58
1019.08	126.85
1021.72	146.247
1024.35	185.814
1026.99	236.328
1029.63	297.69
1032.26	294.822
1034.89	257.498
1037.52	200.339
1040.15	173.798
1042.78	166.502
1045.41	163.32
1048.03	176.591
1050.66	185.338
1053.28	200.15
1055.9	221.83
1058.52	228.686
1061.14	215.689
1063.76	204.385
1066.38	215.832
1068.99	241.671
1071.61	253.986
1074.22	243.968
1076.83	223.749
1079.44	195.771
1082.05	157.952
1084.66	134.588
1087.27	116.721
1089.87	107.564
1092.48	98.2153
1095.08	95.1058
1097.68	89.4032
1100.29	79.4887
1102.88	82.066
1105.48	82.505
1108.08	82.2676
1110.68	88.9857
1113.27	87.3041
1115.86	93.9406
1118.46	103.861
1121.05	111.47
1123.64	137.956
1126.23	162.569
1128.81	196.808
1131.4	229.531
1133.98	224.857
1136.57	190.959
1139.15	146.007
1141.73	124.985
1144.31	109.134
1146.89	104.586
1149.47	104.993
1152.04	108.495
1154.62	119.619
1157.19	119.045
1159.76	111.784
1162.33	99.5321
1164.9	89.3354
1167.47	76.9733
1170.04	79.7767
1172.61	71.0735
1175.17	66.0299
1177.74	67.4689
1180.3	67.0449
1182.86	64.7684
1185.42	61.8722
1187.98	67.4604
1190.54	62.3451
1193.09	64.3404
1195.65	66.8541
1198.2	66.8251
1200.76	65.3946
1203.31	70.7526
1205.86	71.4826
1208.41	70.8082
1210.96	79.3279
1213.5	75.93
1216.05	78.1658
1218.59	72.8632
1221.14	76.2245
1223.68	76.8169
1226.22	72.4345
1228.76	79.3474
1231.3	83.193
1233.84	81.319
1236.37	87.7947
1238.91	89.8138
1241.44	93.2544
1243.97	93.868
1246.5	97.1413
1249.03	98.0155
1251.56	85.3745
1254.09	92.5981
1256.62	95.7317
1259.14	99.6348
1261.67	106.07
1264.19	114.19
1266.71	125.104
1269.23	128.397
1271.75	137.088
1274.27	145.323
1276.78	155.651
1279.3	161.869
1281.81	172.807
1284.33	196.93
1286.84	216.548
1289.35	246.934
1291.86	285.189
1294.37	293.311
1296.88	286.178
1299.38	273.389
1301.89	243.28
1304.39	219.608
1306.89	192.067
1309.4	165.536
1311.9	145.133
1314.4	144.242
1316.89	130.735
1319.39	121.953
1321.89	116.667
1324.38	119.224
1326.87	119.574
1329.37	123.575
1331.86	123.045
1334.35	121.08
1336.83	122.965
1339.32	121.229
1341.81	120.104
1344.29	114.551
1346.78	114.5
1349.26	114.678
1351.74	119.812
1354.22	129.008
1356.7	125.521
1359.18	116.548
1361.65	123.712
1364.13	115.656
1366.6	122.317
1369.08	113.012
1371.55	120.466
1374.02	119.85
1376.49	117.82
1378.96	120.507
1381.43	118.592
1383.89	116.478
1386.36	120.876
1388.82	120.601
1391.28	112.306
1393.75	120.33
1396.21	122.983
1398.67	124.405
1401.12	129.024
1403.58	138.185
1406.04	141.489
1408.49	144.798
1410.95	151.471
1413.4	167.61
1415.85	185.928
1418.3	200.947
1420.75	233.853
1423.2	274.533
1425.64	311.415
1428.09	365.369
1430.53	394.519
1432.97	411.895
1435.42	428.901
1437.86	436.114
1440.3	453.986
1442.74	452.968
1445.17	467.884
1447.61	482.199
1450.05	464.242
1452.48	456.567
1454.91	404.484
1457.34	372.73
1459.77	336.549
1462.2	297.397
1464.63	258.197
1467.06	228.964
1469.48	199.434
1471.91	192.588
1474.33	173.28
1476.76	159.094
1479.18	157.692
1481.6	145.438
1484.02	143.987
1486.44	128.789
1488.85	128.304
1491.27	123.459
1493.68	124.449
1496.1	113.916
1498.51	105.65
1500.92	101.153
1503.33	101.78
1505.74	101.65
1508.15	96.6523
1510.55	102.248
1512.96	98.2917
1515.36	93.3783
1517.77	89.0116
1520.17	94.8789
1522.57	92.2363
1524.97	86.4249
1527.37	88.7092
1529.77	85.6874
1532.16	86.1643
1534.56	79.715
1536.95	77.041
1539.35	85.5285
1541.74	79.8534
1544.13	85.3681
1546.52	75.6784
1548.91	84.3519
1551.3	76.8345
1553.68	80.4831
1556.07	77.5766
1558.45	70.8345
1560.84	72.7585
1563.22	72.9617
1565.6	69.5143
1567.98	75.8719
1570.36	71.8959
1572.74	74.3895
1575.11	72.1558
1577.49	71.508
1579.86	72.5118
1582.24	77.2633
1584.61	73.2446
1586.98	65.9115
1589.35	66.7389
1591.72	67.5509
1594.08	72.4791
1596.45	71.6987
1598.82	65.319
1601.18	71.6187
1603.54	68.7537
1605.91	70.7972
1608.27	62.1891
1610.63	67.5237
1612.99	63.5915
1615.34	62.9954
1617.7	60.2566
1620.06	66.4967
1622.41	66.0192
1624.76	61.8785
1627.12	66.4125
1629.47	68.3265
1631.82	62.1403
1634.17	60.9096
1636.51	64.783
1638.86	60.328
1641.21	57.0538
1643.55	62.1521
1645.9	66.0456
1648.24	60.8631
1650.58	59.1634
1652.92	61.9672
1655.26	59.5076
1657.6	59.5259
1659.93	60.4685
1662.27	57.3038
1664.6	58.2454
1666.94	58.8933
1669.27	60.4689
1671.6	62.4998
1673.93	61.7317
1676.26	60.712
1678.59	57.0266
1680.92	58.3762
1683.24	56.9953
1685.57	59.6386
1687.89	55.4497
1690.22	55.9778
1692.54	55.3566
1694.86	56.5637
1697.18	55.8694
1699.5	57.4548
1701.81	57.153
1704.13	54.1852
1706.45	52.7423
1708.76	59.7077
1711.07	52.2705
1713.38	53.8477
1715.7	49.8355
1718.01	52.0726
1720.31	50.9594
1722.62	48.7184
1724.93	52.8516
1727.24	52.7693
1729.54	54.9431
1731.84	46.3517
1734.15	52.6012
1736.45	45.9875
1738.75	46.6908
1741.05	48.2633
1743.35	47.7341
1745.64	50.432
1747.94	51.0367
1750.23	45.6168
1752.53	43.144
1754.82	45.1153
1757.11	43.5264
1759.4	47.3762
1761.69	45.786
1763.98	41.1406
1766.27	43.5304
1768.56	42.9706
1770.84	43.7431
1773.13	44.354
1775.41	43.0082
1777.69	42.3965
1779.97	40.9803
1782.25	40.5762
1784.53	42.4193
1786.81	43.1785
1789.09	41.3631
1791.36	41.2363
1793.64	42.9563
1795.91	36.6695
1798.18	41.5893
1800.46	41.1163
1802.73	39.569
1805	39.1342
1807.27	38.9524
1809.53	39.4059
1811.8	38.6133
1814.07	37.9005
1816.33	38.0508
1818.59	38.5697
1820.86	40.1446
1823.12	37.2587
1825.38	38.3768
1827.64	39.29
1829.89	38.3279
1832.15	38.857
1834.41	36.3429
1836.66	34.8867
1838.92	37.0141
1841.17	38.4831
1843.42	34.3745
1845.67	38.5358
1847.92	39.9271
1850.17	35.6838
1852.42	37.6189
1854.67	35.2775
1856.91	34.319
1859.16	35.2245
1861.4	36.6102
1863.64	31.9248
1865.88	34.5022
1868.12	33.9805
1870.36	34.252
1872.6	36.0875
1874.84	35.2784
1877.08	37.4928
1879.31	37.3574
1881.54	33.273
1883.78	36.7298
1886.01	37.7961
1888.24	33.7611
1890.47	31.0321
1892.7	34.3385
1894.93	33.5638
1897.16	32.6694
1899.38	32.4058
1901.61	32.8444
1903.83	33.8356
1906.05	33.3318
1908.28	36.2186
1910.5	34.4208
1912.72	29.1649
1914.94	33.9501
1917.16	31.6877
1919.37	26.9211
1921.59	33.9248
1923.8	32.2453
1926.02	29.2408
1928.23	31.3343
1930.44	36.0946
1932.65	30.8988
1934.86	29.2274
1937.07	30.024
1939.28	31.7265
1941.48	30.9315
1943.69	29.8331
1945.9	31.2004
1948.1	24.9427
1950.3	33.0674
1952.5	27.7543
1954.7	29.1812
1956.9	27.6686
1959.1	29.9706
1961.3	27.6631
1963.5	29.5388
1965.69	28.297
1967.89	27.9442
1970.08	26.7894
1972.27	29.4098
1974.46	27.9097
1976.66	26.8452
1978.84	26.7856
1981.03	27.7053
1983.22	21.9555
1985.41	24.719
1987.59	26.8436
1989.78	28.4338
1991.96	25.4952
1994.14	22.903
1996.32	22.9563
1998.51	23.5175
2000.69	25.551
2002.86	26.5939
2005.04	24.9412
2007.22	19.1015
2009.39	26.1746
2011.57	25.9743
2013.74	27.7896
2015.91	24.4345
2018.09	24.2641
2020.26	22.1679
2022.43	23.5672
2024.59	21.714
2026.76	22.4503
2028.93	21.1121
2031.09	23.8428
2033.26	22.5234
2035.42	22.554
2037.59	23.5346
2039.75	24.1595
2041.91	26.0048
2044.07	20.4008
2046.23	21.93
2048.38	23.0862
2050.54	18.8331
2052.7	20.5891
2054.85	18.4275
2057	20.113
2059.16	20.0944
2061.31	21.3972
2063.46	19.7985
2065.61	20.4398
2067.76	18.4299
2069.91	19.3422
2072.05	21.2329
2074.2	18.3856
2076.34	15.4277
2078.49	20.5208
2080.63	20.4399
2082.77	19.0425
2084.91	20.1166
2087.05	19.6169
2089.19	19.1956
2091.33	19.1745
2093.47	17.8428
2095.6	17.3601
2097.74	15.9791
2099.87	18.428
2102.01	16.6686
2104.14	18.0268
2106.27	18.9314
2108.4	18.0786
2110.53	16.032
2112.66	19.8967
2114.79	18.3874
2116.91	17.8328
2119.04	17.4623
2121.16	18.9308
2123.29	16.1497
2125.41	17.4676
2127.53	16.6989
2129.65	18.6071
2131.77	18.5146
2133.89	17.6719
2136.01	18.7632
2138.12	17.3416
2140.24	14.1431
2142.35	15.7833
2144.47	15.5763
2146.58	20.0738
2148.69	16.2649
2150.8	17.7617
2152.91	17.2515
2155.02	17.446
2157.13	18.0018
2159.24	17.9588
2161.34	16.6737
2163.45	18.0642
2165.55	16.5335
2167.66	20.1381
2169.76	27.0547
2171.86	17.0944
2173.96	15.1003
2176.06	17.8594
2178.16	20.1352
2180.26	17.9871
2182.35	20.4193
2184.45	18.8594
2186.54	20.0241
2188.64	15.7004
2190.73	16.5049
2192.82	18.2801
2194.91	16.31
2197	17.1319
2199.09	18.8097
2201.18	16.5674
2203.27	19.9616
2205.35	13.7214
2207.44	12.7139
2209.52	16.7709
2211.61	15.9299
2213.69	17.6648
2215.77	17.1565
2217.85	16.181
2219.93	14.499
2222.01	14.3432
2224.09	15.3166
2226.16	17.2963
2228.24	12.5725
2230.31	16.6382
2232.39	15.4401
2234.46	17.3362
2236.53	15.5739
2238.6	15.0401
2240.67	14.3976
2242.74	14.7604
2244.81	16.1536
2246.88	16.6348
2248.94	14.8286
2251.01	12.5526
2253.07	15.3517
2255.14	14.3168
2257.2	13.7431
2259.26	14.032
2261.32	14.3474
2263.38	13.7512
2265.44	16.7895
2267.5	16.9572
2269.56	16.0347
2271.61	15.4187
2273.67	12.2218
2275.72	14.7604
2277.78	15.2865
2279.83	13.9966
2281.88	14.4064
2283.93	12.7895
2285.98	13.8108
2288.03	13.055
2290.08	13.623
2292.12	13.4991
2294.17	14.5186
2296.21	13.8098
2298.26	14.0192
2300.3	12.9233
2302.34	17.3692
2304.38	11.3566
2306.42	11.8533
2308.46	12.7988
2310.5	16.9184
2312.54	12.4765
2314.58	11.225
2316.61	14.822
2318.65	11.834
2320.68	12.1033
2322.71	13.0362
2324.75	14.416
2326.78	13.8409
2328.81	13.7945
2330.84	12.6373
2332.86	13.4655
2334.89	14.193
2336.92	12.8818
2338.94	13.3865
2340.97	13.0258
2342.99	12.9719
2345.02	14.0155
2347.04	12.7092
2349.06	13.8436
2351.08	12.7881
2353.1	10.0244
2355.12	12.6393
2357.13	12.6254
2359.15	12.8694
2361.17	11.9476
2363.18	13.1583
2365.19	13.2452
2367.21	10.3783
2369.22	14.9247
2371.23	10.6935
2373.24	12.0728
2375.25	12.8044
2377.26	11.9008
2379.27	11.3762
2381.27	12.0443
2383.28	11.4998
2385.28	12.8811
2387.29	13.617
2389.29	13.3249
2391.29	12.85
2393.29	11.4983
2395.29	13.0817
2397.29	11.9706
2399.29	12.256
2401.29	11.58
2403.28	12.9397
2405.28	11.1681
2407.27	12.7011
2409.27	12.8971
2411.26	13.5371
2413.25	10.6415
2415.25	10.8659
2417.24	11.6685
2419.22	10.1522
2421.21	11.2017
2423.2	12.5878
2425.19	13.0764
2427.17	11.1616
2429.16	10.3573
2431.14	10.7163
2433.13	12.2861
2435.11	15.891
2437.09	11.3401
2439.07	11.2551
2441.05	8.05382
2443.03	12.9315
2445.01	13.782
2446.98	10.8899
2448.96	10.5451
2450.93	13.0944
2452.91	13.0231
2454.88	11.9858
2456.85	13.2882
2458.83	11.5136
2460.8	12.681
2462.77	11.1657
2464.74	9.60634
2466.7	13.0413
2468.67	14.3698
2470.64	12.756
2472.6	12.594
2474.57	10.5821
2476.53	10.8477
2478.49	12.1834
2480.46	10.432
2482.42	12.8789
2484.38	12.9826
2486.34	16.1777
2488.29	15.4096
2490.25	16.722
2492.21	19.144
2494.16	18.4125
2496.12	17.2676
2498.07	15.3983
2500.03	16.1866
2501.98	14.1153
2503.93	15.876
2505.88	14.1379
2507.83	18.0169
2509.78	21.646
2511.73	25.8525
2513.67	28.4125
2515.62	26.0996
2517.56	21.3692
2519.51	17.7512
2521.45	11.8746
2523.4	13.7078
2525.34	11.434
2527.28	10.103
2529.22	9.14616
2531.16	12.3041
2533.1	9.90679
2535.03	10.2888
2536.97	9.903
2538.91	11.3285
2540.84	8.10427
2542.77	11.6709
2544.71	11.5514
2546.64	14.3876
2548.57	12.2856
2550.5	12.1107
2552.43	12.1616
2554.36	10.6123
2556.29	12.3312
2558.21	12.9833
2560.14	9.02951
2562.07	13.1214
2563.99	13.0028
2565.91	13.474
2567.84	11.1431
2569.76	9.96441
2571.68	11.0322
2573.6	12.2544
2575.52	12.329
2577.44	10.9186
2579.36	13.7095
2581.27	12.515
2583.19	12.0515
2585.1	12.297
2587.02	14.1174
2588.93	12.1558
2590.84	13.8391
2592.75	14.1318
2594.67	14.1743
2596.58	9.46886
2598.48	9.77289
2600.39	14.3449
