105.443	582.961
108.528	568.827
111.612	518.156
114.693	489.053
117.774	465.061
120.854	427.112
123.931	409.112
127.007	390.149
130.081	371.325
133.155	356.71
136.226	341.162
139.296	337.19
142.364	304.525
145.431	298.02
148.496	272.823
151.559	269.67
154.622	252.656
157.682	247.212
160.741	232.525
163.799	221.336
166.855	214.901
169.91	208.617
172.963	199.609
176.014	191.437
179.064	188.881
182.113	183.368
185.16	167.95
188.205	174.31
191.249	164.156
194.291	156.468
197.333	154.144
200.372	151.929
203.409	157.222
206.446	151.146
209.48	153.78
212.514	151.115
215.546	152.897
218.577	152.765
221.605	160.858
224.633	157.768
227.658	150.345
230.682	152.542
233.706	153.674
236.727	156.171
239.747	152.624
242.765	144.354
245.782	142.775
248.797	146.711
251.811	144.217
254.823	138.2
257.834	134.252
260.844	136.285
263.852	142.074
266.858	144.485
269.863	143.972
272.866	147.512
275.868	167.639
278.869	178.868
281.867	203.28
284.865	217.252
287.861	235.651
290.856	274.884
293.848	292.801
296.84	319.252
299.83	331.83
302.819	342.058
305.806	354.092
308.791	353.53
311.775	344.888
314.758	329.439
317.739	337.332
320.719	337.378
323.697	335.407
326.674	309.849
329.649	263.443
332.623	230.452
335.595	197.305
338.566	191.284
341.535	184.381
344.504	180.974
347.47	196.601
350.434	224.69
353.399	279.923
356.36	369.228
359.321	471.358
362.281	498.437
365.238	397.574
368.194	282.92
371.149	208.49
374.102	188.598
377.054	165.674
380.005	171.612
382.954	188.686
385.901	208.981
388.847	263.482
391.792	299.575
394.735	288.51
397.676	246.152
400.617	193.321
403.555	152.27
406.493	131.055
409.429	116.954
412.363	110.267
415.297	104.399
418.228	99.5687
421.158	99.8428
424.087	101.051
427.014	103.963
429.94	108.61
432.864	120.543
435.787	131.506
438.709	141.996
441.629	161.705
444.547	173.609
447.464	158.486
450.38	130.388
453.294	122.861
456.208	115.123
459.119	100.477
462.028	96.5276
464.938	98.482
467.844	103.439
470.75	107.658
473.654	111.987
476.557	109.054
479.459	111.982
482.359	110.961
485.257	92.8967
488.154	88.1081
491.05	90.0021
493.945	83.3762
496.838	79.2421
499.729	80.9186
502.619	76.0078
505.508	81.2995
508.395	78.6135
511.281	76.6707
514.165	74.3937
517.049	70.1168
519.93	66.3988
522.81	62.4737
525.689	62.959
528.566	66.0039
531.442	61.0799
534.317	60.1008
537.19	59.2066
540.062	56.452
542.932	55.6745
545.801	56.5586
548.669	51.0359
551.534	54.3784
554.399	56.9896
557.262	57.6947
560.124	56.1062
562.985	55.3177
565.844	53.7517
568.702	55.5939
571.558	53.9181
574.413	58.7231
577.266	51.639
580.118	51.9425
582.969	51.9948
585.819	57.452
588.666	56.1008
591.513	54.836
594.359	55.8033
597.202	51.5546
600.045	50.7589
602.885	51.429
605.725	52.44
608.564	53.6035
611.4	50.7903
614.236	51.3626
617.07	55.5908
619.902	54.194
622.734	53.0871
625.564	52.0078
628.393	54.0164
631.219	51.9339
634.045	52.9666
636.87	53.2177
639.693	57.486
642.515	55.605
645.335	54.9695
648.153	52.6061
650.971	54.585
653.787	51.69
656.602	57.346
659.416	55.4667
662.228	54.2877
665.038	54.8634
667.848	53.9339
670.655	54.0401
673.462	53.5273
676.268	52.7237
679.071	52.0922
681.874	54.7075
684.675	57.0738
687.475	56.3086
690.273	58.4205
693.07	54.1891
695.866	59.6357
698.66	58.2395
701.453	57.1871
704.244	60.7475
707.035	67.797
709.824	69.3303
712.612	70.3079
715.397	77.6795
718.183	87.2692
720.966	90.5719
723.748	95.7049
726.529	98.4168
729.308	102.086
732.087	103.343
734.863	122.333
737.639	120.513
740.413	120.128
743.186	116.791
745.956	116.468
748.726	114.347
751.495	115.311
754.262	107.502
757.029	94.3966
759.793	88.5009
762.557	88.2515
765.318	91.5094
768.079	94.7547
770.839	89.3073
773.597	94.5692
776.353	94.7479
779.109	104.414
781.862	110.21
784.615	123.343
787.366	122.04
790.116	121.262
792.865	128.53
795.612	157.428
798.358	199.422
801.102	238.071
803.846	248.074
806.588	260.112
809.329	295.226
812.068	321.617
814.806	360.002
817.542	322.528
820.278	264.518
823.012	192.137
825.744	145.866
828.476	123.55
831.206	110.684
833.935	108.197
836.662	104.536
839.388	106.032
842.113	110.823
844.836	120.504
847.558	132.963
850.279	167.92
852.999	221.712
855.718	292.177
858.435	370.75
861.15	391.964
863.865	330.791
866.577	245.954
869.289	203.074
871.999	193.782
874.709	221.094
877.417	287.775
880.123	385.727
882.828	435.214
885.531	446.838
888.234	418.363
890.936	383.97
893.635	323.617
896.334	249.141
899.031	202.128
901.728	163.377
904.422	133.694
907.116	110.09
909.808	95.4322
912.499	89.0074
915.188	86.7885
917.877	83.9915
920.563	80.7527
923.249	77.3057
925.934	73.9488
928.617	78.2679
931.298	79.0811
933.979	82.4141
936.658	92.8759
939.336	100.305
942.013	104.178
944.688	108.599
947.362	97.805
950.035	93.605
952.706	89.9181
955.377	92.2744
958.045	88.4197
960.714	97.8857
963.38	105.443
966.044	107.558
968.709	98.9144
971.372	93.5119
974.033	87.7117
976.693	81.5754
979.351	83.3713
982.009	83.115
984.665	98.8934
987.32	109.596
989.974	128.09
992.626	141.84
995.277	166.428
997.926	175.914
1000.57	159.527
1003.22	155.841
1005.87	148.399
1008.51	134.986
1011.16	121.707
1013.8	114.214
1016.44	117.44
1019.08	132.428
1021.72	152.891
1024.35	194.819
1026.99	251.96
1029.63	295.491
1032.26	301.201
1034.89	263.717
1037.52	205.07
1040.15	176.639
1042.78	170.098
1045.41	170.468
1048.03	181.486
1050.66	192.443
1053.28	199.843
1055.9	219.594
1058.52	223.339
1061.14	217.911
1063.76	216.096
1066.38	227.107
1068.99	245.854
1071.61	263.308
1074.22	255.041
1076.83	228.94
1079.44	197.33
1082.05	160.682
1084.66	140.641
1087.27	120.964
1089.87	108.257
1092.48	96.8103
1095.08	95.5882
1097.68	89.9697
1100.29	84.4672
1102.88	84.389
1105.48	84.4399
1108.08	89.406
1110.68	86.7103
1113.27	90.1742
1115.86	93.7905
1118.46	108.894
1121.05	117.543
1123.64	132.942
1126.23	170.881
1128.81	202.47
1131.4	232.956
1133.98	229.626
1136.57	198.348
1139.15	152.42
1141.73	125.39
1144.31	109.717
1146.89	110.705
1149.47	108.051
1152.04	112.724
1154.62	119.794
1157.19	122.089
1159.76	108.181
1162.33	106.426
1164.9	89.6238
1167.47	83.4314
1170.04	78.2666
1172.61	76.6622
1175.17	72.1168
1177.74	72.9344
1180.3	67.296
1182.86	72.5361
1185.42	70.6363
1187.98	71.3625
1190.54	63.2853
1193.09	73.1479
1195.65	70.8518
1198.2	69.6134
1200.76	70.3028
1203.31	69.0292
1205.86	73.7319
1208.41	74.6993
1210.96	78.4501
1213.5	84.7817
1216.05	79.8759
1218.59	80.2772
1221.14	75.7985
1223.68	69.9578
1226.22	77.7475
1228.76	78.1632
1231.3	83.2209
1233.84	85.6263
1236.37	91.9453
1238.91	90.7476
1241.44	94.3556
1243.97	96.0773
1246.5	102.134
1249.03	96.1832
1251.56	95.1229
1254.09	97.6035
1256.62	94.9418
1259.14	98.347
1261.67	106.381
1264.19	118.286
1266.71	127.257
1269.23	135.954
1271.75	138.97
1274.27	145.818
1276.78	155.633
1279.3	166.387
1281.81	179.558
1284.33	194.209
1286.84	223.123
1289.35	241.638
1291.86	279.747
1294.37	298.133
1296.88	303.717
1299.38	284.155
1301.89	256.477
1304.39	220.129
1306.89	195.576
1309.4	172.029
1311.9	155.765
1314.4	143.783
1316.89	134.337
1319.39	125.823
1321.89	125.114
1324.38	124.335
1326.87	120.077
1329.37	125.692
1331.86	129.19
1334.35	127.596
1336.83	129.108
1339.32	129.614
1341.81	126.662
1344.29	115.648
1346.78	119.672
1349.26	121.898
1351.74	120.359
1354.22	129.392
1356.7	126.563
1359.18	128.964
1361.65	124.452
1364.13	121.158
1366.6	118.909
1369.08	121.843
1371.55	123.133
1374.02	128.432
1376.49	128.37
1378.96	120.31
1381.43	119.685
1383.89	113.45
1386.36	129.674
1388.82	127.074
1391.28	122.966
1393.75	126.902
1396.21	128.992
1398.67	133.417
1401.12	133.981
1403.58	135.794
1406.04	148.984
1408.49	145.224
1410.95	159.396
1413.4	173.875
1415.85	198.575
1418.3	209.551
1420.75	238.854
1423.2	277.648
1425.64	327.776
1428.09	378.029
1430.53	400.924
1432.97	399.443
1435.42	423.429
1437.86	435.762
1440.3	463.469
1442.74	463.572
1445.17	477.617
1447.61	475.683
1450.05	465.938
1452.48	447.689
1454.91	423.707
1457.34	382.203
1459.77	323.023
1462.2	289.97
1464.63	261.518
1467.06	232.359
1469.48	209.388
1471.91	194.646
1474.33	177.515
1476.76	169.647
1479.18	154.705
1481.6	151.785
1484.02	146.004
1486.44	136.72
1488.85	127.212
1491.27	127.834
1493.68	128.459
1496.1	120.07
1498.51	113.449
1500.92	110.775
1503.33	106.536
1505.74	97.899
1508.15	100.903
1510.55	102.027
1512.96	101.144
1515.36	94.2728
1517.77	97.3105
1520.17	96.8586
1522.57	91.0942
1524.97	89.1965
1527.37	88.7852
1529.77	90.9519
1532.16	92.882
1534.56	82.5044
1536.95	81.4113
1539.35	86.4918
1541.74	87.4233
1544.13	87.8158
1546.52	80.1884
1548.91	83.6692
1551.3	86.3889
1553.68	82.2515
1556.07	83.8356
1558.45	79.3383
1560.84	76.2786
1563.22	81.8222
1565.6	81.1744
1567.98	78.2806
1570.36	83.0242
1572.74	76.4499
1575.11	76.495
1577.49	76.957
1579.86	75.5526
1582.24	77.7167
1584.61	75.7137
1586.98	76.3145
1589.35	76.3813
1591.72	75.9237
1594.08	69.7015
1596.45	74.734
1598.82	78.6139
1601.18	69.4517
1603.54	72.0183
1605.91	74.7223
1608.27	70.8537
1610.63	71.6745
1612.99	66.5252
1615.34	67.3813
1617.7	71.4288
1620.06	69.2347
1622.41	68.3894
1624.76	67.9324
1627.12	70.8661
1629.47	65.2872
1631.82	65.3028
1634.17	65.6407
1636.51	67.57
1638.86	64.3497
1641.21	64.9677
1643.55	64.8557
1645.9	66.6029
1648.24	64.0323
1650.58	67.1761
1652.92	65.7521
1655.26	66.2649
1657.6	58.7049
1659.93	61.7049
1662.27	63.5298
1664.6	64.339
1666.94	66.3328
1669.27	57.3883
1671.6	59.6159
1673.93	59.6994
1676.26	62.4413
1678.59	59.2923
1680.92	59.3184
1683.24	62.0401
1685.57	60.2522
1687.89	62.2002
1690.22	63.3197
1692.54	61.7299
1694.86	61.9788
1697.18	60.5905
1699.5	55.3556
1701.81	59.8007
1704.13	55.0348
1706.45	57.7726
1708.76	60.0205
1711.07	53.0473
1713.38	56.1967
1715.7	49.065
1718.01	53.0346
1720.31	52.8896
1722.62	54.232
1724.93	52.6029
1727.24	48.9389
1729.54	53.0072
1731.84	52.9954
1734.15	52.9214
1736.45	47.4823
1738.75	50.7626
1741.05	52.5044
1743.35	53.553
1745.64	51.9916
1747.94	47.4472
1750.23	50.7441
1752.53	45.7608
1754.82	50.6863
1757.11	52.3274
1759.4	52.1389
1761.69	49.6059
1763.98	45.3145
1766.27	47.8695
1768.56	48.6293
1770.84	42.7068
1773.13	48.3354
1775.41	43.5204
1777.69	46.1542
1779.97	44.4693
1782.25	45.2033
1784.53	46.7299
1786.81	45.136
1789.09	44.8299
1791.36	44.2116
1793.64	42.6061
1795.91	45.0707
1798.18	44.1132
1800.46	42.4974
1802.73	42.4771
1805	42.9717
1807.27	41.4748
1809.53	45.1614
1811.8	41.5576
1814.07	43.6363
1816.33	38.3832
1818.59	40.1513
1820.86	45.5563
1823.12	46.6385
1825.38	43.0228
1827.64	40.1053
1829.89	39.5853
1832.15	39.2679
1834.41	38.3582
1836.66	40.3628
1838.92	41.9811
1841.17	38.3511
1843.42	36.6478
1845.67	37.2143
1847.92	39.0115
1850.17	38.4824
1852.42	35.0346
1854.67	38.639
1856.91	39.974
1859.16	38.0777
1861.4	40.4344
1863.64	37.9304
1865.88	38.1471
1868.12	37.3255
1870.36	36.4824
1872.6	38.0278
1874.84	37.3985
1877.08	36.0076
1879.31	36.5719
1881.54	36.696
1883.78	39.0904
1886.01	37.0678
1888.24	37.4392
1890.47	33.3898
1892.7	36.0178
1894.93	34.0669
1897.16	35.2421
1899.38	39.8612
1901.61	36.6757
1903.83	36.9806
1906.05	35.866
1908.28	38.015
1910.5	35.8837
1912.72	34.7368
1914.94	36.5978
1917.16	34.6817
1919.37	36.0536
1921.59	32.6622
1923.8	33.5238
1926.02	35.1086
1928.23	32.5902
1930.44	32.7321
1932.65	30.0834
1934.86	32.9324
1937.07	34.2786
1939.28	32.0258
1941.48	33.5367
1943.69	36.452
1945.9	34.9899
1948.1	30.8857
1950.3	30.1989
1952.5	32.6513
1954.7	33.4293
1956.9	33.6674
1959.1	31.3104
1961.3	27.2414
1963.5	30.0584
1965.69	29.855
1967.89	29.4846
1970.08	31.4054
1972.27	28.6791
1974.46	29.717
1976.66	30.9754
1978.84	29.3076
1981.03	31.9578
1983.22	31.2963
1985.41	28.0689
1987.59	28.8863
1989.78	28.8228
1991.96	27.3803
1994.14	27.366
1996.32	29.6814
1998.51	28.3567
2000.69	26.065
2002.86	25.2853
2005.04	26.3549
2007.22	25.4491
2009.39	28.3073
2011.57	25.4341
2013.74	25.347
2015.91	27.498
2018.09	26.71
2020.26	25.5393
2022.43	23.696
2024.59	24.3306
2026.76	26.3178
2028.93	23.9956
2031.09	26.1011
2033.26	21.4768
2035.42	27.1545
2037.59	25.0989
2039.75	29.6905
2041.91	27.5511
2044.07	23.714
2046.23	24.6364
2048.38	22.3682
2050.54	26.1514
2052.7	23.3985
2054.85	21.7628
2057	21.1819
2059.16	25.5361
2061.31	20.7405
2063.46	22.753
2065.61	19.8717
2067.76	22.7222
2069.91	21.3497
2072.05	23.0327
2074.2	23.4344
2076.34	24.4142
2078.49	24.3458
2080.63	23.9661
2082.77	21.1661
2084.91	22.4622
2087.05	20.2298
2089.19	23.8695
2091.33	22.312
2093.47	18.3633
2095.6	21.8158
2097.74	19.6478
2099.87	22.883
2102.01	21.3411
2104.14	19.2177
2106.27	22.2365
2108.4	20.597
2110.53	19.18
2112.66	22.0741
2114.79	18.9271
2116.91	19.2702
2119.04	20.2874
2121.16	23.8945
2123.29	20.7602
2125.41	19.9188
2127.53	19.2832
2129.65	23.2721
2131.77	19.3321
2133.89	23.2002
2136.01	19.3659
2138.12	18.7479
2140.24	18.5811
2142.35	20.5612
2144.47	20.7521
2146.58	20.18
2148.69	20.4989
2150.8	19.4162
2152.91	19.4395
2155.02	19.932
2157.13	22.8668
2159.24	20.2728
2161.34	18.8283
2163.45	20.4724
2165.55	18.2786
2167.66	20.7622
2169.76	31.9829
2171.86	20.0633
2173.96	19.1141
2176.06	21.8212
2178.16	18.9746
2180.26	21.3409
2182.35	19.4939
2184.45	16.87
2186.54	20.488
2188.64	18.0891
2190.73	17.2624
2192.82	19.2121
2194.91	18.621
2197	19.8278
2199.09	20.4341
2201.18	18.232
2203.27	18.605
2205.35	20.4572
2207.44	18.3051
2209.52	21.7929
2211.61	17.3506
2213.69	19.9929
2215.77	17.5595
2217.85	18.3736
2219.93	18.3943
2222.01	19.2298
2224.09	20.5217
2226.16	16.9167
2228.24	18.3426
2230.31	17.3051
2232.39	18.8228
2234.46	15.0346
2236.53	17.7551
2238.6	17.3451
2240.67	17.1487
2242.74	20.3832
2244.81	18.038
2246.88	17.136
2248.94	15.1404
2251.01	16.3009
2253.07	17.9779
2255.14	17.9661
2257.2	16.1457
2259.26	16.8126
2261.32	18.9114
2263.38	17.6111
2265.44	18.7103
2267.5	18.1885
2269.56	16.2339
2271.61	14.2605
2273.67	18.4074
2275.72	14.7015
2277.78	18.1101
2279.83	17.4141
2281.88	17.5754
2283.93	17.0118
2285.98	16.3803
2288.03	16.8214
2290.08	18.0654
2292.12	14.3184
2294.17	16.321
2296.21	14.9362
2298.26	18.3734
2300.3	14.2427
2302.34	18.4071
2304.38	18.714
2306.42	15.6365
2308.46	14.9167
2310.5	15.6865
2312.54	16.7815
2314.58	17.4322
2316.61	14.2798
2318.65	14.1158
2320.68	16.0571
2322.71	16.7134
2324.75	15.8277
2326.78	17.2814
2328.81	16.8211
2330.84	15.2943
2332.86	16.5847
2334.89	15.7249
2336.92	14.7278
2338.94	14.5561
2340.97	15.0854
2342.99	15.8805
2345.02	17.8739
2347.04	14.9434
2349.06	15.5634
2351.08	14.4924
2353.1	14.7203
2355.12	12.612
2357.13	14.3633
2359.15	15.429
2361.17	16.072
2363.18	15.1849
2365.19	17.4623
2367.21	16.1526
2369.22	15.3678
2371.23	13.2516
2373.24	14.4518
2375.25	13.1187
2377.26	16.8908
2379.27	15.7374
2381.27	15.2855
2383.28	14.2191
2385.28	17.6387
2387.29	16.6865
2389.29	18.1546
2391.29	14.9234
2393.29	14.3904
2395.29	13.1511
2397.29	12.7875
2399.29	15.5524
2401.29	16.4431
2403.28	13.5094
2405.28	14.1383
2407.27	15.6615
2409.27	15.8143
2411.26	12.9095
2413.25	15.6035
2415.25	14.2157
2417.24	18.0199
2419.22	16.1511
2421.21	14.234
2423.2	13.9811
2425.19	16.3057
2427.17	13.8947
2429.16	13.561
2431.14	13.6838
2433.13	14.2772
2435.11	16.2428
2437.09	14.2624
2439.07	14.7551
2441.05	13.8593
2443.03	14.5153
2445.01	15.5401
2446.98	15.048
2448.96	16.5811
2450.93	14.9877
2452.91	14.4089
2454.88	16.1248
2456.85	11.621
2458.83	13.0603
2460.8	16.1617
2462.77	17.0556
2464.74	14.8653
2466.7	17.0095
2468.67	16.891
2470.64	15.1965
2472.6	13.7916
2474.57	13.1687
2476.53	13.6238
2478.49	14.9694
2480.46	13.2999
2482.42	14.1165
2484.38	15.8908
2486.34	18.7203
2488.29	17.8314
2490.25	19.6567
2492.21	22.7159
2494.16	22.1008
2496.12	20.6725
2498.07	20.2471
2500.03	15.7746
2501.98	14.4652
2503.93	17.4194
2505.88	16.7746
2507.83	21.6085
2509.78	24.3863
2511.73	31.6263
2513.67	34.0054
2515.62	30.3889
2517.56	25.1132
2519.51	21.5789
2521.45	16.0975
2523.4	14.6944
2525.34	15.2143
2527.28	14.3407
2529.22	13.3151
2531.16	13.7496
2533.1	13.2428
2535.03	12.7815
2536.97	13.1229
2538.91	13.1946
2540.84	14.3834
2542.77	14.026
2544.71	15.074
2546.64	14.3139
2548.57	15.8537
2550.5	11.5295
2552.43	14.1289
2554.36	11.9824
2556.29	11.8104
2558.21	13.9181
2560.14	14.6478
2562.07	13.8984
2563.99	14.1493
2565.91	13.9147
2567.84	17.1405
2569.76	12.4135
2571.68	15.7589
2573.6	15.9806
2575.52	16.4112
2577.44	17.0078
2579.36	14.217
2581.27	16.4693
2583.19	13.8967
2585.1	16.9773
2587.02	17.2028
2588.93	15.2692
2590.84	16.2347
2592.75	12.4142
2594.67	16.4189
2596.58	15.4667
2598.48	16.5165
2600.39	15.0401
