105.443	602.433
108.528	555.515
111.612	519.923
114.693	503.616
117.774	464.705
120.854	441.832
123.931	424.594
127.007	396.97
130.081	382.416
133.155	364.394
136.226	349.294
139.296	332.97
142.364	317.367
145.431	299.836
148.496	284.297
151.559	267.081
154.622	264.237
157.682	249.332
160.741	235.373
163.799	221.416
166.855	219.245
169.91	208.701
172.963	207.737
176.014	191.578
179.064	190.086
182.113	172.256
185.16	167.588
188.205	164.165
191.249	158.431
194.291	161.653
197.333	162.305
200.372	164.37
203.409	163.676
206.446	154.493
209.48	159.631
212.514	156.162
215.546	156.437
218.577	151.111
221.605	158.795
224.633	159.927
227.658	157.885
230.682	156.929
233.706	160.596
236.727	159.837
239.747	148.503
242.765	145.012
245.782	150.363
248.797	150.729
251.811	143.32
254.823	140.134
257.834	144.635
260.844	139.818
263.852	141.062
266.858	138.28
269.863	139.568
272.866	150.92
275.868	163.665
278.869	185.392
281.867	200.441
284.865	218.552
287.861	248.232
290.856	276.189
293.848	295.2
296.84	325.262
299.83	322.929
302.819	336.81
305.806	353.189
308.791	358.454
311.775	355.901
314.758	337.548
317.739	337.672
320.719	351.617
323.697	336.128
326.674	308.934
329.649	265.286
332.623	235.849
335.595	206.601
338.566	188.478
341.535	187.055
344.504	182.663
347.47	192.767
350.434	221.393
353.399	273.077
356.36	365.616
359.321	476.768
362.281	496.394
365.238	396.084
368.194	286.163
371.149	216.998
374.102	179.285
377.054	173.523
380.005	165.414
382.954	193.858
385.901	216.921
388.847	262.896
391.792	299.755
394.735	293.103
397.676	234.929
400.617	188.974
403.555	158.056
406.493	129.319
409.429	122.778
412.363	111.144
415.297	112.523
418.228	103.212
421.158	102.193
424.087	106.121
427.014	110.17
429.94	107.19
432.864	122.831
435.787	133.075
438.709	149.48
441.629	158.545
444.547	176.778
447.464	162.524
450.38	138.835
453.294	126.505
456.208	105.861
459.119	105.172
462.028	99.6389
464.938	102.532
467.844	107.507
470.75	108.198
473.654	113.674
476.557	115.303
479.459	108.877
482.359	105.189
485.257	99.5612
488.154	93.0791
491.05	86.7744
493.945	83.4997
496.838	80.3861
499.729	75.3236
502.619	77.8586
505.508	78.4465
508.395	81.4124
511.281	75.3283
514.165	70.7668
517.049	72.2806
519.93	69.601
522.81	66.2281
525.689	64.8235
528.566	64.7046
531.442	64.0818
534.317	60.2831
537.19	59.1207
540.062	56.1223
542.932	58.0579
545.801	55.5888
548.669	54.4181
551.534	56.0293
554.399	55.5267
557.262	54.7971
560.124	53.3477
562.985	60.0018
565.844	56.5267
568.702	55.0089
571.558	60.9865
574.413	53.651
577.266	57.8945
580.118	55.6655
582.969	55.0816
585.819	54.1892
588.666	55.414
591.513	57.0715
594.359	52.3931
597.202	54.9377
600.045	53.1304
602.885	53.8139
605.725	51.601
608.564	51.8094
611.4	54.5528
614.236	55.1651
617.07	55.1736
619.902	50.633
622.734	56.2293
625.564	52.7653
628.393	55.3822
631.219	54.9604
634.045	54.1248
636.87	55.7121
639.693	52.0808
642.515	55.0343
645.335	59.7005
648.153	59.3422
650.971	54.7458
653.787	55.4843
656.602	54.3925
659.416	57.195
662.228	55.7776
665.038	50.1507
667.848	56.7759
670.655	51.4581
673.462	50.2806
676.268	50.7912
679.071	51.1452
681.874	53.4899
684.675	55.5973
687.475	54.9493
690.273	56.5873
693.07	57.6803
695.866	57.1093
698.66	59.5905
701.453	62.2979
704.244	64.9759
707.035	65.2376
709.824	68.9759
712.612	73.2359
715.397	75.1983
718.183	87.2097
720.966	91.9057
723.748	90.1811
726.529	91.9859
729.308	97.0127
732.087	104.904
734.863	117.616
737.639	123.062
740.413	119.587
743.186	113.613
745.956	115.531
748.726	115.591
751.495	112.636
754.262	103.264
757.029	98.432
759.793	90.2561
762.557	93.1693
765.318	90.0137
768.079	93.4204
770.839	98.5857
773.597	93.0831
776.353	95.8567
779.109	104.388
781.862	113.464
784.615	116.643
787.366	122.515
790.116	123.408
792.865	132.897
795.612	155.499
798.358	192.531
801.102	243.166
803.846	251.055
806.588	267.699
809.329	283.255
812.068	327.548
814.806	355.414
817.542	327.464
820.278	254.412
823.012	202.522
825.744	146.367
828.476	125.166
831.206	116.604
833.935	105.394
836.662	101.945
839.388	99.388
842.113	111.679
844.836	113.812
847.558	130.69
850.279	156.92
852.999	210.943
855.718	294.503
858.435	371.663
861.15	393.928
863.865	329.616
866.577	252.085
869.289	204.017
871.999	194.522
874.709	222.565
877.417	289.718
880.123	384.303
882.828	436.172
885.531	433.677
888.234	421.321
890.936	394.873
893.635	318.023
896.334	250.411
899.031	195.723
901.728	165.148
904.422	126.172
907.116	113.414
909.808	97.0584
912.499	92.3433
915.188	85.1271
917.877	81.5539
920.563	80.5421
923.249	75.8419
925.934	75.012
928.617	77.3199
931.298	81.4411
933.979	89.5228
936.658	92.2606
939.336	97.6764
942.013	99.902
944.688	98.8814
947.362	101.881
950.035	92.9464
952.706	88.6569
955.377	91.1977
958.045	94.0781
960.714	99.9477
963.38	103.152
966.044	107.674
968.709	102.104
971.372	93.4176
974.033	83.2854
976.693	80.4395
979.351	85.3072
982.009	89.4983
984.665	95.2299
987.32	103.903
989.974	126.37
992.626	146.365
995.277	160.143
997.926	167.611
1000.57	161.481
1003.22	155.64
1005.87	146.027
1008.51	136.749
1011.16	121.703
1013.8	116.258
1016.44	122.587
1019.08	128.343
1021.72	146.505
1024.35	191.189
1026.99	247.454
1029.63	297.82
1032.26	304.873
1034.89	253.749
1037.52	207.392
1040.15	168.68
1042.78	165.014
1045.41	167.568
1048.03	180.994
1050.66	187.085
1053.28	197.484
1055.9	221.478
1058.52	227.095
1061.14	215.81
1063.76	215.698
1066.38	220.505
1068.99	246.409
1071.61	258.119
1074.22	263.552
1076.83	221.219
1079.44	197.594
1082.05	161.396
1084.66	135.78
1087.27	116.949
1089.87	112.344
1092.48	98.4117
1095.08	92.1177
1097.68	92.2147
1100.29	88.6355
1102.88	86.6573
1105.48	86.3028
1108.08	86.9495
1110.68	88.6112
1113.27	90.1656
1115.86	94.2824
1118.46	104.969
1121.05	119.03
1123.64	132.923
1126.23	176.323
1128.81	207.394
1131.4	235.908
1133.98	231.276
1136.57	201.06
1139.15	147.563
1141.73	126.302
1144.31	107.341
1146.89	108.014
1149.47	106.764
1152.04	115.852
1154.62	124.153
1157.19	123.481
1159.76	110.899
1162.33	101.147
1164.9	92.3072
1167.47	87.0339
1170.04	77.8814
1172.61	75.4779
1175.17	69.8555
1177.74	69.2763
1180.3	69.4613
1182.86	69.341
1185.42	67.9473
1187.98	63.3263
1190.54	68.2548
1193.09	69.3668
1195.65	69.2943
1198.2	68.108
1200.76	65.3406
1203.31	69.2129
1205.86	73.0382
1208.41	75.2866
1210.96	80.9514
1213.5	78.503
1216.05	79.4204
1218.59	73.0847
1221.14	76.2833
1223.68	79.811
1226.22	75.3692
1228.76	78.9637
1231.3	76.5665
1233.84	85.5065
1236.37	87.0579
1238.91	94.5539
1241.44	97.3088
1243.97	96.5072
1246.5	88.5923
1249.03	91.7678
1251.56	90.5938
1254.09	94.8528
1256.62	95.3942
1259.14	102.173
1261.67	108.418
1264.19	115.143
1266.71	120.394
1269.23	127.864
1271.75	135.394
1274.27	148.258
1276.78	160.081
1279.3	167.054
1281.81	180.588
1284.33	198.728
1286.84	213.949
1289.35	248.618
1291.86	277.696
1294.37	298.172
1296.88	308.392
1299.38	276.479
1301.89	245.309
1304.39	224.416
1306.89	188.97
1309.4	171.012
1311.9	154.036
1314.4	137.118
1316.89	140.92
1319.39	126.016
1321.89	123.792
1324.38	116.366
1326.87	128.134
1329.37	128.73
1331.86	125.326
1334.35	135.416
1336.83	127.04
1339.32	121.304
1341.81	122.652
1344.29	114.239
1346.78	116.394
1349.26	116.64
1351.74	125.011
1354.22	127.753
1356.7	130.634
1359.18	129.06
1361.65	127.727
1364.13	121.324
1366.6	122.441
1369.08	126.435
1371.55	124.385
1374.02	121.659
1376.49	119.059
1378.96	116.938
1381.43	125.435
1383.89	119.461
1386.36	120.389
1388.82	127.081
1391.28	125.371
1393.75	126.818
1396.21	129.283
1398.67	130.639
1401.12	133.925
1403.58	144.987
1406.04	143.147
1408.49	154.302
1410.95	159.219
1413.4	169.524
1415.85	184.082
1418.3	210.017
1420.75	237.394
1423.2	278.945
1425.64	328.235
1428.09	369.747
1430.53	387.97
1432.97	410.369
1435.42	430.701
1437.86	449.147
1440.3	454.432
1442.74	474.773
1445.17	473.431
1447.61	485.689
1450.05	478.768
1452.48	451.18
1454.91	418.712
1457.34	377.906
1459.77	336.882
1462.2	293.487
1464.63	273.555
1467.06	240.904
1469.48	213.297
1471.91	194.549
1474.33	179.034
1476.76	173.452
1479.18	154.122
1481.6	150.504
1484.02	144.834
1486.44	133.505
1488.85	126.257
1491.27	128.012
1493.68	118.55
1496.1	111.215
1498.51	106.79
1500.92	107.324
1503.33	107.654
1505.74	102.523
1508.15	95.6176
1510.55	97.0961
1512.96	99.6187
1515.36	97.21
1517.77	96.7217
1520.17	92.5317
1522.57	91.0139
1524.97	92.087
1527.37	89.1666
1529.77	89.4596
1532.16	89.9759
1534.56	88.0137
1536.95	86.9925
1539.35	88.1254
1541.74	84.1752
1544.13	82.5612
1546.52	80.4776
1548.91	84.3729
1551.3	82.4124
1553.68	81.3944
1556.07	78.8739
1558.45	80.6633
1560.84	75.7489
1563.22	79.7742
1565.6	74.6791
1567.98	77.5649
1570.36	80.414
1572.74	72.1507
1575.11	73.6603
1577.49	76.6139
1579.86	73.3933
1582.24	75.6508
1584.61	73.5622
1586.98	74.3495
1589.35	73.1917
1591.72	76.713
1594.08	72.9429
1596.45	74.6999
1598.82	75.1182
1601.18	75.3715
1603.54	73.3298
1605.91	69.6037
1608.27	71.9966
1610.63	68.6866
1612.99	66.7516
1615.34	66.1043
1617.7	65.8754
1620.06	72.8094
1622.41	68.5065
1624.76	67.5194
1627.12	70.767
1629.47	68.9504
1631.82	66.262
1634.17	66.422
1636.51	68.1216
1638.86	64.7483
1641.21	65.5278
1643.55	69.3095
1645.9	63.3429
1648.24	67.9057
1650.58	65.4142
1652.92	66.1429
1655.26	63.5635
1657.6	63.6999
1659.93	64.4843
1662.27	63.2113
1664.6	63.172
1666.94	65.5419
1669.27	67.6239
1671.6	62.2588
1673.93	58.4767
1676.26	59.6573
1678.59	61.0579
1680.92	59.3485
1683.24	61.6166
1685.57	62.2326
1687.89	55.1651
1690.22	59.9734
1692.54	59.0598
1694.86	58.8822
1697.18	60.1207
1699.5	62.1475
1701.81	56.7761
1704.13	61.0538
1706.45	55.2581
1708.76	62.3056
1711.07	53.8796
1713.38	54.2189
1715.7	53.6372
1718.01	55.4367
1720.31	53.1279
1722.62	53.1516
1724.93	50.1732
1727.24	56.6567
1729.54	52.633
1731.84	49.9319
1734.15	49.9184
1736.45	52.9489
1738.75	50.9084
1741.05	52.3107
1743.35	50.5923
1745.64	51.9893
1747.94	46.9211
1750.23	51.9205
1752.53	47.0977
1754.82	46.5896
1757.11	48.172
1759.4	45.6866
1761.69	49.644
1763.98	47.0609
1766.27	46.8426
1768.56	48.1497
1770.84	49.6892
1773.13	44.1923
1775.41	47.1738
1777.69	45.5935
1779.97	42.4367
1782.25	43.1998
1784.53	45.664
1786.81	47.1002
1789.09	43.2365
1791.36	45.723
1793.64	45.4588
1795.91	41.7898
1798.18	40.8582
1800.46	45.8562
1802.73	41.307
1805	44.6197
1807.27	42.5506
1809.53	45.0405
1811.8	44.8409
1814.07	43.3975
1816.33	39.5867
1818.59	40.2833
1820.86	41.9057
1823.12	42.8992
1825.38	40.8141
1827.64	39.9123
1829.89	43.2083
1832.15	38.4571
1834.41	41.3931
1836.66	37.9221
1838.92	40.3045
1841.17	39.1436
1843.42	35.5883
1845.67	40.3184
1847.92	37.8391
1850.17	36.7855
1852.42	36.9221
1854.67	38.8096
1856.91	37.4424
1859.16	37.8121
1861.4	37.9516
1863.64	36.2538
1865.88	36.723
1868.12	41.3109
1870.36	38.3628
1872.6	35.6094
1874.84	35.5456
1877.08	37.3963
1879.31	39.6515
1881.54	38.6508
1883.78	40.8143
1886.01	39.8615
1888.24	39.1965
1890.47	38.0611
1892.7	35.8174
1894.93	37.3194
1897.16	37.2554
1899.38	35.145
1901.61	33.947
1903.83	32.3265
1906.05	34.9285
1908.28	34.8887
1910.5	35.1209
1912.72	34.2808
1914.94	36.4494
1917.16	33.5038
1919.37	36.5667
1921.59	35.8992
1923.8	35.753
1926.02	32.6364
1928.23	32.5749
1930.44	33.1036
1932.65	30.5049
1934.86	32.7155
1937.07	34.4694
1939.28	31.5724
1941.48	32.5479
1943.69	31.6623
1945.9	33.4808
1948.1	29.681
1950.3	29.9313
1952.5	31.6156
1954.7	30.4531
1956.9	31.8228
1959.1	33.4565
1961.3	31.8773
1963.5	32.6012
1965.69	28.8355
1967.89	31.5851
1970.08	30.1034
1972.27	28.4565
1974.46	31.9759
1976.66	29.1852
1978.84	27.801
1981.03	29.6337
1983.22	22.5954
1985.41	27.6526
1987.59	29.7867
1989.78	29.4781
1991.96	29.304
1994.14	26.5367
1996.32	27.0812
1998.51	26.7537
2000.69	26.8644
2002.86	28.9434
2005.04	29.1697
2007.22	27.9668
2009.39	27.8648
2011.57	25.7915
2013.74	25.0311
2015.91	26.3942
2018.09	24.4858
2020.26	24.6739
2022.43	24.3938
2024.59	25.1443
2026.76	24.0716
2028.93	25.1445
2031.09	28.4588
2033.26	25.3713
2035.42	25.6147
2037.59	25.5047
2039.75	27.4579
2041.91	25.4165
2044.07	25.8553
2046.23	24.2374
2048.38	23.7796
2050.54	23.7039
2052.7	23.3053
2054.85	22.6119
2057	20.7619
2059.16	23.0816
2061.31	23.3917
2063.46	22.594
2065.61	23.5233
2067.76	21.6573
2069.91	23.5278
2072.05	21.5219
2074.2	20.3522
2076.34	19.6794
2078.49	22.3056
2080.63	22.1944
2082.77	23.82
2084.91	22.2611
2087.05	21.9739
2089.19	22.4814
2091.33	20.6978
2093.47	21.2343
2095.6	23.1475
2097.74	19.1691
2099.87	18.8611
2102.01	23.1186
2104.14	19.8648
2106.27	19.9709
2108.4	23.3794
2110.53	20.79
2112.66	19.4776
2114.79	22.9868
2116.91	21.6332
2119.04	21.1047
2121.16	21.6164
2123.29	21.5008
2125.41	21.0154
2127.53	21.4958
2129.65	18.7292
2131.77	19.1491
2133.89	22.8569
2136.01	19.0781
2138.12	18.8989
2140.24	17.503
2142.35	18.5044
2144.47	22.4353
2146.58	20.467
2148.69	19.4606
2150.8	20.7155
2152.91	14.7485
2155.02	19.1897
2157.13	21.9023
2159.24	21.5815
2161.34	21.5481
2163.45	19.3184
2165.55	18.1715
2167.66	24.6426
2169.76	32.6197
2171.86	19.5952
2173.96	22.1068
2176.06	21.0168
2178.16	18.9701
2180.26	21.1641
2182.35	21.5901
2184.45	20.7018
2186.54	20.8316
2188.64	18.5526
2190.73	19.7255
2192.82	18.2795
2194.91	21.7507
2197	18.7001
2199.09	18.4631
2201.18	18.0611
2203.27	19.5749
2205.35	18.1656
2207.44	19.6569
2209.52	17.1472
2211.61	18.1477
2213.69	18.1674
2215.77	18.8553
2217.85	18.7622
2219.93	18.5053
2222.01	19.5421
2224.09	17.7703
2226.16	18.9409
2228.24	19.5406
2230.31	16.3167
2232.39	22.6372
2234.46	18.0382
2236.53	16.6999
2238.6	19.085
2240.67	19.347
2242.74	17.0679
2244.81	19.1238
2246.88	14.2374
2248.94	16.5267
2251.01	17.1934
2253.07	18.0986
2255.14	19.0168
2257.2	17.8382
2259.26	17.9705
2261.32	19.1686
2263.38	17.7537
2265.44	17.4772
2267.5	19.0818
2269.56	16.1232
2271.61	17.9434
2273.67	14.6403
2275.72	14.7265
2277.78	19.6181
2279.83	17.1095
2281.88	15.3925
2283.93	13.9923
2285.98	15.7942
2288.03	17.0461
2290.08	18.2293
2292.12	15.3599
2294.17	13.9711
2296.21	14.4963
2298.26	15.3981
2300.3	18.6798
2302.34	19.3672
2304.38	17.4151
2306.42	13.347
2308.46	18.9032
2310.5	16.701
2312.54	15.8141
2314.58	17.3944
2316.61	14.8366
2318.65	18.3913
2320.68	16.1013
2322.71	14.4997
2324.75	15.5485
2326.78	17.7389
2328.81	15.9271
2330.84	14.589
2332.86	16.1699
2334.89	15.6827
2336.92	13.1209
2338.94	16.5901
2340.97	14.3201
2342.99	15.1339
2345.02	13.8845
2347.04	16.1304
2349.06	15.4376
2351.08	15.2334
2353.1	14.616
2355.12	15.4806
2357.13	16.5888
2359.15	17.2189
2361.17	14.3092
2363.18	16.038
2365.19	16.0157
2367.21	14.3913
2369.22	14.1232
2371.23	14.9221
2373.24	13.7444
2375.25	13.4999
2377.26	13.2673
2379.27	12.9016
2381.27	14.4533
2383.28	17.0137
2385.28	13.3445
2387.29	15.9051
2389.29	15.0716
2391.29	12.2827
2393.29	13.2204
2395.29	14.8386
2397.29	12.1514
2399.29	14.0866
2401.29	15.1188
2403.28	11.087
2405.28	15.4613
2407.27	13.9043
2409.27	13.1514
2411.26	12.9516
2413.25	16.9875
2415.25	13.5873
2417.24	16.5948
2419.22	16.9775
2421.21	14.9487
2423.2	14.8372
2425.19	16.8877
2427.17	15.3438
2429.16	14.2154
2431.14	14.9205
2433.13	13.9285
2435.11	14.0748
2437.09	15.5042
2439.07	14.6355
2441.05	15.5553
2443.03	14.7653
2445.01	16.951
2446.98	14.7759
2448.96	17.3199
2450.93	14.0822
2452.91	13.437
2454.88	13.9498
2456.85	13.3062
2458.83	15.3672
2460.8	12.3006
2462.77	14.6372
2464.74	14.748
2466.7	11.5857
2468.67	19.1084
2470.64	16.7269
2472.6	11.8789
2474.57	13.1429
2476.53	12.9182
2478.49	13.7271
2480.46	14.7734
2482.42	14.8351
2484.38	15.7271
2486.34	17.0818
2488.29	17.9205
2490.25	19.2147
2492.21	19.9291
2494.16	18.3878
2496.12	19.8137
2498.07	16.2843
2500.03	15.0396
2501.98	18.5921
2503.93	18.9441
2505.88	16.873
2507.83	19.3715
2509.78	27.7848
2511.73	34.3013
2513.67	31.5267
2515.62	30.3645
2517.56	22.396
2519.51	18.5747
2521.45	12.6739
2523.4	15.6006
2525.34	12.054
2527.28	10.7937
2529.22	13.9285
2531.16	16.3522
2533.1	15.2524
2535.03	13.5005
2536.97	9.2334
2538.91	11.1666
2540.84	12.1561
2542.77	14.6567
2544.71	12.0959
2546.64	13.3651
2548.57	12.7701
2550.5	13.3938
2552.43	15.3933
2554.36	13.7796
2556.29	14.9269
2558.21	15.1656
2560.14	13.0455
2562.07	13.0872
2563.99	13.6102
2565.91	13.0334
2567.84	14.5038
2569.76	13.0135
2571.68	13.601
2573.6	14.2618
2575.52	14.6181
2577.44	12.8596
2579.36	15.012
2581.27	15.6079
2583.19	13.6069
2585.1	12.2349
2587.02	14.2554
2588.93	15.1927
2590.84	14.5219
2592.75	13.1427
2594.67	13.8723
2596.58	16.4374
2598.48	15.6044
2600.39	15.4603
