105.443	585.389
108.528	557.9
111.612	513.891
114.693	482.281
117.774	448.999
120.854	422.609
123.931	413.903
127.007	384.619
130.081	372.395
133.155	350.143
136.226	344.063
139.296	327.066
142.364	315.782
145.431	292.723
148.496	280.272
151.559	266.371
154.622	256.628
157.682	234.682
160.741	230.285
163.799	225.994
166.855	215.515
169.91	211.161
172.963	201.161
176.014	189.622
179.064	181.231
182.113	183.997
185.16	176.623
188.205	169.029
191.249	167.65
194.291	164.589
197.333	159.263
200.372	149.836
203.409	153.973
206.446	148.329
209.48	153.523
212.514	151.911
215.546	144.765
218.577	147.676
221.605	152.934
224.633	149.994
227.658	158.049
230.682	150.61
233.706	157.157
236.727	147.855
239.747	153.286
242.765	141.317
245.782	150.77
248.797	145.735
251.811	149.53
254.823	141.365
257.834	140.916
260.844	132.841
263.852	133.438
266.858	143.311
269.863	145.351
272.866	158.524
275.868	168.267
278.869	184.073
281.867	200.662
284.865	217.175
287.861	235.846
290.856	274.315
293.848	289.264
296.84	307.902
299.83	322.988
302.819	334.908
305.806	347.74
308.791	350.245
311.775	342.667
314.758	316.774
317.739	328.125
320.719	343.107
323.697	327.881
326.674	305.699
329.649	262.454
332.623	228.089
335.595	195.263
338.566	194.516
341.535	182.142
344.504	184.433
347.47	195.052
350.434	217.947
353.399	275.624
356.36	373.374
359.321	475.851
362.281	489.498
365.238	392.974
368.194	292.213
371.149	216.708
374.102	182.063
377.054	164.441
380.005	172.716
382.954	190.89
385.901	219.083
388.847	267.672
391.792	298.472
394.735	291.112
397.676	235.771
400.617	191.418
403.555	160.476
406.493	136.414
409.429	120.301
412.363	112.405
415.297	107.259
418.228	103.924
421.158	98.8851
424.087	101.436
427.014	101.339
429.94	112.499
432.864	114.902
435.787	127.94
438.709	140.561
441.629	154.204
444.547	166.911
447.464	166.436
450.38	141.981
453.294	115.112
456.208	109.175
459.119	101.08
462.028	101.085
464.938	103.47
467.844	101.86
470.75	113.013
473.654	111.316
476.557	110.242
479.459	109.141
482.359	109.94
485.257	101.721
488.154	96.6366
491.05	84.8847
493.945	84.3742
496.838	78.9601
499.729	76.7582
502.619	80.6853
505.508	82.9557
508.395	79.1169
511.281	75.2631
514.165	69.252
517.049	72.1002
519.93	70.2066
522.81	62.1873
525.689	63.0235
528.566	63.6263
531.442	60.0493
534.317	62.1929
537.19	58.3393
540.062	59.8537
542.932	57.7791
545.801	60.2765
548.669	57.3567
551.534	58.694
554.399	57.286
557.262	57.3996
560.124	55.8815
562.985	56.4632
565.844	56.3601
568.702	54.449
571.558	54.7524
574.413	59.2396
577.266	57.3621
580.118	56.2235
582.969	54.1344
585.819	54.667
588.666	57.8101
591.513	58.8474
594.359	54.8112
597.202	53.6987
600.045	55.5798
602.885	54.9653
605.725	54.9431
608.564	52.6363
611.4	57.5654
614.236	51.6776
617.07	55.605
619.902	53.8635
622.734	50.3129
625.564	53.5446
628.393	55.8245
631.219	54.0479
634.045	53.2142
636.87	51.0533
639.693	52.9784
642.515	55.0847
645.335	52.93
648.153	54.2367
650.971	54.7815
653.787	51.4226
656.602	53.1635
659.416	50.0066
662.228	52.1635
665.038	52.2942
667.848	54.1123
670.655	52.8251
673.462	51.0633
676.268	52.0712
679.071	50.6771
681.874	54.4865
684.675	57.6935
687.475	60.1515
690.273	56.5873
693.07	53.5651
695.866	58.7661
698.66	60.1423
701.453	58.3177
704.244	61.5651
707.035	69.2717
709.824	70.4533
712.612	76.2962
715.397	78.1209
718.183	84.7875
720.966	90.3053
723.748	94.6
726.529	97.6771
729.308	96.5423
732.087	108.255
734.863	118.82
737.639	122.761
740.413	122.73
743.186	112.418
745.956	112.007
748.726	113.65
751.495	104.953
754.262	107.589
757.029	96.3461
759.793	95.3607
762.557	90.5204
765.318	88.519
768.079	90.3207
770.839	91.8719
773.597	93.3599
776.353	98.9162
779.109	108.935
781.862	112.331
784.615	117.223
787.366	127.623
790.116	121.25
792.865	131.042
795.612	157.561
798.358	191.321
801.102	236.553
803.846	256.619
806.588	257.013
809.329	286.916
812.068	330.347
814.806	353.139
817.542	311.063
820.278	261.679
823.012	193.085
825.744	146.38
828.476	132.797
831.206	112.086
833.935	104.484
836.662	102.368
839.388	113.165
842.113	106.102
844.836	119.004
847.558	131.409
850.279	160.92
852.999	212.43
855.718	294.422
858.435	371.626
861.15	401.218
863.865	328.951
866.577	255.007
869.289	204.507
871.999	200.605
874.709	216.756
877.417	279.743
880.123	376.142
882.828	438.25
885.531	440.528
888.234	418.214
890.936	379.997
893.635	321.326
896.334	255.436
899.031	205.731
901.728	161.027
904.422	137.485
907.116	114.989
909.808	96.8368
912.499	85.6665
915.188	86.8137
917.877	84.9667
920.563	81.8627
923.249	82.5877
925.934	76.3887
928.617	81.1701
931.298	84.5945
933.979	85.073
936.658	91.5714
939.336	94.7752
942.013	101.81
944.688	100.826
947.362	101.22
950.035	97.8158
952.706	90.8756
955.377	93.5208
958.045	92.2719
960.714	97.4906
963.38	103.344
966.044	103.402
968.709	100.899
971.372	97.4862
974.033	82.3429
976.693	83.524
979.351	85.1128
982.009	89.1865
984.665	99.0447
987.32	112.273
989.974	122.032
992.626	145.912
995.277	165.486
997.926	175.018
1000.57	160.233
1003.22	159.949
1005.87	143.879
1008.51	132.958
1011.16	123.765
1013.8	119.889
1016.44	117.624
1019.08	131.74
1021.72	156.152
1024.35	183.513
1026.99	241.717
1029.63	303.178
1032.26	303.441
1034.89	261.494
1037.52	209.11
1040.15	179.067
1042.78	158.899
1045.41	170.337
1048.03	182.446
1050.66	192.486
1053.28	204.02
1055.9	219.38
1058.52	227.306
1061.14	221.373
1063.76	218.152
1066.38	223.615
1068.99	245.499
1071.61	255.148
1074.22	249.696
1076.83	236.511
1079.44	193.694
1082.05	157.587
1084.66	136.65
1087.27	116.389
1089.87	107.59
1092.48	98.1798
1095.08	92.6892
1097.68	93.6057
1100.29	89.6948
1102.88	83.1223
1105.48	91.9524
1108.08	92.7974
1110.68	89.9746
1113.27	91.3445
1115.86	95.9824
1118.46	109.041
1121.05	118.381
1123.64	137.309
1126.23	167.667
1128.81	202.588
1131.4	225.384
1133.98	240.081
1136.57	199.982
1139.15	151.138
1141.73	125.33
1144.31	109.992
1146.89	107.617
1149.47	111.596
1152.04	116.511
1154.62	122.174
1157.19	121.384
1159.76	111.361
1162.33	104.961
1164.9	90.8173
1167.47	89.8057
1170.04	82.684
1172.61	72.7078
1175.17	75.6541
1177.74	67.9619
1180.3	71.7046
1182.86	69.3651
1185.42	70.6487
1187.98	66.8777
1190.54	66.235
1193.09	62.7882
1195.65	68.2982
1198.2	69.3515
1200.76	70.1124
1203.31	70.0918
1205.86	78.7843
1208.41	79.1501
1210.96	81.9252
1213.5	83.8327
1216.05	78.4765
1218.59	78.5237
1221.14	72.8173
1223.68	78.0096
1226.22	81.3653
1228.76	81.8089
1231.3	81.2811
1233.84	83.467
1236.37	82.5529
1238.91	93.4556
1241.44	94.8511
1243.97	94.3431
1246.5	100.404
1249.03	93.4406
1251.56	96.0545
1254.09	95.6939
1256.62	95.734
1259.14	97.2764
1261.67	108.547
1264.19	118.468
1266.71	117.534
1269.23	126.851
1271.75	136.383
1274.27	149.175
1276.78	159.409
1279.3	169.659
1281.81	181.254
1284.33	190.476
1286.84	224.089
1289.35	243.148
1291.86	266.566
1294.37	296.864
1296.88	306.302
1299.38	277.162
1301.89	251.93
1304.39	214.997
1306.89	193.219
1309.4	173.686
1311.9	158.414
1314.4	137.965
1316.89	140.804
1319.39	124.916
1321.89	124.943
1324.38	113.091
1326.87	121.573
1329.37	122.507
1331.86	129.503
1334.35	124.718
1336.83	129.271
1339.32	122.877
1341.81	120.534
1344.29	121.645
1346.78	115.165
1349.26	123.037
1351.74	127.466
1354.22	127.349
1356.7	130.567
1359.18	123.031
1361.65	124.922
1364.13	125.281
1366.6	126.217
1369.08	119.903
1371.55	129.24
1374.02	125.716
1376.49	118.667
1378.96	117.987
1381.43	125.978
1383.89	119.817
1386.36	126.01
1388.82	121.01
1391.28	125.971
1393.75	128.093
1396.21	127.791
1398.67	128.71
1401.12	136.438
1403.58	140.174
1406.04	140.862
1408.49	147.09
1410.95	168.916
1413.4	175.791
1415.85	187.53
1418.3	204.537
1420.75	235.762
1423.2	274.769
1425.64	325.277
1428.09	362.664
1430.53	400.686
1432.97	416.548
1435.42	427.208
1437.86	440.595
1440.3	450.681
1442.74	464.787
1445.17	470.828
1447.61	475.377
1450.05	485.821
1452.48	450.878
1454.91	405.853
1457.34	377.886
1459.77	343.384
1462.2	299.484
1464.63	265.656
1467.06	236.3
1469.48	209.795
1471.91	187.072
1474.33	181.64
1476.76	163.834
1479.18	162.709
1481.6	143.543
1484.02	144.871
1486.44	137.143
1488.85	133.187
1491.27	124.084
1493.68	123.553
1496.1	117.256
1498.51	116.444
1500.92	110.278
1503.33	109.551
1505.74	107.368
1508.15	97.4932
1510.55	105.983
1512.96	95.7318
1515.36	93.2968
1517.77	95.8809
1520.17	100.279
1522.57	92.0716
1524.97	94.5322
1527.37	89.5129
1529.77	90.4794
1532.16	92.2995
1534.56	84.4862
1536.95	86.9124
1539.35	86.9209
1541.74	88.6267
1544.13	85.8585
1546.52	85.2719
1548.91	80.4986
1551.3	85.6412
1553.68	82.9671
1556.07	74.3285
1558.45	78.8902
1560.84	79.6632
1563.22	82.2727
1565.6	79.2546
1567.98	78.0409
1570.36	73.8613
1572.74	79.5544
1575.11	81.1579
1577.49	75.989
1579.86	81.2409
1582.24	75.5446
1584.61	76.9724
1586.98	76.1123
1589.35	72.6338
1591.72	74.8713
1594.08	74.5344
1596.45	79.0507
1598.82	75.3799
1601.18	69.5544
1603.54	69.3697
1605.91	74.1875
1608.27	69.4585
1610.63	68.0648
1612.99	72.0442
1615.34	70.8331
1617.7	67.668
1620.06	68.2542
1622.41	70.841
1624.76	66.2617
1627.12	68.4889
1629.47	63.0332
1631.82	65.3521
1634.17	64.4549
1636.51	70.2771
1638.86	66.542
1641.21	67.684
1643.55	63.5791
1645.9	64.783
1648.24	66.6083
1650.58	60.3385
1652.92	65.2542
1655.26	61.4373
1657.6	64.5384
1659.93	64.1773
1662.27	62.4418
1664.6	61.1689
1666.94	62.8988
1669.27	60.4141
1671.6	66.1635
1673.93	63.5348
1676.26	64.9526
1678.59	69.1285
1680.92	59.0196
1683.24	64.2052
1685.57	65.9444
1687.89	65.2945
1690.22	62.0461
1692.54	60.0671
1694.86	59.8051
1697.18	62.0578
1699.5	67.8998
1701.81	59.7887
1704.13	59.9585
1706.45	56.8046
1708.76	63.5317
1711.07	54.1994
1713.38	57.4602
1715.7	56.2554
1718.01	53.0369
1720.31	59.4641
1722.62	52.5095
1724.93	56.3713
1727.24	55.9258
1729.54	56.2643
1731.84	51.5217
1734.15	50.5951
1736.45	52.6477
1738.75	49.438
1741.05	52.1299
1743.35	50.1543
1745.64	56.6083
1747.94	54.3162
1750.23	48.4618
1752.53	47.821
1754.82	50.3284
1757.11	46.2588
1759.4	44.2234
1761.69	47.5252
1763.98	44.3607
1766.27	49.7954
1768.56	47.6188
1770.84	45.4312
1773.13	50.1522
1775.41	45.219
1777.69	44.7776
1779.97	47.543
1782.25	46.7706
1784.53	42.8932
1786.81	48.9946
1789.09	47.038
1791.36	46.3151
1793.64	43.7974
1795.91	42.8485
1798.18	44.9246
1800.46	42.17
1802.73	43.7683
1805	43.2128
1807.27	47.4632
1809.53	43.5729
1811.8	42.2669
1814.07	40.8051
1816.33	44.073
1818.59	40.1851
1820.86	40.4402
1823.12	38.1298
1825.38	43.5867
1827.64	40.7349
1829.89	39.9951
1832.15	39.0864
1834.41	39.6017
1836.66	40.57
1838.92	37.2419
1841.17	36.8267
1843.42	41.0952
1845.67	38.6222
1847.92	42.6719
1850.17	38.4618
1852.42	37.0151
1854.67	38.4571
1856.91	40.6451
1859.16	40.3443
1861.4	37.6808
1863.64	41.8003
1865.88	39.1047
1868.12	37.228
1870.36	40.5384
1872.6	39.8327
1874.84	41.7345
1877.08	38.77
1879.31	38.352
1881.54	40.3008
1883.78	40.0058
1886.01	34.7929
1888.24	38.2798
1890.47	39.8051
1892.7	36.704
1894.93	38.7207
1897.16	39.4312
1899.38	38.5237
1901.61	34.9223
1903.83	38.9018
1906.05	37.9888
1908.28	35.7797
1910.5	31.8811
1912.72	36.6892
1914.94	37.1221
1917.16	36.7056
1919.37	31.9298
1921.59	34.631
1923.8	35.006
1926.02	35.3728
1928.23	33.6618
1930.44	32.8694
1932.65	35.9248
1934.86	34.4672
1937.07	33.6272
1939.28	34.471
1941.48	35.1827
1943.69	33.7421
1945.9	30.6505
1948.1	30.397
1950.3	30.6985
1952.5	33.7958
1954.7	35.9431
1956.9	37.4211
1959.1	32.8946
1961.3	31.5951
1963.5	30.5322
1965.69	33.7056
1967.89	29.7329
1970.08	31.2495
1972.27	28.2594
1974.46	28.9284
1976.66	32.4603
1978.84	31.3995
1981.03	30.2106
1983.22	30.2332
1985.41	29.6824
1987.59	30.8494
1989.78	27.2409
1991.96	27.7906
1994.14	29.6315
1996.32	30.2654
1998.51	27.0553
2000.69	28.865
2002.86	29.5531
2005.04	26.4095
2007.22	28.1099
2009.39	27.1429
2011.57	29.6134
2013.74	27.5175
2015.91	27.5263
2018.09	25.4589
2020.26	28.2448
2022.43	25.1841
2024.59	25.9753
2026.76	25.121
2028.93	24.032
2031.09	27.0687
2033.26	22.7791
2035.42	24.7566
2037.59	26.7936
2039.75	25.3151
2041.91	26.2957
2044.07	22.7522
2046.23	25.4696
2048.38	20.6954
2050.54	22.4079
2052.7	20.1712
2054.85	22.2936
2057	22.9563
2059.16	25.8322
2061.31	23.9936
2063.46	22.85
2065.61	23.3438
2067.76	21.383
2069.91	20.4712
2072.05	23.8456
2074.2	23.2778
2076.34	21.8854
2078.49	23.3432
2080.63	24.6134
2082.77	20.9788
2084.91	19.9063
2087.05	19.6543
2089.19	21.2029
2091.33	20.3874
2093.47	20.9396
2095.6	21.2617
2097.74	22.4579
2099.87	22.1819
2102.01	21.8462
2104.14	21.7668
2106.27	20.5373
2108.4	20.9761
2110.53	19.424
2112.66	22.0158
2114.79	25.8199
2116.91	20.9438
2119.04	20.7062
2121.16	20.6491
2123.29	18.5344
2125.41	18.3301
2127.53	20.9601
2129.65	19.4827
2131.77	17.9619
2133.89	24.6011
2136.01	20.9915
2138.12	20.4335
2140.24	20.6603
2142.35	18.6463
2144.47	21.006
2146.58	21.1475
2148.69	18.3291
2150.8	20.6719
2152.91	18.451
2155.02	18.1468
2157.13	21.8368
2159.24	19.6801
2161.34	19.1017
2163.45	19.7776
2165.55	24.3138
2167.66	25.2004
2169.76	34.3117
2171.86	19.9217
2173.96	22.536
2176.06	19.7887
2178.16	16.8625
2180.26	23.7024
2182.35	20.8661
2184.45	21.1574
2186.54	20.3824
2188.64	18.6096
2190.73	21.3575
2192.82	22.4151
2194.91	18.4418
2197	18.9238
2199.09	21.0979
2201.18	18.1301
2203.27	20.8364
2205.35	22.2612
2207.44	19.0311
2209.52	20.949
2211.61	17.2011
2213.69	16.6319
2215.77	21.1638
2217.85	20.0395
2219.93	19.769
2222.01	17.4985
2224.09	19.5077
2226.16	18.61
2228.24	18.5973
2230.31	20.5204
2232.39	16.7691
2234.46	19.3607
2236.53	18.3801
2238.6	18.1929
2240.67	20.414
2242.74	17.373
2244.81	16.0638
2246.88	17.5613
2248.94	18.7508
2251.01	17.783
2253.07	17.6412
2255.14	19.6569
2257.2	18.2639
2259.26	16.4549
2261.32	16.7661
2263.38	16.6407
2265.44	16.6012
2267.5	17.1963
2269.56	19.5829
2271.61	14.3968
2273.67	17.5227
2275.72	16.9063
2277.78	15.9974
2279.83	18.8729
2281.88	19.0904
2283.93	17.8723
2285.98	16.0648
2288.03	16.3947
2290.08	16.2448
2292.12	14.2771
2294.17	17.9585
2296.21	15.6457
2298.26	15.304
2300.3	17.4018
2302.34	20.9467
2304.38	15.3079
2306.42	19.6887
2308.46	16.8677
2310.5	15.8723
2312.54	16.2905
2314.58	15.8051
2316.61	17.5783
2318.65	14.8415
2320.68	16.0878
2322.71	16.4958
2324.75	15.7114
2326.78	14.9209
2328.81	15.0802
2330.84	16.1837
2332.86	16.4846
2334.89	14.9531
2336.92	16.9448
2338.94	16.1291
2340.97	16.5829
2342.99	18.1385
2345.02	15.2501
2347.04	15.0513
2349.06	16.0864
2351.08	16.1099
2353.1	14.3554
2355.12	16.2572
2357.13	13.4451
2359.15	15.0734
2361.17	17.4335
2363.18	16.4481
2365.19	18.1223
2367.21	14.1969
2369.22	12.8779
2371.23	15.2488
2373.24	15.0719
2375.25	14.2934
2377.26	14.6531
2379.27	16.1654
2381.27	13.566
2383.28	16.1124
2385.28	15.49
2387.29	16.1216
2389.29	16.756
2391.29	15.7752
2393.29	13.2158
2395.29	14.4364
2397.29	14.6641
2399.29	14.9727
2401.29	15.3253
2403.28	14.9788
2405.28	13.9519
2407.27	14.821
2409.27	15.068
2411.26	15.9109
2413.25	15.9936
2415.25	16.7385
2417.24	14.7134
2419.22	15.7478
2421.21	14.1483
2423.2	12.7654
2425.19	14.7616
2427.17	14.1871
2429.16	15.034
2431.14	15.438
2433.13	12.9953
2435.11	16.1353
2437.09	15.751
2439.07	15.2448
2441.05	12.4418
2443.03	15.4794
2445.01	13.7114
2446.98	13.2398
2448.96	12.5684
2450.93	14.6765
2452.91	13.1875
2454.88	12.6245
2456.85	14.0497
2458.83	14.1301
2460.8	14.1285
2462.77	16.2142
2464.74	16.2501
2466.7	13.7062
2468.67	16.8993
2470.64	14.9207
2472.6	17.0513
2474.57	15.4011
2476.53	14.3582
2478.49	14.5684
2480.46	16.0012
2482.42	12.5867
2484.38	18.4533
2486.34	15.9402
2488.29	21.8987
2490.25	21.4985
2492.21	25.148
2494.16	21.2717
2496.12	18.718
2498.07	17.383
2500.03	17.9796
2501.98	16.7622
2503.93	17.293
2505.88	19.4191
2507.83	22.9124
2509.78	28.5164
2511.73	32.921
2513.67	31.1423
2515.62	34.9223
2517.56	25.0638
2519.51	19.2712
2521.45	17.8127
2523.4	15.5921
2525.34	14.5227
2527.28	11.2654
2529.22	13.0662
2531.16	13.7076
2533.1	13.9513
2535.03	13.3391
2536.97	13.9122
2538.91	13.6263
2540.84	17.2543
2542.77	13.2113
2544.71	14.658
2546.64	14.2402
2548.57	15.527
2550.5	14.6811
2552.43	13.8173
2554.36	16.9238
2556.29	11.4595
2558.21	15.0764
2560.14	16.5608
2562.07	16.5921
2563.99	14.6274
2565.91	15.832
2567.84	16.024
2569.76	16.2755
2571.68	16.1923
2573.6	15.5092
2575.52	13.844
2577.44	16.4064
2579.36	16.0273
2581.27	15.7906
2583.19	18.1169
2585.1	15.4655
2587.02	18.054
2588.93	13.2419
2590.84	16.6724
2592.75	16.8158
2594.67	13.7616
2596.58	13.703
2598.48	15.7363
2600.39	16.617
