105.443	577.999
108.528	556.929
111.612	511.735
114.693	488.136
117.774	461.254
120.854	430.466
123.931	394.822
127.007	381.307
130.081	360.292
133.155	347.743
136.226	344.101
139.296	316.506
142.364	301.488
145.431	292.335
148.496	282.717
151.559	264.097
154.622	257.764
157.682	242.31
160.741	234.707
163.799	217.403
166.855	211.263
169.91	213.062
172.963	198.692
176.014	188.165
179.064	187.013
182.113	167.529
185.16	171.401
188.205	156.946
191.249	162.032
194.291	165.813
197.333	161.939
200.372	158.619
203.409	155.429
206.446	155.631
209.48	151.48
212.514	153.045
215.546	156.917
218.577	163.937
221.605	152.169
224.633	154.7
227.658	156.293
230.682	154.967
233.706	150.257
236.727	144.838
239.747	148.489
242.765	150.873
245.782	146.233
248.797	140.791
251.811	140.526
254.823	140.562
257.834	138.224
260.844	138.041
263.852	135.149
266.858	144.657
269.863	142.835
272.866	154.288
275.868	165.758
278.869	188.068
281.867	195.378
284.865	216.653
287.861	243.149
290.856	279.417
293.848	301.649
296.84	319.604
299.83	324.345
302.819	341.113
305.806	359.695
308.791	344.493
311.775	348.028
314.758	331.748
317.739	325.953
320.719	344.104
323.697	335.879
326.674	308.382
329.649	265.882
332.623	231.633
335.595	204.84
338.566	196.885
341.535	179.657
344.504	180.946
347.47	188.73
350.434	219.161
353.399	269.538
356.36	366.656
359.321	473.212
362.281	497.85
365.238	400.873
368.194	288.193
371.149	213.853
374.102	183.746
377.054	170.57
380.005	169.875
382.954	173.371
385.901	222.525
388.847	261.529
391.792	293.145
394.735	277.532
397.676	249.997
400.617	189.76
403.555	156.12
406.493	130.317
409.429	120.335
412.363	110.724
415.297	105.28
418.228	102.044
421.158	98.5294
424.087	101.183
427.014	111.438
429.94	113.76
432.864	118.084
435.787	127.373
438.709	145.183
441.629	156.882
444.547	165.714
447.464	156.438
450.38	140.542
453.294	121.982
456.208	111.633
459.119	102.279
462.028	96.4849
464.938	97.2446
467.844	104.541
470.75	105.965
473.654	107.669
476.557	112.438
479.459	109.768
482.359	110.42
485.257	96.8384
488.154	89.3291
491.05	91.6216
493.945	81.6497
496.838	81.7456
499.729	72.7118
502.619	79.4944
505.508	81.3747
508.395	78.8786
511.281	69.2701
514.165	75.3625
517.049	70.1403
519.93	67.8314
522.81	68.7821
525.689	63.9176
528.566	63.6054
531.442	62.0909
534.317	57.087
537.19	62.6054
540.062	57.9644
542.932	55.5284
545.801	58.5139
548.669	53.3356
551.534	54.8303
554.399	54.422
557.262	54.7304
560.124	53.1917
562.985	56.522
565.844	53.1998
568.702	56.7898
571.558	56.8682
574.413	56.4244
577.266	50.7365
580.118	57.3907
582.969	56.1965
585.819	50.4493
588.666	55.3743
591.513	56.943
594.359	53.8823
597.202	55.7075
600.045	52.212
602.885	52.4493
605.725	54.8273
608.564	49.8623
611.4	52.5477
614.236	54.1095
617.07	52.3828
619.902	54.7384
622.734	54.064
625.564	49.7668
628.393	53.4858
631.219	53.9137
634.045	55.5412
636.87	53.488
639.693	54.202
642.515	54.9265
645.335	55.4498
648.153	58.3774
650.971	56.7361
653.787	58.1641
656.602	53.4341
659.416	54.0636
662.228	59.0908
665.038	50.9674
667.848	51.1004
670.655	52.5932
673.462	53.4089
676.268	57.2764
679.071	53.4857
681.874	50.0911
684.675	55.957
687.475	57.989
690.273	57.1049
693.07	58.7669
695.866	63.1609
698.66	59.9601
701.453	56.8482
704.244	63.9639
707.035	68.9465
709.824	67.9616
712.612	64.7378
715.397	75.7729
718.183	83.3669
720.966	91.9729
723.748	91.7452
726.529	92.7071
729.308	95.915
732.087	108.926
734.863	120.97
737.639	123.542
740.413	122.449
743.186	110.828
745.956	115.276
748.726	114.767
751.495	111.851
754.262	107.529
757.029	99.6267
759.793	89.5804
762.557	92.7669
765.318	92.6748
768.079	94.6365
770.839	93.6339
773.597	97.7642
776.353	92.574
779.109	102.45
781.862	117.516
784.615	122.473
787.366	123.502
790.116	117.848
792.865	126.1
795.612	152.226
798.358	197.041
801.102	234.356
803.846	247.497
806.588	264.088
809.329	299.586
812.068	334.002
814.806	357.414
817.542	322.459
820.278	265.524
823.012	191.946
825.744	149.161
828.476	127.107
831.206	111.85
833.935	106.323
836.662	102.739
839.388	108.857
842.113	107.461
844.836	119.454
847.558	131.918
850.279	155.866
852.999	211.408
855.718	289.545
858.435	368.498
861.15	394.136
863.865	328.85
866.577	247.212
869.289	200.11
871.999	195.751
874.709	214.082
877.417	289.889
880.123	386.229
882.828	437.098
885.531	424.602
888.234	417.156
890.936	389.081
893.635	324.876
896.334	242.72
899.031	206.872
901.728	164.168
904.422	131.736
907.116	109.049
909.808	99.1073
912.499	89.1723
915.188	85.8593
917.877	81.5847
920.563	79.7446
923.249	81.7293
925.934	80.2957
928.617	78.3585
931.298	84.514
933.979	87.0666
936.658	86.2506
939.336	100.282
942.013	100.72
944.688	106.189
947.362	99.5149
950.035	95.5582
952.706	86.104
955.377	90.5927
958.045	87.9606
960.714	96.8192
963.38	104.972
966.044	109.073
968.709	97.9823
971.372	94.0475
974.033	83.9857
976.693	87.8226
979.351	85.0017
982.009	88.5505
984.665	94.629
987.32	108.77
989.974	128.529
992.626	144.135
995.277	162.847
997.926	169.505
1000.57	168.237
1003.22	158.758
1005.87	147.517
1008.51	136.324
1011.16	127.221
1013.8	121.402
1016.44	123.403
1019.08	129.339
1021.72	151.823
1024.35	193.43
1026.99	243.842
1029.63	299.615
1032.26	306.703
1034.89	263.955
1037.52	211.469
1040.15	176.08
1042.78	176.297
1045.41	166.458
1048.03	181.335
1050.66	187.485
1053.28	207.86
1055.9	220.033
1058.52	211.332
1061.14	223.945
1063.76	216.365
1066.38	228.571
1068.99	252.645
1071.61	257.933
1074.22	260.575
1076.83	229.902
1079.44	191.411
1082.05	166.939
1084.66	139.717
1087.27	119.958
1089.87	112.317
1092.48	98.4093
1095.08	96.1283
1097.68	95.8459
1100.29	85.977
1102.88	84.5872
1105.48	86.4781
1108.08	87.0796
1110.68	86.1514
1113.27	95.9395
1115.86	97.4851
1118.46	101.069
1121.05	117.073
1123.64	141.215
1126.23	169.187
1128.81	208.12
1131.4	231.123
1133.98	228.816
1136.57	195.365
1139.15	156.826
1141.73	131.403
1144.31	112.937
1146.89	104.824
1149.47	108.771
1152.04	118.647
1154.62	123.274
1157.19	125.452
1159.76	112.999
1162.33	103.295
1164.9	92.701
1167.47	82.6454
1170.04	82.0699
1172.61	75.3902
1175.17	72.4787
1177.74	69.1793
1180.3	71.4244
1182.86	67.7511
1185.42	70.0566
1187.98	69.1937
1190.54	70.9102
1193.09	68.3226
1195.65	68.8482
1198.2	75.2087
1200.76	70.4447
1203.31	64.2373
1205.86	71.1367
1208.41	81.6024
1210.96	78.5326
1213.5	82.0371
1216.05	79.2757
1218.59	84.0157
1221.14	79.5902
1223.68	78.2824
1226.22	76.5101
1228.76	72.7243
1231.3	83.3749
1233.84	82.4173
1236.37	91.085
1238.91	94.9256
1241.44	96.6528
1243.97	96.8222
1246.5	93.7668
1249.03	91.1895
1251.56	95.7043
1254.09	99.8283
1256.62	102.942
1259.14	103.609
1261.67	104.533
1264.19	115.427
1266.71	121.983
1269.23	126.643
1271.75	139.862
1274.27	146.239
1276.78	155.777
1279.3	169.412
1281.81	178.698
1284.33	199.26
1286.84	213.11
1289.35	240.418
1291.86	280.37
1294.37	297.241
1296.88	306.738
1299.38	278.128
1301.89	251.231
1304.39	218.92
1306.89	193.698
1309.4	173.386
1311.9	156.414
1314.4	143.193
1316.89	130.183
1319.39	125.04
1321.89	121.193
1324.38	121.114
1326.87	128.381
1329.37	123.498
1331.86	128.535
1334.35	124.156
1336.83	124.156
1339.32	119.3
1341.81	116.208
1344.29	114.139
1346.78	114.504
1349.26	122.257
1351.74	125.994
1354.22	126.615
1356.7	134.95
1359.18	134.276
1361.65	120.257
1364.13	123.374
1366.6	126.216
1369.08	124.811
1371.55	117.097
1374.02	127.955
1376.49	118.247
1378.96	122.918
1381.43	117.359
1383.89	119.823
1386.36	122.035
1388.82	121.335
1391.28	125.978
1393.75	124.081
1396.21	127.069
1398.67	129.6
1401.12	133.511
1403.58	139.66
1406.04	144.818
1408.49	149.889
1410.95	161.37
1413.4	173.832
1415.85	188.863
1418.3	212.819
1420.75	244.288
1423.2	279.93
1425.64	326.418
1428.09	372.091
1430.53	402.326
1432.97	421.417
1435.42	433.735
1437.86	439.714
1440.3	448.022
1442.74	468.239
1445.17	483.259
1447.61	475.768
1450.05	477.44
1452.48	455.208
1454.91	412.751
1457.34	376.058
1459.77	323.513
1462.2	299.356
1464.63	258.858
1467.06	238.882
1469.48	213.31
1471.91	195.381
1474.33	177.019
1476.76	160.992
1479.18	159.296
1481.6	153.067
1484.02	143.885
1486.44	139.323
1488.85	133.403
1491.27	127.426
1493.68	118.657
1496.1	121.634
1498.51	112.283
1500.92	103.608
1503.33	100.987
1505.74	104.156
1508.15	103.339
1510.55	99.6605
1512.96	93.4175
1515.36	100.994
1517.77	98.4651
1520.17	96.3187
1522.57	96.629
1524.97	96.986
1527.37	86.3346
1529.77	90.1772
1532.16	86.1045
1534.56	86.7801
1536.95	89.9934
1539.35	86.6446
1541.74	86.5513
1544.13	90.196
1546.52	87.8537
1548.91	81.0966
1551.3	81.37
1553.68	84.189
1556.07	84.2926
1558.45	82.1283
1560.84	77.4122
1563.22	77.541
1565.6	82.1559
1567.98	78.8354
1570.36	75.639
1572.74	78.906
1575.11	80.0975
1577.49	80.0938
1579.86	76.9644
1582.24	72.8876
1584.61	78.815
1586.98	74.8226
1589.35	73.0604
1591.72	76.5578
1594.08	75.0481
1596.45	77.2913
1598.82	73.9864
1601.18	69.5385
1603.54	71.7287
1605.91	71.1516
1608.27	72.0213
1610.63	70.139
1612.99	70.3066
1615.34	68.0626
1617.7	69.628
1620.06	68.6949
1622.41	68.6595
1624.76	64.1718
1627.12	70.8283
1629.47	70.5386
1631.82	65.8622
1634.17	71.522
1636.51	69.7482
1638.86	65.9425
1641.21	64.2151
1643.55	69.5969
1645.9	65.1895
1648.24	64.5111
1650.58	64.7019
1652.92	63.626
1655.26	63.8324
1657.6	61.6303
1659.93	61.5543
1662.27	61.8573
1664.6	65.7642
1666.94	63.1718
1669.27	62.0681
1671.6	61.6315
1673.93	63.5932
1676.26	65.5834
1678.59	62.383
1680.92	61.9452
1683.24	66.4787
1685.57	62.5271
1687.89	62.119
1690.22	60.2681
1692.54	60.374
1694.86	60.0282
1697.18	59.8791
1699.5	61.3256
1701.81	60.5892
1704.13	57.8554
1706.45	54.9644
1708.76	63.3072
1711.07	56.6005
1713.38	58.3035
1715.7	52.7834
1718.01	54.3326
1720.31	52.6061
1722.62	56.8415
1724.93	55.0565
1727.24	55.5139
1729.54	53.1714
1731.84	54.6024
1734.15	51.7269
1736.45	53.1426
1738.75	51.1004
1741.05	51.7482
1743.35	50.2921
1745.64	53.4882
1747.94	47.4632
1750.23	48.3019
1752.53	44.6915
1754.82	48.4882
1757.11	48.6475
1759.4	48.2052
1761.69	46.2599
1763.98	49.5448
1766.27	49.1168
1768.56	47.181
1770.84	44.629
1773.13	48.2243
1775.41	46.1866
1777.69	51.7332
1779.97	46.5578
1782.25	42.6467
1784.53	47.0637
1786.81	45.9073
1789.09	46.6059
1791.36	43.2504
1793.64	42.4112
1795.91	47.2757
1798.18	39.1113
1800.46	42.2829
1802.73	42.4284
1805	43.2245
1807.27	42.4284
1809.53	44.7363
1811.8	42.2079
1814.07	41.4979
1816.33	43.2921
1818.59	42.8723
1820.86	38.5927
1823.12	43.9486
1825.38	44.0303
1827.64	40.6495
1829.89	40.5379
1832.15	39.6221
1834.41	41.0919
1836.66	37.2049
1838.92	42.6442
1841.17	39.9102
1843.42	41.4015
1845.67	40.6097
1847.92	41.7831
1850.17	43.5834
1852.42	37.9334
1854.67	36.1718
1856.91	40.3879
1859.16	41.9269
1861.4	40.3748
1863.64	38.3236
1865.88	36.7635
1868.12	40.3233
1870.36	37.1718
1872.6	35.8408
1874.84	40.7147
1877.08	39.7392
1879.31	36.6305
1881.54	37.9373
1883.78	38.8114
1886.01	43.3237
1888.24	39.3408
1890.47	38.0712
1892.7	36.3625
1894.93	34.862
1897.16	36.1678
1899.38	37.6093
1901.61	37.9545
1903.83	37.5526
1906.05	36.4821
1908.28	37.7696
1910.5	34.6273
1912.72	34.8781
1914.94	38.0891
1917.16	34.1013
1919.37	33.0735
1921.59	35.0154
1923.8	37.3748
1926.02	33.5156
1928.23	36.0489
1930.44	37.0689
1932.65	36.783
1934.86	37.8154
1937.07	34.7507
1939.28	32.9644
1941.48	32.2529
1943.69	32.5021
1945.9	35.0717
1948.1	32.0633
1950.3	36.6159
1952.5	32.2504
1954.7	34.136
1956.9	32.5985
1959.1	31.7138
1961.3	32.7414
1963.5	34.3845
1965.69	30.3173
1967.89	24.5289
1970.08	29.5075
1972.27	30.2972
1974.46	32.4919
1976.66	30.9401
1978.84	27.4498
1981.03	29.3585
1983.22	30.6034
1985.41	28.9857
1987.59	26.538
1989.78	32.1687
1991.96	26.8459
1994.14	28.9636
1996.32	27.0979
1998.51	29.0307
2000.69	29.5546
2002.86	27.8446
2005.04	24.0699
2007.22	28.0717
2009.39	30.4183
2011.57	28.8563
2013.74	22.2855
2015.91	24.3582
2018.09	26.2728
2020.26	25.3193
2022.43	27.2248
2024.59	28.7276
2026.76	25.937
2028.93	26.084
2031.09	26.0809
2033.26	25.365
2035.42	26.6729
2037.59	26.4403
2039.75	27.0886
2041.91	21.7737
2044.07	27.3738
2046.23	24.6399
2048.38	22.1192
2050.54	26.1427
2052.7	22.9855
2054.85	21.9601
2057	25.0445
2059.16	26.8847
2061.31	22.768
2063.46	23.3781
2065.61	23.4723
2067.76	20.2683
2069.91	23.807
2072.05	23.9588
2074.2	20.4684
2076.34	23.9065
2078.49	23.4982
2080.63	23.212
2082.77	20.7804
2084.91	21.0932
2087.05	23.136
2089.19	22.4616
2091.33	22.3382
2093.47	22.1866
2095.6	22.986
2097.74	22.8827
2099.87	21.8786
2102.01	21.0535
2104.14	20.9844
2106.27	21.7043
2108.4	18.8749
2110.53	20.075
2112.66	23.3969
2114.79	19.4173
2116.91	20.4342
2119.04	21.9742
2121.16	22.9739
2123.29	22.9256
2125.41	17.7609
2127.53	19.4921
2129.65	19.374
2131.77	18.316
2133.89	20.871
2136.01	20.8467
2138.12	23.559
2140.24	17.3001
2142.35	20.878
2144.47	22.8283
2146.58	23.2489
2148.69	20.0318
2150.8	19.6782
2152.91	19.878
2155.02	19.32
2157.13	20.5324
2159.24	18.0904
2161.34	21.314
2163.45	17.084
2165.55	18.9337
2167.66	21.767
2169.76	31.3809
2171.86	20.5324
2173.96	17.6277
2176.06	18.7681
2178.16	21.5016
2180.26	22.31
2182.35	20.3062
2184.45	20.6254
2186.54	21.0318
2188.64	19.8906
2190.73	22.0942
2192.82	20.5049
2194.91	20.0117
2197	17.6365
2199.09	20.6405
2201.18	19.4015
2203.27	18.5569
2205.35	18.7601
2207.44	17.2489
2209.52	22.8161
2211.61	20.9435
2213.69	20.178
2215.77	18.955
2217.85	18.4949
2219.93	20.9617
2222.01	18.5609
2224.09	16.3134
2226.16	18.1457
2228.24	20.6467
2230.31	18.6152
2232.39	18.2937
2234.46	15.7607
2236.53	16.5248
2238.6	18.4055
2240.67	19.2717
2242.74	18.9698
2244.81	19.997
2246.88	18.6094
2248.94	18.9665
2251.01	17.5149
2253.07	20.7323
2255.14	15.609
2257.2	17.0881
2259.26	21.1618
2261.32	20.2209
2263.38	19.084
2265.44	19.0367
2267.5	16.64
2269.56	15.3032
2271.61	16.9272
2273.67	17.1049
2275.72	16.9557
2277.78	18.2161
2279.83	19.5315
2281.88	18.4269
2283.93	18.4811
2285.98	15.0566
2288.03	16.0965
2290.08	16.9235
2292.12	17.447
2294.17	18.5192
2296.21	15.0248
2298.26	17.2789
2300.3	13.5016
2302.34	18.8713
2304.38	18.0435
2306.42	15.6625
2308.46	17.4648
2310.5	17.1482
2312.54	14.9902
2314.58	14.6654
2316.61	16.1552
2318.65	14.7287
2320.68	18.1034
2322.71	17.497
2324.75	17.5975
2326.78	15.5834
2328.81	17.0712
2330.84	15.9868
2332.86	15.8282
2334.89	17.9141
2336.92	17.9723
2338.94	16.0819
2340.97	14.6811
2342.99	16.2589
2345.02	15.4811
2347.04	14.5016
2349.06	14.8906
2351.08	16.8282
2353.1	17.8397
2355.12	15.6974
2357.13	12.4727
2359.15	14.3649
2361.17	15.5225
2363.18	15.8847
2365.19	16.8982
2367.21	19.8651
2369.22	14.2569
2371.23	14.7023
2373.24	15.7033
2375.25	16.3828
2377.26	16.1552
2379.27	15.4032
2381.27	12.323
2383.28	13.9256
2385.28	17.0367
2387.29	17.4657
2389.29	17.8224
2391.29	15.4204
2393.29	15.5149
2395.29	13.0484
2397.29	18.1693
2399.29	15.3953
2401.29	14.4093
2403.28	16.3771
2405.28	13.6365
2407.27	15.3868
2409.27	13.6915
2411.26	18.8623
2413.25	16.0506
2415.25	16.871
2417.24	18.1986
2419.22	16.7401
2421.21	18.6928
2423.2	17.6629
2425.19	15.52
2427.17	15.7166
2429.16	14.7471
2431.14	16.5676
2433.13	16.5477
2435.11	14.4153
2437.09	14.9427
2439.07	15.6156
2441.05	15.987
2443.03	13.8622
2445.01	13.9272
2446.98	15.4278
2448.96	15.2471
2450.93	14.053
2452.91	12.7104
2454.88	16.7932
2456.85	16.2843
2458.83	15.6569
2460.8	14.7269
2462.77	17.4949
2464.74	17.7549
2466.7	13.529
2468.67	16.1802
2470.64	15.7294
2472.6	14.3273
2474.57	14.9895
2476.53	13.2144
2478.49	15.0627
2480.46	16.986
2482.42	14.9425
2484.38	18.9112
2486.34	19.2356
2488.29	20.803
2490.25	21.041
2492.21	23.1682
2494.16	21.2674
2496.12	21.136
2498.07	20.3037
2500.03	15.2373
2501.98	17.2114
2503.93	17.9583
2505.88	19.087
2507.83	21.3194
2509.78	27.6395
2511.73	29.9951
2513.67	35.2653
2515.62	30.937
2517.56	24.3032
2519.51	20.2224
2521.45	15.5075
2523.4	14.9526
2525.34	15.107
2527.28	14.7232
2529.22	14.1579
2531.16	13.9938
2533.1	13.8537
2535.03	13.9588
2536.97	14.701
2538.91	13.6842
2540.84	12.6868
2542.77	14.8026
2544.71	14.3546
2546.64	15.4299
2548.57	16.1494
2550.5	13.8952
2552.43	17.8945
2554.36	13.8277
2556.29	16.4309
2558.21	14.0049
2560.14	14.0382
2562.07	14.8354
2563.99	15.4093
2565.91	13.7599
2567.84	15.4974
2569.76	14.7568
2571.68	15.3203
2573.6	17.3065
2575.52	15.3832
2577.44	14.4498
2579.36	17.3839
2581.27	15.8563
2583.19	16.2569
2585.1	13.4723
2587.02	14.9486
2588.93	16.9455
2590.84	15.7512
2592.75	18.4941
2594.67	14.6127
2596.58	19.0537
2598.48	17.755
2600.39	16.1002
