105.443	576.517
108.528	555.98
111.612	527.86
114.693	484.343
117.774	449.136
120.854	437.376
123.931	403.219
127.007	377.566
130.081	368.645
133.155	351.858
136.226	350.816
139.296	324.891
142.364	310.648
145.431	297.813
148.496	284.505
151.559	262.957
154.622	254.561
157.682	243.973
160.741	228.025
163.799	218.307
166.855	211.293
169.91	204.899
172.963	192.75
176.014	193.738
179.064	187.432
182.113	184.802
185.16	172.896
188.205	168.516
191.249	159.299
194.291	158.744
197.333	157.584
200.372	155.021
203.409	153.927
206.446	153.507
209.48	151.85
212.514	147.501
215.546	154.911
218.577	156.497
221.605	150.275
224.633	152.662
227.658	151.078
230.682	159.169
233.706	152.503
236.727	155.278
239.747	154.555
242.765	152.093
245.782	142.731
248.797	145.667
251.811	144.993
254.823	148.754
257.834	138.366
260.844	137.122
263.852	141.027
266.858	140.386
269.863	146.104
272.866	156.653
275.868	168.851
278.869	179.803
281.867	204.314
284.865	223.369
287.861	235.727
290.856	258.511
293.848	303.148
296.84	313.154
299.83	326.775
302.819	345.876
305.806	344.616
308.791	344.509
311.775	347.697
314.758	325.299
317.739	334.856
320.719	346.102
323.697	342.699
326.674	319.971
329.649	267.564
332.623	218.666
335.595	203.813
338.566	196.758
341.535	187.183
344.504	185.986
347.47	191.027
350.434	226.108
353.399	276.56
356.36	369.481
359.321	485.274
362.281	495.608
365.238	399.968
368.194	298.285
371.149	211.057
374.102	180.4
377.054	163.052
380.005	173.431
382.954	185.448
385.901	212.887
388.847	274.136
391.792	300.782
394.735	292.456
397.676	248.913
400.617	196.503
403.555	153.037
406.493	134.12
409.429	122.75
412.363	109.398
415.297	109.013
418.228	103.004
421.158	96.2892
424.087	102.339
427.014	103.511
429.94	109.612
432.864	119.022
435.787	131.372
438.709	144.898
441.629	154.628
444.547	174.667
447.464	158.201
450.38	141.366
453.294	124.76
456.208	111.215
459.119	97.2469
462.028	104.462
464.938	98.9198
467.844	104.115
470.75	110.594
473.654	108.493
476.557	117.388
479.459	114.019
482.359	108.569
485.257	101.121
488.154	90.7406
491.05	86.6413
493.945	82.2312
496.838	77.5942
499.729	79.5591
502.619	78.9972
505.508	80.9654
508.395	74.7868
511.281	78.8345
514.165	73.2589
517.049	69.0824
519.93	67.2606
522.81	64.2885
525.689	62.3643
528.566	66.1949
531.442	65.7092
534.317	55.1641
537.19	65.5209
540.062	63.699
542.932	57.0488
545.801	56.8065
548.669	57.761
551.534	56.477
554.399	56.7542
557.262	56.0943
560.124	57.0382
562.985	57.2525
565.844	57.5646
568.702	55.3917
571.558	57.8861
574.413	57.1848
577.266	56.9479
580.118	57.053
582.969	56.3002
585.819	57.0013
588.666	52.5321
591.513	55.787
594.359	51.775
597.202	52.37
600.045	54.5304
602.885	54.2844
605.725	50.1914
608.564	54.9969
611.4	52.733
614.236	57.2425
617.07	53.0288
619.902	48.8415
622.734	51.3165
625.564	51.7336
628.393	50.4159
631.219	50.6234
634.045	53.8379
636.87	53.9035
639.693	58.9558
642.515	55.7288
645.335	56.336
648.153	57.751
650.971	56.3701
653.787	53.8759
656.602	55.3965
659.416	56.541
662.228	52.219
665.038	52.2312
667.848	53.2606
670.655	50.4534
673.462	56.9654
676.268	59.9787
679.071	51.9654
681.874	53.8307
684.675	58.5702
687.475	56.0488
690.273	58.5591
693.07	57.9778
695.866	58.6678
698.66	59.5225
701.453	63.6352
704.244	62.6123
707.035	68.0622
709.824	68.8307
712.612	71.5883
715.397	74.0027
718.183	85.8377
720.966	91.2531
723.748	101.446
726.529	102.086
729.308	102.193
732.087	109.969
734.863	126.844
737.639	125.001
740.413	121.701
743.186	115.979
745.956	116.001
748.726	116.72
751.495	114.633
754.262	100.434
757.029	100.191
759.793	89.8622
762.557	94.2031
765.318	93.5155
768.079	92.5289
770.839	92.3423
773.597	93.0384
776.353	95.1399
779.109	105.076
781.862	115.501
784.615	115.444
787.366	126.739
790.116	126.517
792.865	131.749
795.612	158.398
798.358	192.541
801.102	238.856
803.846	251.619
806.588	265.5
809.329	291.001
812.068	326.705
814.806	352.025
817.542	323.516
820.278	263.632
823.012	203.582
825.744	146.329
828.476	126.687
831.206	120.287
833.935	112.364
836.662	99.5512
839.388	103.215
842.113	108.987
844.836	122.32
847.558	130.606
850.279	164.927
852.999	216.947
855.718	293.196
858.435	371.86
861.15	398.231
863.865	330.632
866.577	244.188
869.289	211.381
871.999	197.632
874.709	220.518
877.417	292.201
880.123	376.446
882.828	443.217
885.531	435.863
888.234	425.208
890.936	388.448
893.635	327.639
896.334	247.317
899.031	200.062
901.728	170.063
904.422	130.531
907.116	108.85
909.808	101.403
912.499	90.3876
915.188	90.2769
917.877	80.1201
920.563	83.222
923.249	78.7234
925.934	75.1022
928.617	82.8895
931.298	83.5304
933.979	85.84
936.658	93.9183
939.336	100.62
942.013	101.796
944.688	99.8345
947.362	102.096
950.035	98.0268
952.706	96.3936
955.377	94.4535
958.045	92.6886
960.714	102.007
963.38	108.567
966.044	101.004
968.709	100.803
971.372	92.009
974.033	86.3203
976.693	84.5553
979.351	85.1437
982.009	87.7336
984.665	95.5881
987.32	109.472
989.974	134.978
992.626	156.737
995.277	163.108
997.926	163.334
1000.57	165.203
1003.22	157.323
1005.87	139.89
1008.51	138.068
1011.16	127.635
1013.8	117.455
1016.44	128.959
1019.08	131.734
1021.72	149.311
1024.35	190.764
1026.99	248.779
1029.63	302.14
1032.26	307.582
1034.89	267.421
1037.52	210.329
1040.15	179.889
1042.78	164.759
1045.41	171.943
1048.03	184.493
1050.66	195.178
1053.28	206.85
1055.9	222.898
1058.52	224.866
1061.14	214.376
1063.76	211.532
1066.38	221.058
1068.99	237.146
1071.61	261.647
1074.22	250.918
1076.83	233.312
1079.44	195.932
1082.05	164.299
1084.66	140.956
1087.27	120.501
1089.87	110.953
1092.48	100.295
1095.08	97.1497
1097.68	95.4193
1100.29	90.2092
1102.88	88.6757
1105.48	87.0288
1108.08	88.4276
1110.68	89.3331
1113.27	97.3428
1115.86	100.975
1118.46	107.205
1121.05	119.064
1123.64	138.654
1126.23	167.282
1128.81	201.844
1131.4	236.391
1133.98	238.456
1136.57	205.392
1139.15	158.53
1141.73	128.479
1144.31	108.049
1146.89	107.525
1149.47	109.34
1152.04	115.83
1154.62	121.124
1157.19	125.743
1159.76	117.681
1162.33	102.86
1164.9	90.4487
1167.47	85.5566
1170.04	83.9838
1172.61	80.7553
1175.17	76.7814
1177.74	74.0248
1180.3	72.9196
1182.86	68.1654
1185.42	73.191
1187.98	73.0603
1190.54	68.9237
1193.09	67.2188
1195.65	69.1531
1198.2	71.4442
1200.76	72.4562
1203.31	71.9927
1205.86	78.2531
1208.41	79.8502
1210.96	85.8266
1213.5	80.4933
1216.05	89.915
1218.59	81.4314
1221.14	79.3305
1223.68	79.3855
1226.22	78.5553
1228.76	82.8046
1231.3	83.4457
1233.84	90.6623
1236.37	86.4251
1238.91	94.9984
1241.44	98.4453
1243.97	95.4059
1246.5	98.3082
1249.03	94.7886
1251.56	94.222
1254.09	102.227
1256.62	100.774
1259.14	108.951
1261.67	110.41
1264.19	116.763
1266.71	129.116
1269.23	135.41
1271.75	139.902
1274.27	144.854
1276.78	154.864
1279.3	169.982
1281.81	176.36
1284.33	202.375
1286.84	224.917
1289.35	253.397
1291.86	276.955
1294.37	301.43
1296.88	309.293
1299.38	280.672
1301.89	247.453
1304.39	219.827
1306.89	189.251
1309.4	172.934
1311.9	155.835
1314.4	147.171
1316.89	134.785
1319.39	130.304
1321.89	127.842
1324.38	123.348
1326.87	122.034
1329.37	124.979
1331.86	128.453
1334.35	125.208
1336.83	131.323
1339.32	128.73
1341.81	120.049
1344.29	130.723
1346.78	120.308
1349.26	124.343
1351.74	125.469
1354.22	124.525
1356.7	131.4
1359.18	130.554
1361.65	121.982
1364.13	123.919
1366.6	121.586
1369.08	120.55
1371.55	130.856
1374.02	124.938
1376.49	125.437
1378.96	123.947
1381.43	123.382
1383.89	119.439
1386.36	122.89
1388.82	116.658
1391.28	127.672
1393.75	127.344
1396.21	132.548
1398.67	137.082
1401.12	136.414
1403.58	140.662
1406.04	150.053
1408.49	159.08
1410.95	161.344
1413.4	176.85
1415.85	192.293
1418.3	208.542
1420.75	237.991
1423.2	272.36
1425.64	328.451
1428.09	368.473
1430.53	399.949
1432.97	413.492
1435.42	435.449
1437.86	428.152
1440.3	457.742
1442.74	465.541
1445.17	479.86
1447.61	482.35
1450.05	477.808
1452.48	448.57
1454.91	424.895
1457.34	375.031
1459.77	340.249
1462.2	309.36
1464.63	263.412
1467.06	234.627
1469.48	209.322
1471.91	186.534
1474.33	180.171
1476.76	165.961
1479.18	160.434
1481.6	155.808
1484.02	146.852
1486.44	141.705
1488.85	135.758
1491.27	125.831
1493.68	121.654
1496.1	114.241
1498.51	106.543
1500.92	108.174
1503.33	109.872
1505.74	101.864
1508.15	102.234
1510.55	103.437
1512.96	96.448
1515.36	89.3996
1517.77	95.6279
1520.17	95.0966
1522.57	93.3701
1524.97	94.4792
1527.37	96.9526
1529.77	90.1752
1532.16	87.5166
1534.56	88.0301
1536.95	86.3596
1539.35	85.9456
1541.74	88.6757
1544.13	92.0999
1546.52	90.3156
1548.91	88.501
1551.3	85.2408
1553.68	81.0943
1556.07	81.4314
1558.45	82.2278
1560.84	86.3385
1563.22	79.3331
1565.6	78.8785
1567.98	80.5081
1570.36	76.3203
1572.74	76.2235
1575.11	74.987
1577.49	76.2975
1579.86	76.1654
1582.24	74.6536
1584.61	71.761
1586.98	74.9236
1589.35	75.5129
1591.72	74.8857
1594.08	76.9175
1596.45	73.2194
1598.82	74.0441
1601.18	75.423
1603.54	71.1796
1605.91	69.9927
1608.27	72.2844
1610.63	69.8438
1612.99	74.1767
1615.34	72.2072
1617.7	67.9526
1620.06	70.453
1622.41	70.4512
1624.76	67.3991
1627.12	68.836
1629.47	69.0268
1631.82	73.5681
1634.17	66.1258
1636.51	68.171
1638.86	66.3759
1641.21	66.4222
1643.55	68.787
1645.9	65.1959
1648.24	64.9654
1650.58	65.7743
1652.92	69.4648
1655.26	64.5661
1657.6	66.0009
1659.93	63.9613
1662.27	66.0711
1664.6	67.6394
1666.94	61.5553
1669.27	66.6187
1671.6	67.9406
1673.93	57.8759
1676.26	64.6432
1678.59	65.2589
1680.92	61.4793
1683.24	59.053
1685.57	63.2701
1687.89	66.3384
1690.22	64.5381
1692.54	62.7648
1694.86	63.8572
1697.18	58.7266
1699.5	61.5896
1701.81	63.0966
1704.13	55.3715
1706.45	56.7234
1708.76	63.9296
1711.07	57.3849
1713.38	58.7883
1715.7	53.3976
1718.01	56.6453
1720.31	56.9809
1722.62	53.6772
1724.93	54.3084
1727.24	54.9437
1729.54	52.1459
1731.84	51.9511
1734.15	50.3299
1736.45	55.8064
1738.75	50.6772
1741.05	49.6192
1743.35	51.4261
1745.64	49.8979
1747.94	52.9392
1750.23	53.6177
1752.53	49.455
1754.82	51.0765
1757.11	49.9911
1759.4	49.4474
1761.69	49.5225
1763.98	51.4401
1766.27	45.6933
1768.56	48.2805
1770.84	51.4018
1773.13	47.0543
1775.41	49.9845
1777.69	49.7542
1779.97	47.9074
1782.25	46.6976
1784.53	45.3242
1786.81	43.5824
1789.09	45.2773
1791.36	42.1789
1793.64	44.1162
1795.91	46.1364
1798.18	43.249
1800.46	47.2
1802.73	42.4157
1805	43.8956
1807.27	40.2844
1809.53	41.8341
1811.8	41.9794
1814.07	38.8362
1816.33	41.0818
1818.59	41.4935
1820.86	42.1796
1823.12	43.3376
1825.38	42.1076
1827.64	42.0961
1829.89	39.5904
1832.15	39.6665
1834.41	39.6813
1836.66	42.7157
1838.92	40.6798
1841.17	42.0592
1843.42	41.3601
1845.67	41.5646
1847.92	41.1216
1850.17	41.0036
1852.42	37.6451
1854.67	43.2471
1856.91	38.1914
1859.16	39.4098
1861.4	39.3188
1863.64	37.6665
1865.88	38.7868
1868.12	39.1914
1870.36	38.0131
1872.6	37.9983
1874.84	38.4512
1877.08	40.7845
1879.31	42.9746
1881.54	38.6492
1883.78	37.9157
1886.01	37.8721
1888.24	36.3878
1890.47	40.6138
1892.7	37.9214
1894.93	39.0013
1897.16	39.5247
1899.38	37.6935
1901.61	39.1654
1903.83	37.8227
1906.05	34.717
1908.28	38.0857
1910.5	35.249
1912.72	37.1835
1914.94	35.5247
1917.16	34.1178
1919.37	38.0248
1921.59	34.7309
1923.8	32.1437
1926.02	36.9437
1928.23	34.9613
1930.44	34.6536
1932.65	34.0013
1934.86	37.2844
1937.07	35.5243
1939.28	33.5155
1941.48	38.1837
1943.69	37.3203
1945.9	33.4222
1948.1	33.0503
1950.3	33.304
1952.5	33.2604
1954.7	30.8759
1956.9	31.0961
1959.1	30.8887
1961.3	32.4295
1963.5	34.1379
1965.69	30.3601
1967.89	28.0309
1970.08	32.4534
1972.27	32.0966
1974.46	31.249
1976.66	31.8759
1978.84	28.5865
1981.03	29.4814
1983.22	27.7883
1985.41	30.2571
1987.59	29.3331
1989.78	24.3681
1991.96	32.4844
1994.14	30.0503
1996.32	29.5524
1998.51	26.5582
2000.69	26.4906
2002.86	27.1188
2005.04	28.1109
2007.22	27.0981
2009.39	26.7904
2011.57	25.4495
2013.74	27.3895
2015.91	26.0268
2018.09	25.9192
2020.26	27.548
2022.43	27.271
2024.59	22.447
2026.76	24.1035
2028.93	28.1822
2031.09	30.0268
2033.26	25.8281
2035.42	27.3745
2037.59	27.5623
2039.75	26.6935
2041.91	26.8622
2044.07	26.9491
2046.23	20.8189
2048.38	23.9628
2050.54	23.7514
2052.7	22.5283
2054.85	26.447
2057	22.5129
2059.16	23.3203
2061.31	27.0739
2063.46	22.2369
2065.61	24.3124
2067.76	24.185
2069.91	22.9379
2072.05	23.6336
2074.2	24.3401
2076.34	21.8861
2078.49	20.0637
2080.63	22.6576
2082.77	23.7266
2084.91	24.9096
2087.05	21.4457
2089.19	25.2013
2091.33	23.4806
2093.47	21.6759
2095.6	21.6632
2097.74	21.3497
2099.87	21.1644
2102.01	23.0003
2104.14	25.3305
2106.27	21.6555
2108.4	20.8575
2110.53	21.1162
2112.66	21.944
2114.79	18.8679
2116.91	17.3203
2119.04	18.2225
2121.16	19.2235
2123.29	21.8408
2125.41	22.8125
2127.53	19.142
2129.65	22.5002
2131.77	21.6976
2133.89	19.4833
2136.01	18.7345
2138.12	19.3066
2140.24	16.5702
2142.35	23.1083
2144.47	18.7211
2146.58	21.037
2148.69	18.1216
2150.8	19.6536
2152.91	21.3384
2155.02	22.8424
2157.13	19.6138
2159.24	21.2298
2161.34	21.5607
2163.45	17.6059
2165.55	19.4029
2167.66	23.222
2169.76	33.8798
2171.86	20.2767
2173.96	20.8956
2176.06	21.8504
2178.16	17.4448
2180.26	18.0902
2182.35	20.6578
2184.45	23.0309
2186.54	21.2633
2188.64	22.302
2190.73	19.7883
2192.82	20.7014
2194.91	20.4276
2197	22.2611
2199.09	19.1083
2201.18	17.5527
2203.27	19.1656
2205.35	22.5702
2207.44	18.9431
2209.52	17.5903
2211.61	20.3203
2213.69	17.5521
2215.77	19.8979
2217.85	19.5582
2219.93	19.8377
2222.01	16.0599
2224.09	17.1695
2226.16	18.6281
2228.24	19.5425
2230.31	17.8902
2232.39	17.7674
2234.46	18.6192
2236.53	18.5648
2238.6	16.2146
2240.67	16.3863
2242.74	17.3643
2244.81	18.329
2246.88	19.4222
2248.94	18.6202
2251.01	18.7883
2253.07	19.8329
2255.14	18.3916
2257.2	18.6813
2259.26	18.5521
2261.32	20.4072
2263.38	17.3582
2265.44	18.6638
2267.5	17.7924
2269.56	18.4712
2271.61	17.2726
2273.67	18.4193
2275.72	19.9198
2277.78	16.9911
2279.83	15.8322
2281.88	17.3299
2283.93	17.4535
2285.98	17.6935
2288.03	14.9338
2290.08	21.1641
2292.12	15.5975
2294.17	19.6665
2296.21	14.5129
2298.26	14.7883
2300.3	15.5346
2302.34	17.6192
2304.38	16.5371
2306.42	17.8813
2308.46	16.397
2310.5	16.397
2312.54	16.455
2314.58	14.9832
2316.61	16.372
2318.65	14.4754
2320.68	16.8759
2322.71	18.4591
2324.75	16.8046
2326.78	15.8704
2328.81	14.88
2330.84	13.8721
2332.86	14.5081
2334.89	14.7078
2336.92	17.3124
2338.94	15.053
2340.97	15.9481
2342.99	15.8456
2345.02	17.3541
2347.04	14.5387
2349.06	17.7249
2351.08	13.6536
2353.1	12.6915
2355.12	14.8087
2357.13	16.1866
2359.15	17.2844
2361.17	14.9137
2363.18	12.8415
2365.19	16.5661
2367.21	17.7014
2369.22	16.1178
2371.23	15.3745
2373.24	14.8087
2375.25	14.3783
2377.26	14.2846
2379.27	15.5387
2381.27	16.9431
2383.28	13.4222
2385.28	17.0545
2387.29	18.8362
2389.29	19.1522
2391.29	14.078
2393.29	14.7249
2395.29	13.4314
2397.29	15.1458
2399.29	14.5559
2401.29	13.156
2403.28	13.61
2405.28	16.0981
2407.27	14.9965
2409.27	12.5467
2411.26	17.171
2413.25	15.6482
2415.25	11.0981
2417.24	14.7211
2419.22	12.4989
2421.21	15.2188
2423.2	13.9157
2425.19	13.3643
2427.17	13.987
2429.16	15.5371
2431.14	14.6718
2433.13	15.2784
2435.11	14.1789
2437.09	18.695
2439.07	15.0503
2441.05	15.477
2443.03	14.5425
2445.01	17.9442
2446.98	17.3665
2448.96	15.0583
2450.93	14.541
2452.91	12.9465
2454.88	15.249
2456.85	15.1835
2458.83	13.2369
2460.8	14.5043
2462.77	12.0309
2464.74	17.1318
2466.7	12.6138
2468.67	16.3142
2470.64	14.8558
2472.6	14.6005
2474.57	11.3643
2476.53	14.1493
2478.49	13.8721
2480.46	16.9511
2482.42	16.6498
2484.38	13.3244
2486.34	14.9791
2488.29	19.7211
2490.25	22.4754
2492.21	21.5467
2494.16	22.9431
2496.12	21.1656
2498.07	18.5955
2500.03	21.5502
2501.98	16.8696
2503.93	16.6576
2505.88	19.6075
2507.83	22.5824
2509.78	26.3681
2511.73	33.2369
2513.67	34.953
2515.62	30.8046
2517.56	23.1076
2519.51	19.4754
2521.45	15.3203
2523.4	14.2092
2525.34	14.4428
2527.28	17.6693
2529.22	16.6751
2531.16	13.3244
2533.1	12.156
2535.03	11.2172
2536.97	13.1539
2538.91	12.2
2540.84	15.1615
2542.77	13.3932
2544.71	13.0943
2546.64	13.6976
2548.57	16.304
2550.5	16.3359
2552.43	13.8268
2554.36	10.8281
2556.29	12.2805
2558.21	11.5027
2560.14	13.2633
2562.07	14.987
2563.99	11.7014
2565.91	15.1656
2567.84	16.398
2569.76	16.8915
2571.68	15.2146
2573.6	16.5304
2575.52	15.2188
2577.44	12.5425
2579.36	13.5027
2581.27	14.7249
2583.19	15.5081
2585.1	16.171
2587.02	14.9157
2588.93	15.1458
2590.84	16.102
2592.75	15.8759
2594.67	16.1835
2596.58	14.1022
2598.48	17.4355
2600.39	15.3299
