176.074	273.333
178.677	290.889
181.279	318.111
183.879	340
186.48	371.444
189.08	399.778
191.677	396.889
194.275	376.333
196.871	343.556
199.467	299.778
202.061	264.889
204.656	230
207.249	206.444
209.841	188.778
212.433	173.111
215.022	164
217.613	153.889
220.201	144.889
222.789	138.111
225.375	131.556
227.962	126.556
230.547	122.444
233.132	115.444
235.714	114.111
238.296	110.222
240.879	106.333
243.459	104.778
246.04	106.778
248.618	101.889
251.198	100.667
253.774	99.6667
256.35	101
258.927	98.2222
261.501	98.1111
264.074	97.4444
266.648	99.3333
269.22	101.667
271.791	111.333
274.362	122.667
276.931	142
279.5	154.111
282.069	159.778
284.635	149.222
287.201	124.444
289.766	111.667
292.331	103.889
294.894	94.8889
297.457	90.5556
300.018	85.7778
302.58	86.1111
305.14	85.8889
307.699	81.2222
310.257	78.5556
312.814	80.4444
315.372	81.2222
317.928	77.4445
320.482	76.1111
323.036	76.2222
325.589	77.5556
328.142	74.4445
330.693	75.7778
333.243	75.7778
335.795	74.5556
338.343	74.4444
340.891	74
343.439	73.1111
345.985	73
348.53	73.3333
351.075	73.1111
353.619	72.4444
356.162	74.5556
358.704	75.6667
361.245	74.4444
363.786	73.4444
366.325	76.8889
368.864	78.3333
371.402	77.3333
373.939	80.1111
376.475	82.3333
379.011	81.2222
381.545	79.7778
384.079	86.5556
386.611	87.6667
389.143	87.8889
391.674	91.1111
394.204	95
396.734	97.6667
399.263	107.222
401.791	117.556
404.318	132.222
406.843	158.444
409.368	208.333
411.893	318.222
414.417	425.889
416.94	402.222
419.46	290.889
421.982	184
424.502	126
427.022	106.667
429.541	92.6667
432.057	90.5556
434.574	83.5556
437.091	78.5556
439.605	77.4444
442.12	79.6667
444.634	78.2222
447.145	77.3333
449.657	74.2222
452.169	78.2222
454.678	78.3333
457.188	77.3333
459.697	78.2222
462.204	79.7778
464.711	81
467.217	83.7778
469.722	80.3333
472.227	79.3333
474.729	75.4444
477.232	75.6667
479.735	75.1111
482.235	74.5556
484.736	73.6667
487.234	75.1111
489.734	73
492.23	72.1111
494.728	71.1111
497.223	70.2222
499.719	74.4444
502.213	70
504.707	71.4444
507.199	70.8889
509.69	68.5556
512.182	67.8889
514.672	69.4444
517.162	71.1111
519.65	67.4444
522.139	69.7778
524.625	67.8889
527.111	65.5556
529.597	67.8889
532.081	68.1111
534.564	70
537.047	67.5556
539.529	70.4444
542.01	66.3333
544.491	69.2222
546.97	70.3333
549.448	67.1111
551.927	68.5556
554.404	68.8889
556.88	70.2222
559.355	69.5556
561.831	67.3333
564.304	68.7778
566.777	69
569.249	69.3333
571.72	69.5556
574.191	70.1111
576.661	68.7778
579.129	69.2222
581.597	70.8889
584.064	72.6667
586.531	70.4444
588.997	72.6667
591.462	71
593.926	69.5556
596.389	70.7778
598.851	75.2222
601.313	73.3333
603.773	79.2222
606.233	78.4444
608.692	84.1111
611.151	96.8889
613.608	123.222
616.065	179.444
618.521	201.111
620.976	163.556
623.43	113.333
625.883	93.1111
628.336	87.5556
630.788	80.8889
633.239	76.7778
635.69	77
638.139	75.5556
640.588	72.6667
643.036	74
645.483	76.5556
647.929	76.4444
650.375	74.1111
652.818	75.7778
655.262	73.4444
657.706	75.5556
660.148	76.3333
662.59	73.5556
665.031	73.8889
667.471	73.1111
669.909	77.2222
672.347	75.8889
674.785	80.4444
677.222	77.1111
679.656	83.7778
682.092	87.4444
684.526	84.7778
686.96	92.4445
689.392	96
691.824	107.556
694.256	140
696.686	231.111
699.115	373.444
701.544	396.333
703.972	272.667
706.398	162.111
708.825	117.778
711.25	101.889
713.675	90.3333
716.099	88
718.522	84
720.944	84.4444
723.366	83
725.786	84.3333
728.207	84.8889
730.625	91.2222
733.044	90.1111
735.461	95.3333
737.879	98
740.294	93.7778
742.71	92.1111
745.123	86.4444
747.538	83.5556
749.95	80.2222
752.363	81.6667
754.773	79.5556
757.185	81.4444
759.594	78.7778
762.002	79.7778
764.411	81.1111
766.818	77.6667
769.225	79
771.63	80.1111
774.035	83.3333
776.44	80.8889
778.843	78.8889
781.245	78.8889
783.648	82.3333
786.048	80
788.448	81.3333
790.848	82.1111
793.247	83.5555
795.644	84.8889
798.042	85.5556
800.438	85.6667
802.834	80.8889
805.228	84.7778
807.623	84.5556
810.016	85.6667
812.408	84.2222
814.8	83.2222
817.191	84.8889
819.58	82
821.971	86
824.359	88.3333
826.747	87.8889
829.134	87.8889
831.52	92.6667
833.905	92.4444
836.29	94.4444
838.675	97
841.058	93.5556
843.44	91.8889
845.822	87.8889
848.203	89.2222
850.583	89.5556
852.962	88.3333
855.341	88
857.718	90
860.095	88.8889
862.471	90.4444
864.847	92.3333
867.222	93
869.596	92.8889
871.969	93.2222
874.341	94.3333
876.713	98.8889
879.083	101.444
881.453	104.889
883.822	102.778
886.191	106.333
888.559	115.222
890.926	116.667
893.293	127.444
895.658	132.222
898.022	139.889
900.386	142.778
902.75	150.778
905.112	153.556
907.474	162.778
909.834	173.111
912.194	188.444
914.554	198.667
916.913	210.444
919.27	205.333
921.627	202.889
923.984	191.222
926.34	169.111
928.694	153.333
931.048	144
933.402	132.444
935.754	120.556
938.106	119.444
940.458	114.556
942.807	109.556
945.157	104.556
947.505	104.889
949.853	103.667
952.201	104.222
954.547	102.889
956.893	103.889
959.237	107.222
961.582	105.333
963.925	106.333
966.268	101.889
968.609	104.889
970.951	106
973.291	107.111
975.631	110.333
977.97	113.333
980.309	116
982.645	120.111
984.983	138.111
987.318	163.556
989.653	185.778
991.988	184.444
994.321	197.889
996.655	338
998.987	1098.11
1001.32	2051.33
1003.65	1678.89
1005.98	743.667
1008.31	255.333
1010.64	165.333
1012.96	144.111
1015.29	145.778
1017.62	145.111
1019.94	168.667
1022.27	282.667
1024.59	563.667
1026.91	677.333
1029.24	461.444
1031.56	232.889
1033.88	144.222
1036.2	121.222
1038.52	114.444
1040.84	109.778
1043.16	107.667
1045.47	103.333
1047.79	106.111
1050.1	106
1052.42	105.444
1054.74	106.444
1057.05	109.333
1059.36	108.667
1061.67	108.444
1063.98	111.222
1066.29	117.667
1068.6	120.333
1070.91	128.889
1073.22	136.667
1075.53	133
1077.84	134.333
1080.14	136.333
1082.45	144.889
1084.75	168.444
1087.06	208.111
1089.36	274.222
1091.66	348.222
1093.96	380.444
1096.27	331.333
1098.57	259.222
1100.87	198.444
1103.16	174.111
1105.46	161.444
1107.76	160.889
1110.06	158.778
1112.35	178.333
1114.65	202.667
1116.94	243.111
1119.23	279.444
1121.53	257.889
1123.82	213.444
1126.11	165.667
1128.4	142.333
1130.69	131.222
1132.98	128.222
1135.27	122.111
1137.56	125.889
1139.85	129.667
1142.13	127
1144.42	139
1146.7	137.111
1148.99	147.111
1151.27	162.444
1153.55	184.222
1155.84	213.222
1158.12	231
1160.4	213
1162.68	186.111
1164.96	169.111
1167.23	153.111
1169.51	146
1171.79	146.111
1174.06	146.889
1176.34	153.556
1178.62	167.333
1180.89	184
1183.16	187.444
1185.44	173
1187.71	156.222
1189.98	141.333
1192.25	133.889
1194.52	130.444
1196.79	123.778
1199.06	128.444
1201.32	124.889
1203.59	126.444
1205.86	126.889
1208.12	126.222
1210.39	123.667
1212.65	124.444
1214.91	122.444
1217.18	126.333
1219.44	123.333
1221.7	122
1223.96	122.333
1226.22	123.556
1228.48	123.667
1230.74	122.667
1232.99	124.111
1235.25	126.333
1237.51	124.667
1239.76	125.222
1242.02	126.333
1244.27	124.222
1246.53	123.778
1248.78	123.556
1251.03	125.889
1253.28	126.556
1255.53	128.222
1257.78	128.889
1260.03	130.778
1262.28	133.111
1264.53	130.556
1266.77	133.667
1269.02	141.778
1271.26	136.333
1273.51	139
1275.75	139
1278	134
1280.24	133.222
1282.48	131.889
1284.72	132.444
1286.96	132.444
1289.2	129.444
1291.44	129
1293.68	127.556
1295.92	128
1298.15	129.778
1300.39	130
1302.63	131.667
1304.86	125.111
1307.1	133.889
1309.33	128.222
1311.56	134.667
1313.79	131.111
1316.02	135.222
1318.26	132.889
1320.49	135.222
1322.71	136.667
1324.94	136.444
1327.17	147.556
1329.4	144.444
1331.62	148.667
1333.85	143.778
1336.08	138
1338.3	141.889
1340.52	133.111
1342.75	134.222
1344.97	135.111
1347.19	134.556
1349.41	131.111
1351.63	133.111
1353.85	136.222
1356.07	132.444
1358.29	137.333
1360.5	134.667
1362.72	133.556
1364.94	135.556
1367.15	133.889
1369.37	135.556
1371.58	139.889
1373.79	137.889
1376.01	140.778
1378.22	143.111
1380.43	145.444
1382.64	141.111
1384.85	141.778
1387.06	140.222
1389.27	138.222
1391.47	140.333
1393.68	139.778
1395.89	135.778
1398.09	139.333
1400.3	139.333
1402.5	138.333
1404.71	138.778
1406.91	136.333
1409.11	140
1411.31	135.667
1413.51	134.444
1415.71	136.778
1417.91	136.889
1420.11	140.222
1422.31	137.556
1424.51	136.444
1426.7	141
1428.9	138.111
1431.1	141.333
1433.29	141.333
1435.48	143
1437.68	147
1439.87	149.222
1442.06	156.556
1444.25	156.778
1446.44	150.222
1448.63	145
1450.82	142.111
1453.01	144.889
1455.2	142.667
1457.39	144.444
1459.57	142.333
1461.76	142.444
1463.94	147
1466.13	142.444
1468.31	141.111
1470.49	147.556
1472.68	149.778
1474.86	146.111
1477.04	147.444
1479.22	151.222
1481.4	151.444
1483.58	150.778
1485.75	147
1487.93	145.556
1490.11	144.889
1492.29	148.222
1494.46	143.556
1496.64	149.222
1498.81	145.111
1500.98	147
1503.16	145.333
1505.33	148.778
1507.5	144.333
1509.67	146.111
1511.84	144.889
1514.01	146.222
1516.18	143.556
1518.35	144
1520.51	147
1522.68	148.222
1524.85	150.556
1527.01	152.778
1529.18	151.778
1531.34	149.667
1533.51	152
1535.67	154.556
1537.83	156
1539.99	155.778
1542.15	156.556
1544.31	162.111
1546.47	162.556
1548.63	161.333
1550.79	167.444
1552.95	164.444
1555.1	166.556
1557.26	168.111
1559.41	171.111
1561.57	173.778
1563.72	179.111
1565.88	192.444
1568.03	202.556
1570.18	207.556
1572.33	235.444
1574.48	268.778
1576.63	304.778
1578.78	331.667
1580.93	382.333
1583.08	445.333
1585.23	467.667
1587.37	430.889
1589.52	361.111
1591.66	302.778
1593.81	265.667
1595.95	238.333
1598.1	221.889
1600.24	207.556
1602.38	194.333
1604.52	191.222
1606.66	185.333
1608.8	176.444
1610.94	178.111
1613.08	172.556
1615.22	172.222
1617.36	166.889
1619.49	171.111
1621.63	163.667
1623.77	165.111
1625.9	162.111
1628.03	165.667
1630.17	160.333
1632.3	164.778
1634.43	159.333
1636.56	159
1638.7	162.222
1640.83	158.667
1642.96	156.667
1645.08	159.556
1647.21	159.222
1649.34	160.444
1651.47	159.222
1653.59	161.556
1655.72	161
1657.84	158.333
1659.97	159.778
1662.09	163.444
1664.21	160.889
1666.34	162.778
1668.46	160
1670.58	163.556
1672.7	163.222
1674.82	158.889
1676.94	161.222
1679.06	161.444
1681.18	158.778
1683.29	158.444
1685.41	164
1687.52	164.111
1689.64	164.778
1691.76	160.111
1693.87	163.667
1695.98	166.222
1698.09	161.667
1700.21	164
1702.32	158.667
1704.43	163.444
1706.54	163
1708.65	166.667
1710.76	163.778
1712.86	162.444
1714.97	165.556
1717.08	163.333
1719.19	165.444
1721.29	168.444
1723.4	163.778
1725.5	171.222
1727.6	165.667
1729.71	163.444
1731.81	166.222
1733.91	166.222
1736.01	166.444
1738.11	164.778
1740.21	164.556
1742.31	162.889
1744.41	164.222
1746.51	164.333
1748.6	162.556
1750.7	161.222
1752.8	168.333
1754.89	161.889
1756.99	165.556
1759.08	168.444
1761.17	168.222
1763.27	162.889
1765.36	168.667
1767.45	161.667
1769.54	164.556
1771.63	170.444
1773.72	167.667
1775.81	167.556
1777.9	170.222
1779.98	172.667
1782.07	166.556
1784.16	170.222
1786.24	171.778
1788.33	171.444
1790.41	170.889
1792.5	169.333
1794.58	175.667
1796.66	175.222
1798.74	170.333
1800.83	172
1802.91	172.111
1804.99	170.333
1807.06	175.889
1809.14	172.222
1811.22	173.889
1813.3	178
1815.38	174.222
1817.45	176.333
1819.53	174.111
1821.6	175.889
1823.68	177.556
1825.75	177.556
1827.82	174
1829.9	173.333
1831.97	174.222
1834.04	176.111
1836.11	175.778
1838.18	172.778
1840.25	172.667
1842.32	173.333
1844.38	169.333
1846.45	177.111
1848.52	172.778
1850.58	175.556
1852.65	172.889
1854.72	168.333
1856.78	173.111
1858.84	171.667
1860.91	170.889
1862.97	171.778
1865.03	175.556
1867.09	177
1869.15	177.889
1871.21	178.222
1873.27	175.556
1875.33	179.444
1877.39	175.778
1879.44	176.111
1881.5	176.222
1883.56	178.222
1885.61	176.444
1887.67	177.444
1889.72	181
1891.78	177.222
1893.83	181
1895.88	178
1897.93	182.111
1899.98	178.667
1902.03	182.444
1904.08	178
1906.13	183.667
1908.18	180.889
1910.23	182.778
1912.28	175.778
1914.32	179.556
1916.37	184.111
1918.41	181
1920.46	181.444
1922.5	183.889
1924.55	182.889
1926.59	182.444
1928.63	180.778
1930.68	179.111
1932.72	183.778
1934.76	179.556
1936.8	186.556
1938.84	184
1940.87	183
1942.91	183.444
1944.95	181.889
1946.99	181.889
1949.02	187.111
1951.06	181.222
1953.09	178.778
1955.13	183.556
1957.16	182.111
1959.2	182.889
1961.23	183.444
1963.26	182.667
1965.29	181
1967.32	183.333
1969.35	187.222
1971.38	183.556
1973.41	181.667
1975.44	181.111
1977.47	184.667
1979.5	185.222
1981.52	182.889
1983.55	184
1985.57	183.444
1987.6	182.556
1989.62	189.778
1991.64	181.667
1993.67	187.333
1995.69	188.111
1997.71	186.111
1999.73	184.667
2001.75	184.889
2003.77	184.778
2005.79	182.778
2007.81	184.889
2009.83	186.222
2011.85	191.556
2013.86	186.556
2015.88	188.667
2017.89	189.778
2019.91	187.556
2021.92	189.111
2023.94	189.111
2025.95	190.556
2027.96	192.444
2029.97	190.778
2031.99	194.111
2034	182.333
2036.01	190.111
2038.02	190.889
2040.03	193.556
2042.03	194.222
2044.04	193.333
2046.05	191.444
2048.06	191.667
2050.06	191.222
2052.07	193.667
2054.07	189.889
2056.08	191
2058.08	194.111
2060.08	194.778
2062.08	192.111
2064.09	191.667
2066.09	189.889
2068.09	190.667
2070.09	194.111
2072.09	194.778
2074.09	193
2076.08	189.222
2078.08	194.111
2080.08	192.111
2082.07	190.333
2084.07	191.444
2086.07	194.444
2088.06	193.222
2090.05	187.333
2092.05	189.556
2094.04	193.889
2096.03	192.889
2098.02	193.889
2100.01	199
2102	195.111
2103.99	195
2105.98	190.778
2107.97	198.889
2109.96	195.889
2111.95	195.778
2113.94	198.111
2115.92	193.778
2117.91	194.444
2119.89	195.889
2121.88	198.444
2123.86	196.222
2125.84	194.444
2127.83	200.111
2129.81	197
2131.79	200
2133.77	199.444
2135.75	200.333
2137.73	197.111
2139.71	198.333
2141.69	194.333
2143.67	202.111
2145.64	196.778
2147.62	197.333
2149.6	198.889
2151.57	200.556
2153.55	199.333
2155.52	196.778
2157.5	196.444
2159.47	198
2161.44	197.778
2163.41	195.111
2165.39	204.222
2167.36	200.667
2169.33	197.667
2171.3	198.889
2173.27	199.222
2175.24	197.889
2177.2	202.333
2179.17	200.556
2181.14	199.889
2183.1	198.667
2185.07	199.222
2187.03	199.778
2189	203
2190.96	199.333
2192.93	202.778
2194.89	197
2196.85	196.667
2198.81	196.111
2200.77	199.889
2202.73	200.222
2204.69	201.222
2206.65	200
2208.61	199.444
2210.57	198.778
2212.53	202.556
2214.48	203.444
2216.44	200.778
2218.4	201.667
2220.35	200.111
2222.31	200.333
2224.26	199.556
2226.21	205.778
2228.17	206.111
2230.12	201.222
2232.07	202.111
2234.02	202.667
2235.97	202
2237.92	204.444
2239.87	206.333
2241.82	201.667
2243.77	205.556
2245.72	203.889
2247.66	205.556
2249.61	206.444
2251.56	205.444
2253.5	203.667
2255.45	202.889
2257.39	201
2259.33	201.111
2261.28	200.778
2263.22	205.444
2265.16	205.556
2267.1	201.667
2269.04	203.889
2270.99	205.111
2272.92	203.889
2274.86	206
2276.8	202.333
2278.74	209.778
2280.68	208.444
2282.61	205.778
2284.55	200.111
2286.49	205.667
2288.42	205.444
2290.36	201.889
2292.29	205.111
2294.22	199.778
2296.16	204.222
2298.09	204.111
2300.02	208
2301.95	201.222
2303.88	205.222
2305.81	204.333
2307.74	204.444
2309.67	204.222
2311.6	206
2313.53	211.667
2315.45	205.222
2317.38	207.333
2319.31	208
2321.23	207.667
2323.16	208.333
2325.08	209.667
2327	206.667
2328.93	214.333
2330.85	212.556
2332.77	208.333
2334.69	213.222
2336.62	206
2338.54	208.444
2340.46	208
2342.38	206.111
2344.29	209.889
2346.21	206.778
2348.13	209.778
2350.05	208.333
2351.96	210.778
2353.88	207.667
2355.79	207
2357.71	209.556
2359.62	206
2361.54	214.778
2363.45	208.889
2365.36	209.778
2367.27	214.889
2369.19	211.667
2371.1	211.667
2373.01	210.222
2374.92	209.111
2376.83	211
2378.73	213.333
2380.64	206.444
2382.55	210.333
2384.46	209.889
2386.36	212.556
2388.27	210.444
2390.17	208.889
2392.08	210.667
2393.98	208.111
2395.89	212.222
2397.79	215.222
2399.69	211.333
2401.59	209
2403.5	214.667
2405.4	209.333
2407.3	212.111
2409.2	211.778
2411.09	212.556
2412.99	214.333
2414.89	214.556
2416.79	214.333
2418.69	217.556
2420.58	216.778
2422.48	214.889
2424.37	216.889
2426.27	222.333
2428.16	218.444
2430.06	219.444
2431.95	222
2433.84	218.444
2435.73	213.889
2437.62	221.667
2439.52	217.889
2441.41	217.444
2443.3	214.222
2445.19	217.111
