176.074	275.222
178.677	292.222
181.279	317.111
183.879	344
186.48	375.889
189.08	399.778
191.677	396
194.275	381.556
196.871	344.444
199.467	304.111
202.061	260.556
204.656	230.111
207.249	209.111
209.841	186.333
212.433	167
215.022	162
217.613	152.778
220.201	146.889
222.789	134.889
225.375	132.667
227.962	128.556
230.547	123.222
233.132	116.444
235.714	115.889
238.296	109.778
240.879	111.667
243.459	107.667
246.04	102.889
248.618	100.111
251.198	101.222
253.774	96.3333
256.35	98.4444
258.927	98.6667
261.501	96.8889
264.074	98.8889
266.648	100.889
269.22	104.333
271.791	110.778
274.362	123.889
276.931	140.111
279.5	154.333
282.069	158.889
284.635	142.889
287.201	128.444
289.766	111.667
292.331	103.778
294.894	98.2222
297.457	90.7778
300.018	88.1111
302.58	86.7778
305.14	83.2222
307.699	83.5556
310.257	83.6667
312.814	79.5556
315.372	79.7778
317.928	77.1111
320.482	75.3333
323.036	75.2222
325.589	76.3333
328.142	72.8889
330.693	75
333.243	74.6667
335.795	74.7778
338.343	73.6667
340.891	72.4444
343.439	74.5556
345.985	73
348.53	74.5556
351.075	77.3333
353.619	73.2222
356.162	72.6667
358.704	73.1111
361.245	74.6667
363.786	76.4444
366.325	74.6667
368.864	77.1111
371.402	78.4445
373.939	80.1111
376.475	81.8889
379.011	83.5555
381.545	85.5556
384.079	83.7778
386.611	85.6667
389.143	87.3333
391.674	89.1111
394.204	95.1111
396.734	95.3333
399.263	107.333
401.791	115.444
404.318	130.889
406.843	156.444
409.368	209.556
411.893	319.889
414.417	426.667
416.94	404.667
419.46	293.333
421.982	182.889
424.502	131.444
427.022	107.889
429.541	95.2222
432.057	88.4445
434.574	83.2222
437.091	81.6667
439.605	79
442.12	77.8889
444.634	77.5556
447.145	74.2222
449.657	74.7778
452.169	76.3333
454.678	78.6667
457.188	76.8889
459.697	78
462.204	80.1111
464.711	80.5556
467.217	79.8889
469.722	80.5556
472.227	79.3333
474.729	76.3333
477.232	76.5556
479.735	71
482.235	72.2222
484.736	74.3333
487.234	72.5556
489.734	70.1111
492.23	71.8889
494.728	75.5556
497.223	73.1111
499.719	72.6667
502.213	70
504.707	70.1111
507.199	70.4444
509.69	71.5556
512.182	69.7778
514.672	70.2222
517.162	67
519.65	67.7778
522.139	67.4444
524.625	66
527.111	69.2222
529.597	70.6667
532.081	67.5556
534.564	67.4444
537.047	69.1111
539.529	68.2222
542.01	69.7778
544.491	65.8889
546.97	71.1111
549.448	65.7778
551.927	67.1111
554.404	68.8889
556.88	68.4444
559.355	70.5556
561.831	69.7778
564.304	67.6667
566.777	68.8889
569.249	66.7778
571.72	69.4444
574.191	68.5556
576.661	69.3333
579.129	71.7778
581.597	68.4444
584.064	69.6667
586.531	67.7778
588.997	71.3333
591.462	70.3333
593.926	71.6667
596.389	73.1111
598.851	72.7778
601.313	75
603.773	76.4444
606.233	77.2222
608.692	81.8889
611.151	94.7778
613.608	122.556
616.065	172.111
618.521	198.222
620.976	162.778
623.43	116
625.883	90.6667
628.336	83
630.788	78.2222
633.239	79.5556
635.69	76.5556
638.139	75.7778
640.588	78.5556
643.036	73.5556
645.483	75.2222
647.929	73.7778
650.375	73.5556
652.818	75.1111
655.262	73.3333
657.706	73.7778
660.148	73
662.59	73.7778
665.031	72.6667
667.471	73
669.909	75.4444
672.347	75.8889
674.785	76.7778
677.222	81.6667
679.656	82.2222
682.092	87.3333
684.526	89.1111
686.96	91.5556
689.392	94
691.824	107.444
694.256	140.778
696.686	230.222
699.115	373.778
701.544	393.222
703.972	271.889
706.398	160.222
708.825	117
711.25	99.3333
713.675	91.1111
716.099	83
718.522	87.2222
720.944	81.7778
723.366	81.8889
725.786	85
728.207	87.7778
730.625	87.5556
733.044	92.1111
735.461	97.4444
737.879	99.3333
740.294	94.7778
742.71	91.1111
745.123	87.7778
747.538	85
749.95	83.8889
752.363	79.7778
754.773	80.6667
757.185	78.8889
759.594	78.4444
762.002	80
764.411	77.8889
766.818	79.7778
769.225	79.4444
771.63	79.4444
774.035	80.5556
776.44	78.5556
778.843	79.7778
781.245	81.2222
783.648	83.1111
786.048	81.5556
788.448	81.2222
790.848	83.7778
793.247	82.6667
795.644	81.5556
798.042	83
800.438	83
802.834	85.2222
805.228	87.2222
807.623	83.5556
810.016	84.4444
812.408	81.8889
814.8	85
817.191	87.1111
819.58	84.7778
821.971	84.3333
824.359	85.1111
826.747	88
829.134	91.2222
831.52	91.5556
833.905	94.6667
836.29	95.1111
838.675	96.8889
841.058	95.5556
843.44	92.3333
845.822	94.2222
848.203	89.8889
850.583	88.5556
852.962	88.7778
855.341	86
857.718	87.6667
860.095	93.3333
862.471	91
864.847	94
867.222	92
869.596	94.3333
871.969	93
874.341	97
876.713	98.8889
879.083	101.889
881.453	101.444
883.822	108.778
886.191	109.556
888.559	117.444
890.926	119
893.293	124.111
895.658	130.556
898.022	137.222
900.386	145.556
902.75	148.444
905.112	158
907.474	162
909.834	177.778
912.194	184.667
914.554	200.333
916.913	206.222
919.27	209
921.627	204.556
923.984	188.333
926.34	167.778
928.694	155
931.048	144
933.402	131
935.754	126.222
938.106	119.111
940.458	115.111
942.807	109.333
945.157	106.667
947.505	105.222
949.853	101.222
952.201	106.889
954.547	103.111
956.893	102.556
959.237	106.111
961.582	105.444
963.925	104.778
966.268	104.333
968.609	106.556
970.951	106.333
973.291	106.556
975.631	107.889
977.97	111.333
980.309	117.111
982.645	117.222
984.983	132.778
987.318	166.222
989.653	189.778
991.988	183.889
994.321	195.444
996.655	334.889
998.987	1079.33
1001.32	2048.33
1003.65	1689
1005.98	766.333
1008.31	258.333
1010.64	161.889
1012.96	140.222
1015.29	142.667
1017.62	148.778
1019.94	169.222
1022.27	284.111
1024.59	561.333
1026.91	672.111
1029.24	463.778
1031.56	237
1033.88	141.333
1036.2	122.778
1038.52	113.111
1040.84	111.222
1043.16	110.111
1045.47	108.778
1047.79	104.333
1050.1	107.667
1052.42	104.111
1054.74	107.889
1057.05	112
1059.36	113.333
1061.67	111.333
1063.98	112.667
1066.29	118.333
1068.6	120.889
1070.91	128.333
1073.22	132.889
1075.53	133.778
1077.84	133.333
1080.14	137
1082.45	147.778
1084.75	169.333
1087.06	206.667
1089.36	271.889
1091.66	349.222
1093.96	383.222
1096.27	337.444
1098.57	257.556
1100.87	208.333
1103.16	170.444
1105.46	156.667
1107.76	158
1110.06	161.222
1112.35	178.444
1114.65	203.778
1116.94	246
1119.23	273.222
1121.53	264.667
1123.82	217.333
1126.11	173.556
1128.4	138.111
1130.69	130.556
1132.98	128.333
1135.27	124.222
1137.56	127.778
1139.85	124.333
1142.13	128.222
1144.42	132.778
1146.7	137.889
1148.99	149.111
1151.27	157.333
1153.55	185.444
1155.84	213.889
1158.12	227.667
1160.4	215
1162.68	188
1164.96	166.333
1167.23	153.333
1169.51	146.444
1171.79	146.222
1174.06	144.778
1176.34	153.444
1178.62	167.333
1180.89	187.556
1183.16	185.889
1185.44	173.444
1187.71	153.667
1189.98	139.667
1192.25	133.889
1194.52	130.889
1196.79	125.333
1199.06	127.333
1201.32	125.778
1203.59	128.222
1205.86	126.333
1208.12	126.111
1210.39	126.222
1212.65	120.889
1214.91	123.778
1217.18	123.111
1219.44	123.889
1221.7	125.222
1223.96	125.444
1226.22	121.333
1228.48	124
1230.74	125.778
1232.99	123.111
1235.25	126.556
1237.51	127.111
1239.76	123.333
1242.02	125.111
1244.27	124
1246.53	124.111
1248.78	122.111
1251.03	126.889
1253.28	127.889
1255.53	126.889
1257.78	127.333
1260.03	130.444
1262.28	129.222
1264.53	133
1266.77	138.667
1269.02	140.111
1271.26	144.111
1273.51	141.556
1275.75	139.111
1278	133.556
1280.24	131.667
1282.48	133.778
1284.72	133.889
1286.96	129.111
1289.2	130.778
1291.44	129.222
1293.68	127.556
1295.92	130.333
1298.15	129.111
1300.39	132
1302.63	128
1304.86	129.778
1307.1	132.667
1309.33	131
1311.56	127.333
1313.79	131.778
1316.02	130.778
1318.26	133.111
1320.49	136.889
1322.71	136.889
1324.94	144.556
1327.17	144.333
1329.4	145.889
1331.62	145.667
1333.85	143.556
1336.08	135.778
1338.3	137.444
1340.52	138.556
1342.75	136.333
1344.97	133.111
1347.19	135.778
1349.41	129.444
1351.63	136.889
1353.85	132.667
1356.07	135.444
1358.29	135.667
1360.5	134.556
1362.72	135.556
1364.94	135.222
1367.15	137.111
1369.37	135.444
1371.58	138.111
1373.79	140.667
1376.01	142.333
1378.22	145.667
1380.43	141
1382.64	142.556
1384.85	142.222
1387.06	137.667
1389.27	140.778
1391.47	140.556
1393.68	140
1395.89	137.111
1398.09	139.111
1400.3	141.333
1402.5	135.778
1404.71	134.778
1406.91	141
1409.11	133.778
1411.31	138.444
1413.51	137.667
1415.71	137
1417.91	137.889
1420.11	139.889
1422.31	138.111
1424.51	139.667
1426.7	139.444
1428.9	136.667
1431.1	140.667
1433.29	143.667
1435.48	144.889
1437.68	145.667
1439.87	151.778
1442.06	153.889
1444.25	152.556
1446.44	153
1448.63	146.222
1450.82	140
1453.01	143.778
1455.2	147.889
1457.39	142.444
1459.57	142.222
1461.76	145
1463.94	140.778
1466.13	143.222
1468.31	142.889
1470.49	147.111
1472.68	143.556
1474.86	146.667
1477.04	149.778
1479.22	153.667
1481.4	154.222
1483.58	150.778
1485.75	151.333
1487.93	147.556
1490.11	146.333
1492.29	144.333
1494.46	144.889
1496.64	144.778
1498.81	146.778
1500.98	144.556
1503.16	144.111
1505.33	147.333
1507.5	151.444
1509.67	145.556
1511.84	150.111
1514.01	146.889
1516.18	146
1518.35	148.444
1520.51	149.667
1522.68	146.778
1524.85	148.333
1527.01	148.667
1529.18	155.111
1531.34	152.556
1533.51	150.222
1535.67	154
1537.83	153.111
1539.99	153.333
1542.15	159
1544.31	161.667
1546.47	163.667
1548.63	164.778
1550.79	167
1552.95	161.667
1555.1	165.889
1557.26	169.444
1559.41	166.111
1561.57	173.444
1563.72	178.111
1565.88	186.222
1568.03	198.333
1570.18	209.667
1572.33	239.333
1574.48	272.778
1576.63	298.222
1578.78	326.778
1580.93	373.778
1583.08	443.444
1585.23	469.667
1587.37	427.556
1589.52	365.111
1591.66	303.778
1593.81	265.444
1595.95	240.222
1598.1	227.667
1600.24	207
1602.38	195.444
1604.52	189
1606.66	187.222
1608.8	183.111
1610.94	177.333
1613.08	171.333
1615.22	171.444
1617.36	168.444
1619.49	167.556
1621.63	165
1623.77	163.889
1625.9	161.889
1628.03	162
1630.17	161.222
1632.3	161.444
1634.43	161.667
1636.56	158.889
1638.7	158.889
1640.83	160.556
1642.96	157.222
1645.08	155.778
1647.21	154.667
1649.34	163.889
1651.47	159.444
1653.59	161.889
1655.72	159.333
1657.84	159.222
1659.97	157.111
1662.09	159.556
1664.21	156.667
1666.34	160
1668.46	161.556
1670.58	162.667
1672.7	161.889
1674.82	160.111
1676.94	163.222
1679.06	164.556
1681.18	162.667
1683.29	162.222
1685.41	163.111
1687.52	164.556
1689.64	161.889
1691.76	161.778
1693.87	167.333
1695.98	165.222
1698.09	165.778
1700.21	163.222
1702.32	159.111
1704.43	163.222
1706.54	160.333
1708.65	166.333
1710.76	163.778
1712.86	165.333
1714.97	165.444
1717.08	163.222
1719.19	165.667
1721.29	165.556
1723.4	166.333
1725.5	160.778
1727.6	167.111
1729.71	161.333
1731.81	169
1733.91	164.667
1736.01	162.778
1738.11	166.444
1740.21	161.222
1742.31	166.778
1744.41	167
1746.51	164.889
1748.6	165.889
1750.7	165.111
1752.8	163
1754.89	167.889
1756.99	164.222
1759.08	163.222
1761.17	167.556
1763.27	169.556
1765.36	166.889
1767.45	163.778
1769.54	167.556
1771.63	166.111
1773.72	167.111
1775.81	170.556
1777.9	171.222
1779.98	171.889
1782.07	170.778
1784.16	171.222
1786.24	175.889
1788.33	176.778
1790.41	170.667
1792.5	175.667
1794.58	173.444
1796.66	174.333
1798.74	172.333
1800.83	177
1802.91	176.444
1804.99	175.556
1807.06	169
1809.14	176.111
1811.22	175.111
1813.3	174.111
1815.38	173.111
1817.45	173.556
1819.53	174.444
1821.6	176.889
1823.68	179.111
1825.75	177
1827.82	176
1829.9	174.333
1831.97	174.889
1834.04	171.889
1836.11	173.889
1838.18	180.444
1840.25	174.889
1842.32	178.222
1844.38	175.444
1846.45	173.444
1848.52	174.778
1850.58	171.778
1852.65	180
1854.72	176.556
1856.78	173.333
1858.84	176.889
1860.91	176.444
1862.97	174.222
1865.03	174.444
1867.09	174.778
1869.15	178.444
1871.21	177.556
1873.27	177.667
1875.33	176.222
1877.39	176.889
1879.44	177.333
1881.5	175.556
1883.56	181.667
1885.61	177.889
1887.67	175.444
1889.72	174.667
1891.78	178.667
1893.83	180.111
1895.88	183.556
1897.93	174.667
1899.98	183
1902.03	178.333
1904.08	183.889
1906.13	183.556
1908.18	183
1910.23	181.667
1912.28	181.556
1914.32	183.111
1916.37	183.333
1918.41	181.889
1920.46	182.111
1922.5	184
1924.55	182.222
1926.59	183.222
1928.63	185.222
1930.68	183.444
1932.72	184.556
1934.76	181.778
1936.8	185.556
1938.84	186.444
1940.87	180.889
1942.91	184.222
1944.95	182.222
1946.99	182.222
1949.02	179
1951.06	183
1953.09	189.333
1955.13	184.444
1957.16	182.556
1959.2	187
1961.23	187.889
1963.26	186.333
1965.29	183.222
1967.32	182.889
1969.35	186.222
1971.38	182.667
1973.41	184.222
1975.44	186.111
1977.47	181.556
1979.5	184.444
1981.52	184.889
1983.55	182
1985.57	185
1987.6	183.111
1989.62	185.778
1991.64	184.111
1993.67	186.222
1995.69	184.222
1997.71	188.778
1999.73	186.333
2001.75	185.778
2003.77	183.889
2005.79	186.667
2007.81	189.556
2009.83	189
2011.85	187.667
2013.86	188.778
2015.88	186.333
2017.89	190.556
2019.91	189.667
2021.92	184.778
2023.94	191.556
2025.95	192.333
2027.96	187.667
2029.97	193.222
2031.99	191.444
2034	188.111
2036.01	190.222
2038.02	193
2040.03	191.556
2042.03	191.778
2044.04	192.778
2046.05	194.889
2048.06	186.556
2050.06	192.333
2052.07	190.889
2054.07	195.111
2056.08	192.556
2058.08	196.111
2060.08	193.111
2062.08	185.778
2064.09	190.667
2066.09	193.111
2068.09	193.556
2070.09	193.111
2072.09	190.778
2074.09	192.222
2076.08	191.444
2078.08	191.111
2080.08	197.444
2082.07	192.111
2084.07	192.111
2086.07	195.667
2088.06	193.111
2090.05	194.111
2092.05	193.556
2094.04	194.444
2096.03	192.333
2098.02	197.444
2100.01	188.889
2102	194.889
2103.99	191.111
2105.98	200.444
2107.97	194.667
2109.96	196.111
2111.95	196.667
2113.94	194.778
2115.92	194.778
2117.91	194.222
2119.89	198.778
2121.88	202.222
2123.86	196.111
2125.84	194.556
2127.83	196.333
2129.81	200.556
2131.79	199.111
2133.77	199.444
2135.75	199.889
2137.73	198.333
2139.71	198.222
2141.69	198.444
2143.67	196
2145.64	196.889
2147.62	200.222
2149.6	199.889
2151.57	196.778
2153.55	202.889
2155.52	200.222
2157.5	203.222
2159.47	199.222
2161.44	201.778
2163.41	196
2165.39	197
2167.36	194.889
2169.33	198.333
2171.3	200.111
2173.27	197.222
2175.24	197.778
2177.2	198.111
2179.17	196
2181.14	202.444
2183.1	202.333
2185.07	198
2187.03	199.222
2189	200.111
2190.96	203.889
2192.93	201.667
2194.89	197.111
2196.85	200.778
2198.81	201.444
2200.77	203.111
2202.73	200.333
2204.69	203.667
2206.65	201
2208.61	202.667
2210.57	200
2212.53	202
2214.48	201.222
2216.44	198.333
2218.4	199.778
2220.35	202.778
2222.31	200.111
2224.26	203.333
2226.21	200
2228.17	198.222
2230.12	201.333
2232.07	201.778
2234.02	203.889
2235.97	206.222
2237.92	204.333
2239.87	207.333
2241.82	204.889
2243.77	207.889
2245.72	205.889
2247.66	204.667
2249.61	205.111
2251.56	203.222
2253.5	203.889
2255.45	200.778
2257.39	201.333
2259.33	205.222
2261.28	207.667
2263.22	201.556
2265.16	203.667
2267.1	205.889
2269.04	205.778
2270.99	206.111
2272.92	204.444
2274.86	204.111
2276.8	203.778
2278.74	205.222
2280.68	208.889
2282.61	209.444
2284.55	207.333
2286.49	206.889
2288.42	205.889
2290.36	208
2292.29	208.889
2294.22	205.444
2296.16	204.333
2298.09	207.778
2300.02	207.444
2301.95	205.333
2303.88	207.222
2305.81	210
2307.74	207.778
2309.67	206.667
2311.6	212
2313.53	208
2315.45	207.444
2317.38	212.778
2319.31	211.222
2321.23	212.444
2323.16	208.556
2325.08	207.111
2327	205.667
2328.93	212.444
2330.85	211.667
2332.77	209
2334.69	211.222
2336.62	209.667
2338.54	207.778
2340.46	206.556
2342.38	210.222
2344.29	208.778
2346.21	206.444
2348.13	212
2350.05	211.333
2351.96	210.111
2353.88	210.667
2355.79	206.667
2357.71	207.889
2359.62	210.222
2361.54	207.667
2363.45	210.778
2365.36	212.111
2367.27	212.778
2369.19	213.889
2371.1	204.778
2373.01	207.111
2374.92	212
2376.83	208.889
2378.73	210.444
2380.64	208.556
2382.55	208.889
2384.46	214.333
2386.36	214.556
2388.27	209.667
2390.17	210.667
2392.08	207.111
2393.98	214.111
2395.89	212.222
2397.79	210.556
2399.69	214.889
2401.59	214.222
2403.5	214.889
2405.4	211.556
2407.3	212.222
2409.2	217.333
2411.09	211
2412.99	213.778
2414.89	215.556
2416.79	214.111
2418.69	214.444
2420.58	215.556
2422.48	216.333
2424.37	220.667
2426.27	222.556
2428.16	220.667
2430.06	216.556
2431.95	219.111
2433.84	217.778
2435.73	215.111
2437.62	218.778
2439.52	214.556
2441.41	216.667
2443.3	216.778
2445.19	220.556
