#wnum,raman
275,7.86742
276,7.6627
277,13.8041
278,13.8633
279,13.6586
280,10.8308
281,10.6261
282,22.3695
283,31.0958
284,30.8911
285,28.5165
286,16.4325
287,0.107837
288,-0.0969221
289,6.89877
290,13.2649
291,13.0601
292,-5.32099
293,-5.52583
294,10.4878
295,27.2638
296,27.0594
297,19.7656
298,13.4905
299,7.97526
300,7.77289
301,15.2401
302,28.2271
303,28.0274
304,28.4603
305,28.2629
306,58.7006
307,89.4925
308,91.9611
309,91.7695
310,89.3871
311,89.0889
312,88.9028
313,109.858
314,135.035
315,158.525
316,179.572
317,202.486
318,242.96
319,282.316
320,320.746
321,360.485
322,403.146
323,457.217
324,511.821
325,574.62
326,641.794
327,698.353
328,722.56
329,728.268
330,728.132
331,704.642
332,675.322
333,637.775
334,599.008
335,560.634
336,520.875
337,489.967
338,473.914
339,452.597
340,399.013
341,342.213
342,298.884
343,264.322
344,225.573
345,175.114
346,125.57
347,93.8636
348,64.1641
349,45.8278
350,35.6089
351,27.1202
352,22.4447
353,18.7195
354,16.2791
355,12.824
356,10.7673
357,10.7155
358,10.6663
359,5.49748
360,-4.56355
361,-4.60534
362,-0.261261
363,0.559274
364,0.524858
365,-0.532268
366,-0.561544
367,10.9952
368,22.5219
369,32.3426
370,41.6118
371,42.4976
372,43.0175
373,47.3141
374,56.7496
375,67.8446
376,93.1839
377,120.513
378,152.346
379,185.381
380,222.84
381,264.728
382,312.764
383,376.67
384,445.591
385,527.207
386,621.421
387,720.867
388,820.409
389,917.743
390,995.942
391,1044.4
392,1044.46
393,1036.5
394,979.87
395,892.963
396,790.462
397,683.399
398,574.064
399,471.725
400,406.219
401,348.696
402,295.867
403,244.423
404,203.88
405,176.23
406,155.95
407,156.052
408,157.983
409,163.195
410,171.762
411,171.872
412,168.418
413,151.328
414,137.491
415,128.363
416,112.862
417,83.9935
418,55.2455
419,50.3812
420,49.305
421,43.714
422,33.9454
423,24.9955
424,8.11681
425,-7.19424
426,-7.06862
427,0.4433
428,9.15994
429,20.2326
430,21.0786
431,21.2048
432,10.7495
433,5.67335
434,4.07981
435,3.00268
436,2.67869
437,2.80601
438,8.72825
439,17.8534
440,21.0584
441,21.1867
442,21.3154
443,21.8748
444,24.275
445,24.7127
446,25.6724
447,32.1972
448,45.7893
449,61.0805
450,83.3362
451,103.388
452,112.098
453,115.283
454,126.755
455,159.434
456,197.136
457,225.548
458,251.772
459,273.6
460,288.858
461,307.243
462,347.372
463,394.061
464,404.342
465,404.48
466,401.596
467,400.925
468,390.12
469,358.208
470,329.31
471,304.979
472,282.347
473,254.512
474,215.304
475,176.709
476,156.607
477,143.744
478,128.171
479,107.83
480,90.3556
481,83.0768
482,80.5511
483,77.1249
484,72.8041
485,70.8235
486,70.2477
487,67.4664
488,57.3726
489,55.2532
490,55.3848
491,66.4449
492,73.0523
493,73.2792
494,74.1849
495,85.9421
496,106.676
497,137.683
498,172.387
499,205.764
500,237.784
501,273.843
502,311.856
503,341.924
504,366.04
505,371.99
506,372.095
507,335.755
508,286.23
509,238.901
510,197.671
511,160.318
512,124.468
513,98.0828
514,85.9455
515,83.2015
516,80.6057
517,77.2914
518,70.7213
519,63.2246
520,53.8128
521,41.6054
522,30.8028
523,23.0847
524,15.3389
525,10.1405
526,5.51341
527,5.5442
528,12.7032
529,15.859
530,15.8748
531,9.99795
532,6.86766
533,6.86721
534,8.03622
535,18.8186
536,29.6672
537,29.6434
538,27.4674
539,17.846
540,5.42421
541,5.37503
542,9.94224
543,18.7838
544,26.9269
545,29.8599
546,29.7762
547,18.6577
548,9.18063
549,2.13374
550,-4.80287
551,-6.16623
552,-6.29569
553,-4.6366
554,-1.04377
555,4.43851
556,12.7603
557,12.592
558,11.2197
559,6.64636
560,6.45592
561,11.9708
562,15.7351
563,17.2067
564,16.9881
565,12.52
566,7.33912
567,7.10048
568,8.79573
569,8.54421
570,6.52602
571,4.48847
572,-2.80751
573,-3.08359
574,-1.77909
575,10.5629
576,10.9336
577,10.635
578,9.79347
579,9.48472
580,13.2965
581,15.7739
582,15.4512
583,10.1297
584,-1.79282
585,-2.12797
586,7.02735
587,19.6467
588,36.8541
589,55.7977
590,55.4459
591,47.5869
592,47.1711
593,46.8117
594,55.3459
595,77.4848
596,100.091
597,108.367
598,114.954
599,131.448
600,157.907
601,182.586
602,204.914
603,223.928
604,231.488
605,237.735
606,237.365
607,236.568
608,215.074
609,190.206
610,167.722
611,163.16
612,158.376
613,132.204
614,101.072
615,100.713
616,107.804
617,122.967
618,134.722
619,151.702
620,174.91
621,199.901
622,228.357
623,264.638
624,307.513
625,343.207
626,367.228
627,366.907
628,367.185
629,369.583
630,369.276
631,361.417
632,335.865
633,310.229
634,273.391
635,237.182
636,236.903
637,248.837
638,259.022
639,261.782
640,272.669
641,299.057
642,326.4
643,385.589
644,455.143
645,560.226
646,677.483
647,789.35
648,907.049
649,1024.75
650,1113.58
651,1186.82
652,1186.64
653,1165.95
654,1081.24
655,973.597
656,863.788
657,751.295
658,632.205
659,522.388
660,422.096
661,351.165
662,288.499
663,242.172
664,209.103
665,177.706
666,151.552
667,138.532
668,138.459
669,149.512
670,149.451
671,135.563
672,119.56
673,98.7968
674,80.1441
675,80.1128
676,80.2131
677,93.746
678,111.31
679,117.836
680,118.808
681,118.81
682,126.869
683,131.769
684,138.473
685,145.828
686,155.86
687,163.918
688,169.705
689,172.469
690,172.517
691,167.293
692,167.35
693,167.699
694,169.213
695,169.282
696,166.333
697,166.41
698,191.813
699,191.898
700,185.368
701,178.277
702,178.373
703,197.505
704,227.974
705,263.226
706,294.171
707,312.585
708,334.161
709,383.803
710,425.262
711,425.385
712,411.804
713,390.299
714,365.478
715,334.773
716,310.325
717,289.298
718,256.325
719,223.321
720,199.983
721,179.355
722,165.939
723,154.687
724,140.749
725,120.559
726,120.501
727,120.642
728,136.52
729,136.66
730,130.889
731,124.927
732,121.336
733,121.472
734,125.373
735,125.506
736,122.133
737,122.263
738,128.656
739,135.937
740,136.059
741,119.25
742,102.797
743,88.043
744,72.9755
745,59.1927
746,46.2614
747,33.6162
748,19.7194
749,10.1355
750,3.66084
751,3.74234
752,5.93134
753,6.00285
754,5.82114
755,5.88185
756,14.8563
757,25.1776
758,25.2206
759,19.0844
760,15.7083
761,14.6402
762,10.5286
763,-2.32422
764,-2.32202
765,-0.668852
766,1.8433
767,1.82259
768,-11.6236
769,-11.6604
770,-0.743267
771,-0.796152
772,-12.0348
773,-12.1035
774,-3.43602
775,14.0433
776,13.9528
777,14.1654
778,30.966
779,55.1483
780,69.9609
781,74.1555
782,85.9453
783,112.629
784,140.622
785,180.256
786,224.474
787,281.498
788,340.966
789,429.445
790,533.348
791,648.373
792,768.596
793,899.171
794,1065.45
795,1228.84
796,1309.49
797,1380.09
798,1379.94
799,1376.43
800,1312.29
801,1207.59
802,1090.85
803,956.365
804,827.278
805,733.202
806,642.451
807,561.506
808,483.841
809,431.034
810,389.93
811,339.921
812,273.782
813,234.287
814,234.181
815,243.441
816,245.559
817,245.466
818,230.49
819,225.541
820,225.463
821,266.808
822,293.467
823,296.517
824,297.589
825,297.869
826,297.889
827,317.832
828,340.49
829,361.458
830,381.962
831,418.515
832,463.857
833,483.226
834,483.231
835,483.243
836,497.757
837,497.782
838,455.024
839,397.336
840,369.715
841,354.028
842,354.089
843,365.893
844,394.552
845,444.655
846,506.179
847,580.974
848,664.126
849,762.643
850,873.624
851,1029.57
852,1205.98
853,1428.71
854,1670.57
855,1893.24
856,2096.76
857,2287.02
858,2371.49
859,2371.68
860,2291.52
861,2140.65
862,1926.05
863,1693.01
864,1468.68
865,1245.25
866,1052.75
867,918.745
868,788.635
869,616.78
870,467.567
871,399.162
872,341.901
873,281.957
874,229.388
875,196.67
876,163.863
877,124.002
878,86.2251
879,58.1406
880,40.5622
881,27.2028
882,23.9498
883,24.2385
884,26.6122
885,26.9013
886,23.5203
887,13.4505
888,10.0563
889,9.65359
890,7.88068
891,4.55906
892,0.992193
893,-2.91272
894,-2.63794
895,-1.70849
896,2.54822
897,18.6254
898,18.8859
899,10.4507
900,-13.6419
901,-13.3947
902,1.1946
903,11.9653
904,19.2957
905,19.5237
906,8.89443
907,9.11293
908,17.0254
909,22.6192
910,22.8236
911,15.2987
912,15.4938
913,17.533
914,22.6016
915,22.7829
916,21.5283
917,11.6934
918,11.4171
919,11.5801
920,14.2148
921,19.0188
922,25.1733
923,30.0856
924,30.2262
925,10.8438
926,-4.40445
927,-4.27712
928,22.6571
929,26.6821
930,26.7966
931,21.2928
932,18.2609
933,15.1884
934,8.37488
935,8.47018
936,15.6092
937,25.7328
938,25.8177
939,23.8756
940,19.7148
941,16.6585
942,16.731
943,25.4702
944,27.853
945,28.4546
946,28.5162
947,35.587
948,44.0704
949,55.3682
950,64.9157
951,74.4821
952,75.1615
953,75.2078
954,65.9274
955,59.4696
956,59.5108
957,67.5815
958,93.2911
959,113.474
960,120.311
961,133.612
962,169.842
963,209.712
964,235.159
965,262.666
966,309.142
967,360.508
968,380.847
969,381.651
970,387.024
971,387.052
972,361.844
973,320.528
974,281.838
975,260.956
976,234.153
977,180.722
978,134.724
979,129.929
980,129.016
981,102.896
982,78.1079
983,72.4445
984,71.8883
985,71.9144
986,76.1063
987,76.1329
988,66.2878
989,66.315
990,68.9429
991,71.4604
992,71.9968
993,73.3985
994,79.0017
995,79.0311
996,78.6164
997,76.357
998,76.3879
999,76.6082
1000,90.2031
1001,90.2357
1002,89.7996
1003,89.8334
1004,104.681
1005,133.848
1006,149.39
1007,155.808
1008,155.845
1009,151.637
1010,151.675
1011,165.667
1012,180.517
1013,180.558
1014,180.599
1015,206.647
1016,232.789
1017,232.832
1018,229.615
1019,229.104
1020,224.401
1021,212.631
1022,173.437
1023,163.443
1024,162.992
1025,163.041
1026,145.195
1027,130.154
1028,126.017
1029,119.712
1030,111.03
1031,106.378
1032,95.521
1033,95.5742
1034,99.7967
1035,114.092
1036,114.146
1037,89.3915
1038,89.4463
1039,94.0478
1040,104.591
1041,104.901
1042,104.956
1043,91.4169
1044,83.984
1045,80.3384
1046,73.1975
1047,62.592
1048,62.647
1049,65.8698
1050,75.1804
1051,75.2347
1052,71.128
1053,63.8296
1054,56.2013
1055,44.723
1056,32.6697
1057,14.2738
1058,14.3246
1059,22.465
1060,64.3972
1061,64.4458
1062,40.6526
1063,33.8248
1064,33.8706
1065,36.587
1066,43.7547
1067,43.7974
1068,37.8013
1069,37.8415
1070,44.3669
1071,54.2121
1072,54.2483
1073,53.1327
1074,52.0739
1075,52.5408
1076,52.1357
1077,49.8575
1078,22.01
1079,11.8681
1080,11.8911
1081,35.4484
1082,40.5211
1083,40.5381
1084,36.2237
1085,26.6474
1086,26.6578
1087,51.9679
1088,54.7115
1089,54.7149
1090,54.7158
1091,58.9673
1092,62.8983
1093,62.8914
1094,62.8817
1095,66.6051
1096,74.8471
1097,106.064
1098,141.571
1099,163.246
1100,183.087
1101,213.469
1102,246.603
1103,276.405
1104,301.053
1105,320.643
1106,320.848
1107,320.796
1108,279.524
1109,244.617
1110,223.681
1111,206.294
1112,183.73
1113,166.136
1114,158.989
1115,148.029
1116,129.626
1117,117.8
1118,117.491
1119,116.831
1120,107.33
1121,96.9522
1122,88.6039
1123,88.4787
1124,96.6146
1125,109.767
1126,109.625
1127,104.311
1128,88.6395
1129,69.9592
1130,68.4144
1131,66.4086
1132,43.5272
1133,10.0408
1134,-0.666319
1135,-2.04982
1136,-2.25662
1137,0.0668757
1138,16.2421
1139,39.1625
1140,38.9268
1141,9.55221
1142,9.30151
1143,23.7425
1144,26.029
1145,25.7553
1146,14.1317
1147,1.7486
1148,1.45118
1149,34.4343
1150,34.1207
1151,24.1751
1152,19.2858
1153,18.9473
1154,38.5869
1155,50.5703
1156,67.5664
1157,106.009
1158,144.373
1159,183.656
1160,230.592
1161,299.123
1162,374.744
1163,510.724
1164,662.26
1165,808.143
1166,949.781
1167,1085.81
1168,1199.45
1169,1198.97
1170,1169.16
1171,1057.11
1172,919.947
1173,764.71
1174,609.672
1175,495.764
1176,409.934
1177,343.396
1178,266.242
1179,208.242
1180,181.724
1181,162.951
1182,140.475
1183,112.01
1184,69.4392
1185,31.4237
1186,12.1444
1187,0.743602
1188,-0.0369
1189,-3.87582
1190,-24.0677
1191,-24.8202
1192,-11.9897
1193,6.55014
1194,7.13648
1195,6.32847
1196,13.634
1197,12.8007
1198,-3.30495
1199,-4.16198
1200,-3.07506
1201,14.7241
1202,15.8539
1203,17.1662
1204,16.2584
1205,15.342
1206,27.1264
1207,42.3149
1208,68.2577
1209,94.6483
1210,122.941
1211,154.439
1212,167.064
1213,170.161
1214,209.998
1215,263.687
1216,300.6
1217,331.206
1218,372.427
1219,419.474
1220,453.313
1221,478.508
1222,527.244
1223,593.54
1224,633.255
1225,649.593
1226,702.245
1227,781.582
1228,851.586
1229,912.483
1230,1022.31
1231,1164.74
1232,1323.87
1233,1497.95
1234,1645.41
1235,1758.41
1236,1862.63
1237,1958.87
1238,1957.95
1239,1894.33
1240,1793.74
1241,1640.3
1242,1464.38
1243,1275.14
1244,1097.01
1245,939.739
1246,824.225
1247,746.021
1248,677.938
1249,633.484
1250,598.765
1251,576.044
1252,575.245
1253,583.385
1254,590.166
1255,598.796
1256,611.975
1257,615.372
1258,614.634
1259,588.709
1260,549.778
1261,492.472
1262,437.606
1263,376.787
1264,325.899
1265,296.911
1266,276.252
1267,275.614
1268,278.239
1269,300.297
1270,338.153
1271,419.057
1272,502.158
1273,574.341
1274,650.113
1275,736.972
1276,812.271
1277,841.96
1278,864.116
1279,868.943
1280,868.459
1281,820.505
1282,758.729
1283,648.03
1284,538.858
1285,449.036
1286,367.029
1287,301.518
1288,236.356
1289,174.854
1290,123.913
1291,111.579
1292,98.0907
1293,63.3667
1294,33.2819
1295,14.0804
1296,11.1253
1297,10.8398
1298,10.5655
1299,1.97276
1300,1.72064
1301,6.84164
1302,6.61144
1303,-17.6233
1304,-17.8318
1305,28.7525
1306,81.3621
1307,85.6432
1308,86.1754
1309,133.51
1310,180.716
1311,213.776
1312,259.732
1313,380.911
1314,507.95
1315,628.07
1316,762.798
1317,962.221
1318,1167.22
1319,1380.89
1320,1587.33
1321,1770.74
1322,1950.47
1323,2102.79
1324,2233.24
1325,2292.5
1326,2292.59
1327,2209.32
1328,2102.64
1329,1996.98
1330,1867.6
1331,1679.61
1332,1492.73
1333,1310.23
1334,1145.73
1335,1025.14
1336,907.413
1337,795.975
1338,691.399
1339,602.84
1340,519.131
1341,449.121
1342,390.728
1343,349.854
1344,306.548
1345,264.235
1346,222.827
1347,184.007
1348,180.643
1349,168.956
1350,169.434
1351,131.562
1352,132.07
1353,168.049
1354,195.459
1355,220.735
1356,241.738
1357,262.256
1358,313.185
1359,383.277
1360,429.111
1361,469.906
1362,526.61
1363,584.146
1364,645.887
1365,715.692
1366,788.843
1367,869.284
1368,943.2
1369,1008.12
1370,1055.07
1371,1087.77
1372,1111.4
1373,1114.92
1374,1115.71
1375,1077.18
1376,988.763
1377,890.935
1378,825.099
1379,760.951
1380,693.865
1381,631.939
1382,565.496
1383,493.897
1384,448.965
1385,405.615
1386,324.504
1387,252.181
1388,235.248
1389,208.942
1390,161.704
1391,128.587
1392,129.243
1393,130.18
1394,130.491
1395,122.237
1396,90.0411
1397,62.3576
1398,43.9099
1399,30.919
1400,28.116
1401,23.4848
1402,18.4234
1403,16.0405
1404,17.0038
1405,22.1828
1406,25.1739
1407,26.1366
1408,16.1373
1409,17.0976
1410,18.0562
1411,15.4478
1412,-1.42702
1413,-0.475781
1414,16.7124
1415,36.5361
1416,43.5978
1417,44.5341
1418,45.4658
1419,51.3438
1420,63.5858
1421,66.5127
1422,76.2569
1423,103.932
1424,104.829
1425,102.214
1426,103.096
1427,104.673
1428,118.136
1429,137.351
1430,138.199
1431,127.253
1432,128.082
1433,142.922
1434,156.631
1435,161.255
1436,171.033
1437,195.552
1438,206.021
1439,213.204
1440,213.943
1441,211.867
1442,209.209
1443,209.907
1444,225.755
1445,243.956
1446,244.61
1447,231.173
1448,231.796
1449,230.6
1450,231.19
1451,216.757
1452,183.643
1453,168.766
1454,165.623
1455,166.124
1456,158.901
1457,159.363
1458,175.053
1459,175.475
1460,126.172
1461,96.2385
1462,91.4717
1463,90.9121
1464,50.1208
1465,50.4117
1466,81.6488
1467,81.8926
1468,61.7159
1469,38.9377
1470,22.2443
1471,22.3888
1472,22.5073
1473,10.9102
1474,-11.2449
1475,-11.2067
1476,1.43285
1477,1.41571
1478,1.37062
1479,26.153
1480,26.0514
1481,13.8386
1482,-8.08539
1483,-26.2761
1484,-26.4933
1485,-10.3302
1486,5.90059
1487,7.69296
1488,10.818
1489,15.6108
1490,24.2145
1491,31.4473
1492,31.0116
1493,16.5393
1494,16.0539
1495,35.2615
1496,37.4459
1497,37.4579
1498,48.2471
1499,56.8501
1500,56.2277
1501,55.5841
1502,68.3657
1503,83.6097
1504,118.332
1505,146.81
1506,146.068
1507,145.309
1508,165.727
1509,179.819
1510,199.465
1511,217.656
1512,217.435
1513,216.577
1514,208.901
1515,208.014
1516,227.566
1517,229.722
1518,228.795
1519,189.268
1520,122.365
1521,103.727
1522,92.8189
1523,73.2639
1524,72.2699
1525,77.2703
1526,76.2578
1527,69.7921
1528,53.9733
1529,24.9685
1530,22.9158
1531,14.877
1532,13.8195
1533,-0.559344
1534,-4.72782
1535,-5.80167
1536,6.59743
1537,16.6966
1538,15.6111
1539,7.28723
1540,6.19673
1541,12.6311
1542,33.1334
1543,55.2605
1544,67.7412
1545,86.285
1546,126.116
1547,171.87
1548,216.244
1549,245.268
1550,264.191
1551,311.027
1552,376.272
1553,433.342
1554,483.28
1555,539.525
1556,611.475
1557,725.296
1558,809.584
1559,834.725
1560,885.535
1561,941.153
1562,940.155
1563,910.319
1564,902.771
1565,895.545
1566,853.876
1567,816.093
1568,787.006
1569,733.46
1570,652.864
1571,578.452
1572,538.838
1573,503.094
1574,447.812
1575,383.814
1576,319.058
1577,272.551
1578,244.321
1579,234.457
1580,231.942
1581,230.176
1582,218.702
1583,163.799
1584,139.051
1585,138.398
1586,150.389
1587,149.776
1588,149.183
1589,164.7
1590,179.83
1591,179.301
1592,178.792
1593,216.722
1594,266.253
1595,313.707
1596,370.088
1597,424.542
1598,488.758
1599,573.251
1600,659.195
1601,731.017
1602,899.39
1603,1085.08
1604,1209.45
1605,1358.74
1606,1583.35
1607,1807.21
1608,1988.52
1609,2123.16
1610,2254.99
1611,2261.94
1612,2266.14
1613,2266.16
1614,2266.21
1615,2225.28
1616,2187.99
1617,2176.09
1618,2159.97
1619,2131.4
1620,2019.39
1621,1864.64
1622,1736.97
1623,1608
1624,1393.33
1625,1169.6
1626,1085.55
1627,1020.82
1628,871.583
1629,755.824
1630,756.322
1631,756.846
1632,734.871
1633,724.261
1634,712.384
1635,713.015
1636,727.095
1637,769.801
1638,830.048
1639,878.906
1640,906.179
1641,1005.65
1642,1137.57
1643,1285.26
1644,1407.48
1645,1511.56
1646,1633.44
1647,1758.87
1648,1808.93
1649,1849.69
1650,1850.69
1651,1802.58
1652,1723.22
1653,1647.38
1654,1599.68
1655,1551.67
1656,1489.53
1657,1409.36
1658,1305.31
1659,1165.16
1660,1030.34
1661,928.347
1662,812.24
1663,707.205
1664,600.741
1665,512.385
1666,439.86
1667,407.209
1668,375.378
1669,319.542
1670,268.627
1671,235.927
1672,209.216
1673,184.635
1674,157.882
1675,135.589
1676,105.998
1677,78.8899
1678,77.5672
1679,77.0733
1680,77.8312
1681,61.9317
1682,27.1591
1683,28.5961
1684,50.0554
1685,60.9925
1686,62.4374
1687,20.7183
1688,3.03984
1689,4.48709
1690,25.9226
1691,39.6778
1692,41.1218
1693,8.99064
1694,10.4294
1695,24.1344
1696,25.5653
1697,12.0039
1698,7.6573
1699,9.07194
1700,9.17693
1701,5.474
1702,-10.9199
1703,-9.53575
1704,26.676
1705,28.0416
1706,17.9479
1707,4.46678
1708,-4.89518
1709,-3.57176
1710,-2.25988
1711,-9.32563
1712,-8.03782
1713,4.85426
1714,6.11711
1715,-14.8067
1716,-13.5693
1717,-0.96706
1718,19.074
1719,38.1928
1720,48.5119
1721,49.6867
1722,41.2401
1723,31.823
1724,31.1799
1725,32.3073
1726,51.7915
1727,52.8962
1728,51.3391
1729,35.7415
1730,19.3936
1731,12.9591
1732,14.0094
1733,37.8118
1734,38.8415
1735,39.6559
1736,35.774
1737,36.7737
1738,57.1417
1739,58.1223
1740,57.8804
1741,58.8424
1742,81.6306
1743,98.9572
1744,99.8923
1745,89.3945
1746,73.6334
1747,74.543
1748,75.4443
1749,68.658
1750,69.5432
1751,87.9928
1752,88.8626
1753,51.5323
1754,52.3871
1755,63.6515
1756,100.458
1757,110.04
1758,110.866
1759,111.686
1760,113.022
1761,113.828
1762,105.004
1763,98.9194
1764,95.0052
1765,95.7871
1766,97.7742
1767,98.5445
1768,99.3092
1769,106.245
1770,106.999
1771,105.448
1772,86.0783
1773,83.0605
1774,83.794
1775,93.2981
1776,94.0221
1777,94.7415
1778,111.375
1779,131.263
1780,146.454
1781,147.156
1782,129.302
1783,107.049
1784,104.525
1785,105.212
1786,108.357
1787,111.592
1788,112.268
1789,112.941
1790,117.651
1791,141.128
1792,141.792
1793,142.453
1794,153.875
1795,154.53
1796,106.64
1797,107.29
1798,119.343
1799,147.359
1800,176.511
1801,177.151
1802,159.99
1803,120.497
1804,104.218
1805,104.851
1806,116.163
1807,131.905
1808,134.524
1809,135.15
1810,116.77
1811,117.393
1812,161.086
1813,178.953
1814,179.572
1815,157.246
1816,144.942
1817,145.558
1818,159.141
1819,171.533
1820,172.146
1821,152.708
1822,153.32
1823,158.122
1824,158.731
1825,159.341
1826,206.317
1827,206.925
1828,166.181
1829,133.658
1830,134.265
1831,134.927
1832,164.122
1833,195.897
1834,212.808
1835,213.414
1836,212.732
1837,204.425
1838,197.036
1839,193.579
1840,194.184
1841,195.986
1842,208.025
1843,208.629
1844,211.892
1845,212.496
1846,168.687
1847,169.291
1848,190.032
1849,190.636
