#wnum,raman
275,153.196
276,153.876
277,155.794
278,158.147
279,162.099
280,165.343
281,166.023
282,161.119
283,161.8
284,171.201
285,186.884
286,194.747
287,197.131
288,197.811
289,194.131
290,188.572
291,189.251
292,193.261
293,196.888
294,199.911
295,200.914
296,201.593
297,196.238
298,196.915
299,200.121
300,200.798
301,199.176
302,190.751
303,187.073
304,187.747
305,188.42
306,170.616
307,152.57
308,140.245
309,132.457
310,125.18
311,120.824
312,117.073
313,109.722
314,99.7294
315,90.8227
316,84.8657
317,78.6856
318,79.3433
319,78.2097
320,78.0389
321,66.8715
322,55.4383
323,54.5821
324,55.2287
325,56.0084
326,56.8528
327,57.4928
328,46.3425
329,35.1216
330,27.3739
331,21.1774
332,21.805
333,23.2853
334,24.4621
335,25.0812
336,18.645
337,17.7165
338,18.3265
339,18.9334
340,17.1715
341,12.9206
342,13.5173
343,16.4897
344,17.0793
345,17.3643
346,16.2106
347,16.7889
348,17.5145
349,18.0849
350,10.4268
351,2.39043
352,-1.42031
353,-1.20945
354,-0.660387
355,9.4801
356,16.4635
357,16.999
358,16.1187
359,16.3043
360,16.7208
361,16.0457
362,10.0996
363,4.61805
364,5.12019
365,6.5776
366,7.06975
367,2.72152
368,3.20349
369,12.5718
370,23.6501
371,24.1164
372,16.8435
373,17.2991
374,26.0809
375,38.3795
376,43.5439
377,43.9775
378,42.1603
379,27.541
380,21.7925
381,22.2032
382,31.2239
383,31.6228
384,27.5724
385,23.5478
386,20.4212
387,17.0745
388,6.6991
389,-4.92597
390,-4.56994
391,7.02373
392,15.577
393,15.9142
394,14.4823
395,14.8072
396,15.8427
397,16.1554
398,12.7346
399,9.14187
400,4.57769
401,0.129234
402,-0.955071
403,-0.67801
404,0.916302
405,8.74674
406,15.5023
407,15.7564
408,10.7382
409,7.21823
410,7.45582
411,7.66352
412,2.25587
413,-0.0901536
414,0.126047
415,13.5718
416,21.1977
417,21.3984
418,18.4612
419,16.521
420,15.005
421,14.3428
422,14.5188
423,14.69
424,13.3923
425,12.3582
426,9.96468
427,6.33639
428,6.48446
429,9.88385
430,15.231
431,19.7738
432,24.1321
433,24.3283
434,24.4503
435,22.9521
436,20.5712
437,19.2447
438,19.3504
439,21.9191
440,25.0442
441,29.0476
442,32.6453
443,32.7465
444,32.8142
445,28.8656
446,21.7446
447,16.5885
448,16.6568
449,17.4004
450,22.7029
451,28.5457
452,28.6003
453,26.4421
454,23.2185
455,19.7056
456,15.9715
457,12.3273
458,12.3629
459,12.8258
460,28.5538
461,31.2574
462,31.2813
463,19.5913
464,19.6096
465,26.0541
466,26.0669
467,24.2372
468,24.2447
469,31.5953
470,44.5306
471,44.5306
472,35.7173
473,28.1743
474,27.7275
475,27.2053
476,26.9551
477,26.941
478,27.505
479,29.5253
480,29.5048
481,28.6675
482,25.2882
483,22.2124
484,21.4364
485,21.4059
486,30.7845
487,35.9969
488,35.9608
489,31.3053
490,29.7332
491,29.0745
492,27.4746
493,24.8341
494,24.7879
495,29.3437
496,34.1307
497,34.08
498,29.0668
499,29.0132
500,34.3547
501,40.8517
502,45.3777
503,45.3188
504,45.0096
505,36.2645
506,32.6529
507,32.5892
508,34.1937
509,38.7376
510,43.4874
511,44.3668
512,44.2978
513,42.9337
514,39.6536
515,39.5817
516,42.2387
517,46.3271
518,46.2527
519,39.9366
520,35.3276
521,35.2507
522,35.1662
523,32.5771
524,29.5529
525,25.4956
526,20.6161
527,20.5352
528,25.2321
529,29.819
530,29.7364
531,26.3993
532,18.7475
533,7.21629
534,7.13179
535,12.2126
536,21.8423
537,21.7566
538,18.2821
539,14.5029
540,10.6927
541,7.44045
542,5.63343
543,5.5458
544,11.9975
545,18.8026
546,18.7143
547,8.72867
548,8.64002
549,9.18543
550,15.3691
551,18.5252
552,21.1081
553,21.0189
554,18.3458
555,18.2566
556,22.1218
557,22.0326
558,18.0941
559,11.6746
560,11.5855
561,18.4053
562,22.0119
563,21.9231
564,20.8525
565,17.3512
566,17.2629
567,19.5669
568,29.2234
569,29.1356
570,25.2733
571,18.6714
572,18.5844
573,18.6767
574,18.5903
575,16.8058
576,13.6003
577,8.61512
578,8.53007
579,10.4711
580,16.0633
581,15.9794
582,15.1797
583,15.0966
584,18.9324
585,23.0413
586,25.9703
587,28.3202
588,29.0182
589,29.1326
590,29.0529
591,27.0198
592,25.9533
593,25.8753
594,25.7978
595,21.4802
596,21.4039
597,21.6959
598,32.8307
599,32.7562
600,29.8502
601,22.3834
602,18.8917
603,17.0531
604,16.9819
605,19.2593
606,19.1894
607,14.0285
608,12.6662
609,12.5984
610,15.6749
611,15.6086
612,15.6126
613,21.4286
614,33.4232
615,33.3598
616,31.0576
617,21.9685
618,21.9074
619,21.8106
620,21.4423
621,21.3835
622,21.672
623,31.3357
624,33.6684
625,33.6128
626,27.2484
627,27.1944
628,29.4737
629,33.5019
630,39.1676
631,43.4532
632,43.4033
633,42.934
634,33.0975
635,23.6185
636,23.5719
637,32.0622
638,38.0667
639,40.7603
640,41.3331
641,41.2906
642,41.2491
643,45.9872
644,54.9723
645,54.9332
646,50.4183
647,48.1577
648,48.121
649,49.094
650,53.1467
651,56.3495
652,56.316
653,52.6496
654,52.6177
655,61.134
656,64.9655
657,64.9358
658,61.822
659,50.8306
660,36.5637
661,29.5929
662,29.5667
663,31.102
664,35.1079
665,35.0838
666,34.7289
667,31.0136
668,27.0134
669,22.5765
670,19.5701
671,19.2677
672,19.2478
673,24.7493
674,24.7303
675,18.7707
676,9.14536
677,9.12793
678,20.0333
679,20.0167
680,18.8244
681,14.2743
682,12.5094
683,12.4945
684,14.2934
685,18.8333
686,18.8194
687,16.0876
688,16.0742
689,25.1352
690,29.386
691,29.3735
692,25.1534
693,18.5873
694,11.1828
695,11.171
696,11.4341
697,13.7968
698,15.1908
699,15.1794
700,8.85558
701,4.5135
702,4.50225
703,12.4404
704,18.9988
705,23.8548
706,23.8434
707,23.0063
708,22.9947
709,28.3433
710,31.7623
711,31.7503
712,20.5239
713,20.5115
714,24.3647
715,24.3518
716,16.8878
717,5.92465
718,-1.77353
719,-1.78768
720,0.699589
721,17.3264
722,28.878
723,34.7563
724,35.6448
725,35.6287
726,32.9394
727,30.3991
728,28.0031
729,27.9859
730,27.9685
731,27.4486
732,22.956
733,19.2857
734,18.0557
735,18.0371
736,24.3295
737,25.0601
738,25.0409
739,13.4174
740,13.398
741,25.0515
742,25.0318
743,21.098
744,15.7549
745,15.7347
746,19.5452
747,19.5248
748,18.5884
749,18.5677
750,21.2045
751,21.1837
752,18.5248
753,16.4199
754,16.3988
755,17.1613
756,20.6495
757,22.2919
758,22.2705
759,15.788
760,15.7665
761,24.535
762,24.5134
763,12.2889
764,0.881412
765,0.85964
766,10.2186
767,12.0066
768,11.9847
769,11.9627
770,12.5425
771,13.8183
772,17.2085
773,17.1865
774,5.0363
775,-1.04998
776,-1.07211
777,15.6085
778,21.2123
779,21.1902
780,19.3145
781,15.7918
782,15.7699
783,20.5974
784,27.4083
785,30.77
786,30.7487
787,24.3201
788,7.9276
789,7.90701
790,13.054
791,17.665
792,17.6453
793,17.6259
794,23.48
795,25.7084
796,25.6901
797,17.2514
798,12.9582
799,12.1638
800,12.1472
801,14.6584
802,17.6264
803,23.1817
804,23.2002
805,23.1862
806,18.1112
807,18.0983
808,21.9625
809,23.7558
810,23.9232
811,24.2659
812,24.7442
813,25.5686
814,29.9491
815,34.3889
816,38.2968
817,41.8901
818,43.3664
819,44.2428
820,45.4725
821,45.4694
822,45.3108
823,36.8997
824,36.899
825,37.9106
826,45.508
827,47.9635
828,47.9662
829,42.5461
830,30.3548
831,30.3602
832,36.52
833,41.099
834,41.1071
835,41.1161
836,46.0081
837,46.019
838,45.7748
839,38.2413
840,38.255
841,40.2978
842,47.1376
843,57.8822
844,57.8998
845,45.2711
846,39.8534
847,39.874
848,45.2125
849,45.235
850,42.3059
851,42.3304
852,45.0488
853,47.9037
854,50.7127
855,53.4156
856,57.154
857,57.1844
858,48.2183
859,41.8719
860,41.9051
861,47.6488
862,48.2543
863,48.6648
864,53.006
865,60.5511
866,60.59
867,52.5128
868,52.5535
869,62.8465
870,62.889
871,62.3859
872,50.2132
873,40.4247
874,32.9743
875,33.0211
876,41.0545
877,41.1029
878,40.3526
879,40.4026
880,51.7365
881,51.788
882,47.5517
883,46.3379
884,46.3916
885,57.2668
886,57.3218
887,53.7085
888,53.7648
889,54.3886
890,54.4461
891,44.1573
892,36.468
893,35.9126
894,35.9723
895,39.7976
896,41.8666
897,41.9277
898,37.7424
899,32.3929
900,27.6576
901,27.7202
902,34.2392
903,34.3026
904,32.7876
905,27.5772
906,18.2444
907,18.3087
908,21.7663
909,29.9823
910,30.0471
911,28.3196
912,28.3845
913,35.9389
914,36.0039
915,32.8965
916,32.9615
917,40.7568
918,40.8216
919,27.7083
920,19.4156
921,19.48
922,23.47
923,23.5339
924,19.0057
925,19.069
926,20.1289
927,20.3399
928,20.4184
929,20.4639
930,20.5415
931,20.9441
932,24.6132
933,24.673
934,23.7567
935,19.9456
936,12.1019
937,12.1591
938,20.3745
939,35.188
940,35.2429
941,19.667
942,15.3186
943,15.371
944,18.9494
945,23.775
946,23.8245
947,23.1127
948,23.1601
949,25.3884
950,25.4336
951,20.3063
952,15.805
953,15.8466
954,24.5933
955,24.6322
956,13.4367
957,13.4729
958,20.4454
959,26.5103
960,26.5421
961,25.8331
962,25.8229
963,25.5962
964,19.7767
965,19.8003
966,22.5225
967,30.1873
968,30.2055
969,28.6395
970,24.6256
971,17.4461
972,17.4566
973,21.0143
974,21.0208
975,16.2741
976,16.2763
977,17.3917
978,17.3894
979,14.3249
980,7.41554
981,3.74446
982,0.161117
983,-0.178024
984,-0.268526
985,-3.52929
986,-3.55096
987,-0.56367
988,16.6489
989,29.6275
990,39.7782
991,39.744
992,30.2696
993,21.3533
994,21.312
995,21.2685
996,19.1
997,12.5854
998,12.5352
999,12.4829
1000,12.2135
1001,12.157
1002,18.5405
1003,30.0876
1004,30.7328
1005,30.6684
1006,23.3733
1007,8.12325
1008,5.47366
1009,5.40186
1010,12.9229
1011,24.0494
1012,23.9724
1013,17.1319
1014,4.28948
1015,4.20761
1016,12.2424
1017,21.2834
1018,28.0925
1019,28.0045
1020,20.5048
1021,20.414
1022,21.3734
1023,21.2799
1024,11.2587
1025,11.1626
1026,19.7963
1027,19.6978
1028,18.6611
1029,9.61112
1030,8.71445
1031,8.61137
1032,18.271
1033,22.329
1034,22.2228
1035,14.2252
1036,14.1171
1037,20.3038
1038,20.1939
1039,17.0649
1040,16.9532
1041,18.2021
1042,19.9226
1043,21.3687
1044,21.2541
1045,14.1533
1046,12.1268
1047,12.0102
1048,15.5309
1049,22.0732
1050,21.9548
1051,17.0017
1052,16.8823
1053,25.2527
1054,34.9592
1055,34.8384
1056,16.747
1057,16.6254
1058,14.9713
1059,14.8491
1060,6.18836
1061,6.06554
1062,8.45392
1063,12.7482
1064,16.7567
1065,16.633
1066,8.22369
1067,1.34516
1068,1.22108
1069,2.24662
1070,11.2357
1071,18.2292
1072,18.4863
1073,18.362
1074,19.9088
1075,21.2854
1076,25.8255
1077,30.5896
1078,33.3185
1079,33.1948
1080,29.5128
1081,21.1852
1082,21.062
1083,26.601
1084,26.4783
1085,24.8621
1086,24.74
1087,32.8505
1088,39.6995
1089,40.3174
1090,42.0553
1091,46.4126
1092,50.3983
1093,59.1498
1094,66.2613
1095,74.6274
1096,82.1227
1097,82.005
1098,80.3766
1099,79.5559
1100,77.8121
1101,76.2723
1102,76.1573
1103,77.8937
1104,77.7798
1105,76.5299
1106,70.3129
1107,64.0616
1108,57.0748
1109,56.9638
1110,59.0706
1111,62.5579
1112,65.5225
1113,68.8971
1114,71.0713
1115,72.495
1116,74.482
1117,76.5662
1118,79.7435
1119,79.6388
1120,76.0114
1121,73.0632
1122,72.9604
1123,72.8582
1124,67.8441
1125,57.4616
1126,52.6635
1127,52.0198
1128,51.9207
1129,53.3885
1130,55.8
1131,56.7733
1132,56.6764
1133,41.8892
1134,41.4819
1135,41.3866
1136,44.7705
1137,44.6763
1138,40.3179
1139,30.6084
1140,25.4263
1141,25.3339
1142,28.819
1143,37.4785
1144,37.3874
1145,25.82
1146,18.1203
1147,18.0303
1148,17.9407
1149,10.6393
1150,10.5504
1151,35.9481
1152,46.407
1153,46.3189
1154,28.1677
1155,25.3715
1156,25.2842
1157,27.4648
1158,27.3779
1159,19.3764
1160,11.5234
1161,11.4369
1162,28.8981
1163,28.8119
1164,19.093
1165,18.0009
1166,17.9148
1167,20.9071
1168,24.0674
1169,23.9812
1170,22.6446
1171,22.5584
1172,34.4742
1173,34.3878
1174,24.7467
1175,18.4825
1176,16.9173
1177,16.8302
1178,19.8715
1179,19.784
1180,14.387
1181,7.48687
1182,-2.35323
1183,-2.44193
1184,-1.09234
1185,0.308645
1186,0.219043
1187,0.129207
1188,4.9722
1189,7.60398
1190,7.51366
1191,7.42325
1192,10.6194
1193,15.734
1194,15.8384
1195,16.9182
1196,27.0974
1197,29.7678
1198,29.6778
1199,21.1407
1200,18.2256
1201,17.2145
1202,17.1254
1203,20.066
1204,29.679
1205,30.5543
1206,30.4667
1207,21.9864
1208,21.8997
1209,35.1777
1210,35.0921
1211,22.1663
1212,22.0819
1213,38.3496
1214,42.0277
1215,41.9453
1216,39.3587
1217,35.4258
1218,33.4903
1219,33.3748
1220,32.4686
1221,32.391
1222,33.1433
1223,39.8124
1224,46.0985
1225,47.9647
1226,47.8919
1227,43.1041
1228,39.7237
1229,39.6541
1230,44.3461
1231,57.6774
1232,57.6112
1233,41.7376
1234,41.6738
1235,42.5776
1236,42.5162
1237,41.4257
1238,37.1691
1239,34.9118
1240,34.8556
1241,41.7086
1242,50.1319
1243,59.499
1244,63.5817
1245,63.5325
1246,60.0823
1247,58.8922
1248,57.6102
1249,51.5862
1250,51.5442
1251,63.595
1252,63.5561
1253,58.7618
1254,54.8403
1255,54.8061
1256,60.7739
1257,63.577
1258,63.5475
1259,61.4679
1260,56.7532
1261,54.8944
1262,54.8714
1263,62.8866
1264,62.8668
1265,56.5488
1266,51.9305
1267,51.9157
1268,56.1758
1269,56.1643
1270,56.1545
1271,71.8333
1272,72.2587
1273,72.2538
1274,57.411
1275,55.212
1276,55.2121
1277,71.958
1278,76.0686
1279,76.0738
1280,61.541
1281,61.2008
1282,61.2109
1283,68.1536
1284,68.167
1285,67.3085
1286,67.3251
1287,68.9904
1288,69.0103
1289,65.016
1290,53.7378
1291,53.7624
1292,56.4739
1293,62.879
1294,62.9083
1295,62.5891
1296,61.0283
1297,61.0622
1298,61.0975
1299,58.0956
1300,52.6723
1301,52.712
1302,55.6864
1303,59.3534
1304,59.3974
1305,55.2816
1306,55.3282
1307,72.7127
1308,73.3372
1309,73.3878
1310,50.9692
1311,47.1498
1312,47.204
1313,56.7254
1314,68.9162
1315,71.5981
1316,71.9458
1317,72.0058
1318,69.5825
1319,67.6226
1320,66.8247
1321,66.8887
1322,68.4672
1323,68.5332
1324,67.7744
1325,53.1812
1326,50.98
1327,51.0493
1328,51.1193
1329,44.158
1330,37.9435
1331,38.0156
1332,39.6867
1333,39.7599
1334,37.5208
1335,33.2956
1336,33.3704
1337,37.1187
1338,43.7326
1339,53.732
1340,53.8083
1341,47.0373
1342,47.1142
1343,50.0169
1344,56.5399
1345,56.6172
1346,53.2137
1347,36.246
1348,23.8186
1349,21.6259
1350,21.7031
1351,21.0126
1352,19.1393
1353,10.5978
1354,10.6743
1355,12.3592
1356,14.7339
1357,15.2827
1358,15.3576
1359,17.7237
1360,19.2247
1361,19.6496
1362,19.9946
1363,20.9813
1364,23.1477
1365,25.2799
1366,30.754
1367,30.8229
1368,30.5851
1369,17.583
1370,17.6491
1371,37.7925
1372,39.8651
1373,39.9279
1374,30.6097
1375,30.5061
1376,30.5652
1377,47.6137
1378,47.6701
1379,47.725
1380,48.1581
1381,56.6766
1382,56.727
1383,48.4886
1384,48.5356
1385,48.2237
1386,32.7923
1387,18.675
1388,18.7148
1389,18.7525
1390,15.8172
1391,12.1651
1392,12.1967
1393,13.0353
1394,19.8197
1395,24.7245
1396,29.8095
1397,29.8296
1398,15.0044
1399,15.0196
1400,15.3836
1401,23.5753
1402,26.9155
1403,26.92
1404,27.1897
1405,28.342
1406,37.9205
1407,37.9135
1408,33.3811
1409,17.7085
1410,-6.19055
1411,-6.2101
1412,19.1149
1413,30.047
1414,34.054
1415,34.022
1416,32.5056
1417,23.1248
1418,10.0168
1419,7.49263
1420,7.44646
1421,17.2168
1422,27.3513
1423,30.3774
1424,30.5705
1425,30.5118
1426,27.8127
1427,21.4536
1428,20.0862
1429,20.0185
1430,25.0764
1431,30.1406
1432,30.0668
1433,26.7442
1434,26.6666
1435,40.8715
1436,40.7903
1437,40.0419
1438,39.9575
1439,41.9519
1440,44.6786
1441,44.5897
1442,40.6229
1443,34.3249
1444,34.232
1445,33.7443
1446,33.233
1447,28.2148
1448,21.5134
1449,21.4149
1450,29.9656
1451,47.5217
1452,47.4205
1453,47.3184
1454,52.2145
1455,57.1464
1456,57.0423
1457,56.5762
1458,53.29
1459,49.0736
1460,45.6127
1461,42.6481
1462,40.8072
1463,40.6999
1464,44.1035
1465,43.9958
1466,30.7918
1467,30.6838
1468,33.2259
1469,42.4239
1470,52.4879
1471,52.3798
1472,48.0706
1473,34.0716
1474,19.8159
1475,19.7085
1476,27.9854
1477,36.6169
1478,42.8275
1479,42.7215
1480,38.7501
1481,31.2948
1482,27.0808
1483,26.9768
1484,26.8735
1485,26.3287
1486,25.2606
1487,24.0959
1488,22.0918
1489,20.1037
1490,20.0048
1491,21.36
1492,24.4916
1493,28.0065
1494,27.9112
1495,25.1006
1496,23.5579
1497,23.4659
1498,24.9731
1499,24.927
1500,24.8385
1501,19.3946
1502,19.3086
1503,20.1382
1504,20.0548
1505,19.9728
1506,28.3458
1507,37.4593
1508,38.4671
1509,38.3909
1510,29.1686
1511,18.4848
1512,5.5926
1513,5.52281
1514,14.95
1515,27.6413
1516,39.7823
1517,39.7194
1518,27.7495
1519,27.6902
1520,29.1805
1521,29.125
1522,23.7304
1523,20.2895
1524,20.2399
1525,30.4988
1526,44.8092
1527,48.9379
1528,48.8964
1529,41.6906
1530,37.0094
1531,33.4076
1532,27.8527
1533,27.8222
1534,29.7572
1535,42.2703
1536,50.0244
1537,50.003
1538,46.4736
1539,38.0997
1540,38.0855
1541,38.0979
1542,42.3882
1543,45.4351
1544,45.7195
1545,46.0244
1546,46.5332
1547,53.6976
1548,75.9542
1549,75.9627
1550,52.0045
1551,52.0183
1552,55.5379
1553,55.557
1554,42.6963
1555,36.4326
1556,36.4598
1557,45.7462
1558,58.5218
1559,71.8581
1560,75.0304
1561,75.0715
1562,75.1153
1563,80.8152
1564,81.971
1565,82.0233
1566,76.5015
1567,76.5596
1568,77.074
1569,83.4957
1570,89.3889
1571,95.3495
1572,97.2671
1573,97.3424
1574,94.2246
1575,91.7206
1576,85.5899
1577,85.6767
1578,110.689
1579,110.782
1580,100.825
1581,96.9718
1582,93.6208
1583,93.4876
1584,93.3
1585,93.4098
1586,93.5225
1587,90.477
1588,90.5953
1589,91.1745
1590,101.836
1591,102.53
1592,102.659
1593,102.505
1594,97.6574
1595,88.781
1596,88.9214
1597,113.519
1598,113.665
1599,102.892
1600,103.043
1601,107.181
1602,107.337
1603,100.639
1604,88.483
1605,88.6467
1606,89.8551
1607,98.4101
1608,102.076
1609,109.135
1610,115.038
1611,115.216
1612,111.324
1613,103.905
1614,91.1045
1615,89.1002
1616,89.2891
1617,96.5407
1618,96.7337
1619,95.4784
1620,89.4539
1621,88.9925
1622,83.3504
1623,61.1451
1624,61.3494
1625,73.5358
1626,78.8462
1627,79.0554
1628,73.6371
1629,67.118
1630,64.4533
1631,64.6686
1632,74.5836
1633,74.8015
1634,67.954
1635,61.242
1636,56.1426
1637,54.041
1638,52.4709
1639,47.8785
1640,48.1041
1641,57.8447
1642,58.072
1643,52.9294
1644,46.2666
1645,46.496
1646,56.8769
1647,63.3187
1648,63.5495
1649,57.7037
1650,54.5027
1651,53.6006
1652,42.0762
1653,42.3083
1654,44.6533
1655,54.544
1656,54.7762
1657,45.9444
1658,36.7709
1659,31.0476
1660,30.5162
1661,27.5494
1662,27.7797
1663,30.2787
1664,47.0866
1665,47.3152
1666,39.2575
1667,39.4846
1668,41.4681
1669,45.2976
1670,45.5218
1671,37.8374
1672,30.158
1673,27.5853
1674,17.0667
1675,17.2847
1676,23.825
1677,30.9651
1678,31.1785
1679,4.62583
1680,-0.914755
1681,-0.706616
1682,13.2542
1683,23.7872
1684,23.9895
1685,23.4121
1686,7.66466
1687,-0.514472
1688,-0.320795
1689,16.2125
1690,32.8529
1691,33.0396
1692,30.7934
1693,25.5391
1694,25.7183
1695,25.8003
1696,25.9741
1697,21.8718
1698,10.2753
1699,-2.82888
1700,-2.66614
1701,-2.19598
1702,4.45717
1703,13.9982
1704,30.4026
1705,30.551
1706,22.4953
1707,22.6382
1708,23.423
1709,23.5604
1710,23.6951
1711,25.1266
1712,31.2373
1713,37.197
1714,37.321
1715,28.8229
1716,22.8365
1717,20.5737
1718,20.6875
1719,20.7988
1720,19.0062
1721,19.1125
1722,24.3628
1723,35.0636
1724,38.0539
1725,38.1505
1726,-0.916021
1727,-0.824167
1728,19.1436
1729,32.7814
1730,35.1404
1731,35.2231
1732,26.6951
1733,22.9666
1734,19.4811
1735,16.3574
1736,5.91406
1737,5.98406
1738,10.425
1739,15.2896
1740,15.3537
1741,15.4159
1742,18.7285
1743,18.787
1744,16.6322
1745,9.27288
1746,4.29238
1747,2.96416
1748,3.01393
1749,5.22894
1750,9.1327
1751,19.7638
1752,19.8697
1753,24.5619
1754,27.8906
1755,42.4616
1756,42.4991
1757,32.7565
1758,32.7912
1759,32.8246
1760,27.1518
1761,27.1826
1762,33.8276
1763,41.6169
1764,47.712
1765,47.7379
1766,43.7799
1767,32.8713
1768,30.7189
1769,30.7404
1770,36.5605
1771,37.163
1772,37.1814
1773,30.376
1774,20.3114
1775,20.327
1776,47.232
1777,47.2458
1778,41.8492
1779,23.1248
1780,22.0962
1781,22.1068
1782,25.3876
1783,25.3967
1784,25.405
1785,30.8453
1786,30.8522
1787,17.8653
1788,17.8709
1789,35.9185
1790,35.9229
1791,38.0605
1792,43.25
1793,45.2832
1794,45.2854
1795,41.6429
1796,41.644
1797,41.6447
1798,33.3443
1799,27.3926
1800,23.9872
1801,23.9861
1802,27.2868
1803,36.3641
1804,36.3619
1805,16.9583
1806,16.0866
1807,16.0834
1808,21.4288
1809,21.4249
1810,20.2813
1811,10.3748
1812,0.856464
1813,0.851502
1814,23.3516
1815,25.9996
1816,27.138
1817,27.1321
1818,27.1261
1819,25.5542
1820,23.8768
1821,23.8702
1822,35.5938
1823,56.258
1824,56.251
1825,48.0346
1826,42.5015
1827,42.4942
1828,47.9983
1829,47.9908
1830,28.3385
1831,24.8042
1832,24.1686
1833,22.4825
1834,22.4747
1835,34.8657
1836,34.8578
1837,14.2333
1838,14.2253
1839,31.1297
1840,34.8711
1841,34.863
1842,27.3779
1843,27.3698
1844,35.5239
1845,35.5158
1846,35.5076
1847,49.4092
1848,49.4011
1849,76.2998
