#wnum,raman
275,102.149
276,102.952
277,101.35
278,102.154
279,104.575
280,111.033
281,111.836
282,105.835
283,104.208
284,105.011
285,106.252
286,107.055
287,92.5319
288,84.0002
289,84.803
290,85.6057
291,84.7411
292,72.4272
293,64.9349
294,65.737
295,89.4394
296,92.2811
297,96.3265
298,97.1417
299,97.9426
300,94.4593
301,84.8365
302,75.5863
303,74.1887
304,74.9878
305,75.7866
306,74.4391
307,68.118
308,68.2196
309,69.0164
310,69.8126
311,63.4599
312,55.6609
313,56.4552
314,61.3345
315,62.1273
316,53.1705
317,46.9096
318,47.7
319,55.8502
320,56.6388
321,46.1593
322,37.6255
323,38.4112
324,42.4999
325,43.2834
326,43.5504
327,42.7319
328,37.6313
329,32.8847
330,28.8071
331,22.5217
332,20.5586
333,21.3319
334,22.7982
335,23.5685
336,23.7227
337,24.4898
338,32.0935
339,32.8574
340,32.9711
341,26.6102
342,23.4274
343,22.7359
344,23.4907
345,25.9568
346,27.4297
347,28.3757
348,29.1224
349,33.6742
350,44.7281
351,54.8353
352,57.9239
353,58.6595
354,55.8806
355,42.1392
356,32.8608
357,33.5866
358,37.9307
359,38.6513
360,34.5262
361,35.2414
362,37.4348
363,38.1445
364,33.5647
365,24.2333
366,16.1152
367,8.94769
368,1.5983
369,-1.47171
370,-2.64764
371,-1.96237
372,2.67362
373,3.84828
374,4.52385
375,3.45318
376,2.20826
377,0.810298
378,1.47304
379,3.28312
380,5.58056
381,11.965
382,17.0188
383,17.6657
384,13.9245
385,14.5651
386,23.962
387,29.478
388,30.1092
389,23.6745
390,24.2994
391,27.158
392,27.7767
393,23.295
394,15.1233
395,15.7328
396,24.514
397,31.8859
398,34.0087
399,34.6058
400,29.7635
401,21.9145
402,22.5024
403,24.7481
404,30.5026
405,37.896
406,45.3223
407,46.3326
408,46.9021
409,47.4685
410,50.792
411,52.7045
412,53.2617
413,47.655
414,48.2061
415,52.7883
416,57.8485
417,60.5837
418,62.9148
419,64.3384
420,64.8711
421,62.7924
422,53.8954
423,45.3858
424,32.7578
425,24.5393
426,25.0533
427,45.2881
428,58.9048
429,59.4092
430,57.412
431,57.9101
432,58.4779
433,58.9696
434,55.5145
435,55.9997
436,61.6293
437,70.9758
438,73.437
439,74.4518
440,75.7519
441,82.8632
442,84.4293
443,84.888
444,75.34
445,70.4686
446,70.2061
447,70.6511
448,74.484
449,74.922
450,71.8353
451,62.5091
452,60.93
453,61.3538
454,61.7739
455,55.1845
456,49.9638
457,50.3729
458,59.3053
459,59.7069
460,50.988
461,51.3819
462,55.037
463,68.8552
464,69.4572
465,69.8355
466,66.5586
467,60.6566
468,61.0228
469,63.7613
470,73.6509
471,74.0046
472,63.7187
473,64.064
474,69.3187
475,80.9412
476,81.2736
477,78.7376
478,78.2085
479,78.5275
480,78.8419
481,77.4743
482,74.985
483,75.2855
484,76.2538
485,76.7557
486,77.0419
487,76.6052
488,73.2492
489,73.5206
490,77.0744
491,88.6838
492,94.2442
493,94.4952
494,93.5503
495,88.2636
496,83.0537
497,78.9044
498,75.236
499,75.4547
500,83.5865
501,83.7941
502,81.0276
503,68.252
504,68.4422
505,72.8585
506,73.0368
507,67.7172
508,60.6504
509,60.1862
510,60.3401
511,66.4388
512,77.4399
513,77.5747
514,68.4481
515,54.7286
516,53.2795
517,52.9659
518,52.028
519,50.972
520,51.0598
521,52.8441
522,52.9179
523,46.6144
524,37.806
525,37.8581
526,45.9456
527,45.9828
528,31.965
529,15.4331
530,15.4475
531,17.5484
532,18.2814
533,18.2722
534,17.9451
535,17.0076
536,16.0535
537,5.27673
538,-2.28553
539,-2.34392
540,16.7288
541,16.6534
542,13.9979
543,10.4761
544,10.3751
545,24.786
546,29.956
547,30.5145
548,31.9848
549,44.3636
550,47.6389
551,47.4768
552,36.0441
553,35.8642
554,39.8643
555,48.5749
556,67.5369
557,86.8946
558,90.6645
559,90.4304
560,85.5392
561,72.8977
562,72.636
563,83.651
564,94.1545
565,93.8648
566,89.7716
567,72.3108
568,47.1219
569,46.0915
570,45.7541
571,45.4071
572,40.0579
573,26.1157
574,25.7393
575,35.575
576,42.3689
577,44.1975
578,43.7814
579,31.7356
580,18.6843
581,18.2378
582,17.3588
583,16.8917
584,13.4976
585,10.8621
586,10.3639
587,9.91281
588,15.3278
589,20.9138
590,20.3733
591,12.5124
592,4.28276
593,-4.87125
594,-12.6078
595,-13.2024
596,-11.2508
597,-6.6092
598,-0.229337
599,6.8483
600,15.1509
601,23.5732
602,28.0265
603,32.4791
604,32.2728
605,32.208
606,39.0944
607,59.7737
608,59.1879
609,58.4786
610,55.6423
611,54.9235
612,76.5387
613,87.4259
614,87.7625
615,92.476
616,112.615
617,132.155
618,137.009
619,140.958
620,140.217
621,140.511
622,145.234
623,168.41
624,191.48
625,205.216
626,219.046
627,227.816
628,234.905
629,245.964
630,261.481
631,278.118
632,300.216
633,318.921
634,318.213
635,317.511
636,321.215
637,331.684
638,345.656
639,371.704
640,398.685
641,405.094
642,411.522
643,429.035
644,450.495
645,463.304
646,469.96
647,476.611
648,476.013
649,475.461
650,501.272
651,532.688
652,546.664
653,546.689
654,556.325
655,590.962
656,625.309
657,635.012
658,644.054
659,669.366
660,699.545
661,719.135
662,726.863
663,740.476
664,766.249
665,789.597
666,815.688
667,841.895
668,856.64
669,865.471
670,893.77
671,943.863
672,985.5
673,992.562
674,999.194
675,1040.76
676,1087.61
677,1136.65
678,1184.13
679,1228.82
680,1266.13
681,1298.09
682,1314.45
683,1333.73
684,1355.29
685,1375.97
686,1375.94
687,1362.21
688,1349.51
689,1334.08
690,1318.44
691,1296.95
692,1275.13
693,1240.15
694,1201.41
695,1169.28
696,1139.75
697,1110.96
698,1081.63
699,1051.54
700,1008.87
701,964.902
702,931.389
703,903.175
704,891.373
705,888.665
706,884.314
707,845.137
708,805.81
709,768.576
710,731.256
711,700.108
712,673.667
713,651.028
714,632.301
715,614.596
716,602.85
717,591.313
718,549.57
719,506.349
720,484.985
721,473.296
722,451.781
723,416.807
724,387.978
725,383.258
726,378.231
727,365.308
728,352.082
729,336.404
730,318.675
731,297.833
732,274.173
733,254.061
734,246.006
735,238.082
736,226.639
737,215.229
738,206.59
739,199.316
740,183.167
741,157.031
742,138.537
743,139.207
744,139.881
745,124.753
746,108.872
747,109.551
748,108.681
749,109.363
750,103.547
751,98.1288
752,93.3624
753,88.3101
754,78.6156
755,68.7441
756,61.155
757,54.1524
758,48.9715
759,44.885
760,40.3246
761,35.0405
762,28.8563
763,16.0624
764,8.16989
765,8.81115
766,16.3621
767,17.4061
768,18.0282
769,16.6509
770,14.1863
771,10.0193
772,-1.06816
773,-11.9437
774,-12.0251
775,-11.462
776,-7.07935
777,-0.950132
778,-0.416232
779,-0.245348
780,-1.4096
781,-2.06925
782,-1.57383
783,-0.660785
784,-0.184215
785,-0.255873
786,0.202235
787,2.83315
788,11.5528
789,14.8
790,15.2224
791,15.6361
792,19.4006
793,19.7973
794,12.9963
795,7.39064
796,7.7626
797,17.4381
798,28.6747
799,41.1872
800,51.8131
801,58.7836
802,59.2716
803,59.5893
804,59.8997
805,62.0285
806,69.9932
807,71.2094
808,72.154
809,87.6007
810,119.995
811,122.741
812,122.996
813,121.73
814,121.972
815,133.917
816,152.152
817,168.647
818,168.864
819,156.043
820,156.249
821,165.253
822,165.447
823,160.806
824,151.302
825,149.655
826,149.555
827,149.721
828,151.996
829,156.844
830,162.955
831,167.139
832,168.205
833,168.341
834,156.261
835,146.518
836,146.639
837,148.55
838,151.17
839,151.277
840,151.207
841,145.677
842,141.428
843,138.497
844,134.117
845,126.1
846,117.697
847,104.296
848,91.0111
849,88.4333
850,87.4475
851,75.693
852,59.1987
853,59.2459
854,72.5747
855,72.6139
856,72.5087
857,71.7903
858,71.8178
859,71.8414
860,69.9573
861,62.8403
862,62.8527
863,62.8613
864,62.2716
865,49.5173
866,37.3182
867,26.2004
868,17.8366
869,17.8234
870,18.3943
871,19.0637
872,19.7341
873,22.7912
874,26.3348
875,26.3007
876,26.1751
877,19.9167
878,7.47511
879,6.06603
880,6.01523
881,7.87005
882,7.81271
883,4.82852
884,-0.660576
885,-0.727541
886,2.93262
887,16.9828
888,26.6653
889,32.8835
890,32.8011
891,29.3052
892,26.0146
893,25.9234
894,26.4586
895,26.5766
896,26.4769
897,11.9134
898,-0.447031
899,-0.554958
900,10.8325
901,10.7193
902,-2.50742
903,-2.62574
904,11.4969
905,24.4866
906,24.5519
907,24.4243
908,21.1647
909,21.033
910,24.3449
911,32.4428
912,34.7948
913,34.6717
914,37.7747
915,44.1703
916,52.3113
917,62.959
918,71.3188
919,71.4547
920,71.3073
921,67.9685
922,67.2937
923,67.1439
924,70.8864
925,80.121
926,91.5104
927,91.3586
928,88.0602
929,83.2261
930,79.356
931,79.2035
932,86.3942
933,86.2418
934,81.8983
935,76.522
936,76.3705
937,81.9757
938,93.2528
939,103.132
940,102.983
941,90.6976
942,90.5498
943,98.5355
944,98.5035
945,98.3584
946,98.2145
947,105.059
948,113.714
949,125.891
950,137.553
951,137.415
952,134.001
953,133.054
954,131.704
955,123.868
956,112.956
957,112.828
958,126.928
959,138.568
960,144.253
961,144.132
962,123.936
963,121.284
964,121.17
965,138.038
966,149.364
967,153.039
968,152.933
969,139.596
970,139.495
971,147.539
972,164.737
973,192.683
974,192.591
975,176.091
976,161.41
977,161.326
978,161.245
979,156.036
980,152.758
981,152.684
982,160.05
983,159.982
984,156.811
985,155.135
986,153.301
987,153.244
988,156.774
989,159.295
990,159.732
991,159.686
992,153.883
993,153.843
994,159.624
995,159.589
996,159.107
997,159.078
998,166.254
999,186.604
1000,191.688
1001,192.175
1002,201.702
1003,216.903
1004,221.234
1005,221.226
1006,219.933
1007,219.458
1008,219.458
1009,214.46
1010,208.91
1011,204.597
1012,204.606
1013,217.5
1014,228.331
1015,228.347
1016,223.709
1017,215.627
1018,205.675
1019,200.483
1020,199.031
1021,199.06
1022,201.208
1023,203.56
1024,203.748
1025,203.784
1026,184.565
1027,168.678
1028,168.719
1029,170.123
1030,173.302
1031,176.234
1032,189.348
1033,193.303
1034,193.352
1035,180.11
1036,170.411
1037,160.158
1038,147.594
1039,135.086
1040,135.14
1041,136.74
1042,137.624
1043,138.797
1044,138.852
1045,148.199
1046,148.254
1047,144.739
1048,137.013
1049,125.321
1050,125.375
1051,126.494
1052,126.689
1053,126.741
1054,111.614
1055,111.665
1056,113.585
1057,113.633
1058,100.028
1059,100.074
1060,101.55
1061,101.593
1062,92.447
1063,83.0837
1064,73.4869
1065,70.2846
1066,70.3175
1067,70.3481
1068,62.8587
1069,55.8946
1070,55.9174
1071,55.9374
1072,50.0222
1073,43.6583
1074,39.0661
1075,35.0463
1076,26.9995
1077,17.8428
1078,17.8394
1079,20.1332
1080,27.8723
1081,37.2568
1082,37.2372
1083,25.0311
1084,24.9344
1085,20.2926
1086,20.2548
1087,-2.22483
1088,-6.52665
1089,-6.57947
1090,-1.26564
1091,-1.32876
1092,-1.39698
1093,6.2534
1094,11.8776
1095,11.7944
1096,8.76505
1097,8.02668
1098,7.32761
1099,2.06991
1100,-2.70551
1101,-2.81699
1102,0.903283
1103,5.59115
1104,10.6996
1105,12.3819
1106,12.2493
1107,11.9034
1108,11.4298
1109,10.4616
1110,10.3141
1111,15.122
1112,35.0133
1113,37.0443
1114,36.8839
1115,28.1944
1116,24.7425
1117,20.5416
1118,13.3866
1119,13.2126
1120,16.195
1121,25.5629
1122,38.8237
1123,38.6409
1124,33.163
1125,15.6162
1126,15.428
1127,24.9133
1128,31.3914
1129,36.7954
1130,39.5537
1131,41.0512
1132,51.054
1133,66.51
1134,75.7188
1135,75.5204
1136,73.7584
1137,60.4562
1138,60.2564
1139,79.0461
1140,92.6823
1141,96.0807
1142,99.1108
1143,101.023
1144,101.112
1145,100.913
1146,100.713
1147,112.363
1148,124.183
1149,130.724
1150,136.254
1151,142.755
1152,143.496
1153,143.303
1154,141.362
1155,141.171
1156,149.495
1157,149.307
1158,149.121
1159,159.555
1160,169.548
1161,169.367
1162,159.173
1163,158.996
1164,165.392
1165,165.219
1166,157.975
1167,157.807
1168,169.326
1169,176.317
1170,176.156
1171,169.913
1172,145.32
1173,145.167
1174,147.409
1175,147.261
1176,148.748
1177,148.606
1178,164.927
1179,164.791
1180,163.103
1181,153.16
1182,142.324
1183,132.473
1184,132.352
1185,132.897
1186,137.652
1187,137.541
1188,136.358
1189,130.508
1190,120.077
1191,119.98
1192,126.104
1193,142.461
1194,144.124
1195,144.042
1196,137.873
1197,137.798
1198,139.355
1199,145.457
1200,145.392
1201,135.069
1202,124.475
1203,120.479
1204,120.43
1205,120.879
1206,120.837
1207,109.95
1208,109.916
1209,118.848
1210,118.821
1211,94.2782
1212,94.2596
1213,105.421
1214,105.41
1215,102.325
1216,102.322
1217,115.949
1218,115.954
1219,102.908
1220,102.92
1221,105.269
1222,113.675
1223,125.289
1224,125.317
1225,118.923
1226,110.187
1227,102.476
1228,96.3162
1229,93.0458
1230,93.0972
1231,101.035
1232,106.705
1233,106.768
1234,106.441
1235,103.183
1236,94.1801
1237,68.9941
1238,69.0756
1239,74.8703
1240,84.5793
1241,84.6718
1242,84.7679
1243,87.3786
1244,91.1919
1245,91.5374
1246,91.9127
1247,94.3519
1248,98.267
1249,113.575
1250,113.699
1251,107.535
1252,107.665
1253,109.881
1254,110.019
1255,107.689
1256,93.3538
1257,93.5007
1258,93.7219
1259,97.562
1260,97.7181
1261,72.2253
1262,72.3873
1263,73.8072
1264,87.5585
1265,87.7291
1266,76.2787
1267,55.5789
1268,43.3339
1269,43.5153
1270,49.7539
1271,49.9403
1272,50.1292
1273,74.1841
1274,83.2176
1275,83.4136
1276,71.8991
1277,72.0996
1278,73.7318
1279,73.9365
1280,74.1433
1281,86.0105
1282,93.2825
1283,93.4951
1284,86.7304
1285,86.9466
1286,87.1645
1287,83.7336
1288,74.9202
1289,75.1429
1290,77.1953
1291,91.6542
1292,94.0768
1293,94.3049
1294,81.0093
1295,76.8812
1296,77.1126
1297,79.3137
1298,79.547
1299,74.7931
1300,72.0309
1301,72.2665
1302,82.2208
1303,82.956
1304,83.1933
1305,78.2055
1306,72.5878
1307,54.3853
1308,52.3273
1309,52.5658
1310,55.8635
1311,56.1019
1312,48.1084
1313,48.3464
1314,48.5841
1315,45.0087
1316,36.2325
1317,22.8306
1318,12.6513
1319,12.8862
1320,16.1835
1321,26.4784
1322,32.0803
1323,32.3115
1324,32.5415
1325,33.2838
1326,33.5113
1327,25.0505
1328,25.2751
1329,32.1991
1330,32.4204
1331,23.4339
1332,22.6581
1333,22.874
1334,35.3722
1335,40.0713
1336,45.9937
1337,56.9676
1338,57.1726
1339,44.5998
1340,36.1966
1341,36.394
1342,38.4533
1343,38.6451
1344,37.444
1345,35.238
1346,31.6564
1347,24.2951
1348,18.3685
1349,15.5744
1350,15.744
1351,17.5506
1352,17.713
1353,3.10829
1354,-6.44109
1355,-6.29021
1356,-0.167119
1357,19.4148
1358,19.554
1359,8.17863
1360,8.31008
1361,18.3516
1362,25.3259
1363,25.4462
1364,17.7446
1365,-0.137744
1366,-0.50579
1367,-0.4001
1368,3.58698
1369,6.94777
1370,10.7775
1371,11.7108
1372,11.7993
1373,9.06365
1374,9.14549
1375,14.0076
1376,14.083
1377,7.72472
1378,7.79389
1379,7.86
1380,3.31722
1381,1.92639
1382,1.98357
1383,9.04393
1384,9.09538
1385,5.11845
1386,5.16434
1387,6.0572
1388,8.42885
1389,8.4667
1390,7.75374
1391,7.78646
1392,12.3873
1393,12.415
1394,4.32139
1395,4.34433
1396,11.0599
1397,13.9434
1398,13.9595
1399,12.6596
1400,12.6713
1401,15.2763
1402,15.2837
1403,13.1937
1404,5.03941
1405,5.0408
1406,13.6986
1407,21.4234
1408,26.5878
1409,26.5817
1410,25.0487
1411,21.4928
1412,21.4815
1413,22.6054
1414,31.8881
1415,38.0205
1416,38.0028
1417,34.8819
1418,23.2063
1419,23.1843
1420,23.1609
1421,20.9605
1422,8.58369
1423,8.55637
1424,18.5173
1425,25.5169
1426,25.6204
1427,25.5884
1428,18.8617
1429,15.0545
1430,12.9603
1431,12.9241
1432,15.2602
1433,24.7228
1434,24.6838
1435,15.2299
1436,4.60311
1437,4.56167
1438,5.28984
1439,18.7248
1440,19.2461
1441,19.2018
1442,15.8545
1443,14.3974
1444,14.3515
1445,15.7065
1446,20.185
1447,21.8616
1448,21.8138
1449,21.7655
1450,24.2945
1451,42.6242
1452,42.575
1453,35.945
1454,35.8953
1455,38.1261
1456,41.1522
1457,44.2925
1458,44.5013
1459,44.4509
1460,44.0321
1461,42.6595
1462,41.5225
1463,38.2545
1464,26.7481
1465,26.6978
1466,38.6698
1467,40.5474
1468,42.5259
1469,42.4761
1470,48.7438
1471,48.6945
1472,30.3597
1473,30.311
1474,40.8064
1475,43.7976
1476,43.7498
1477,32.9699
1478,32.9228
1479,42.2817
1480,59.6762
1481,59.6304
1482,40.5152
1483,40.4532
1484,40.0544
1485,34.6322
1486,34.5889
1487,45.0793
1488,52.0514
1489,52.0099
1490,47.4345
1491,39.6856
1492,39.6459
1493,52.1244
1494,52.086
1495,36.7753
1496,36.673
1497,33.4311
1498,32.6802
1499,32.6454
1500,38.8939
1501,38.8606
1502,33.0767
1503,33.0448
1504,46.5403
1505,46.5101
1506,28.282
1507,19.1122
1508,19.0844
1509,29.5931
1510,29.567
1511,22.2976
1512,22.2732
1513,26.6352
1514,54.7463
1515,54.7244
1516,32.948
1517,32.9279
1518,42.0227
1519,42.0044
1520,39.5749
1521,39.5584
1522,41.6401
1523,48.9627
1524,48.949
1525,45.5782
1526,43.2082
1527,43.1972
1528,43.1871
1529,41.0375
1530,41.0293
1531,46.7058
1532,46.6994
1533,22.5486
1534,22.5442
1535,36.9638
1536,46.685
1537,51.24
1538,51.2392
1539,51.2393
1540,54.2902
1541,54.2921
1542,38.7903
1543,29.2439
1544,29.2485
1545,29.254
1546,22.1296
1547,22.1368
1548,45.9036
1549,53.7907
1550,53.8006
1551,44.275
1552,34.0778
1553,34.0901
1554,51.3207
1555,51.3347
1556,47.1717
1557,42.6207
1558,37.0598
1559,29.0828
1560,29.1006
1561,30.5775
1562,30.5968
1563,23.8293
1564,20.2805
1565,20.3019
1566,20.324
1567,18.8554
1568,18.8787
1569,23.3584
1570,26.3772
1571,26.4025
1572,25.106
1573,22.499
1574,22.5259
1575,25.219
1576,32.6872
1577,32.7157
1578,27.7779
1579,19.4618
1580,19.4918
1581,19.8388
1582,20.3422
1583,33.6496
1584,52.5293
1585,52.5614
1586,26.3828
1587,26.4155
1588,32.9733
1589,38.767
1590,44.4315
1591,52.6986
1592,58.2763
1593,58.3106
1594,54.5498
1595,44.4001
1596,35.5132
1597,28.2612
1598,25.6627
1599,25.2694
1600,15.7058
1601,15.741
1602,19.4499
1603,29.9445
1604,29.9797
1605,20.0865
1606,20.1215
1607,27.2772
1608,28.1977
1609,29.6413
1610,31.9068
1611,40.6651
1612,57.2473
1613,57.2808
1614,44.9776
1615,39.4192
1616,35.9569
1617,22.277
1618,22.3087
1619,24.3927
1620,24.4234
1621,21.7929
1622,11.9594
1623,11.9885
1624,20.9248
1625,57.442
1626,57.4692
1627,44.5912
1628,36.2426
1629,32.3746
1630,26.3528
1631,19.1338
1632,15.4584
1633,15.4799
1634,28.1741
1635,38.6019
1636,38.6204
1637,37.5064
1638,19.3311
1639,19.3463
1640,18.0048
1641,15.64
1642,1.52587
1643,1.53623
1644,1.54528
1645,1.22646
1646,1.23278
1647,16.0354
1648,22.8486
1649,24.6924
1650,24.6928
1651,30.1461
1652,34.4866
1653,38.246
1654,39.7897
1655,41.3838
1656,46.4377
1657,46.4263
1658,27.3434
1659,12.4389
1660,12.4219
1661,22.3903
1662,51.8066
1663,51.7836
1664,40.4161
1665,40.3889
1666,51.2234
1667,53.1557
1668,53.1219
1669,47.799
1670,41.9924
1671,37.0499
1672,32.6555
1673,29.7233
1674,29.6749
1675,34.5477
1676,42.9844
1677,44.1555
1678,44.0965
1679,33.0588
1680,13.4083
1681,13.3409
1682,24.5919
1683,24.5186
1684,2.64309
1685,2.56371
1686,27.4911
1687,32.2393
1688,32.1505
1689,14.1013
1690,14.0058
1691,20.3827
1692,21.7517
1693,21.646
1694,21.5368
1695,34.2359
1696,34.1195
1697,25.5771
1698,12.0151
1699,-1.55316
1700,-1.68455
1701,3.26322
1702,28.6483
1703,35.4834
1704,38.7387
1705,38.5878
1706,52.9131
1707,52.7542
1708,41.4226
1709,27.9293
1710,27.7583
1711,27.6493
1712,34.4782
1713,34.2949
1714,26.2673
1715,11.0656
1716,5.67189
1717,5.47174
1718,18.5342
1719,29.9462
1720,29.7332
1721,21.5349
1722,17.5955
1723,14.206
1724,13.1242
1725,12.8892
1726,16.7128
1727,21.7803
1728,21.5318
1729,7.71385
1730,-1.29878
1731,-1.56097
1732,11.2059
1733,12.8508
1734,12.5748
1735,-4.19635
1736,-4.48165
1737,15.8876
1738,18.624
1739,19.1773
1740,46.8425
1741,46.5352
1742,42.6608
1743,19.4764
1744,11.079
1745,10.7556
1746,47.9971
1747,47.6662
1748,32.729
1749,21.501
1750,21.1595
1751,35.5063
1752,36.9212
1753,43.274
1754,42.9195
1755,64.2892
1756,69.6504
1757,69.5738
1758,69.8954
1759,72.495
1760,88.6912
1761,101.595
1762,108.53
1763,115.9
1764,123.43
1765,125.628
1766,126.889
1767,139.697
1768,148.556
1769,148.187
1770,147.793
1771,154.812
1772,154.414
1773,134.117
1774,133.716
1775,131.602
1776,118.585
1777,118.179
1778,122.022
1779,121.613
1780,113.585
1781,113.174
1782,136.751
1783,136.338
1784,111.516
1785,103.005
1786,102.589
1787,113.155
1788,118.846
1789,118.427
1790,89.8157
1791,80.5645
1792,80.1426
1793,117.537
1794,117.114
1795,108.448
1796,104.369
1797,98.0938
1798,91.77
1799,91.3438
1800,99.7401
1801,99.3129
1802,98.8853
1803,120.517
1804,133.521
1805,133.092
1806,122.5
1807,112.367
1808,111.937
1809,111.507
1810,85.0434
1811,82.0078
1812,81.5773
1813,94.7828
1814,97.4204
1815,98.874
1816,98.4429
1817,96.0123
1818,95.581
1819,100.894
1820,100.463
1821,84.5082
1822,84.0767
1823,83.2917
1824,79.4912
1825,60.3287
1826,50.3405
1827,45.6044
1828,44.4326
1829,44.001
1830,43.5694
1831,43.7371
1832,43.3055
1833,40.5734
1834,40.1418
1835,49.763
1836,50.8305
1837,55.9608
1838,59.0267
1839,61.0004
1840,60.5689
1841,42.1179
1842,37.5486
1843,31.9944
1844,0.0943603
1845,-0.337118
1846,14.223
1847,13.7915
1848,1.93086
1849,1.49938
