#wnum,raman
275,460.441
276,461.015
277,433.208
278,406.071
279,383.441
280,361.304
281,343.56
282,332.572
283,321.825
284,299.644
285,276.641
286,262.085
287,249.846
288,232.204
289,215.477
290,199.875
291,190.595
292,179.948
293,166.119
294,154.939
295,152.626
296,140.974
297,127.728
298,116.875
299,114.409
300,112.155
301,104.941
302,93.4873
303,83.3756
304,78.3611
305,74.5801
306,75.1373
307,75.693
308,70.1893
309,54.6306
310,43.494
311,44.0431
312,47.0734
313,47.6188
314,39.0426
315,30.1699
316,28.8763
317,28.5402
318,28.7451
319,26.9878
320,24.7405
321,21.7036
322,17.5035
323,16.9604
324,16.966
325,16.3005
326,11.5219
327,7.47139
328,7.97891
329,11.0216
330,13.4979
331,14.2884
332,17.4987
333,28.2317
334,31.4557
335,31.9395
336,25.7491
337,22.2768
338,19.8226
339,18.5869
340,19.0514
341,19.5117
342,18.9188
343,5.37312
344,5.82064
345,7.60751
346,15.9699
347,16.4039
348,11.373
349,11.7975
350,15.3082
351,18.2161
352,18.6258
353,18.6696
354,15.268
355,5.4196
356,5.80839
357,7.40958
358,9.64738
359,10.0196
360,-6.70958
361,-6.3488
362,2.0531
363,15.1644
364,15.508
365,12.1563
366,12.3188
367,12.6456
368,14.3495
369,15.5308
370,15.8412
371,9.82404
372,0.629336
373,0.536641
374,0.825779
375,6.3058
376,8.82001
377,11.9294
378,12.198
379,8.27203
380,6.88589
381,7.13962
382,11.9052
383,12.1492
384,8.70711
385,8.9416
386,11.2277
387,15.7185
388,23.0025
389,29.2159
390,29.4273
391,20.9634
392,12.2621
393,8.4302
394,6.05127
395,6.24071
396,12.7301
397,19.2854
398,22.6684
399,22.841
400,18.4574
401,9.62711
402,9.78756
403,17.4488
404,24.2816
405,25.6648
406,25.8096
407,22.5006
408,12.099
409,9.43581
410,9.56561
411,13.8952
412,20.8997
413,25.2155
414,25.3309
415,13.9503
416,11.2254
417,11.3304
418,18.5067
419,25.4379
420,30.0935
421,30.1853
422,26.7948
423,23.2608
424,18.6553
425,14.5541
426,14.6302
427,14.806
428,17.5917
429,27.0008
430,35.6675
431,36.2297
432,36.2881
433,34.7785
434,32.0956
435,29.2791
436,25.2796
437,23.0086
438,23.0506
439,25.2029
440,27.2998
441,30.3654
442,30.3971
443,28.4642
444,20.0364
445,16.5479
446,16.5699
447,18.86
448,28.7486
449,39.7412
450,39.7539
451,36.4441
452,35.0991
453,35.1053
454,36.6264
455,38.2009
456,38.9285
457,38.9925
458,38.9882
459,38.1934
460,30.9017
461,30.8915
462,31.3167
463,39.4169
464,39.401
465,36.1962
466,31.6531
467,27.3251
468,26.0324
469,26.0075
470,25.981
471,25.0687
472,16.7033
473,14.6205
474,14.5873
475,19.3281
476,20.0438
477,20.2032
478,21.8821
479,26.403
480,27.7821
481,27.7381
482,27.6927
483,30.4682
484,35.2197
485,35.17
486,33.622
487,31.7907
488,28.6824
489,26.2877
490,26.2314
491,32.9022
492,32.8434
493,27.3223
494,18.0148
495,16.5294
496,14.5455
497,14.4806
498,16.3246
499,16.8866
500,16.8183
501,16.7489
502,18.8852
503,18.8136
504,18.3243
505,12.5246
506,12.4499
507,24.6118
508,30.4043
509,30.3266
510,23.9179
511,19.425
512,16.2812
513,16.1997
514,24.6571
515,28.031
516,27.9468
517,27.3588
518,27.2728
519,30.5248
520,33.1635
521,35.1381
522,37.5933
523,37.5033
524,36.625
525,36.5334
526,42.2746
527,42.1814
528,36.1711
529,26.4905
530,25.0114
531,24.9153
532,25.3452
533,27.1945
534,27.0962
535,20.4853
536,17.3422
537,17.242
538,21.0785
539,20.9768
540,13.9823
541,13.8793
542,14.4291
543,17.4768
544,17.3719
545,17.2664
546,20.4189
547,27.1103
548,27.0029
549,22.8963
550,15.7619
551,15.6527
552,15.5429
553,14.6267
554,5.63286
555,5.52127
556,17.9982
557,25.7911
558,25.6777
559,19.0511
560,18.9366
561,21.9708
562,24.3319
563,24.2157
564,21.5071
565,16.036
566,14.3885
567,14.2701
568,18.4771
569,19.4544
570,19.729
571,20.4527
572,21.9988
573,22.4631
574,23.1233
575,24.2839
576,26.4866
577,29.1901
578,29.0655
579,11.7584
580,-1.38523
581,-1.51159
582,14.9557
583,19.7389
584,19.611
585,19.4825
586,19.7271
587,19.5978
588,18.0286
589,15.5954
590,15.465
591,21.7603
592,26.1951
593,27.4487
594,27.6481
595,27.5903
596,28.498
597,30.4386
598,30.3063
599,27.788
600,16.8341
601,11.1784
602,11.0458
603,16.5515
604,20.3521
605,22.6121
606,27.0804
607,33.7644
608,33.632
609,32.2675
610,25.9685
611,22.4274
612,22.0696
613,21.9379
614,26.365
615,29.6482
616,31.7438
617,31.613
618,28.5772
619,23.0746
620,19.301
621,19.1714
622,19.2839
623,28.2711
624,28.1427
625,27.0951
626,21.2494
627,17.6295
628,14.4991
629,13.106
630,11.1748
631,11.0495
632,14.6115
633,15.6277
634,15.5041
635,9.86257
636,6.00029
637,4.56293
638,4.4417
639,14.0489
640,22.1585
641,26.0713
642,25.9527
643,22.1293
644,9.37221
645,9.25571
646,21.4618
647,33.1973
648,40.3144
649,40.2009
650,30.3418
651,9.15925
652,9.04815
653,16.2049
654,26.823
655,37.5103
656,37.4026
657,36.0446
658,28.6513
659,24.9562
660,22.3352
661,21.0786
662,20.9763
663,20.9432
664,20.8427
665,20.4441
666,18.0566
667,17.959
668,23.0212
669,27.1136
670,27.019
671,16.5898
672,16.4972
673,33.5088
674,45.0174
675,44.9278
676,29.8617
677,18.7182
678,14.1666
679,14.0812
680,19.09
681,23.5073
682,31.8371
683,32.253
684,32.1729
685,18.0613
686,17.9834
687,19.0725
688,23.5026
689,23.428
690,23.3544
691,23.9027
692,26.6831
693,28.8023
694,30.2288
695,32.0513
696,33.7029
697,33.6371
698,29.5334
699,24.7741
700,17.2622
701,17.1373
702,17.077
703,30.3509
704,30.2929
705,26.0086
706,25.9528
707,29.1637
708,29.1102
709,23.5505
710,12.1693
711,12.1191
712,25.5666
713,26.5229
714,26.4759
715,26.43
716,29.9098
717,36.7884
718,37.5315
719,37.4899
720,33.3553
721,27.4882
722,27.4498
723,29.3238
724,29.2875
725,17.7513
726,6.81065
727,6.77743
728,7.11615
729,12.0365
730,17.3128
731,22.1156
732,27.6255
733,27.5982
734,14.4545
735,14.4292
736,15.1511
737,32.8941
738,32.8716
739,28.5342
740,24.6435
741,20.2293
742,20.2106
743,20.2941
744,20.2771
745,15.5636
746,15.5483
747,20.278
748,37.0519
749,37.0391
750,25.5011
751,10.7004
752,-1.14031
753,-1.14987
754,15.351
755,32.4364
756,32.4292
757,24.4025
758,24.3969
759,30.0919
760,30.088
761,17.3029
762,16.6916
763,16.6902
764,20.1052
765,20.1057
766,14.7183
767,14.7205
768,20.6119
769,26.212
770,31.4216
771,31.4275
772,20.8989
773,12.0158
774,12.0245
775,15.7207
776,21.8607
777,28.6359
778,28.6485
779,28.0944
780,25.1403
781,20.9707
782,19.0311
783,19.0486
784,20.34
785,22.5289
786,22.5494
787,20.0028
788,11.3221
789,11.3457
790,16.6608
791,23.0339
792,25.7355
793,27.808
794,28.2091
795,28.2388
796,25.7987
797,21.9982
798,20.4521
799,20.4632
800,18.7388
801,12.7294
802,7.38764
803,7.42564
804,7.74013
805,8.34452
806,8.97277
807,15.6634
808,19.9157
809,19.9599
810,4.50428
811,4.55059
812,11.63
813,21.4359
814,21.4853
815,21.5357
816,23.616
817,25.7197
818,25.7733
819,20.9323
820,20.9879
821,24.9181
822,24.9757
823,21.2617
824,21.0153
825,21.076
826,21.1377
827,17.2841
828,16.7477
829,16.8123
830,31.3052
831,31.3718
832,31.2441
833,29.5373
834,29.6068
835,31.7253
836,41.6924
837,42.7623
838,42.8356
839,32.55
840,29.1871
841,27.4197
842,22.3099
843,14.5556
844,14.6344
845,17.2875
846,21.7464
847,21.8702
848,21.9101
849,16.544
850,10.3853
851,10.4701
852,14.8338
853,17.1071
854,18.4938
855,21.5017
856,28.2216
857,28.3111
858,17.7677
859,17.5073
860,17.5991
861,34.0894
862,34.9613
863,35.0551
864,27.2588
865,16.6808
866,9.20767
867,6.0943
868,6.19138
869,10.9563
870,16.7816
871,19.5597
872,22.5849
873,24.1232
874,24.2237
875,22.328
876,17.4671
877,16.9016
878,17.0041
879,17.107
880,15.3481
881,15.4519
882,22.3941
883,24.4393
884,24.5444
885,17.1253
886,17.2311
887,16.5479
888,15.3894
889,10.2053
890,10.3122
891,11.506
892,14.2752
893,15.485
894,15.5929
895,13.0566
896,10.3396
897,8.24843
898,8.35695
899,9.60946
900,15.8666
901,21.9501
902,29.2381
903,29.347
904,28.4705
905,28.1727
906,28.2816
907,28.3904
908,22.58
909,16.0517
910,16.1603
911,16.2687
912,14.5609
913,8.06864
914,8.17655
915,10.7556
916,14.9311
917,21.6663
918,21.7732
919,19.6816
920,19.7879
921,25.2097
922,25.8875
923,25.9927
924,16.6291
925,16.7333
926,17.2095
927,17.3129
928,7.08022
929,-0.150711
930,-0.0490165
931,0.644241
932,8.55085
933,15.135
934,20.8862
935,25.9716
936,26.0694
937,21.5676
938,16.8399
939,14.1829
940,14.2776
941,20.413
942,20.506
943,18.1201
944,13.4558
945,7.55362
946,7.64306
947,15.2716
948,19.2142
949,19.3007
950,13.9577
951,12.1918
952,11.5875
953,3.70309
954,-2.54808
955,-2.46832
956,13.9046
957,20.3474
958,20.4237
959,20.1379
960,17.1493
961,17.2223
962,18.8372
963,21.9725
964,26.8718
965,26.9408
966,18.3921
967,9.04601
968,9.11226
969,19.1635
970,19.228
971,6.82662
972,6.88946
973,17.5821
974,25.7676
975,29.102
976,29.1618
977,20.3966
978,10.9163
979,8.07217
980,8.1292
981,21.4792
982,28.0606
983,28.1158
984,12.1872
985,12.2412
986,21.6883
987,21.7413
988,15.2539
989,15.3059
990,27.5663
991,31.0007
992,33.4729
993,33.7446
994,49.3615
995,55.9094
996,55.9585
997,47.8167
998,44.6646
999,44.7127
1000,48.7611
1001,53.5484
1002,60.3735
1003,62.6443
1004,62.691
1005,46.4682
1006,37.8546
1007,36.2278
1008,35.7159
1009,25.1863
1010,13.3662
1011,3.39183
1012,3.43684
1013,12.9368
1014,24.5435
1015,24.588
1016,16.2359
1017,16.2801
1018,23.1179
1019,26.3918
1020,26.4356
1021,25.3079
1022,17.0587
1023,17.1023
1024,24.3423
1025,29.3747
1026,36.7671
1027,47.8095
1028,50.8055
1029,50.8487
1030,29.6638
1031,12.913
1032,12.956
1033,22.7975
1034,32.1616
1035,32.2045
1036,29.272
1037,17.8771
1038,17.92
1039,20.7097
1040,20.7525
1041,18.9316
1042,18.9744
1043,24.2257
1044,24.2684
1045,17.1408
1046,15.9062
1047,15.9489
1048,15.9915
1049,15.9154
1050,7.4534
1051,2.41233
1052,2.45493
1053,6.31133
1054,13.436
1055,13.4785
1056,13.521
1057,19.4674
1058,34.4743
1059,34.5168
1060,33.4627
1061,25.9186
1062,13.4028
1063,13.4452
1064,20.7381
1065,26.5368
1066,26.8714
1067,26.9136
1068,22.1811
1069,17.0273
1070,17.0694
1071,17.1114
1072,15.5966
1073,10.3977
1074,2.72942
1075,-0.137715
1076,-0.0959799
1077,8.69881
1078,11.1957
1079,11.6765
1080,15.7076
1081,21.481
1082,24.6243
1083,25.5122
1084,25.5532
1085,24.4547
1086,24.4956
1087,28.3278
1088,28.3685
1089,23.1359
1090,17.4374
1091,16.8506
1092,16.8907
1093,30.3411
1094,34.3324
1095,34.3721
1096,27.3512
1097,27.3906
1098,31.588
1099,35.3659
1100,35.4048
1101,33.5753
1102,29.6143
1103,25.1828
1104,19.1469
1105,19.1847
1106,18.5394
1107,18.5768
1108,9.04727
1109,9.08414
1110,17.8578
1111,24.5967
1112,25.7956
1113,27.3663
1114,27.4017
1115,26.6641
1116,19.2799
1117,12.6882
1118,9.44628
1119,9.47998
1120,17.8512
1121,27.5425
1122,29.2938
1123,30.505
1124,38.8482
1125,39.5236
1126,39.5544
1127,29.6071
1128,23.7617
1129,18.2528
1130,13.6014
1131,11.9805
1132,12.0083
1133,12.2142
1134,12.2408
1135,-0.852561
1136,-0.82711
1137,10.8543
1138,14.7766
1139,14.8003
1140,14.8233
1141,16.6397
1142,19.8953
1143,19.9165
1144,19.3561
1145,16.0613
1146,13.1243
1147,9.73718
1148,6.28789
1149,6.30549
1150,6.5483
1151,18.5458
1152,28.328
1153,28.4372
1154,29.4544
1155,29.4684
1156,29.662
1157,34.6838
1158,34.6959
1159,26.9682
1160,10.5424
1161,10.5527
1162,16.1163
1163,16.1253
1164,2.52047
1165,2.52823
1166,18.5801
1167,18.5866
1168,17.3203
1169,17.3255
1170,30.5299
1171,30.5338
1172,21.0081
1173,21.0106
1174,34.4591
1175,40.0746
1176,40.1989
1177,40.0749
1178,38.9081
1179,33.2688
1180,24.0475
1181,16.9578
1182,16.954
1183,17.4073
1184,23.972
1185,23.966
1186,22.5041
1187,22.4965
1188,23.0194
1189,26.8871
1190,26.8772
1191,21.2112
1192,19.17
1193,19.1576
1194,26.0744
1195,26.0603
1196,25.8149
1197,17.69
1198,17.6733
1199,18.7224
1200,18.7039
1201,18.6844
1202,19.4588
1203,20.1467
1204,24.4523
1205,29.938
1206,34.9599
1207,39.6113
1208,44.1304
1209,44.1031
1210,41.329
1211,27.3255
1212,26.405
1213,26.3735
1214,28.5679
1215,28.5341
1216,23.8597
1217,10.5519
1218,1.54809
1219,-2.27212
1220,-2.31174
1221,2.27042
1222,6.52386
1223,9.9297
1224,13.8585
1225,17.497
1226,24.4101
1227,37.4956
1228,39.3857
1229,39.3363
1230,36.0218
1231,30.8998
1232,27.7959
1233,27.5705
1234,25.3421
1235,18.6797
1236,18.6242
1237,30.5189
1238,30.4619
1239,19.4203
1240,18.6943
1241,18.6352
1242,28.3556
1243,35.8927
1244,35.8317
1245,24.2814
1246,16.4846
1247,16.422
1248,21.9265
1249,27.8129
1250,27.7489
1251,22.7749
1252,11.7263
1253,10.6898
1254,10.6241
1255,14.1366
1256,17.6839
1257,21.1585
1258,23.802
1259,23.7347
1260,22.3361
1261,13.147
1262,11.8289
1263,11.7607
1264,14.4556
1265,14.387
1266,9.94972
1267,8.23086
1268,8.16194
1269,11.7984
1270,16.4928
1271,21.9807
1272,21.9115
1273,20.1585
1274,13.4385
1275,13.0576
1276,12.9886
1277,16.2479
1278,18.3496
1279,18.2807
1280,15.9153
1281,10.0033
1282,9.93486
1283,11.8699
1284,18.8858
1285,21.4185
1286,23.5715
1287,23.504
1288,23.0439
1289,11.7101
1290,11.6434
1291,15.1505
1292,20.1402
1293,20.0744
1294,7.85973
1295,4.35889
1296,4.29409
1297,7.87689
1298,14.2185
1299,18.19
1300,21.0028
1301,20.94
1302,19.9278
1303,8.69515
1304,8.63372
1305,16.3219
1306,25.5687
1307,25.5087
1308,17.4847
1309,17.4258
1310,19.2349
1311,25.7168
1312,28.6739
1313,28.6173
1314,25.3018
1315,21.3565
1316,21.2043
1317,21.1501
1318,24.699
1319,24.727
1320,24.6747
1321,19.9198
1322,16.0771
1323,15.4819
1324,15.4324
1325,27.053
1326,27.0048
1327,21.4185
1328,15.4631
1329,15.4171
1330,19.4329
1331,19.474
1332,19.4303
1333,31.0175
1334,32.8344
1335,32.793
1336,27.3137
1337,20.9377
1338,16.7894
1339,15.7783
1340,15.7408
1341,3.99118
1342,3.95537
1343,22.4037
1344,23.7231
1345,23.6897
1346,23.6573
1347,24.6057
1348,28.8746
1349,29.8967
1350,32.4674
1351,40.2333
1352,40.2059
1353,32.8627
1354,20.3307
1355,1.40769
1356,1.38376
1357,7.83961
1358,7.81741
1359,4.47276
1360,4.4523
1361,15.6425
1362,15.6238
1363,14.9958
1364,14.7272
1365,13.9058
1366,9.73633
1367,9.72201
1368,15.4075
1369,31.1998
1370,31.1881
1371,20.8943
1372,20.8844
1373,25.1622
1374,32.3931
1375,33.4918
1376,33.4854
1377,18.3193
1378,15.1776
1379,15.1738
1380,21.226
1381,23.1908
1382,23.1896
1383,18.3066
1384,18.3071
1385,21.6245
1386,26.3719
1387,28.1184
1388,28.1223
1389,26.593
1390,24.8804
1391,22.5353
1392,19.8361
1393,16.1146
1394,7.33788
1395,7.34752
1396,14.157
1397,14.1682
1398,8.34998
1399,8.36278
1400,25.6242
1401,25.6385
1402,25.1224
1403,22.8049
1404,22.5806
1405,22.5507
1406,20.1417
1407,16.3332
1408,14.0107
1409,14.0309
1410,20.4599
1411,24.4575
1412,24.4798
1413,22.8235
1414,13.1401
1415,13.1644
1416,22.5362
1417,22.5618
1418,22.588
1419,26.0374
1420,40.4535
1421,40.4815
1422,26.8409
1423,26.8701
1424,34.0125
1425,34.0428
1426,31.8159
1427,31.7547
1428,30.5358
1429,30.5681
1430,30.601
1431,27.1622
1432,25.3965
1433,25.4307
1434,28.4954
1435,29.1574
1436,30.6762
1437,34.8399
1438,34.8761
1439,25.8722
1440,24.0761
1441,24.1133
1442,26.5588
1443,27.8792
1444,27.9173
1445,22.5664
1446,22.6049
1447,26.3056
1448,33.926
1449,43.4794
1450,43.5186
1451,37.557
1452,29.319
1453,28.2014
1454,28.2412
1455,38.6613
1456,38.7011
1457,36.2245
1458,32.6869
1459,30.3751
1460,26.1272
1461,26.1668
1462,41.9975
1463,51.5524
1464,51.5916
1465,43.9055
1466,23.9111
1467,22.627
1468,22.6654
1469,25.0631
1470,25.9076
1471,28.8598
1472,35.6321
1473,35.6689
1474,30.2554
1475,30.2913
1476,35.4618
1477,35.4968
1478,21.0483
1479,21.0822
1480,21.1155
1481,20.5558
1482,19.2817
1483,19.3131
1484,19.5065
1485,22.9921
1486,23.0213
1487,21.5067
1488,20.3088
1489,20.3356
1490,23.3311
1491,30.6166
1492,30.6406
1493,28.6176
1494,15.1979
1495,10.2073
1496,10.2272
1497,31.1662
1498,31.1838
1499,23.6019
1500,20.7892
1501,20.8033
1502,21.2712
1503,26.0588
1504,26.5748
1505,26.7727
1506,27.9922
1507,27.9981
1508,27.694
1509,20.039
1510,8.04628
1511,8.046
1512,28.5354
1513,28.5318
1514,-3.61451
1515,-3.62152
1516,14.5139
1517,33.1966
1518,35.2505
1519,35.2368
1520,24.8147
1521,24.3889
1522,24.7794
1523,26.7307
1524,26.7093
1525,19.1127
1526,19.0885
1527,39.6245
1528,39.5976
1529,34.6521
1530,18.5045
1531,4.2421
1532,4.21015
1533,19.337
1534,23.8244
1535,26.9514
1536,32.9779
1537,32.9404
1538,23.8733
1539,23.8337
1540,27.3856
1541,27.3442
1542,26.6556
1543,23.9813
1544,23.9373
1545,30.2268
1546,30.1811
1547,29.4967
1548,29.4495
1549,33.2488
1550,35.1447
1551,38.9912
1552,42.0638
1553,42.0134
1554,18.2283
1555,18.1767
1556,23.5296
1557,23.477
1558,23.4239
1559,26.1361
1560,37.3306
1561,44.3898
1562,44.335
1563,42.419
1564,42.3635
1565,51.8463
1566,51.7902
1567,43.2467
1568,43.19
1569,42.6779
1570,36.0204
1571,29.945
1572,27.912
1573,24.3029
1574,21.1124
1575,21.0545
1576,33.2811
1577,41.5861
1578,43.2614
1579,43.2032
1580,22.9905
1581,14.175
1582,14.1166
1583,21.5329
1584,28.6199
1585,28.5617
1586,28.5035
1587,33.0864
1588,58.5577
1589,58.4997
1590,44.8904
1591,38.9597
1592,36.9406
1593,36.8831
1594,37.6371
1595,43.5693
1596,43.5124
1597,43.3859
1598,43.3294
1599,49.8849
1600,51.4918
1601,51.4359
1602,49.0525
1603,43.2551
1604,34.1869
1605,34.132
1606,39.1471
1607,49.25
1608,49.1959
1609,43.4664
1610,25.9876
1611,25.9344
1612,38.0749
1613,47.2172
1614,47.1649
1615,41.904
1616,39.6073
1617,39.5559
1618,39.6855
1619,39.6346
1620,39.5841
1621,38.8603
1622,38.8104
1623,16.6775
1624,16.6282
1625,26.8546
1626,36.3841
1627,36.3358
1628,24.5523
1629,19.7656
1630,19.7181
1631,43.9344
1632,49.0776
1633,50.9828
1634,50.9365
1635,45.8484
1636,44.8368
1637,44.7913
1638,32.3394
1639,32.2944
1640,28.5571
1641,21.6952
1642,21.651
1643,28.1722
1644,33.8088
1645,33.7652
1646,24.8165
1647,24.6257
1648,24.435
1649,24.3922
1650,26.1383
1651,26.0958
1652,20.2285
1653,20.1864
1654,35.0787
1655,49.4534
1656,49.4116
1657,39.6588
1658,28.2426
1659,28.2011
1660,33.593
1661,38.1861
1662,46.1119
1663,46.0706
1664,44.4381
1665,36.0914
1666,32.9876
1667,32.9462
1668,32.9047
1669,29.3242
1670,24.5191
1671,24.4774
1672,30.0094
1673,42.4427
1674,42.4006
1675,39.4774
1676,35.3912
1677,35.3485
1678,38.4097
1679,38.3666
1680,19.1509
1681,19.1073
1682,50.1065
1683,50.0622
1684,30.7683
1685,30.7233
1686,35.4093
1687,35.3635
1688,17.4314
1689,17.3847
1690,19.6913
1691,19.6437
1692,16.5927
1693,13.3448
1694,4.64565
1695,1.89153
1696,1.84109
1697,37.4652
1698,37.4135
1699,28.473
1700,6.50067
1701,6.44681
1702,6.85137
1703,6.79597
1704,-2.39731
1705,-2.45436
1706,8.29677
1707,19.5209
1708,26.6455
1709,26.5852
1710,26.4326
1711,26.3709
1712,29.8335
1713,29.7704
1714,25.9136
1715,18.9108
1716,18.8458
1717,28.6501
1718,28.5839
1719,28.5172
1720,46.7296
1721,46.6619
1722,32.7982
1723,12.1908
1724,12.1216
1725,17.0042
1726,20.9642
1727,32.9554
1728,32.8846
1729,28.9952
1730,4.17332
1731,4.10153
1732,11.4243
1733,32.8597
1734,36.3292
1735,42.079
1736,42.5779
1737,42.5045
1738,40.7217
1739,20.3345
1740,20.2605
1741,27.3938
1742,41.1557
1743,45.4103
1744,46.695
1745,49.7162
1746,49.6414
1747,39.8333
1748,32.9287
1749,32.8537
1750,40.6687
1751,40.5936
1752,33.5804
1753,24.3833
1754,24.3082
1755,29.7354
1756,35.8922
1757,35.817
1758,32.9564
1759,19.8123
1760,19.7372
1761,27.4296
1762,48.0104
1763,47.9355
1764,42.1122
1765,42.0374
1766,45.6433
1767,45.5687
1768,20.4548
1769,18.9563
1770,18.882
1771,27.7824
1772,27.7083
1773,30.5612
1774,31.4901
1775,37.1248
1776,37.051
1777,26.3473
1778,25.2159
1779,17.5145
1780,8.43086
1781,8.35774
1782,36.1935
1783,41.664
1784,41.5912
1785,19.5985
1786,5.49945
1787,5.42706
1788,8.81302
1789,8.74086
1790,3.61556
1791,3.54364
1792,12.7421
1793,40.2225
1794,40.1509
1795,38.5924
1796,19.8871
1797,16.6727
1798,10.1619
1799,9.7092
1800,9.63828
1801,9.90779
1802,17.8236
1803,17.7529
1804,15.7042
1805,13.4596
1806,10.8657
1807,3.95237
1808,2.42091
1809,2.35076
1810,18.918
1811,18.848
1812,16.7928
1813,16.7229
1814,26.9115
1815,34.7296
1816,34.6598
1817,6.12505
1818,6.05535
1819,9.1625
1820,31.3366
1821,31.267
1822,19.1983
1823,12.2251
1824,12.1555
1825,27.3861
1826,27.3164
1827,23.3873
1828,12.0629
1829,-0.598304
1830,-0.668118
1831,1.05075
1832,27.9269
1833,31.6607
1834,32.5892
1835,35.8475
1836,35.7774
1837,28.4457
1838,26.6259
1839,26.5558
1840,30.7912
1841,30.7211
1842,16.3335
1843,16.2634
1844,15.2211
1845,15.1509
1846,15.0808
1847,22.4289
1848,39.1764
1849,45.8484
