#wnum,raman
275,1.48489
276,1.46239
277,-0.494693
278,-0.517189
279,2.51857
280,6.30504
281,6.28259
282,2.46286
283,2.44049
284,7.9532
285,15.374
286,17.8458
287,17.8611
288,17.8391
289,13.7896
290,12.5674
291,12.5457
292,16.4822
293,17.9882
294,17.967
295,17.3357
296,17.3148
297,17.7576
298,17.737
299,14.8239
300,12.5112
301,12.4912
302,12.7711
303,13.9299
304,15.6253
305,15.6062
306,13.2473
307,10.9894
308,10.971
309,12.6163
310,12.5984
311,10.5506
312,10.5332
313,11.6405
314,15.3233
315,15.3068
316,13.1825
317,13.1666
318,13.5117
319,15.3541
320,15.3392
321,12.6564
322,10.341
323,9.58396
324,8.74544
325,8.01808
326,7.93077
327,7.91819
328,11.6563
329,14.589
330,14.5775
331,13.0367
332,8.69234
333,1.81429
334,1.80424
335,5.54937
336,14.7009
337,14.692
338,10.8261
339,9.61826
340,9.61052
341,11.1509
342,12.2657
343,13.1646
344,15.103
345,18.635
346,21.6536
347,21.6486
348,21.1379
349,19.1953
350,15.8922
351,14.3112
352,14.3083
353,14.3058
354,12.8922
355,9.15249
356,9.15128
357,12.3034
358,13.5987
359,13.5987
360,10.1934
361,7.93218
362,6.62289
363,6.6246
364,9.10769
365,12.6043
366,14.3733
367,15.3068
368,17.1848
369,21.0149
370,24.3421
371,24.3472
372,24.3526
373,26.02
374,30.943
375,31.1219
376,31.1289
377,27.5347
378,22.0768
379,15.5217
380,12.2908
381,12.2997
382,13.6165
383,15.3059
384,15.316
385,14.6645
386,8.40618
387,6.2744
388,6.28591
389,7.85884
390,7.87104
391,4.08108
392,4.09394
393,5.07218
394,5.65998
395,5.6738
396,2.7579
397,0.934155
398,0.253906
399,0.268914
400,2.17622
401,4.50784
402,5.6351
403,6.24893
404,6.85032
405,7.38209
406,8.00426
407,9.29936
408,10.6476
409,12.4232
410,14.6678
411,16.466
412,16.4843
413,16.5028
414,17.2224
415,18.45
416,20.7466
417,25.0362
418,29.5673
419,30.2847
420,30.3044
421,27.7539
422,23.7122
423,21.3626
424,21.3829
425,22.1373
426,22.8933
427,23.5644
428,26.2947
429,31.3214
430,31.5524
431,31.5733
432,28.8707
433,28.8917
434,33.1265
435,33.1475
436,27.1769
437,21.2738
438,21.2947
439,22.3249
440,22.5397
441,22.5605
442,21.7167
443,18.2264
444,14.7661
445,11.0971
446,7.50428
447,4.90547
448,3.42759
449,3.44724
450,3.92917
451,3.9484
452,2.90192
453,-1.09208
454,-1.07359
455,2.3653
456,5.18008
457,5.1978
458,3.31112
459,2.3545
460,2.37149
461,2.58078
462,5.57131
463,6.0007
464,6.01683
465,3.74083
466,3.75656
467,7.79364
468,11.3648
469,12.4791
470,13.3224
471,13.3373
472,11.8821
473,10.1634
474,8.45462
475,6.75935
476,3.46433
477,2.49103
478,2.50488
479,6.94267
480,10.9993
481,14.2359
482,14.6258
483,14.6391
484,12.3971
485,12.1498
486,11.9121
487,11.6494
488,9.08433
489,7.07443
490,7.08713
491,7.85756
492,8.92231
493,10.286
494,11.9084
495,13.7868
496,13.9244
497,13.9367
498,13.9489
499,15.184
500,21.4798
501,26.8597
502,30.1288
503,32.8192
504,32.8313
505,31.1871
506,31.1991
507,31.5285
508,32.8392
509,33.6334
510,33.6453
511,30.4995
512,26.4174
513,26.4293
514,30.5958
515,30.6075
516,24.5794
517,16.4338
518,16.4455
519,19.2493
520,19.2609
521,15.6232
522,12.4933
523,12.4703
524,12.2335
525,10.1903
526,7.90926
527,7.9205
528,8.71508
529,9.80967
530,9.82069
531,9.68813
532,5.1422
533,-0.308769
534,-0.298088
535,6.6022
536,12.7774
537,14.0889
538,14.2651
539,14.2754
540,13.4965
541,13.5065
542,16.4061
543,16.416
544,16.2149
545,14.508
546,14.5177
547,16.2022
548,18.2004
549,20.4274
550,20.4367
551,16.2055
552,10.7306
553,9.21993
554,8.49576
555,8.20096
556,8.19284
557,7.65789
558,4.37959
559,4.16866
560,4.17713
561,8.08156
562,9.93619
563,10.2887
564,11.0674
565,12.6538
566,14.1509
567,14.4706
568,14.4782
569,14.2331
570,13.0755
571,13.0828
572,13.1057
573,13.1128
574,12.859
575,12.8659
576,15.0555
577,20.8311
578,23.8839
579,23.8902
580,23.3273
581,22.486
582,21.4842
583,20.1699
584,19.6499
585,19.6554
586,24.3285
587,24.3335
588,21.1703
589,14.5399
590,12.9714
591,12.6517
592,12.1497
593,11.4927
594,10.4193
595,7.29244
596,4.24021
597,3.44079
598,3.00418
599,2.76278
600,2.76498
601,3.06769
602,4.76085
603,4.76222
604,3.93816
605,2.38393
606,2.3844
607,5.26683
608,7.24723
609,7.82099
610,7.82018
611,5.5432
612,3.92883
613,3.92697
614,6.21075
615,6.20815
616,3.8601
617,1.64947
618,0.559254
619,-0.505447
620,-0.664373
621,-0.669376
622,0.0584354
623,1.37807
624,2.30003
625,2.34018
626,2.4464
627,5.23357
628,6.98345
629,6.97544
630,4.95195
631,4.94329
632,8.8721
633,11.4632
634,11.4537
635,10.6635
636,9.45525
637,9.44489
638,10.6886
639,15.8972
640,17.5672
641,17.5559
642,16.0561
643,15.417
644,15.4051
645,15.9339
646,17.6238
647,19.9298
648,22.9219
649,22.9091
650,17.6664
651,13.6147
652,13.6015
653,16.3148
654,16.3013
655,13.1736
656,13.16
657,13.2449
658,15.0962
659,15.67
660,15.656
661,11.0075
662,4.32007
663,4.30585
664,7.18975
665,10.7256
666,12.5639
667,12.5494
668,6.71982
669,0.256236
670,0.241722
671,6.49463
672,10.1516
673,10.137
674,9.61337
675,5.32707
676,3.7117
677,3.69714
678,7.51824
679,9.13016
680,9.22823
681,9.21375
682,8.83965
683,8.63961
684,7.42121
685,6.08677
686,5.96269
687,5.94844
688,6.29418
689,6.84918
690,8.4761
691,12.6236
692,12.6097
693,8.81623
694,2.03438
695,2.02066
696,5.55624
697,5.54269
698,5.25508
699,3.80012
700,1.97433
701,1.96115
702,3.25369
703,6.23299
704,6.22011
705,5.5456
706,5.53294
707,9.62615
708,9.61371
709,5.79942
710,5.51444
711,5.50237
712,11.3212
713,11.3094
714,9.05791
715,7.19779
716,5.74981
717,5.73852
718,7.80625
719,9.23723
720,9.22637
721,7.84257
722,7.83199
723,8.34818
724,8.33789
725,7.6387
726,7.62871
727,8.32659
728,9.21872
729,10.7732
730,12.3302
731,12.321
732,12.1296
733,9.97043
734,6.00702
735,2.93397
736,2.32792
737,2.31963
738,5.79453
739,9.8242
740,12.9853
741,15.3396
742,15.3321
743,11.7939
744,11.7867
745,15.2828
746,17.1758
747,17.1691
748,14.5577
749,10.0131
750,5.20869
751,5.20257
752,8.4052
753,11.4233
754,13.3819
755,13.3764
756,11.9311
757,9.0429
758,5.34809
759,3.53982
760,3.53496
761,9.31636
762,9.34146
763,9.33698
764,6.8715
765,4.26135
766,4.25723
767,5.06032
768,5.93624
769,5.93245
770,0.0528331
771,0.0492572
772,6.25432
773,6.25095
774,3.61629
775,-0.133001
776,-0.136105
777,2.03735
778,10.9094
779,20.5131
780,20.5103
781,10.6159
782,10.6133
783,11.3667
784,12.9325
785,12.9301
786,10.2984
787,7.78265
788,7.09122
789,7.08917
790,10.5725
791,10.5706
792,9.38984
793,7.22994
794,5.11018
795,4.41628
796,4.41469
797,5.63725
798,10.6658
799,13.5918
800,13.5905
801,5.72021
802,3.92925
803,3.92801
804,5.83019
805,6.48783
806,6.48669
807,5.96147
808,5.96039
809,8.19349
810,12.9889
811,15.5692
812,15.5681
813,15.1884
814,10.3405
815,5.84651
816,3.79418
817,3.79319
818,3.84838
819,6.19877
820,8.64527
821,10.9823
822,10.9812
823,8.094
824,4.85981
825,0.912942
826,-0.684481
827,-0.685775
828,1.00282
829,3.05076
830,5.27252
831,7.13396
832,8.84355
833,11.0157
834,13.3304
835,15.0316
836,15.8459
837,15.8445
838,11.1831
839,7.41974
840,7.4185
841,9.1126
842,12.4358
843,15.9838
844,15.9828
845,15.3911
846,15.3903
847,16.4789
848,16.5622
849,16.5618
850,15.7209
851,13.8747
852,13.8747
853,14.0062
854,17.2014
855,17.8998
856,17.9004
857,15.4343
858,9.19232
859,9.19346
860,12.4186
861,16.1262
862,16.1279
863,14.0026
864,14.0047
865,15.2557
866,18.5529
867,23.4775
868,25.8522
869,25.8554
870,25.8589
871,27.1082
872,28.773
873,35.6791
874,42.9074
875,45.9491
876,45.9539
877,44.3034
878,37.0919
879,37.0975
880,41.9476
881,41.9537
882,35.9586
883,31.51
884,31.5168
885,31.5238
886,21.2772
887,14.4434
888,14.4511
889,21.6203
890,21.6284
891,16.6434
892,10.1267
893,1.88731
894,1.89633
895,7.34517
896,13.8453
897,13.855
898,13.8648
899,21.6531
900,26.6851
901,26.6954
902,18.4796
903,18.4903
904,23.1207
905,23.2763
906,23.9817
907,23.993
908,30.1744
909,36.0422
910,36.8893
911,37.2304
912,42.6048
913,47.9224
914,48.5925
915,49.2593
916,53.8279
917,57.865
918,57.8774
919,53.0521
920,47.3316
921,40.4252
922,34.2007
923,31.1174
924,30.4282
925,30.4407
926,30.4531
927,27.2528
928,20.501
929,20.5132
930,22.5694
931,22.5814
932,17.3417
933,13.9399
934,13.3863
935,12.6476
936,11.6357
937,11.0431
938,11.0506
939,11.0612
940,8.67606
941,6.09672
942,4.75038
943,4.75978
944,5.3064
945,6.4383
946,6.44667
947,2.42285
948,2.43045
949,3.81645
950,5.11901
951,5.12533
952,5.13119
953,6.57274
954,8.72336
955,8.72772
956,8.29533
957,6.05154
958,3.28033
959,1.02742
960,-0.882338
961,-1.02327
962,-1.02299
963,-0.358007
964,0.244281
965,1.08317
966,3.57544
967,6.16566
968,7.70934
969,8.98043
970,8.98032
971,8.99497
972,12.6574
973,13.9956
974,13.9893
975,5.3766
976,4.5809
977,4.57329
978,4.97232
979,4.96391
980,4.95512
981,6.46901
982,9.03007
983,15.2403
984,21.3774
985,21.8196
986,21.8988
987,24.178
988,27.2757
989,29.6846
990,30.4488
991,30.4367
992,27.6613
993,26.4201
994,26.0623
995,24.3171
996,15.3999
997,12.2383
998,12.2249
999,15.8227
1000,17.0682
1001,17.0544
1002,16.8754
1003,14.831
1004,12.3704
1005,9.72415
1006,8.06938
1007,6.84308
1008,5.59687
1009,5.58238
1010,6.28216
1011,11.9953
1012,11.9807
1013,4.41833
1014,4.40372
1015,7.44248
1016,15.8
1017,15.7854
1018,15.5385
1019,14.0323
1020,13.6601
1021,13.6457
1022,13.6313
1023,13.5608
1024,12.3734
1025,10.844
1026,9.04547
1027,7.62862
1028,6.63973
1029,6.45479
1030,6.44114
1031,7.45341
1032,10.6221
1033,12.1501
1034,12.1369
1035,12.1239
1036,13.1563
1037,13.1437
1038,7.9255
1039,1.96321
1040,1.95106
1041,6.00633
1042,10.0346
1043,13.6676
1044,17.0338
1045,17.652
1046,17.6411
1047,7.50524
1048,7.4947
1049,11.1147
1050,16.4839
1051,16.8713
1052,16.8617
1053,14.5092
1054,14.5001
1055,14.5423
1056,16.9013
1057,20.0877
1058,20.0796
1059,19.7983
1060,13.901
1061,9.9098
1062,8.86806
1063,8.86133
1064,14.1254
1065,14.1192
1066,13.1341
1067,13.1285
1068,14.2706
1069,14.2655
1070,13.7544
1071,13.0271
1072,12.2596
1073,10.9926
1074,10.5905
1075,10.5606
1076,10.0097
1077,9.4728
1078,9.47046
1079,9.46844
1080,8.63515
1081,8.63373
1082,11.3862
1083,18.8504
1084,18.8499
1085,15.8674
1086,13.6011
1087,12.0591
1088,12.0598
1089,12.0324
1090,9.13247
1091,0.723397
1092,0.725341
1093,7.53117
1094,13.9163
1095,13.9876
1096,13.9907
1097,10.8737
1098,10.8774
1099,15.1068
1100,19.9684
1101,19.973
1102,18.1434
1103,16.9831
1104,16.7485
1105,16.7542
1106,17.6312
1107,17.6376
1108,16.9692
1109,12.5127
1110,7.12603
1111,7.13345
1112,8.6176
1113,11.9896
1114,16.6052
1115,18.0253
1116,18.702
1117,19.2363
1118,24.0413
1119,24.0507
1120,20.2139
1121,20.2238
1122,27.0137
1123,27.4527
1124,27.4633
1125,27.474
1126,30.1028
1127,32.5342
1128,32.5455
1129,32.557
1130,33.019
1131,33.0308
1132,29.3095
1133,23.0751
1134,15.4174
1135,7.06769
1136,7.08016
1137,10.088
1138,10.1007
1139,8.65417
1140,6.48543
1141,5.47926
1142,5.49223
1143,8.58363
1144,11.0314
1145,11.2658
1146,11.2789
1147,6.32986
1148,6.343
1149,8.98805
1150,12.7272
1151,15.45
1152,15.463
1153,9.18586
1154,7.55297
1155,7.56583
1156,11.2876
1157,16.878
1158,16.8905
1159,12.6756
1160,5.02476
1161,5.03695
1162,5.77275
1163,10.9521
1164,12.5276
1165,12.5391
1166,9.37038
1167,9.38149
1168,9.39238
1169,8.69791
1170,4.42375
1171,4.4339
1172,4.68739
1173,4.69699
1174,1.28688
1175,-0.804481
1176,-0.795817
1177,1.90775
1178,9.86726
1179,15.9231
1180,17.9887
1181,17.9958
1182,9.53721
1183,9.54365
1184,10.5019
1185,10.5077
1186,10.0741
1187,9.23273
1188,9.23766
1189,9.82942
1190,14.8725
1191,15.5216
1192,15.5254
1193,14.5691
1194,14.5723
1195,15.7445
1196,16.5452
1197,17.4398
1198,19.441
1199,19.4427
1200,16.2054
1201,16.2067
1202,21.2717
1203,21.2723
1204,17.2258
1205,10.0814
1206,10.0812
1207,14.7286
1208,14.7279
1209,13.9393
1210,10.4047
1211,7.85843
1212,7.85653
1213,9.86575
1214,12.0297
1215,12.0269
1216,7.53328
1217,-0.388572
1218,-0.392237
1219,2.69425
1220,2.69
1221,1.21033
1222,1.20551
1223,4.89415
1224,9.10777
1225,13.3314
1226,13.3255
1227,12.4053
1228,11.1988
1229,11.1922
1230,11.734
1231,13.9714
1232,13.9641
1233,7.61942
1234,7.61167
1235,8.0775
1236,9.59462
1237,9.58625
1238,7.61862
1239,2.26795
1240,2.25899
1241,3.60809
1242,5.2066
1243,5.19709
1244,4.83797
1245,3.59363
1246,3.58361
1247,8.40184
1248,8.3915
1249,6.91761
1250,6.23899
1251,6.22819
1252,8.8109
1253,14.4637
1254,14.4525
1255,13.9092
1256,12.2841
1257,11.9828
1258,11.3423
1259,10.8071
1260,10.1263
1261,9.74224
1262,9.73002
1263,12.6806
1264,12.6681
1265,9.98569
1266,9.97302
1267,10.0014
1268,9.98857
1269,3.92794
1270,1.9919
1271,1.97871
1272,1.96543
1273,1.3862
1274,1.37273
1275,2.69755
1276,3.0346
1277,3.02085
1278,3.00701
1279,3.77582
1280,5.79662
1281,10.7583
1282,10.7442
1283,9.07346
1284,4.33796
1285,-0.376358
1286,-0.390882
1287,7.66672
1288,15.9459
1289,19.6552
1290,19.6405
1291,19.2137
1292,17.2919
1293,17.1328
1294,15.7745
1295,8.16826
1296,2.49526
1297,2.48033
1298,2.8101
1299,2.88286
1300,3.37025
1301,5.22778
1302,7.58118
1303,12.0491
1304,12.0344
1305,6.84424
1306,1.43587
1307,1.04225
1308,1.02777
1309,4.0544
1310,6.4791
1311,6.46489
1312,6.39293
1313,3.90559
1314,1.83297
1315,1.81919
1316,2.8122
1317,11.9842
1318,11.9708
1319,7.39308
1320,2.40363
1321,2.3907
1322,3.88824
1323,7.06122
1324,8.6799
1325,8.66765
1326,7.93225
1327,5.89773
1328,5.06406
1329,4.7615
1330,4.00272
1331,3.14639
1332,3.13554
1333,14.536
1334,21.928
1335,22.6425
1336,23.3108
1337,24.8212
1338,24.8118
1339,22.0397
1340,22.0308
1341,23.0188
1342,25.2614
1343,27.2843
1344,27.2764
1345,21.8715
1346,21.8641
1347,25.1283
1348,28.54
1349,30.2361
1350,30.2298
1351,24.7683
1352,19.7099
1353,14.9033
1354,10.9945
1355,10.9896
1356,13.7393
1357,23.3286
1358,23.3246
1359,18.5548
1360,14.0224
1361,14.0192
1362,15.0353
1363,19.1844
1364,19.182
1365,15.0945
1366,15.0927
1367,22.3294
1368,28.06
1369,30.5939
1370,30.5932
1371,27.2535
1372,25.9145
1373,24.2451
1374,23.0902
1375,23.0908
1376,26.9963
1377,26.9973
1378,21.4263
1379,18.0706
1380,18.0723
1381,18.0742
1382,14.4926
1383,14.4949
1384,15.3638
1385,15.3665
1386,6.21156
1387,-0.292019
1388,-0.288744
1389,1.79332
1390,3.29212
1391,4.69503
1392,6.89464
1393,9.29033
1394,10.8929
1395,11.9736
1396,13.8744
1397,13.9528
1398,14.0831
1399,14.0883
1400,15.0846
1401,16.1716
1402,16.1772
1403,14.3549
1404,10.3089
1405,10.3151
1406,10.6863
1407,10.6928
1408,10.1693
1409,10.176
1410,10.1829
1411,8.28075
1412,7.15702
1413,7.1643
1414,10.2771
1415,10.2846
1416,4.18033
1417,0.336657
1418,0.344564
1419,1.7347
1420,4.32184
1421,4.33009
1422,4.33844
1423,5.83729
1424,8.46704
1425,10.227
1426,11.0042
1427,11.013
1428,9.10002
1429,5.21718
1430,5.22625
1431,6.41383
1432,7.82875
1433,7.84099
1434,7.85032
1435,7.38579
1436,7.39522
1437,8.47259
1438,13.1582
1439,19.8338
1440,19.8434
1441,14.3273
1442,14.3369
1443,13.9252
1444,12.1527
1445,12.1624
1446,13.6516
1447,18.669
1448,18.6786
1449,16.2447
1450,16.2543
1451,18.8676
1452,21.4533
1453,23.0317
1454,23.3112
1455,24.0521
1456,28.1337
1457,31.6122
1458,34.7374
1459,35.4979
1460,35.5068
1461,34.2929
1462,32.8284
1463,32.837
1464,34.8233
1465,34.8316
1466,34.7633
1467,32.8044
1468,28.1186
1469,20.4434
1470,14.3952
1471,14.4024
1472,14.4094
1473,13.064
1474,7.31426
1475,7.32045
1476,11.4544
1477,16.8662
1478,16.8715
1479,12.8144
1480,10.7315
1481,10.7358
1482,10.7397
1483,6.05936
1484,2.34604
1485,2.11432
1486,0.992139
1487,-0.986265
1488,-0.984798
1489,2.30809
1490,9.12574
1491,13.3581
1492,13.3578
1493,2.03997
1494,-0.32386
1495,-0.325435
1496,9.01466
1497,13.1576
1498,13.1548
1499,13.0301
1500,13.0266
1501,18.6683
1502,18.6641
1503,16.3645
1504,13.1907
1505,13.1855
1506,15.3806
1507,15.3749
1508,13.6746
1509,12.832
1510,12.8255
1511,14.4629
1512,14.4559
1513,11.9462
1514,7.50769
1515,2.79417
1516,1.41035
1517,1.40225
1518,6.12799
1519,12.1146
1520,15.7352
1521,15.7264
1522,15.1447
1523,15.1356
1524,17.6394
1525,21.3243
1526,21.3149
1527,18.3395
1528,18.3299
1529,24.5752
1530,24.5654
1531,18.4278
1532,11.7445
1533,8.43496
1534,8.42488
1535,10.1171
1536,10.107
1537,6.48648
1538,6.47623
1539,12.323
1540,26.9887
1541,26.9784
1542,18.8125
1543,18.8021
1544,27.8071
1545,27.7968
1546,22.9376
1547,22.9273
1548,22.1634
1549,19.0782
1550,5.79789
1551,5.78771
1552,13.1666
1553,13.1565
1554,5.76689
1555,5.75686
1556,9.28026
1557,14.1006
1558,14.0907
1559,14.0851
1560,14.0753
1561,27.4467
1562,31.1336
1563,32.0685
1564,32.059
1565,32.0496
1566,30.5781
1567,26.2056
1568,23.1403
1569,23.1312
1570,27.9284
1571,27.9194
1572,21.6036
1573,11.425
1574,11.4162
1575,13.9555
1576,14.0714
1577,14.4932
1578,15.99
1579,17.0604
1580,17.1945
1581,18.7504
1582,18.7421
1583,12.2127
1584,2.41883
1585,2.41071
1586,8.16575
1587,11.8242
1588,15.4197
1589,19.0307
1590,19.0228
1591,15.1142
1592,8.71214
1593,2.20951
1594,2.20171
1595,5.89454
1596,5.88677
1597,6.52724
1598,8.70162
1599,8.69388
1600,5.97333
1601,5.96557
1602,9.84981
1603,10.1201
1604,10.1123
1605,9.40678
1606,9.39894
1607,10.414
1608,10.4061
1609,6.43005
1610,6.42206
1611,7.00807
1612,7.1424
1613,7.13424
1614,7.12602
1615,11.6742
1616,18.2294
1617,18.221
1618,13.8391
1619,4.13324
1620,4.12452
1621,18.9525
1622,18.9435
1623,12.8527
1624,6.98775
1625,3.19179
1626,3.18236
1627,3.9827
1628,5.27281
1629,6.95049
1630,11.5924
1631,11.5822
1632,0.895497
1633,0.884924
1634,4.71673
1635,7.92812
1636,8.05074
1637,8.03937
1638,7.42682
1639,3.69637
1640,-0.473855
1641,-0.486146
1642,1.13089
1643,17.5777
1644,19.8167
1645,19.8034
1646,19.79
1647,18.1113
1648,18.0974
1649,10.3065
1650,10.2921
1651,13.0699
1652,15.2904
1653,15.2753
1654,12.2789
1655,8.38699
1656,8.37122
1657,8.38269
1658,18.6527
1659,18.6362
1660,12.4991
1661,12.3248
1662,11.4106
1663,9.03704
1664,9.01945
1665,13.995
1666,13.9936
1667,13.9753
1668,9.03702
1669,8.07853
1670,8.05955
1671,17.7351
1672,19.4443
1673,19.4246
1674,12.425
1675,10.6505
1676,10.63
1677,10.6094
1678,6.09338
1679,-0.286939
1680,-0.694012
1681,-0.715702
1682,10.7859
1683,19.581
1684,24.035
1685,24.0124
1686,19.528
1687,15.2696
1688,12.168
1689,11.388
1690,10.1312
1691,9.41505
1692,9.39138
1693,9.36761
1694,9.2333
1695,2.15252
1696,2.12853
1697,8.27621
1698,8.25212
1699,8.22801
1700,11.8188
1701,14.6671
1702,15.9397
1703,17.6697
1704,17.6457
1705,16.2676
1706,16.2437
1707,25.1575
1708,26.5176
1709,26.4939
1710,16.8843
1711,15.6246
1712,15.6012
1713,21.0769
1714,23.1405
1715,23.2194
1716,27.5118
1717,32.7375
1718,34.0641
1719,34.0418
1720,32.9703
1721,29.8326
1722,23.5401
1723,17.6043
1724,11.7353
1725,5.99457
1726,5.9738
1727,11.3751
1728,11.9384
1729,11.9184
1730,11.8986
1731,12.9008
1732,14.2985
1733,15.0817
1734,17.2014
1735,19.6136
1736,19.5956
1737,19.5778
1738,28.2938
1739,28.2767
1740,19.9303
1741,10.2604
1742,4.59699
1743,0.844707
1744,0.829217
1745,2.93188
1746,6.9018
1747,22.3062
1748,36.2112
1749,36.1975
1750,30.9194
1751,17.9664
1752,5.78557
1753,5.77326
1754,9.96763
1755,14.3176
1756,14.3064
1757,14.2955
1758,14.9985
1759,19.5592
1760,19.611
1761,19.6017
1762,21.9396
1763,30.1659
1764,30.1578
1765,29.0806
1766,15.7587
1767,0.32192
1768,0.315306
1769,2.17687
1770,11.156
1771,13.5887
1772,13.5836
1773,13.5789
1774,14.8158
1775,22.4022
1776,23.6462
1777,23.643
1778,20.206
1779,17.4746
1780,14.6233
1781,11.9172
1782,11.1714
1783,11.1705
1784,14.7061
1785,18.2977
1786,18.2979
1787,4.22678
1788,4.22767
1789,7.3206
1790,7.3222
1791,7.32414
1792,13.6414
1793,13.644
1794,10.0333
1795,7.77896
1796,7.78258
1797,11.8648
1798,15.3354
1799,22.5722
1800,29.2979
1801,30.9111
1802,31.2194
1803,34.2603
1804,34.2664
1805,27.7733
1806,21.1971
1807,15.8576
1808,15.8648
1809,16.3203
1810,17.574
1811,19.5259
1812,21.0248
1813,21.0333
1814,13.0335
1815,7.70471
1816,7.71386
1817,8.56207
1818,12.1129
1819,13.3601
1820,23.8718
1821,35.1842
1822,35.1944
1823,27.5497
1824,27.5602
1825,27.5709
1826,23.4026
1827,23.4136
1828,29.8322
1829,29.8433
1830,28.4345
1831,28.4458
1832,28.4572
1833,24.153
1834,19.9806
1835,17.0443
1836,7.22435
1837,-0.76819
1838,-0.756687
1839,6.40267
1840,17.7833
1841,25.8693
1842,29.7162
1843,29.7276
1844,31.0999
1845,35.9245
1846,35.9359
1847,17.4009
1848,17.4123
1849,9.4383
