#wnum,raman
275,404.571
276,404.631
277,380.02
278,353.367
279,338.395
280,324.325
281,307.036
282,286.287
283,263.782
284,241.558
285,218.352
286,199.864
287,187.177
288,173.59
289,147.924
290,122.164
291,103.111
292,89.2935
293,76.3932
294,65.7315
295,53.1756
296,42.8007
297,32.448
298,23.1545
299,14.8579
300,7.18088
301,4.95303
302,4.17275
303,4.22152
304,4.55209
305,4.5988
306,2.92432
307,1.99414
308,2.03739
309,7.38681
310,7.42752
311,4.18835
312,-3.46167
313,-3.42515
314,0.112132
315,2.41429
316,2.4465
317,2.40744
318,2.43686
319,3.27337
320,5.00584
321,8.47121
322,10.9239
323,10.9467
324,9.67529
325,7.31787
326,3.83143
327,2.45189
328,2.46858
329,4.22714
330,6.51367
331,9.01973
332,11.3504
333,13.1923
334,13.2023
335,12.0391
336,7.89065
337,7.8975
338,11.8426
339,11.8475
340,9.9403
341,2.96627
342,2.96829
343,6.47905
344,10.7922
345,15.1271
346,17.8648
347,17.8624
348,13.9021
349,10.7583
350,9.59733
351,8.40425
352,6.21674
353,3.88042
354,3.83777
355,3.8293
356,4.87054
357,10.0564
358,12.3824
359,12.3713
360,5.06914
361,1.16609
362,1.15313
363,2.49909
364,6.96207
365,12.103
366,12.0878
367,11.6247
368,11.6085
369,14.1297
370,18.6635
371,18.646
372,14.9242
373,14.9058
374,17.4391
375,21.1394
376,21.1198
377,18.9273
378,18.907
379,19.7278
380,21.114
381,22.4511
382,23.5888
383,25.0731
384,26.6786
385,26.6562
386,23.8622
387,20.5421
388,17.3826
389,14.37
390,12.2356
391,11.3786
392,10.5688
393,8.44328
394,6.3705
395,5.71159
396,5.68711
397,6.56496
398,10.3872
399,11.1345
400,11.1096
401,6.4791
402,6.45403
403,8.88842
404,8.86324
405,7.20429
406,3.3536
407,3.32833
408,7.82474
409,8.61721
410,8.59193
411,8.56667
412,9.03056
413,12.1462
414,12.121
415,11.2679
416,9.31291
417,4.21987
418,3.15828
419,3.1335
420,10.8088
421,10.9844
422,10.9599
423,10.9356
424,11.5453
425,16.2038
426,16.9465
427,16.9227
428,16.5689
429,16.5455
430,16.6967
431,16.6736
432,16.6508
433,17.5525
434,19.9707
435,22.2243
436,22.7802
437,22.7584
438,20.9486
439,17.3843
440,17.0311
441,17.0103
442,18.5246
443,19.5209
444,19.5009
445,17.1463
446,10.5346
447,10.5154
448,13.6092
449,19.3159
450,19.2976
451,17.6052
452,17.5875
453,25.5162
454,25.4991
455,22.0764
456,16.2886
457,16.2724
458,26.4015
459,26.386
460,25.8979
461,20.512
462,18.1288
463,15.7216
464,15.7077
465,15.7688
466,15.7556
467,15.5161
468,15.5036
469,18.9384
470,21.79
471,21.7784
472,14.6645
473,8.27752
474,5.34046
475,4.12241
476,4.1125
477,7.00389
478,7.13184
479,7.12292
480,5.95509
481,3.27334
482,3.26538
483,4.73866
484,11.281
485,11.274
486,6.31251
487,6.30615
488,6.85042
489,12.7693
490,12.7638
491,8.69974
492,4.73543
493,0.971618
494,0.967412
495,2.50329
496,7.48488
497,7.48157
498,3.59637
499,3.59364
500,6.20649
501,10.3733
502,10.5733
503,10.5717
504,8.31213
505,4.45221
506,1.63635
507,1.63587
508,1.78584
509,2.36582
510,3.02284
511,8.80847
512,18.6796
513,18.6807
514,18.4132
515,11.9237
516,11.1514
517,11.1534
518,12.0976
519,13.9243
520,15.414
521,15.8377
522,16.1669
523,17.8099
524,18.6607
525,18.6646
526,15.0575
527,11.7515
528,9.87592
529,8.45356
530,8.45835
531,8.57588
532,8.58101
533,6.59123
534,5.76719
535,5.77278
536,6.53004
537,7.99818
538,8.00418
539,7.09344
540,1.09345
541,1.09981
542,2.15961
543,7.10548
544,12.0093
545,16.8712
546,16.878
547,13.1967
548,11.5508
549,11.5578
550,12.7178
551,14.3246
552,15.9375
553,16.8292
554,17.213
555,17.2202
556,15.4417
557,13.6105
558,12.5876
559,12.5948
560,13.0245
561,16.0002
562,18.1961
563,18.4525
564,18.725
565,19.4364
566,19.4432
567,16.3027
568,9.87545
569,6.67567
570,6.68201
571,7.55232
572,11.738
573,14.9164
574,14.9222
575,11.6048
576,11.6101
577,13.5568
578,13.5618
579,11.2571
580,7.61841
581,7.62267
582,10.638
583,12.6678
584,13.4063
585,14.6976
586,19.8954
587,19.898
588,18.4074
589,9.26685
590,9.26836
591,14.5792
592,18.124
593,18.1244
594,16.9429
595,16.8776
596,16.8563
597,12.0728
598,4.13633
599,-1.05192
600,-1.05469
601,-0.712256
602,2.93969
603,6.64776
604,8.7318
605,10.1084
606,12.1227
607,15.1068
608,17.8928
609,18.7762
610,18.7691
611,15.603
612,10.2025
613,8.79021
614,8.78166
615,8.77281
616,7.13553
617,6.52533
618,6.5156
619,8.26547
620,8.25522
621,7.5941
622,7.58338
623,11.7106
624,15.6435
625,17.8328
626,17.8213
627,15.8705
628,9.46842
629,5.32144
630,4.08958
631,4.07732
632,7.928
633,12.1491
634,14.4695
635,14.4569
636,12.6514
637,4.49994
638,4.48709
639,9.6379
640,17.0593
641,17.0464
642,16.2155
643,14.9731
644,13.5989
645,12.4868
646,11.7522
647,11.7394
648,12.2928
649,13.3782
650,19.1684
651,25.6469
652,26.4415
653,26.429
654,25.0056
655,22.8725
656,20.5856
657,18.044
658,16.2489
659,16.2371
660,17.9173
661,17.9058
662,16.0461
663,16.0349
664,18.9617
665,18.9508
666,13.5618
667,4.1538
668,4.14344
669,9.2303
670,10.0344
671,10.0246
672,9.43092
673,9.42155
674,10.1127
675,12.0185
676,14.1734
677,14.1649
678,13.6616
679,12.7128
680,11.9394
681,11.9319
682,13.4709
683,13.4639
684,12.8956
685,9.03634
686,9.03006
687,13.2748
688,13.269
689,13.1006
690,13.0954
691,15.0637
692,15.0591
693,14.6793
694,5.93527
695,5.93147
696,6.11766
697,9.57046
698,13.6423
699,13.6397
700,7.44703
701,2.3727
702,2.37094
703,15.6131
704,15.612
705,14.5537
706,11.3267
707,11.3265
708,12.6219
709,14.4496
710,14.4503
711,14.3794
712,10.5585
713,10.56
714,15.5958
715,15.598
716,13.5221
717,8.14144
718,6.92814
719,6.12187
720,6.1256
721,6.29559
722,9.55178
723,16.8485
724,23.2855
725,25.5087
726,25.5142
727,20.9141
728,13.3063
729,13.3128
730,16.884
731,16.8911
732,13.218
733,13.2256
734,14.4054
735,14.4135
736,14.1325
737,11.6416
738,11.6505
739,16.1053
740,16.1147
741,12.1175
742,12.1275
743,18.4932
744,18.5037
745,15.7259
746,5.51292
747,5.52414
748,10.4194
749,10.431
750,9.83294
751,7.55478
752,4.49037
753,3.7723
754,3.78501
755,3.95489
756,3.96798
757,2.60241
758,2.61586
759,7.6134
760,7.6272
761,2.37563
762,2.38975
763,2.87855
764,6.76435
765,6.77889
766,5.09924
767,5.11405
768,7.97955
769,7.9946
770,6.26895
771,4.73358
772,4.74895
773,4.7644
774,2.42483
775,-0.304923
776,-0.289231
777,-0.0555504
778,2.37577
779,6.56032
780,7.56397
781,7.58002
782,7.59613
783,8.27477
784,8.29102
785,7.47816
786,3.98579
787,4.00226
788,5.72984
789,5.74645
790,3.89598
791,3.91272
792,8.97277
793,12.853
794,12.8699
795,12.6657
796,12.6827
797,13.0771
798,13.0943
799,6.344
800,1.50199
801,0.605439
802,0.622877
803,4.78207
804,8.202
805,8.2196
806,8.23725
807,13.1643
808,21.4295
809,21.4472
810,7.13264
811,3.27089
812,3.2888
813,8.1502
814,9.56581
815,9.58382
816,8.43906
817,5.24687
818,3.24979
819,1.89285
820,1.1318
821,1.14993
822,1.59933
823,3.75809
824,5.51
825,5.52816
826,5.54631
827,5.64374
828,6.20631
829,8.4484
830,10.7438
831,10.7619
832,4.85447
833,4.33768
834,4.3557
835,7.65496
836,11.0896
837,14.3453
838,14.3632
839,13.5386
840,11.2503
841,10.0617
842,10.0793
843,18.2773
844,25.4558
845,29.8674
846,29.8847
847,27.6599
848,21.6839
849,13.9765
850,8.06741
851,8.08426
852,14.9817
853,18.9447
854,19.7036
855,19.72
856,19.6232
857,19.6393
858,21.3989
859,21.4146
860,18.8438
861,13.678
862,10.1861
863,9.76863
864,9.7834
865,16.7333
866,16.7476
867,12.8019
868,7.07955
869,3.31951
870,-0.347629
871,-0.445522
872,-0.432737
873,0.909859
874,2.38896
875,2.40092
876,0.891918
877,0.277217
878,0.288377
879,0.51977
880,0.935089
881,0.992198
882,1.00233
883,1.01222
884,1.11422
885,1.59817
886,4.71237
887,8.843
888,10.1518
889,10.1603
890,9.6843
891,8.95947
892,8.96724
893,9.62569
894,9.63301
895,8.85605
896,8.86294
897,9.41908
898,12.2767
899,13.9008
900,13.9069
901,12.1279
902,6.04545
903,4.42925
904,4.43447
905,5.99046
906,6.78058
907,6.7852
908,3.83856
909,0.160486
910,-0.212029
911,-0.2082
912,2.50145
913,6.40102
914,9.57434
915,12.1123
916,12.1152
917,7.50392
918,7.5065
919,9.48342
920,11.8376
921,11.8397
922,9.65395
923,8.17797
924,6.84604
925,6.5606
926,6.56201
927,10.6107
928,17.7177
929,17.7188
930,10.2039
931,10.1091
932,10.1098
933,11.0642
934,11.0647
935,7.98673
936,7.98702
937,7.98722
938,5.74494
939,3.85681
940,3.85674
941,8.55534
942,8.5551
943,6.59228
944,6.59188
945,12.2474
946,15.4834
947,15.4828
948,13.9762
949,7.21991
950,1.22422
951,1.22333
952,3.02861
953,4.11806
954,4.96892
955,8.18789
956,13.1085
957,13.1072
958,12.3809
959,12.3795
960,19.5899
961,19.5884
962,15.6988
963,7.54364
964,7.542
965,7.98153
966,11.8506
967,15.1044
968,15.1025
969,11.5123
970,8.91591
971,7.24393
972,7.24186
973,10.3464
974,10.3442
975,7.00374
976,3.44709
977,2.95962
978,2.43168
979,0.879827
980,0.862451
981,0.859838
982,2.71206
983,2.70932
984,2.33285
985,2.22492
986,2.22196
987,4.98036
988,10.4542
989,10.5209
990,10.5177
991,9.52582
992,9.52241
993,10.1335
994,10.1299
995,10.1263
996,10.6989
997,11.1894
998,13.0023
999,14.0015
1000,13.9974
1001,12.2809
1002,9.51395
1003,6.05696
1004,6.05241
1005,7.95885
1006,9.01034
1007,9.00545
1008,8.38429
1009,7.10587
1010,5.98649
1011,5.98109
1012,5.97555
1013,3.90934
1014,3.90352
1015,8.03294
1016,15.5659
1017,15.5596
1018,13.1016
1019,8.30024
1020,2.12898
1021,-0.241514
1022,-0.248625
1023,1.97154
1024,6.9506
1025,6.94295
1026,3.36837
1027,3.36037
1028,12.4529
1029,19.4235
1030,19.415
1031,15.4316
1032,13.3742
1033,11.4219
1034,11.0277
1035,11.0182
1036,13.2406
1037,13.3568
1038,13.3468
1039,5.63782
1040,3.42903
1041,3.41851
1042,6.03792
1043,11.0547
1044,12.0781
1045,12.0669
1046,10.3622
1047,9.98562
1048,9.41327
1049,4.94974
1050,4.93747
1051,6.76323
1052,13.5471
1053,14.5927
1054,14.6653
1055,17.124
1056,20.289
1057,20.2752
1058,20.0852
1059,19.3473
1060,18.6812
1061,17.0758
1062,14.3662
1063,10.6511
1064,5.14913
1065,0.665962
1066,-1.00232
1067,-1.01847
1068,6.98056
1069,9.75397
1070,9.7371
1071,9.72004
1072,10.2634
1073,11.0163
1074,10.9987
1075,8.15858
1076,8.14071
1077,13.3059
1078,17.5608
1079,18.7712
1080,18.7529
1081,11.581
1082,11.5627
1083,16.4318
1084,22.9878
1085,30.8238
1086,30.8055
1087,28.8596
1088,28.8414
1089,32.9399
1090,38.4279
1091,40.4878
1092,40.4698
1093,38.2382
1094,33.9211
1095,27.3657
1096,27.3481
1097,30.3329
1098,41.44
1099,41.4229
1100,40.5515
1101,40.1182
1102,39.934
1103,32.5766
1104,21.4742
1105,15.4291
1106,13.2395
1107,11.6101
1108,11.5948
1109,12.6042
1110,18.4599
1111,19.1885
1112,19.1741
1113,19.1601
1114,20.7724
1115,20.7589
1116,17.4836
1117,17.4707
1118,31.0326
1119,40.817
1120,40.8049
1121,36.4145
1122,36.403
1123,36.3918
1124,36.1062
1125,36.0956
1126,38.6352
1127,41.4475
1128,41.4379
1129,35.6682
1130,34.5448
1131,34.1303
1132,30.4762
1133,23.699
1134,22.9306
1135,21.4156
1136,19.929
1137,11.7717
1138,8.30469
1139,8.29849
1140,8.29259
1141,8.43632
1142,8.52238
1143,17.4382
1144,17.7087
1145,17.7043
1146,11.7939
1147,4.04015
1148,4.0366
1149,8.05671
1150,13.4399
1151,13.4372
1152,8.55309
1153,8.55091
1154,8.63707
1155,10.3337
1156,11.4133
1157,11.4121
1158,11.4112
1159,14.5057
1160,20.0841
1161,21.363
1162,21.4595
1163,22.9714
1164,22.972
1165,22.9154
1166,17.2453
1167,16.1749
1168,16.1763
1169,16.1778
1170,16.3491
1171,16.7313
1172,19.9381
1173,19.9403
1174,16.344
1175,12.4881
1176,8.76542
1177,8.7683
1178,9.97343
1179,9.97657
1180,7.53959
1181,4.42706
1182,3.62709
1183,3.63067
1184,4.75916
1185,6.54982
1186,10.1042
1187,10.9822
1188,10.9861
1189,10.3496
1190,10.3536
1191,10.3577
1192,4.82162
1193,-0.17496
1194,-0.170855
1195,2.61107
1196,9.46429
1197,9.46838
1198,9.19617
1199,4.3886
1200,4.39263
1201,12.892
1202,16.5777
1203,16.5816
1204,12.5507
1205,3.35373
1206,3.35748
1207,6.23397
1208,12.782
1209,18.2774
1210,18.2809
1211,9.49009
1212,3.40339
1213,-0.630248
1214,-0.627217
1215,3.20154
1216,6.95082
1217,10.6409
1218,10.6435
1219,9.96805
1220,8.6664
1221,8.66875
1222,8.77523
1223,12.4476
1224,15.3303
1225,17.1082
1226,17.1102
1227,13.7663
1228,8.89104
1229,1.42287
1230,1.42471
1231,7.77946
1232,14.2061
1233,15.8283
1234,15.83
1235,11.6374
1236,8.18697
1237,6.8799
1238,5.6871
1239,5.08098
1240,3.94103
1241,0.810309
1242,0.811983
1243,3.88748
1244,7.87925
1245,8.24463
1246,9.43386
1247,15.2014
1248,15.2032
1249,12.0739
1250,7.43529
1251,7.43714
1252,7.43902
1253,4.17942
1254,4.18137
1255,6.42294
1256,11.9898
1257,15.4393
1258,15.4415
1259,14.1195
1260,9.78381
1261,7.02477
1262,7.02709
1263,10.4086
1264,16.2588
1265,16.5748
1266,16.5773
1267,7.91822
1268,2.67324
1269,2.67596
1270,6.52909
1271,12.6225
1272,13.347
1273,13.3499
1274,13.353
1275,17.5131
1276,21.8817
1277,21.885
1278,17.286
1279,17.2893
1280,17.2927
1281,11.3701
1282,5.4215
1283,5.42506
1284,9.04756
1285,15.6862
1286,15.69
1287,10.7509
1288,8.36128
1289,8.36514
1290,10.671
1291,10.6749
1292,4.89224
1293,4.89626
1294,11.2652
1295,19.1177
1296,19.6669
1297,19.671
1298,13.8057
1299,13.8099
1300,14.0715
1301,14.0758
1302,10.945
1303,10.7213
1304,10.7256
1305,14.4344
1306,18.0092
1307,18.0134
1308,17.4323
1309,13.8939
1310,10.15
1311,6.30913
1312,6.31325
1313,16.5314
1314,27.5666
1315,27.5706
1316,24.363
1317,16.1046
1318,9.59793
1319,9.60168
1320,11.1212
1321,13.2805
1322,15.5956
1323,21.3179
1324,21.3212
1325,20.4917
1326,14.8239
1327,10.4186
1328,9.88185
1329,9.88453
1330,9.88706
1331,9.4348
1332,9.43702
1333,17.0677
1334,22.5746
1335,22.5762
1336,19.5892
1337,11.9278
1338,11.9288
1339,17.3604
1340,17.361
1341,13.1414
1342,5.36079
1343,5.36064
1344,6.12343
1345,12.4424
1346,12.4414
1347,6.37293
1348,2.75634
1349,2.71688
1350,2.71464
1351,-1.09656
1352,-1.09949
1353,2.59865
1354,3.51978
1355,4.06171
1356,4.05745
1357,7.57877
1358,7.57392
1359,3.84948
1360,3.84408
1361,5.2261
1362,8.77162
1363,12.5986
1364,12.5922
1365,7.24968
1366,7.24291
1367,12.397
1368,12.3899
1369,11.2571
1370,11.2496
1371,17.9988
1372,17.9911
1373,19.1102
1374,19.3558
1375,22.9708
1376,25.9531
1377,25.9448
1378,23.6673
1379,16.3109
1380,13.3014
1381,11.3977
1382,10.5764
1383,10.5027
1384,10.494
1385,11.2342
1386,13.574
1387,13.5653
1388,11.0824
1389,11.0737
1390,17.8531
1391,17.8444
1392,15.5774
1393,4.70499
1394,4.69646
1395,4.68798
1396,1.6014
1397,1.59305
1398,2.75955
1399,7.07893
1400,14.5177
1401,16.1367
1402,16.318
1403,16.3102
1404,23.0923
1405,23.0847
1406,20.0181
1407,13.9979
1408,6.93817
1409,6.93109
1410,8.16419
1411,11.2735
1412,14.0515
1413,14.8686
1414,15.0621
1415,15.1594
1416,15.6403
1417,15.6345
1418,15.0358
1419,9.48547
1420,7.61166
1421,7.6066
1422,16.3825
1423,16.3778
1424,14.8048
1425,11.8431
1426,8.67192
1427,3.09912
1428,1.6414
1429,1.63797
1430,1.63476
1431,0.698293
1432,0.695526
1433,10.6922
1434,10.6899
1435,8.58818
1436,4.1929
1437,4.19128
1438,5.83222
1439,6.16862
1440,6.76743
1441,7.77417
1442,10.8783
1443,16.5489
1444,16.549
1445,17.4693
1446,18.3468
1447,27.8122
1448,31.4421
1449,31.4435
1450,24.231
1451,18.9829
1452,18.9851
1453,23.9128
1454,23.9155
1455,16.2466
1456,16.2498
1457,16.574
1458,22.0896
1459,23.6227
1460,23.6269
1461,21.1137
1462,21.0059
1463,20.394
1464,16.0166
1465,16.022
1466,20.2044
1467,20.2103
1468,19.4276
1469,19.286
1470,19.2925
1471,21.6893
1472,22.1057
1473,22.113
1474,17.3114
1475,17.3191
1476,24.7385
1477,24.7465
1478,20.6483
1479,19.8162
1480,19.5432
1481,14.7133
1482,9.35051
1483,6.9543
1484,6.96352
1485,16.2563
1486,16.2658
1487,14.9453
1488,9.61692
1489,9.62682
1490,13.2165
1491,21.9956
1492,22.0058
1493,14.8954
1494,8.32975
1495,4.92745
1496,4.93799
1497,5.34124
1498,5.35189
1499,1.96997
1500,1.9807
1501,9.72536
1502,12.8459
1503,13.4423
1504,13.4531
1505,11.1091
1506,3.58965
1507,3.60041
1508,10.9799
1509,18.7019
1510,18.7125
1511,15.0675
1512,6.42998
1513,3.0504
1514,3.06076
1515,8.45986
1516,17.7214
1517,17.7314
1518,10.9639
1519,10.9737
1520,10.3354
1521,6.9856
1522,6.99493
1523,7.40456
1524,9.76463
1525,9.7734
1526,9.78197
1527,12.7828
1528,20.0813
1529,22.7421
1530,22.7497
1531,15.7165
1532,11.3722
1533,11.379
1534,14.3118
1535,21.7048
1536,21.8635
1537,21.869
1538,12.9623
1539,1.36009
1540,-0.24588
1541,-0.241782
1542,6.8257
1543,14.2151
1544,18.3002
1545,18.3027
1546,13.2821
1547,9.79635
1548,9.79752
1549,12.6819
1550,17.9925
1551,17.9923
1552,17.1372
1553,17.136
1554,19.2511
1555,22.1253
1556,22.1226
1557,19.1337
1558,15.0135
1559,15.0091
1560,15.0042
1561,12.3973
1562,12.3913
1563,15.3267
1564,20.8157
1565,20.8078
1566,20.2672
1567,16.396
1568,13.7599
1569,12.4053
1570,11.1715
1571,11.1597
1572,15.6018
1573,15.5885
1574,12.0507
1575,-1.34865
1576,-1.36413
1577,-0.397088
1578,3.4515
1579,6.99461
1580,9.34194
1581,11.5853
1582,13.9518
1583,13.9313
1584,13.7066
1585,10.7802
1586,10.7579
1587,10.8489
1588,15.1255
1589,15.1015
1590,15.077
1591,15.1946
1592,17.7818
1593,18.1768
1594,18.2477
1595,21.8186
1596,21.7913
1597,17.837
1598,17.8088
1599,20.0732
1600,21.878
1601,21.8487
1602,14.5595
1603,2.75268
1604,2.72239
1605,2.94491
1606,17.6412
1607,29.7503
1608,29.7188
1609,28.1288
1610,20.5049
1611,20.4728
1612,24.5265
1613,24.494
1614,21.5732
1615,21.5403
1616,21.5072
1617,19.3336
1618,12.4435
1619,8.89077
1620,8.42949
1621,8.39581
1622,9.79577
1623,9.85184
1624,9.97283
1625,10.6313
1626,14.6984
1627,16.8897
1628,16.8556
1629,15.6573
1630,15.6232
1631,21.6958
1632,21.6617
1633,21.6276
1634,21.6822
1635,24.1939
1636,24.16
1637,23.9527
1638,20.5906
1639,20.5569
1640,21.3006
1641,21.2669
1642,12.5811
1643,9.46931
1644,9.43601
1645,19.5378
1646,21.8616
1647,21.8287
1648,15.8375
1649,10.5132
1650,10.4807
1651,17.8504
1652,22.1201
1653,24.8033
1654,30.6023
1655,30.5707
1656,21.8922
1657,7.82473
1658,5.69127
1659,2.60542
1660,1.84236
1661,1.81186
1662,19.0178
1663,18.9877
1664,17.2656
1665,17.236
1666,17.7499
1667,23.9409
1668,23.912
1669,7.92289
1670,7.89441
1671,9.79262
1672,10.3375
1673,10.3097
1674,5.19038
1675,2.9233
1676,2.8963
1677,7.91094
1678,10.0104
1679,12.1479
1680,20.265
1681,26.5459
1682,26.5205
1683,24.8716
1684,20.9856
1685,20.961
1686,20.9366
1687,15.8818
1688,5.44491
1689,5.42138
1690,11.8958
1691,17.3594
1692,17.3367
1693,12.0319
1694,5.74988
1695,5.72798
1696,6.17224
1697,10.9394
1698,10.9183
1699,0.662431
1700,0.641876
1701,4.4321
1702,16.3578
1703,16.3381
1704,7.99637
1705,7.97714
1706,17.5086
1707,18.5716
1708,18.5532
1709,12.0158
1710,4.43116
1711,1.3338
1712,1.31637
1713,11.3915
1714,19.248
1715,19.2313
1716,17.6439
1717,11.6846
1718,11.6686
1719,20.1442
1720,21.7837
1721,21.7684
1722,16.2926
1723,11.4915
1724,9.49448
1725,7.34173
1726,4.87604
1727,3.74223
1728,3.42929
1729,3.41568
1730,3.40256
1731,5.93889
1732,10.0922
1733,21.2517
1734,21.239
1735,18.0327
1736,8.25736
1737,1.75087
1738,1.73881
1739,8.34738
1740,8.33562
1741,8.324
1742,11.3501
1743,11.3388
1744,6.76458
1745,1.62581
1746,1.6148
1747,7.22941
1748,14.6477
1749,14.6369
1750,6.18657
1751,6.17602
1752,9.2082
1753,18.2299
1754,18.2196
1755,14.3085
1756,14.2983
1757,25.4897
1758,25.4795
1759,13.9354
1760,9.40215
1761,9.39205
1762,13.5702
1763,13.5601
1764,12.1618
1765,12.1516
1766,14.3937
1767,14.3835
1768,12.3824
1769,12.2603
1770,12.2499
1771,13.2528
1772,18.1096
1773,23.0356
1774,23.0249
1775,14.8829
1776,1.95405
1777,1.94299
1778,22.176
1779,22.1647
1780,10.5215
1781,10.5099
1782,17.3451
1783,22.6545
1784,24.8025
1785,24.79
1786,22.8772
1787,17.8644
1788,10.0719
1789,-1.0654
1790,-1.07908
1791,8.65902
1792,17.871
1793,26.5975
1794,26.5828
1795,23.9725
1796,11.7318
1797,11.7164
1798,23.7355
1799,23.7197
1800,18.972
1801,13.3865
1802,13.3701
1803,17.971
1804,17.9543
1805,14.2661
1806,10.1685
1807,10.1514
1808,14.464
1809,14.4466
1810,12.0227
1811,12.005
1812,13.0902
1813,13.0724
1814,9.2765
1815,9.25843
1816,12.5073
1817,20.3411
1818,20.3228
1819,18.2937
1820,18.2753
1821,19.0562
1822,23.1832
1823,23.1645
1824,16.5966
1825,15.9564
1826,15.9376
1827,18.0837
1828,18.0649
1829,18.046
1830,18.9916
1831,20.5087
1832,21.6428
1833,21.6239
1834,20.9436
1835,12.2303
1836,3.60731
1837,1.29971
1838,1.28066
1839,16.3249
1840,21.267
1841,21.2479
1842,11.7479
1843,11.7288
1844,21.9053
1845,21.8862
1846,6.63834
1847,6.61925
1848,14.9982
1849,14.9791
