#wnum,raman
275,780.971
276,782.029
277,732.945
278,683.381
279,647.164
280,614.702
281,574.924
282,521.444
283,468.955
284,444.128
285,421.962
286,398.91
287,380.134
288,363.515
289,341.44
290,319.224
291,303.916
292,294.935
293,284.185
294,255.146
295,231.344
296,217.278
297,210.524
298,202.815
299,193.687
300,185.209
301,175.087
302,163.207
303,158.257
304,159.291
305,160.324
306,138.109
307,110.819
308,97.1835
309,98.1306
310,98.2547
311,87.2267
312,76.1179
313,72.6844
314,72.5667
315,71.006
316,63.2969
317,55.4484
318,54.1726
319,55.162
320,56.4254
321,63.5842
322,64.5613
323,59.1461
324,44.9477
325,45.9112
326,52.2394
327,57.9562
328,58.905
329,58.698
330,52.3529
331,40.9479
332,30.6098
333,25.9374
334,26.8532
335,31.9885
336,44.9002
337,45.7976
338,36.1879
339,24.7141
340,9.55934
341,-2.20688
342,-1.34271
343,19.9955
344,38.8077
345,47.2905
346,48.1259
347,46.6347
348,30.6739
349,30.7317
350,31.5366
351,32.3336
352,28.0945
353,11.566
354,12.3388
355,24.2009
356,27.11
357,27.8575
358,18.2043
359,15.4153
360,15.9368
361,15.6772
362,12.0782
363,8.67714
364,-0.172305
365,-8.94589
366,-8.27973
367,11.8223
368,24.9
369,25.5379
370,19.5279
371,13.3727
372,7.08373
373,7.68486
374,13.7559
375,23.6404
376,28.1467
377,28.7121
378,24.7304
379,6.40321
380,-0.81554
381,-0.284821
382,11.7701
383,24.6206
384,37.3403
385,37.8375
386,31.1446
387,20.5695
388,21.0422
389,28.2756
390,28.7324
391,25.7282
392,26.1694
393,29.4112
394,37.8567
395,38.2751
396,36.0013
397,31.5252
398,25.3637
399,25.7526
400,26.6063
401,34.3416
402,34.7091
403,21.34
404,21.6936
405,22.0425
406,34.9857
407,35.319
408,30.7024
409,30.189
410,30.5025
411,30.8096
412,22.2019
413,9.30327
414,9.59141
415,27.3002
416,38.7556
417,39.0254
418,35.9785
419,36.2364
420,37.3094
421,38.5019
422,39.9284
423,40.1633
424,32.0154
425,21.2312
426,13.2164
427,7.47704
428,7.6845
429,20.9603
430,35.8639
431,39.1596
432,39.3463
433,39.5279
434,40.1026
435,40.2743
436,40.0662
437,40.2282
438,40.562
439,42.5293
440,45.3857
441,50.7328
442,56.3883
443,59.9146
444,60.0446
445,55.257
446,42.1939
447,39.2801
448,39.3931
449,39.5019
450,38.3765
451,35.7054
452,35.8022
453,67.2155
454,67.3044
455,65.1644
456,34.5489
457,30.898
458,30.972
459,35.3398
460,41.6871
461,41.7503
462,37.9113
463,27.4007
464,22.8284
465,22.8779
466,26.0795
467,44.7487
468,50.454
469,50.4906
470,33.3329
471,33.3634
472,46.5922
473,49.8123
474,49.8339
475,41.9813
476,36.8307
477,32.5606
478,32.5709
479,34.1448
480,34.1497
481,23.6278
482,17.0479
483,17.045
484,29.4176
485,29.4096
486,27.5988
487,27.586
488,29.0687
489,36.7317
490,36.7119
491,35.9137
492,35.8894
493,42.63
494,46.9159
495,46.8853
496,45.0973
497,42.3114
498,39.0373
499,36.0497
500,33.4723
501,30.5995
502,24.4765
503,23.697
504,23.649
505,37.1588
506,39.0972
507,39.044
508,38.9891
509,41.2667
510,50.791
511,54.7001
512,54.8433
513,54.7806
514,53.284
515,51.3964
516,44.6606
517,36.7492
518,36.6793
519,38.2456
520,42.1278
521,47.1814
522,47.1063
523,44.8407
524,35.9801
525,35.9014
526,49.1927
527,60.8561
528,63.0909
529,63.0077
530,50.637
531,33.9238
532,24.8926
533,23.4787
534,21.5976
535,17.5206
536,17.4301
537,18.3789
538,24.1482
539,24.055
540,16.5765
541,16.4816
542,29.6838
543,36.568
544,36.4705
545,22.9427
546,22.8437
547,31.0779
548,30.9773
549,19.9954
550,6.57527
551,6.47257
552,11.6917
553,18.8333
554,27.4379
555,27.3326
556,21.2308
557,10.9924
558,9.12222
559,9.01447
560,13.7676
561,23.9436
562,35.066
563,48.7947
564,50.3506
565,50.2397
566,36.7227
567,36.6109
568,37.1404
569,40.3072
570,44.0306
571,43.9169
572,40.1068
573,31.3238
574,30.0425
575,29.3015
576,29.1858
577,25.8775
578,25.7611
579,35.5785
580,36.5796
581,36.4622
582,18.0141
583,17.8959
584,27.3808
585,39.4843
586,43.1469
587,46.4867
588,47.9654
589,49.2295
590,49.1092
591,45.8951
592,45.7742
593,46.1965
594,49.3402
595,49.2185
596,46.9081
597,41.9994
598,35.8827
599,28.9303
600,18.5168
601,18.3934
602,19.6239
603,31.6002
604,37.0411
605,38.1943
606,38.0695
607,33.0419
608,32.9165
609,37.8563
610,37.7302
611,33.3298
612,19.5902
613,19.4632
614,40.7565
615,48.6155
616,48.4875
617,41.6482
618,37.0346
619,36.9057
620,37.2029
621,47.8308
622,50.1864
623,50.056
624,44.5838
625,42.4144
626,41.1199
627,40.9879
628,40.8554
629,39.4661
630,29.3294
631,29.1956
632,30.8237
633,39.8348
634,41.3098
635,41.174
636,37.8421
637,29.7153
638,29.5779
639,36.4981
640,46.1006
641,57.6141
642,63.9369
643,63.7964
644,52.4875
645,38.7819
646,22.7748
647,22.6316
648,30.9307
649,49.1663
650,59.7722
651,59.626
652,57.0646
653,30.617
654,30.4683
655,38.748
656,57.5946
657,57.8156
658,57.6633
659,56.7409
660,55.6395
661,53.3114
662,48.5398
663,48.3825
664,50.5805
665,50.4209
666,25.3731
667,-4.00534
668,-4.16844
669,20.7539
670,38.9594
671,47.9598
672,47.7923
673,37.5801
674,25.2985
675,25.1282
676,32.8148
677,36.9927
678,38.1062
679,37.9329
680,30.3869
681,30.2125
682,33.8216
683,33.6461
684,33.1559
685,16.5631
686,16.3865
687,35.6263
688,50.7513
689,54.9951
690,59.3652
691,59.6582
692,59.4806
693,48.0197
694,32.1946
695,32.0171
696,49.4474
697,62.5721
698,62.3952
699,61.6884
700,52.636
701,43.3913
702,36.3934
703,28.929
704,28.7542
705,37.037
706,36.8633
707,30.7806
708,18.2262
709,7.7408
710,7.56958
711,8.60694
712,29.5354
713,43.7088
714,49.108
715,49.8256
716,49.6593
717,49.494
718,58.1424
719,67.9935
720,67.8312
721,57.0913
722,55.5544
723,55.3954
724,56.8327
725,56.6761
726,55.0277
727,46.3706
728,37.5119
729,33.7504
730,31.8332
731,29.988
732,28.5384
733,27.238
734,26.3119
735,26.1691
736,36.0213
737,47.1136
738,46.9755
739,43.2856
740,39.108
741,37.521
742,37.3895
743,59.2251
744,62.0194
745,61.893
746,42.7459
747,40.6415
748,39.0945
749,35.0451
750,22.5269
751,20.664
752,20.5505
753,26.5055
754,38.3334
755,43.4971
756,43.3914
757,31.7615
758,31.6598
759,35.4394
760,35.3417
761,17.8207
762,9.19508
763,9.10371
764,15.7982
765,33.4651
766,52.0393
767,51.9565
768,42.8875
769,42.8091
770,57.0025
771,56.9285
772,47.4454
773,47.3759
774,55.0388
775,80.3425
776,80.2798
777,70.7828
778,62.0874
779,53.5714
780,53.518
781,56.0196
782,55.9709
783,50.4305
784,39.4512
785,27.7038
786,16.6913
787,16.6543
788,25.5911
789,31.9727
790,34.9297
791,39.6207
792,50.691
793,53.3612
794,53.3409
795,44.9661
796,37.2098
797,30.6161
798,30.6054
799,38.4289
800,45.1338
801,49.9798
802,49.9788
803,48.3171
804,48.3209
805,50.8879
806,50.8965
807,50.5293
808,32.5616
809,32.5774
810,47.8998
811,60.6498
812,65.4403
813,65.4656
814,64.1744
815,58.6281
816,43.0689
817,34.0688
818,34.1059
819,56.2708
820,56.5764
821,56.6204
822,56.6667
823,61.4717
824,70.1529
825,84.069
826,95.0194
827,95.077
828,88.0368
829,88.0988
830,86.5025
831,84.1567
832,71.2183
833,70.6745
834,70.7472
835,76.9941
836,77.071
837,77.15
838,80.9165
839,80.9995
840,69.1114
841,36.7118
842,36.8007
843,46.4613
844,61.7814
845,64.2902
846,64.3865
847,59.8584
848,57.4166
849,57.5182
850,63.6114
851,71.154
852,79.6276
853,79.9929
854,82.931
855,83.8907
856,103.709
857,103.823
858,98.5874
859,77.4158
860,77.5343
861,77.2192
862,71.4861
863,59.8885
864,59.2835
865,59.4082
866,66.3634
867,78.3002
868,78.4281
869,73.8666
870,68.5239
871,68.6547
872,68.7863
873,56.6271
874,31.8397
875,31.9735
876,38.1415
877,39.7491
878,40.8508
879,40.987
880,51.8643
881,57.7234
882,57.8608
883,54.1245
884,46.8576
885,40.6022
886,40.7405
887,40.8789
888,40.5233
889,28.8589
890,28.9972
891,37.1249
892,37.2628
893,29.318
894,29.1785
895,29.3155
896,35.7031
897,35.8392
898,26.7094
899,26.8444
900,33.8503
901,33.984
902,30.5068
903,23.9772
904,13.2907
905,13.421
906,27.5575
907,38.8466
908,38.9736
909,31.5475
910,31.6721
911,31.7954
912,30.6765
913,24.1521
914,21.0129
915,21.1304
916,22.1288
917,24.5879
918,26.668
919,27.727
920,27.8358
921,25.0751
922,21.5166
923,19.879
924,19.9796
925,22.346
926,28.5718
927,34.2993
928,38.8147
929,38.9036
930,30.4286
931,30.5124
932,33.7508
933,35.5625
934,35.6381
935,35.7108
936,37.228
937,37.2947
938,26.3933
939,-2.33917
940,-2.28184
941,12.7574
942,12.8082
943,-3.86058
944,-3.81644
945,7.09718
946,23.8093
947,40.7083
948,41.0111
949,41.0391
950,25.6558
951,13.1832
952,8.86157
953,8.87771
954,24.4382
955,34.859
956,38.6307
957,38.6357
958,25.6173
959,25.6171
960,33.7829
961,45.3484
962,47.3282
963,47.3181
964,38.3609
965,30.3739
966,30.3568
967,30.3375
968,28.7699
969,20.0238
970,19.9981
971,32.0024
972,31.9726
973,26.2411
974,26.2075
975,45.1512
976,45.1139
977,34.8442
978,14.3532
979,14.3107
980,14.7584
981,35.8845
982,52.4299
983,52.381
984,42.0808
985,35.8077
986,35.7545
987,39.331
988,57.4559
989,68.9784
990,70.9556
991,70.896
992,67.6597
993,67.5978
994,73.7795
995,73.7154
996,66.4937
997,56.7577
998,56.6906
999,77.9596
1000,83.2991
1001,84.696
1002,101.012
1003,124.873
1004,124.801
1005,104.759
1006,84.749
1007,68.4898
1008,52.7081
1009,39.6934
1010,30.0956
1011,30.0186
1012,29.9411
1013,22.9753
1014,22.8966
1015,39.2813
1016,60.7344
1017,60.6542
1018,36.263
1019,36.1819
1020,41.6638
1021,41.5819
1022,44.3232
1023,45.049
1024,58.6801
1025,69.7939
1026,75.4745
1027,75.3906
1028,52.2762
1029,32.5706
1030,32.4858
1031,35.2057
1032,39.0584
1033,38.973
1034,36.0968
1035,32.6699
1036,32.5838
1037,44.6165
1038,44.5301
1039,33.6266
1040,23.1013
1041,12.8838
1042,12.7968
1043,21.1899
1044,25.1589
1045,25.0716
1046,20.9754
1047,8.92773
1048,8.84023
1049,17.2584
1050,28.8117
1051,28.724
1052,22.4206
1053,22.3329
1054,24.0138
1055,24.9871
1056,24.8993
1057,18.0501
1058,4.39898
1059,4.31119
1060,10.1553
1061,12.4778
1062,13.3914
1063,19.4376
1064,40.5367
1065,57.1365
1066,57.0489
1067,56.6858
1068,20.0768
1069,2.87698
1070,2.7896
1071,19.8256
1072,22.274
1073,22.7962
1074,22.7091
1075,22.083
1076,18.8109
1077,14.8278
1078,10.1924
1079,4.84513
1080,1.10559
1081,1.01901
1082,7.83843
1083,26.3674
1084,36.7741
1085,36.6879
1086,34.6976
1087,20.6429
1088,20.5569
1089,28.1088
1090,42.5099
1091,50.9804
1092,50.8948
1093,49.2771
1094,38.4476
1095,35.8014
1096,32.9483
1097,31.2424
1098,31.1572
1099,33.582
1100,33.4969
1101,31.3491
1102,22.7753
1103,18.5108
1104,16.8325
1105,16.7476
1106,23.0293
1107,28.83
1108,31.042
1109,30.9572
1110,20.1556
1111,20.0708
1112,26.1317
1113,26.0468
1114,8.54919
1115,8.46424
1116,22.509
1117,42.9443
1118,42.8592
1119,41.2238
1120,36.9896
1121,32.2687
1122,25.541
1123,18.7813
1124,5.86712
1125,5.78124
1126,8.15268
1127,30.5936
1128,39.8909
1129,39.8043
1130,37.4188
1131,26.2196
1132,26.1325
1133,35.5511
1134,35.4635
1135,12.4285
1136,-1.50103
1137,-1.58951
1138,-0.32075
1139,17.2692
1140,19.8928
1141,19.8033
1142,17.3379
1143,17.2479
1144,21.0466
1145,27.1252
1146,27.0348
1147,15.2476
1148,15.157
1149,27.292
1150,43.3538
1151,43.263
1152,34.5802
1153,28.9021
1154,23.6873
1155,7.85963
1156,7.76886
1157,9.22146
1158,28.5382
1159,28.4477
1160,14.7856
1161,14.6953
1162,15.0793
1163,37.9803
1164,59.1466
1165,59.0569
1166,18.9402
1167,13.6959
1168,13.6068
1169,20.2303
1170,24.1924
1171,29.7873
1172,38.7695
1173,38.6817
1174,37.2974
1175,37.2101
1176,40.371
1177,40.2843
1178,30.5125
1179,22.3206
1180,22.2349
1181,23.0395
1182,29.8727
1183,35.8294
1184,38.665
1185,38.5813
1186,32.6248
1187,24.158
1188,15.9298
1189,11.6749
1190,11.5932
1191,11.512
1192,10.1539
1193,10.0736
1194,15.4937
1195,18.8135
1196,18.7345
1197,18.656
1198,19.9841
1199,30.6866
1200,30.6095
1201,30.5329
1202,31.4806
1203,40.9918
1204,40.9167
1205,28.6523
1206,19.8974
1207,19.8238
1208,27.1424
1209,52.793
1210,53.1101
1211,53.0386
1212,41.4936
1213,26.9629
1214,26.893
1215,35.1817
1216,35.1128
1217,24.0098
1218,11.9734
1219,-0.643923
1220,-0.710755
1221,12.6592
1222,23.7892
1223,31.3893
1224,31.3247
1225,24.2889
1226,24.2254
1227,27.7825
1228,39.6331
1229,61.0317
1230,60.9706
1231,60.1851
1232,60.1252
1233,61.4418
1234,61.3833
1235,45.206
1236,44.5629
1237,44.5063
1238,48.9231
1239,49.9149
1240,49.8603
1241,62.7738
1242,62.7207
1243,46.4984
1244,35.3465
1245,35.2954
1246,35.8809
1247,35.8312
1248,35.7823
1249,41.375
1250,41.3274
1251,40.9572
1252,40.9111
1253,44.4095
1254,44.3647
1255,16.6693
1256,16.6259
1257,23.5257
1258,23.6009
1259,23.5595
1260,14.4556
1261,14.4156
1262,14.3763
1263,-0.932854
1264,-0.970855
1265,9.64587
1266,25.2839
1267,25.2479
1268,21.8482
1269,21.8137
1270,39.3565
1271,39.3235
1272,32.1673
1273,30.067
1274,28.0224
1275,18.5374
1276,11.1896
1277,11.1614
1278,13.8731
1279,28.6758
1280,29.3677
1281,29.3429
1282,15.7697
1283,15.7467
1284,16.0425
1285,16.0213
1286,16.001
1287,39.2451
1288,39.2267
1289,36.7167
1290,6.75827
1291,6.74276
1292,16.5329
1293,40.4385
1294,42.2239
1295,42.2124
1296,30.8204
1297,30.8109
1298,32.6178
1299,32.6104
1300,32.604
1301,37.7018
1302,47.56
1303,47.5567
1304,32.2429
1305,28.2782
1306,28.2782
1307,33.6118
1308,42.6067
1309,44.66
1310,44.6643
1311,32.5028
1312,32.5093
1313,38.17
1314,44.5225
1315,44.5322
1316,30.9076
1317,21.8746
1318,21.8876
1319,30.0404
1320,45.9069
1321,64.8939
1322,64.9113
1323,60.6095
1324,39.6004
1325,29.9661
1326,29.9877
1327,56.3761
1328,71.7758
1329,71.8007
1330,58.699
1331,51.7362
1332,42.254
1333,18.2211
1334,9.61127
1335,9.64236
1336,21.6178
1337,38.832
1338,53.1182
1339,59.7238
1340,65.2405
1341,65.2775
1342,62.2606
1343,37.7097
1344,30.1956
1345,30.2363
1346,35.0485
1347,35.091
1348,32.0987
1349,27.4923
1350,27.5374
1351,46.7421
1352,46.7888
1353,20.283
1354,20.3314
1355,32.9891
1356,33.039
1357,-0.461602
1358,-0.410313
1359,3.35776
1360,16.987
1361,27.184
1362,43.8528
1363,50.8999
1364,50.9553
1365,-1.40669
1366,-1.34998
1367,35.416
1368,47.5593
1369,47.618
1370,39.5329
1371,28.3462
1372,28.4071
1373,28.4687
1374,27.7357
1375,27.7989
1376,30.6947
1377,51.7415
1378,51.8071
1379,18.2137
1380,7.68067
1381,7.74882
1382,36.5853
1383,36.7384
1384,36.8092
1385,26.248
1386,26.3206
1387,53.834
1388,53.9086
1389,38.7495
1390,38.826
1391,38.9034
1392,36.7215
1393,33.0344
1394,33.1148
1395,33.1963
1396,20.7268
1397,20.8103
1398,29.5663
1399,47.7645
1400,60.2606
1401,60.3482
1402,52.3626
1403,44.6946
1404,44.7855
1405,45.143
1406,55.9004
1407,55.9945
1408,26.1622
1409,6.17481
1410,6.2722
1411,6.43413
1412,23.0573
1413,29.3939
1414,29.9156
1415,44.8138
1416,65.3946
1417,65.4997
1418,52.3529
1419,52.432
1420,50.4641
1421,35.3471
1422,25.7233
1423,25.8349
1424,34.4776
1425,34.5914
1426,34.7063
1427,52.5223
1428,64.5873
1429,64.7054
1430,49.7432
1431,45.8865
1432,46.0078
1433,75.736
1434,75.8594
1435,51.943
1436,34.3498
1437,34.4761
1438,41.6746
1439,45.2296
1440,45.359
1441,38.5961
1442,38.7273
1443,49.4172
1444,49.5503
1445,47.4948
1446,47.6298
1447,81.7322
1448,81.8689
1449,59.0649
1450,59.2033
1451,58.2646
1452,56.1591
1453,45.8427
1454,37.6286
1455,37.771
1456,44.8477
1457,59.4963
1458,69.8929
1459,81.4936
1460,81.6395
1461,79.3688
1462,58.8015
1463,58.9491
1464,64.8082
1465,80.0154
1466,91.531
1467,91.6808
1468,74.6954
1469,74.846
1470,80.1159
1471,80.2674
1472,67.4541
1473,51.6836
1474,51.836
1475,53.6419
1476,81.9071
1477,82.0602
1478,74.37
1479,74.5233
1480,77.8547
1481,78.0081
1482,69.0656
1483,69.2189
1484,71.3897
1485,91.2421
1486,91.3951
1487,72.8174
1488,49.0138
1489,46.2558
1490,44.9775
1491,43.6758
1492,41.0568
1493,41.2075
1494,47.8848
1495,58.404
1496,58.5531
1497,35.3682
1498,35.5159
1499,38.6509
1500,55.1134
1501,55.2588
1502,51.7635
1503,36.808
1504,36.9506
1505,37.0921
1506,21.9872
1507,22.1265
1508,31.3358
1509,42.9124
1510,43.048
1511,27.6322
1512,-1.12327
1513,-0.991819
1514,60.1345
1515,60.263
1516,47.2138
1517,30.1731
1518,20.1252
1519,20.2473
1520,25.1215
1521,25.2401
1522,25.8871
1523,27.1781
1524,30.1905
1525,34.8028
1526,35.3799
1527,35.9012
1528,36.0068
1529,50.5425
1530,60.3675
1531,63.1098
1532,63.2072
1533,62.7433
1534,62.8364
1535,62.9272
1536,61.7261
1537,51.9281
1538,52.012
1539,52.0936
1540,45.6903
1541,23.3789
1542,21.8947
1543,20.9062
1544,13.6107
1545,13.677
1546,52.2115
1547,56.5653
1548,56.6233
1549,33.1406
1550,2.09959
1551,-5.48184
1552,-5.43545
1553,20.6778
1554,51.4236
1555,51.4612
1556,51.4961
1557,53.7168
1558,53.7463
1559,53.2163
1560,49.313
1561,49.3349
1562,74.4916
1563,74.5087
1564,72.9434
1565,63.0622
1566,47.9003
1567,24.852
1568,22.886
1569,22.8901
1570,35.3689
1571,49.6574
1572,63.0777
1573,71.8799
1574,71.8746
1575,61.7786
1576,61.6301
1577,61.6199
1578,56.0641
1579,56.0307
1580,56.0159
1581,63.8037
1582,77.6114
1583,77.5925
1584,72.0916
1585,72.0702
1586,72.0477
1587,71.6558
1588,63.629
1589,63.6031
1590,63.5763
1591,56.5235
1592,47.282
1593,47.2523
1594,61.7353
1595,67.0687
1596,73.5408
1597,77.1811
1598,77.1476
1599,77.1134
1600,77.3515
1601,88.1654
1602,88.1294
1603,72.6253
1604,72.5883
1605,72.5509
1606,70.1613
1607,70.1231
1608,71.1495
1609,71.1105
1610,35.2978
1611,35.2582
1612,52.4272
1613,52.3871
1614,52.3469
1615,63.4179
1616,107.727
1617,107.686
1618,77.3092
1619,60.9029
1620,48.0628
1621,48.0218
1622,54.0668
1623,66.0531
1624,66.0121
1625,26.617
1626,26.576
1627,69.2399
1628,69.1991
1629,39.031
1630,26.9947
1631,26.9542
1632,58.5492
1633,81.7338
1634,81.6938
1635,75.1286
1636,71.6113
1637,70.1076
1638,69.1889
1639,64.5434
1640,64.5048
1641,64.8577
1642,64.8195
1643,58.3917
1644,58.3541
1645,60.8156
1646,75.2178
1647,75.1811
1648,71.3738
1649,32.8622
1650,32.8265
1651,60.0548
1652,72.6915
1653,78.5487
1654,86.4728
1655,86.4386
1656,78.2765
1657,78.243
1658,87.8885
1659,100.483
1660,100.45
1661,87.4857
1662,63.0508
1663,54.5594
1664,54.528
1665,74.1435
1666,74.1127
1667,60.7422
1668,27.9626
1669,27.9326
1670,32.2657
1671,34.0256
1672,41.5867
1673,67.7598
1674,84.4939
1675,84.4651
1676,75.4557
1677,48.573
1678,46.4008
1679,45.4057
1680,4.75535
1681,4.72735
1682,52.4647
1683,54.3894
1684,57.2683
1685,57.2405
1686,77.8606
1687,77.8328
1688,62.2516
1689,30.3601
1690,30.3321
1691,36.4568
1692,64.7279
1693,64.6995
1694,57.4869
1695,26.1731
1696,26.1442
1697,50.6814
1698,50.652
1699,44.3794
1700,44.3495
1701,45.3319
1702,45.3012
1703,45.2701
1704,49.3115
1705,49.2796
1706,21.6428
1707,9.69871
1708,6.95247
1709,4.36098
1710,4.32643
1711,42.9533
1712,65.2438
1713,65.2073
1714,49.6912
1715,22.3374
1716,4.76564
1717,4.72618
1718,10.3913
1719,33.8483
1720,43.1915
1721,43.1485
1722,25.4054
1723,25.3605
1724,25.466
1725,25.419
1726,4.85118
1727,-3.46097
1728,-3.5113
1729,32.5241
1730,42.2705
1731,42.2168
1732,42.1621
1733,76.5098
1734,76.4531
1735,40.8501
1736,40.7915
1737,70.3487
1738,70.2884
1739,44.2616
1740,44.1997
1741,55.0067
1742,54.9433
1743,30.1733
1744,19.0155
1745,18.9502
1746,46.2861
1747,59.822
1748,68.6077
1749,80.4608
1750,80.3926
1751,58.991
1752,36.2449
1753,29.7342
1754,17.3923
1755,17.322
1756,27.0757
1757,46.8612
1758,46.7898
1759,36.2967
1760,36.2248
1761,57.5373
1762,63.3621
1763,63.2895
1764,26.5438
1765,26.4708
1766,69.8969
1767,70.0644
1768,69.9911
1769,67.5372
1770,65.8049
1771,65.0596
1772,51.9636
1773,31.3531
1774,31.2794
1775,41.3387
1776,41.265
1777,41.1912
1778,42.1961
1779,43.3594
1780,44.108
1781,45.5395
1782,45.466
1783,43.2699
1784,32.4118
1785,29.5538
1786,29.4807
1787,38.6527
1788,38.5799
1789,38.1685
1790,38.096
1791,67.8963
1792,67.8241
1793,58.8824
1794,58.8105
1795,67.1591
1796,67.0876
1797,48.4008
1798,-0.103497
1799,-0.174435
1800,7.07621
1801,58.8981
1802,75.7472
1803,75.6771
1804,50.6266
1805,31.0075
1806,30.938
1807,54.7424
1808,54.6733
1809,52.5983
1810,52.5297
1811,66.1295
1812,66.0614
1813,61.199
1814,52.2824
1815,35.9531
1816,35.8859
1817,46.7688
1818,75.3422
1819,76.2024
1820,76.1361
1821,34.4171
1822,21.0586
1823,19.1645
1824,19.0989
1825,14.5255
1826,14.4603
1827,20.1953
1828,69.9247
1829,69.8599
1830,31.5054
1831,9.85823
1832,9.79384
1833,32.2968
1834,56.2158
1835,56.1517
1836,45.6624
1837,45.5985
1838,48.3819
1839,62.2042
1840,62.1405
1841,13.9657
1842,-0.752639
1843,-0.816382
1844,13.1104
1845,28.7357
1846,44.4589
1847,44.3951
1848,44.3313
1849,37.9273
