#wnum,raman
275,21.6291
276,21.6382
277,23.0571
278,24.3867
279,31.5304
280,38.7363
281,43.3644
282,45.6901
283,45.6992
284,42.7698
285,41.2699
286,41.279
287,48.5872
288,51.8417
289,51.8507
290,49.5831
291,46.6179
292,43.3543
293,39.6779
294,35.2756
295,32.9558
296,32.9644
297,35.0853
298,35.0938
299,27.3963
300,20.7983
301,20.8064
302,21.5179
303,21.5258
304,19.6646
305,17.7383
306,15.1362
307,12.6812
308,12.0897
309,12.0545
310,11.6627
311,9.59106
312,7.58395
313,5.28534
314,2.95936
315,2.9647
316,6.05546
317,6.23148
318,6.23594
319,2.91535
320,1.21778
321,0.87511
322,0.430001
323,-0.677216
324,-0.674841
325,0.9082
326,5.34336
327,8.747
328,9.35229
329,9.35277
330,8.06562
331,5.74603
332,5.74538
333,8.55427
334,8.55288
335,6.04921
336,0.842871
337,0.840383
338,5.40209
339,5.39887
340,3.31023
341,-0.551165
342,-0.555477
343,3.0869
344,4.3575
345,4.35216
346,4.34648
347,6.89441
348,10.9202
349,13.062
350,13.0552
351,12.926
352,11.0543
353,9.23077
354,9.22294
355,9.90599
356,9.89772
357,7.52483
358,7.38923
359,7.38039
360,10.5694
361,10.5602
362,8.64513
363,6.52191
364,6.51234
365,7.09473
366,8.98453
367,11.6919
368,11.6819
369,8.36946
370,7.98458
371,7.97439
372,14.481
373,18.554
374,18.5437
375,18.5087
376,17.191
377,17.1807
378,17.3003
379,20.6907
380,23.4292
381,23.4189
382,23.1709
383,21.4711
384,19.2294
385,19.2193
386,22.1561
387,24.7611
388,24.7512
389,24.2535
390,22.2087
391,19.0145
392,16.2294
393,15.2065
394,14.8469
395,14.8377
396,14.8286
397,14.7613
398,9.9528
399,9.94405
400,13.6716
401,21.8256
402,21.8173
403,15.2556
404,9.98289
405,9.24297
406,8.69101
407,8.47861
408,8.47121
409,9.23976
410,11.5975
411,13.7902
412,13.9428
413,14.1971
414,16.7672
415,20.2414
416,20.2353
417,13.7135
418,6.99778
419,6.99233
420,7.05722
421,7.05215
422,4.4836
423,4.47891
424,5.85962
425,8.95657
426,10.0227
427,10.0188
428,9.2096
429,4.59512
430,4.59181
431,6.31503
432,12.7122
433,12.7095
434,11.6729
435,11.6706
436,12.8077
437,13.5782
438,13.5765
439,12.6848
440,12.6835
441,14.8501
442,16.0546
443,16.0539
444,15.8204
445,15.8201
446,16.6424
447,19.355
448,25.1773
449,25.1778
450,17.4288
451,4.22279
452,3.62565
453,3.62689
454,7.04906
455,12.583
456,18.1925
457,18.1944
458,17.9458
459,17.948
460,18.8464
461,19.6188
462,19.6215
463,19.4682
464,16.3403
465,12.8302
466,12.8336
467,18.1796
468,18.1833
469,13.6488
470,4.52775
471,2.11743
472,2.12153
473,2.68225
474,3.97691
475,5.31475
476,7.48337
477,9.62277
478,10.2209
479,10.2256
480,9.21977
481,5.89905
482,5.90397
483,8.70508
484,13.9619
485,13.9669
486,5.89756
487,3.5876
488,3.59273
489,6.75648
490,9.80354
491,12.7388
492,12.7439
493,9.72332
494,9.72843
495,13.0556
496,13.2245
497,13.2295
498,6.0909
499,1.40404
500,-0.481308
501,-0.476535
502,2.15737
503,5.70063
504,5.70519
505,4.18782
506,4.19224
507,5.72894
508,7.50613
509,10.1792
510,11.1055
511,11.1096
512,7.86139
513,7.86541
514,8.63986
515,8.64378
516,8.10676
517,7.7027
518,7.70647
519,10.9258
520,10.9295
521,8.35446
522,7.22618
523,7.22972
524,9.01909
525,12.1132
526,15.743
527,15.7463
528,12.8458
529,9.3415
530,9.34474
531,9.34793
532,5.82114
533,0.547232
534,0.550292
535,3.7351
536,6.36731
537,6.37023
538,4.53461
539,3.07252
540,1.72258
541,0.757002
542,0.474209
543,0.476826
544,2.17917
545,4.092
546,7.73538
547,12.0541
548,12.0564
549,11.3368
550,9.02596
551,8.76934
552,8.77144
553,11.3661
554,15.1498
555,18.3173
556,20.3584
557,20.3601
558,10.6065
559,2.34325
560,2.34478
561,6.51225
562,10.25
563,13.4533
564,15.3705
565,15.3716
566,14.5242
567,14.3004
568,14.3011
569,14.7973
570,15.9794
571,15.9799
572,14.9712
573,13.5418
574,9.77397
575,5.63957
576,2.59828
577,0.815607
578,0.815147
579,8.83203
580,11.9873
581,11.9864
582,6.25545
583,4.54635
584,4.31782
585,3.7788
586,0.814551
587,0.812566
588,2.84636
589,7.7414
590,7.73881
591,7.40404
592,7.40103
593,8.69082
594,8.68736
595,3.87581
596,2.91497
597,2.91079
598,10.3048
599,10.3001
600,5.43482
601,0.450752
602,-0.345798
603,-0.351561
604,1.35745
605,3.38802
606,3.38141
607,-0.405221
608,-0.412387
609,2.61686
610,6.73435
611,6.72639
612,6.71818
613,6.78396
614,7.95074
615,7.94184
616,6.27864
617,4.53517
618,3.01598
619,1.50078
620,0.654803
621,0.644758
622,1.50201
623,5.08696
624,8.14393
625,9.44376
626,10.7464
627,11.5749
628,11.5639
629,10.547
630,7.42435
631,4.94031
632,3.45675
633,3.4453
634,4.25697
635,6.40248
636,7.53976
637,7.9187
638,7.90699
639,6.06152
640,6.04976
641,10.4549
642,15.2818
643,15.9351
644,15.9233
645,15.7833
646,14.5105
647,13.7222
648,13.7105
649,14.5353
650,23.699
651,32.7247
652,32.7132
653,30.7936
654,27.9182
655,24.0376
656,20.9486
657,20.594
658,20.0658
659,18.8897
660,17.7514
661,16.5489
662,15.1003
663,13.0301
664,10.3776
665,10.3671
666,11.5954
667,11.5892
668,11.5791
669,7.28345
670,6.9765
671,6.96672
672,8.43641
673,10.9619
674,10.9525
675,7.66309
676,3.78456
677,3.7755
678,6.92319
679,8.59144
680,8.9053
681,8.89676
682,8.79843
683,8.79015
684,9.51051
685,10.5738
686,13.0815
687,16.195
688,16.1874
689,12.5475
690,8.36214
691,2.68629
692,2.67924
693,5.77799
694,14.9972
695,14.9905
696,8.44374
697,8.43737
698,10.505
699,11.7677
700,11.7618
701,9.59767
702,7.53017
703,6.4704
704,6.46495
705,9.22029
706,11.7937
707,13.9826
708,16.0904
709,17.4825
710,17.4778
711,14.4648
712,9.73971
713,9.73536
714,14.3758
715,18.778
716,22.7491
717,22.7452
718,21.2599
719,17.1933
720,17.1897
721,17.3352
722,17.3317
723,14.2776
724,14.2743
725,19.0513
726,19.3897
727,19.3867
728,15.6463
729,10.3011
730,5.90112
731,5.89827
732,11.246
733,12.0564
734,12.0537
735,10.4465
736,10.1765
737,10.1738
738,12.6346
739,12.632
740,12.5466
741,5.95467
742,2.94537
743,2.94263
744,3.80513
745,5.56226
746,7.34671
747,10.4895
748,11.2524
749,11.2494
750,6.36819
751,2.62298
752,0.184427
753,0.181078
754,5.75859
755,8.91363
756,8.90996
757,7.23064
758,7.22672
759,9.52256
760,9.51836
761,6.29212
762,2.96058
763,-0.625639
764,-0.630487
765,4.20522
766,9.8373
767,9.83194
768,5.91936
769,3.39126
770,3.38543
771,3.43066
772,10.1977
773,11.1608
774,11.1544
775,9.98989
776,9.98323
777,12.611
778,12.6041
779,9.88961
780,7.44103
781,5.34009
782,3.25861
783,1.18781
784,-0.254985
785,-0.262622
786,0.238924
787,0.354241
788,0.39556
789,2.58643
790,6.18519
791,8.72229
792,9.40722
793,9.39911
794,3.7752
795,1.71379
796,1.70563
797,3.32345
798,3.3153
799,0.73502
800,0.72692
801,8.62709
802,14.8872
803,17.0547
804,17.0468
805,10.9282
806,6.39115
807,6.38345
808,8.30279
809,8.29527
810,2.96129
811,2.95398
812,3.75076
813,5.86945
814,6.70797
815,7.62571
816,10.0767
817,10.0702
818,8.27087
819,8.02951
820,8.02349
821,19.5911
822,19.5854
823,14.9492
824,14.9439
825,15.9971
826,19.9057
827,19.9011
828,18.114
829,17.5405
830,17.1523
831,15.0328
832,11.8621
833,11.8588
834,16.1662
835,20.2489
836,23.5649
837,23.5626
838,23.0182
839,19.381
840,16.5634
841,14.0055
842,11.9292
843,11.9285
844,13.8753
845,25.3158
846,25.3159
847,18.2878
848,18.2884
849,18.4967
850,26.6263
851,26.6278
852,20.1761
853,20.1782
854,18.9751
855,18.1572
856,12.2662
857,12.2694
858,17.924
859,20.3625
860,20.3666
861,16.7815
862,16.7861
863,16.7911
864,10.2038
865,-0.0552782
866,-0.0494833
867,6.59494
868,10.865
869,11.1172
870,11.5117
871,16.0767
872,20.0198
873,20.0275
874,20.0355
875,21.1319
876,22.8013
877,22.81
878,22.0269
879,20.3977
880,17.8247
881,17.8345
882,23.1784
883,23.1887
884,21.4936
885,17.9448
886,17.9559
887,17.9671
888,17.467
889,11.2503
890,6.47771
891,2.834
892,1.62157
893,1.63415
894,2.39764
895,3.02124
896,3.77476
897,5.37613
898,6.99432
899,7.87101
900,8.5397
901,10.2916
902,10.3058
903,10.2389
904,3.51271
905,3.52738
906,4.40532
907,7.76794
908,9.58749
909,9.60268
910,6.36423
911,4.12996
912,4.14548
913,6.63015
914,6.64585
915,3.56315
916,1.38623
917,1.40217
918,1.60961
919,8.20485
920,9.0378
921,9.05397
922,6.40695
923,6.4232
924,6.43947
925,5.46657
926,5.48288
927,6.51138
928,10.932
929,14.4055
930,17.11
931,18.5998
932,18.6581
933,19.5319
934,22.514
935,22.5302
936,14.3343
937,5.20731
938,5.22324
939,5.23908
940,4.28129
941,4.29693
942,5.35912
943,11.4653
944,17.014
945,21.9458
946,21.9608
947,17.4974
948,12.0774
949,7.46807
950,3.84744
951,3.86157
952,4.47926
953,7.61824
954,11.0686
955,12.9869
956,13
957,12.3338
958,8.17405
959,3.8851
960,-0.505578
961,-0.493943
962,0.109372
963,2.52821
964,3.93323
965,5.53668
966,11.2603
967,11.8626
968,11.8721
969,6.32771
970,6.33659
971,6.34516
972,6.07968
973,-0.505223
974,-0.497595
975,0.771545
976,4.37661
977,8.80055
978,8.80699
979,4.85018
980,4.85607
981,4.90487
982,9.06063
983,9.06575
984,8.16898
985,5.67589
986,4.43789
987,4.44212
988,7.86911
989,9.9841
990,11.5097
991,16.3014
992,25.0285
993,25.7848
994,25.7878
995,25.7906
996,26.3087
997,29.9872
998,34.6866
999,38.4415
1000,44.2001
1001,44.6956
1002,44.6975
1003,36.2888
1004,36.2905
1005,35.8711
1006,34.9657
1007,23.2483
1008,16.7685
1009,16.7697
1010,16.7708
1011,16.2846
1012,16.2856
1013,17.1511
1014,17.1519
1015,17.0747
1016,15.7503
1017,11.6408
1018,7.45766
1019,5.25288
1020,5.25314
1021,8.75466
1022,16.703
1023,16.703
1024,11.921
1025,11.7182
1026,11.718
1027,15.0905
1028,21.8633
1029,27.7769
1030,30.0955
1031,30.0949
1032,24.8159
1033,19.0783
1034,19.0774
1035,19.0764
1036,13.8523
1037,7.41209
1038,7.41079
1039,8.25247
1040,11.0831
1041,13.1642
1042,13.1624
1043,8.54725
1044,8.54529
1045,12.3309
1046,12.3287
1047,4.94061
1048,4.93813
1049,7.70336
1050,12.0008
1051,11.9979
1052,11.0199
1053,9.35585
1054,7.73958
1055,2.83572
1056,1.6782
1057,1.67433
1058,4.755
1059,4.75078
1060,-0.709802
1061,-0.714398
1062,0.0935559
1063,0.924509
1064,0.919379
1065,0.736239
1066,0.00146432
1067,-0.00411356
1068,0.233508
1069,0.860418
1070,1.56291
1071,2.54776
1072,5.22746
1073,5.22125
1074,3.51508
1075,1.59955
1076,1.59314
1077,3.90539
1078,9.27029
1079,15.3015
1080,21.0386
1081,26.9584
1082,36.7761
1083,48.2936
1084,54.107
1085,55.8917
1086,58.7249
1087,62.2877
1088,62.2814
1089,61.2169
1090,57.5246
1091,50.8418
1092,50.8357
1093,51.2575
1094,51.2515
1095,48.797
1096,44.4046
1097,42.8064
1098,40.466
1099,38.8667
1100,37.6263
1101,37.3836
1102,37.1148
1103,35.0273
1104,35.006
1105,35.0008
1106,34.9957
1107,33.8486
1108,25.9848
1109,24.2675
1110,24.2626
1111,24.6329
1112,25.0143
1113,26.4838
1114,27.4467
1115,27.442
1116,19.4964
1117,19.4917
1118,23.6877
1119,23.683
1120,17.8781
1121,14.5179
1122,14.5132
1123,16.3238
1124,16.3191
1125,14.9666
1126,12.4619
1127,12.4571
1128,13.4887
1129,17.1585
1130,17.1536
1131,16.6164
1132,15.6829
1133,14.5162
1134,9.79392
1135,3.74662
1136,0.733152
1137,-0.410076
1138,-0.415864
1139,0.907514
1140,3.37116
1141,6.90874
1142,10.0508
1143,12.5772
1144,13.0837
1145,13.0769
1146,12.7234
1147,12.6979
1148,12.135
1149,9.39528
1150,6.71456
1151,4.67783
1152,4.67004
1153,8.1197
1154,12.5577
1155,16.0035
1156,17.0832
1157,17.0746
1158,16.1543
1159,16.1454
1160,16.1363
1161,15.5315
1162,15.5221
1163,15.564
1164,15.5542
1165,14.3648
1166,7.61726
1167,7.60696
1168,7.59647
1169,4.96705
1170,-0.698842
1171,-0.709925
1172,6.99102
1173,13.4755
1174,16.9053
1175,16.8935
1176,7.59562
1177,7.58349
1178,8.78347
1179,9.5356
1180,10.5455
1181,11.2332
1182,17.1882
1183,17.1754
1184,15.089
1185,11.4687
1186,9.8787
1187,9.86559
1188,15.2503
1189,15.2371
1190,12.3611
1191,6.67604
1192,0.84237
1193,0.829089
1194,3.59346
1195,9.94491
1196,10.6142
1197,10.7482
1198,10.735
1199,10.0336
1200,4.8487
1201,1.80491
1202,1.79189
1203,4.02048
1204,6.1569
1205,6.88767
1206,6.87496
1207,6.86234
1208,8.1023
1209,9.52235
1210,9.51006
1211,5.70639
1212,1.22528
1213,1.21337
1214,2.38305
1215,11.6114
1216,12.078
1217,13.1633
1218,13.5184
1219,13.9689
1220,13.9581
1221,10.031
1222,7.00582
1223,6.99561
1224,7.28329
1225,13.8877
1226,15.3556
1227,15.3462
1228,12.6217
1229,9.80427
1230,9.79558
1231,17.2666
1232,21.841
1233,21.833
1234,20.6307
1235,13.0746
1236,11.8648
1237,11.8578
1238,17.5036
1239,27.9867
1240,27.9806
1241,25.305
1242,19.3108
1243,14.2897
1244,12.2101
1245,12.2054
1246,14.3499
1247,19.0985
1248,22.4139
1249,22.4103
1250,22.2525
1251,19.1676
1252,16.0807
1253,13.3138
1254,10.8484
1255,9.57092
1256,9.56943
1257,14.2847
1258,18.215
1259,18.6183
1260,18.618
1261,12.8261
1262,12.8264
1263,17.0978
1264,17.0986
1265,15.3115
1266,10.6025
1267,10.6042
1268,11.9603
1269,18.6868
1270,18.6894
1271,17.2876
1272,11.9572
1273,7.98857
1274,7.99232
1275,9.66797
1276,13.8414
1277,16.5975
1278,18.3168
1279,18.4268
1280,18.4322
1281,23.7074
1282,23.7133
1283,23.5339
1284,19.7666
1285,19.0007
1286,18.3022
1287,17.9063
1288,17.4569
1289,16.889
1290,16.8967
1291,21.8885
1292,26.2256
1293,26.5371
1294,26.5457
1295,18.3178
1296,12.9771
1297,12.9863
1298,14.5949
1299,14.9738
1300,15.6826
1301,18.074
1302,18.0839
1303,17.4541
1304,16.8616
1305,16.8719
1306,16.8823
1307,15.6484
1308,15.659
1309,18.0358
1310,18.0465
1311,14.7946
1312,10.3046
1313,8.86177
1314,8.87277
1315,14.0574
1316,14.0684
1317,13.4714
1318,13.4825
1319,18.3186
1320,18.3296
1321,14.6624
1322,8.44577
1323,5.13672
1324,5.14758
1325,8.28753
1326,12.0847
1327,12.8341
1328,12.8446
1329,9.6754
1330,9.68568
1331,9.32014
1332,9.33014
1333,3.91454
1334,0.516761
1335,0.403917
1336,-0.345506
1337,-0.768022
1338,-0.759148
1339,10.5523
1340,13.6993
1341,13.7075
1342,13.5043
1343,12.4686
1344,12.4283
1345,8.40317
1346,7.82576
1347,6.79062
1348,6.5844
1349,6.59129
1350,7.30783
1351,19.215
1352,19.2215
1353,11.0236
1354,8.62761
1355,7.76441
1356,7.57953
1357,7.07901
1358,7.08482
1359,11.9413
1360,11.9469
1361,12.585
1362,17.2517
1363,25.38
1364,25.3854
1365,18.4002
1366,18.4054
1367,18.3931
1368,13.6495
1369,4.21848
1370,4.22346
1371,6.97603
1372,14.0438
1373,15.066
1374,15.0708
1375,9.33817
1376,9.34293
1377,11.195
1378,11.1997
1379,11.2044
1380,15.8828
1381,17.468
1382,17.4727
1383,12.632
1384,9.44986
1385,9.45445
1386,10.7315
1387,10.736
1388,2.43721
1389,2.44177
1390,10.4609
1391,10.4655
1392,9.91638
1393,4.39811
1394,4.40265
1395,5.37435
1396,7.34448
1397,7.34902
1398,4.97751
1399,3.79075
1400,3.57288
1401,3.57742
1402,2.59017
1403,0.793178
1404,0.797733
1405,2.21123
1406,11.4549
1407,11.4595
1408,10.3023
1409,5.25993
1410,2.30216
1411,2.30674
1412,9.08519
1413,11.2632
1414,11.2678
1415,8.45428
1416,3.50864
1417,0.2194
1418,0.224002
1419,4.73034
1420,9.23891
1421,9.24351
1422,6.39656
1423,6.40115
1424,7.31659
1425,8.88524
1426,10.7141
1427,14.1917
1428,14.1962
1429,8.82292
1430,8.82747
1431,18.4433
1432,22.2868
1433,22.2913
1434,22.2958
1435,21.6645
1436,21.2948
1437,15.5314
1438,15.5358
1439,28.2449
1440,28.2492
1441,22.1402
1442,22.1444
1443,26.165
1444,27.595
1445,28.194
1446,28.5119
1447,28.5159
1448,26.5432
1449,26.547
1450,27.9722
1451,27.9758
1452,26.4325
1453,25.1426
1454,25.146
1455,25.1492
1456,24.3291
1457,24.332
1458,34.1761
1459,34.1787
1460,25.3778
1461,21.6933
1462,21.6955
1463,21.6975
1464,18.6939
1465,18.6955
1466,25.1156
1467,25.1168
1468,20.6165
1469,19.7251
1470,19.7255
1471,24.3474
1472,28.6385
1473,28.638
1474,24.1516
1475,17.4506
1476,16.1058
1477,16.104
1478,16.102
1479,14.2013
1480,6.55518
1481,5.88008
1482,5.87646
1483,11.1893
1484,13.4869
1485,13.482
1486,12.3268
1487,12.3209
1488,12.4189
1489,15.9117
1490,19.5136
1491,19.5057
1492,18.5972
1493,14.8409
1494,14.8313
1495,19.4548
1496,19.444
1497,6.78967
1498,2.83714
1499,0.0294031
1500,-1.73069
1501,-1.7447
1502,4.27034
1503,10.141
1504,11.2236
1505,12.7732
1506,12.756
1507,11.1672
1508,8.03803
1509,8.0191
1510,8.29101
1511,8.88235
1512,9.52699
1513,12.0137
1514,11.9923
1515,8.44692
1516,8.42465
1517,12.9636
1518,24.8788
1519,24.8554
1520,13.2943
1521,13.2702
1522,13.2458
1523,11.8915
1524,7.08859
1525,0.285564
1526,0.260007
1527,0.732308
1528,4.9614
1529,9.79785
1530,13.0438
1531,13.0172
1532,9.69517
1533,3.15587
1534,3.12887
1535,7.81321
1536,19.5993
1537,19.5721
1538,17.0115
1539,3.70074
1540,3.67332
1541,10.6598
1542,16.3294
1543,16.3019
1544,6.87456
1545,6.84722
1546,8.14448
1547,8.11726
1548,8.06881
1549,8.04178
1550,17.8418
1551,20.7398
1552,20.7132
1553,12.8859
1554,7.4515
1555,7.42538
1556,13.5407
1557,23.9132
1558,23.8877
1559,13.224
1560,13.199
1561,22.6983
1562,30.0554
1563,30.0312
1564,23.2216
1565,14.8165
1566,14.7932
1567,25.9708
1568,34.4091
1569,38.3106
1570,38.2887
1571,31.2428
1572,29.1904
1573,27.7189
1574,22.4686
1575,22.4487
1576,33.1921
1577,41.8073
1578,44.733
1579,48.6759
1580,49.2664
1581,49.2492
1582,45.0565
1583,40.919
1584,37.7001
1585,37.6847
1586,39.554
1587,39.8441
1588,39.8303
1589,45.8603
1590,46.8707
1591,46.8583
1592,44.1524
1593,43.71
1594,43.6991
1595,59.428
1596,61.3064
1597,61.2971
1598,59.0584
1599,57.2535
1600,56.2884
1601,55.4538
1602,51.0939
1603,48.1856
1604,48.1797
1605,48.1744
1606,44.1348
1607,38.7094
1608,29.6532
1609,29.6497
1610,40.1262
1611,46.2823
1612,46.2801
1613,32.5471
1614,17.1393
1615,17.1384
1616,17.138
1617,9.75081
1618,9.75109
1619,15.0567
1620,15.7153
1621,15.7167
1622,12.9328
1623,12.6445
1624,12.6468
1625,12.6495
1626,18.6404
1627,23.2465
1628,23.2501
1629,18.4294
1630,17.0515
1631,17.0558
1632,23.996
1633,24.0008
1634,11.4584
1635,4.22437
1636,4.22976
1637,8.70837
1638,19.5697
1639,23.6542
1640,23.6602
1641,12.4887
1642,10.6133
1643,10.6196
1644,10.6261
1645,7.40446
1646,5.41979
1647,5.42639
1648,8.11809
1649,11.3379
1650,15.1197
1651,15.1263
1652,8.9563
1653,6.21067
1654,6.21718
1655,6.22361
1656,3.59115
1657,3.5974
1658,5.3968
1659,5.4028
1660,-1.18619
1661,-1.18049
1662,6.26723
1663,6.27261
1664,6.27785
1665,16.8867
1666,16.8917
1667,13.6405
1668,13.6452
1669,14.5762
1670,14.5807
1671,11.7554
1672,11.7598
1673,10.7899
1674,8.33762
1675,1.29206
1676,1.29621
1677,3.67468
1678,6.17174
1679,10.2135
1680,18.9698
1681,18.9738
1682,7.19601
1683,-0.0784422
1684,-0.0744281
1685,4.39313
1686,16.4108
1687,19.8198
1688,22.6518
1689,26.8518
1690,26.856
1691,22.5224
1692,18.5953
1693,17.5708
1694,14.4483
1695,9.73834
1696,5.91473
1697,5.91952
1698,11.1259
1699,11.1309
1700,8.55012
1701,6.11258
1702,6.11797
1703,7.30429
1704,7.30995
1705,6.44768
1706,5.03722
1707,5.04334
1708,5.8728
1709,16.4138
1710,20.0681
1711,20.0749
1712,17.0158
1713,15.3514
1714,14.4102
1715,14.4178
1716,18.0297
1717,22.0303
1718,22.0385
1719,20.2833
1720,19.905
1721,18.7952
1722,15.8179
1723,10.4543
1724,6.02438
1725,6.03412
1726,17.2191
1727,17.2293
1728,17.2398
1729,19.1944
1730,19.2053
1731,9.40652
1732,0.0330031
1733,0.0446732
1734,0.455979
1735,11.3627
1736,13.9516
1737,14.0133
1738,23.3398
1739,23.3529
1740,21.0834
1741,13.0692
1742,9.11913
1743,9.13334
1744,19.4028
1745,19.4175
1746,20.1376
1747,21.9227
1748,21.9382
1749,21.7216
1750,21.7376
1751,19.9908
1752,19.6337
1753,14.0832
1754,14.1002
1755,23.8831
1756,29.4728
1757,31.9919
1758,32.0099
1759,27.5919
1760,15.3507
1761,15.3694
1762,17.4902
1763,17.5093
1764,17.5287
1765,21.4741
1766,21.4939
1767,14.7726
1768,14.7928
1769,17.4081
1770,17.4286
1771,16.7636
1772,14.4785
1773,14.4996
1774,18.1381
1775,18.1595
1776,15.5403
1777,15.562
1778,19.0158
1779,19.0378
1780,19.3351
1781,19.8548
1782,19.8772
1783,19.0429
1784,12.4345
1785,12.4572
1786,16.7047
1787,21.9672
1788,25.7167
1789,25.7397
1790,18.6873
1791,1.25076
1792,0.284776
1793,-0.723782
1794,-0.700595
1795,6.59666
1796,30.5849
1797,30.6081
1798,28.8309
1799,28.8542
1800,35.4504
1801,35.4738
1802,25.3877
1803,12.6078
1804,4.44489
1805,4.4685
1806,9.34933
1807,21.6215
1808,29.13
1809,30.7108
1810,30.7347
1811,30.7587
1812,29.5371
1813,24.0383
1814,11.019
1815,11.0433
1816,17.0464
1817,17.0708
1818,17.0953
1819,24.3316
1820,24.3563
1821,11.8139
1822,10.7166
1823,10.7415
1824,15.4399
1825,21.1192
1826,30.0556
1827,30.0808
1828,31.0376
1829,31.0629
1830,37.9589
1831,41.5053
1832,41.5308
1833,27.1242
1834,16.1636
1835,11.4621
1836,11.4878
1837,12.9085
1838,12.9342
1839,12.9601
1840,25.1615
1841,37.1386
1842,37.1645
1843,23.4938
1844,-0.348577
1845,-0.322676
1846,10.5149
1847,17.0012
1848,23.6436
1849,23.6695
