#wnum,raman
275,2.19867
276,2.20324
277,2.13973
278,2.1443
279,6.26668
280,11.5623
281,12.8453
282,12.8499
283,11.3574
284,8.64049
285,6.77849
286,6.78305
287,11.4577
288,11.6731
289,11.6776
290,7.63624
291,6.57546
292,6.57999
293,6.8383
294,6.8428
295,6.47256
296,5.0826
297,3.291
298,2.44009
299,2.44451
300,2.80745
301,3.36416
302,3.8068
303,3.81112
304,2.47433
305,1.44733
306,1.45156
307,1.84538
308,3.14404
309,5.05444
310,6.88521
311,8.48444
312,9.82301
313,9.82695
314,8.52188
315,6.39142
316,1.84224
317,-0.338502
318,-0.334828
319,3.48137
320,4.08554
321,4.08905
322,4.09252
323,4.18879
324,5.41456
325,7.37886
326,9.61068
327,11.5362
328,11.9948
329,11.998
330,11.9232
331,10.2418
332,8.7161
333,7.83172
334,7.67877
335,7.68199
336,7.91853
337,7.92176
338,6.80354
339,5.86578
340,5.86904
341,5.87232
342,5.58255
343,5.44635
344,5.4497
345,9.70646
346,12.6813
347,12.6847
348,10.3305
349,8.34632
350,7.13873
351,7.14231
352,8.01933
353,10.5011
354,10.5048
355,9.64214
356,8.13917
357,7.62489
358,7.62878
359,7.8995
360,9.30753
361,9.31157
362,7.49328
363,5.36139
364,5.3656
365,6.11901
366,6.12333
367,3.85028
368,3.50906
369,3.51355
370,3.80002
371,3.80462
372,1.27875
373,1.28346
374,3.54926
375,6.81351
376,7.79116
377,8.40524
378,9.50782
379,11.2731
380,11.2782
381,10.4014
382,10.2059
383,10.2112
384,15.6409
385,17.9925
386,17.998
387,15.8965
388,14.0259
389,12.7435
390,9.6101
391,3.91605
392,-0.0986667
393,-0.0928667
394,1.45416
395,5.05271
396,9.69335
397,10.85
398,10.856
399,9.33973
400,7.05539
401,4.18983
402,2.62998
403,2.63621
404,2.94229
405,5.19182
406,7.04853
407,8.27191
408,9.45382
409,9.4603
410,7.70043
411,5.68472
412,4.71806
413,4.72468
414,5.42479
415,8.54881
416,8.55553
417,6.02235
418,2.07972
419,2.08653
420,3.8592
421,6.01227
422,9.05667
423,10.3409
424,10.3478
425,9.10038
426,9.10734
427,11.0345
428,11.3804
429,11.3874
430,10.7913
431,10.7983
432,10.8053
433,9.60609
434,6.25236
435,5.2008
436,5.2078
437,6.09572
438,6.10269
439,5.40949
440,5.41643
441,8.07135
442,10.8583
443,10.8652
444,10.3464
445,7.91828
446,4.87995
447,4.88665
448,10.8257
449,14.4963
450,14.5029
451,9.70832
452,9.71475
453,9.91889
454,9.92517
455,6.51838
456,3.57596
457,3.582
458,5.89499
459,7.69468
460,9.21251
461,11.1209
462,11.5395
463,11.5449
464,10.2676
465,8.20622
466,5.90443
467,3.2171
468,0.738502
469,-0.629901
470,-0.625431
471,1.99077
472,9.94826
473,15.9518
474,15.9557
475,15.7343
476,13.231
477,10.417
478,8.72477
479,8.19379
480,8.19704
481,8.53363
482,9.31102
483,9.31403
484,9.36556
485,10.8518
486,15.0291
487,15.0319
488,11.0177
489,6.00794
490,6.01057
491,12.4795
492,12.4821
493,10.8637
494,10.6391
495,10.6416
496,12.9554
497,12.9579
498,8.8372
499,8.83969
500,11.964
501,16.2124
502,16.215
503,15.5589
504,13.7777
505,11.5865
506,9.16714
507,5.41602
508,1.93654
509,1.93926
510,3.02034
511,5.25417
512,8.14616
513,10.239
514,10.894
515,11.7699
516,12.7642
517,13.6171
518,13.6203
519,13.3805
520,12.9503
521,10.7717
522,10.5634
523,10.5669
524,13.1433
525,14.2525
526,14.3573
527,14.3963
528,14.4001
529,13.7124
530,10.9879
531,8.14691
532,4.76277
533,0.938622
534,0.942955
535,2.34375
536,5.96739
537,8.25994
538,10.4996
539,10.5043
540,9.32105
541,8.81378
542,8.81874
543,8.93413
544,8.93925
545,8.73025
546,8.32824
547,8.3336
548,8.63635
549,12.9483
550,12.9539
551,10.0657
552,4.91299
553,4.91879
554,13.4807
555,13.4866
556,13.4826
557,12.0087
558,12.0148
559,15.0901
560,15.0963
561,12.8618
562,11.6303
563,10.8825
564,10.0403
565,10.0468
566,10.9673
567,11.4556
568,11.6818
569,12.5643
570,14.4718
571,14.4785
572,11.9321
573,11.9389
574,13.3992
575,20.3264
576,20.3332
577,10.8489
578,10.8558
579,14.7891
580,20.7127
581,20.7195
582,12.6685
583,7.9227
584,6.24567
585,6.25239
586,9.18478
587,12.9768
588,15.5996
589,16.739
590,16.7454
591,11.6092
592,11.5732
593,11.5794
594,12.2941
595,12.3002
596,9.34238
597,9.34824
598,12.8447
599,12.8503
600,10.4266
601,8.67986
602,8.68509
603,11.6906
604,11.6955
605,11.26
606,10.7615
607,10.5074
608,9.39725
609,5.11848
610,0.967454
611,-0.380098
612,-0.376717
613,1.4843
614,7.16452
615,7.5723
616,7.57477
617,7.57702
618,10.4885
619,16.2785
620,16.2801
621,13.2268
622,13.2279
623,14.4027
624,14.6262
625,14.6265
626,12.7068
627,8.39924
628,4.33373
629,4.33313
630,10.8312
631,10.8301
632,10.7237
633,6.34103
634,6.33915
635,6.33702
636,5.12433
637,-0.285202
638,-0.288146
639,5.88231
640,7.66651
641,7.66276
642,3.19497
643,3.19069
644,5.41691
645,8.14494
646,11.3957
647,11.3904
648,8.04612
649,5.58903
650,5.58299
651,8.56971
652,10.7473
653,12.4994
654,12.4924
655,9.22856
656,7.29345
657,7.28573
658,8.26091
659,12.0032
660,15.8228
661,15.8142
662,10.9721
663,7.1931
664,5.62837
665,5.61882
666,7.77625
667,11.8081
668,12.6033
669,12.5929
670,11.4314
671,10.0702
672,8.92524
673,8.10146
674,8.08988
675,11.2803
676,14.7391
677,14.7269
678,10.1848
679,7.17543
680,6.64022
681,5.98453
682,4.28518
683,4.27154
684,4.64972
685,7.13494
686,7.12059
687,4.02017
688,1.32184
689,-0.391216
690,-0.406532
691,3.73001
692,9.26125
693,9.24522
694,8.74069
695,7.80567
696,6.94492
697,6.92805
698,8.20974
699,8.19247
700,5.25994
701,5.24232
702,6.24853
703,15.2007
704,16.5266
705,16.5083
706,13.7989
707,10.1225
708,8.26404
709,8.24516
710,9.65761
711,9.63848
712,8.11074
713,6.45371
714,4.76448
715,3.75943
716,3.73972
717,3.71991
718,2.00508
719,-0.229463
720,-0.249554
721,0.819963
722,0.799715
723,0.316003
724,0.295634
725,7.39722
726,7.92147
727,7.90099
728,1.10079
729,1.08028
730,4.09957
731,4.07906
732,3.46009
733,3.43961
734,6.99791
735,7.96838
736,7.94802
737,4.85607
738,4.83583
739,5.03762
740,8.10319
741,13.6195
742,14.3933
743,14.3735
744,11.7956
745,9.17498
746,8.62246
747,8.60317
748,10.6056
749,10.5866
750,5.30726
751,2.71192
752,2.69342
753,3.50522
754,4.76234
755,4.74439
756,3.63864
757,3.6211
758,5.21088
759,14.7817
760,14.7649
761,12.3373
762,8.62051
763,8.60435
764,8.58844
765,6.98578
766,3.97612
767,3.961
768,3.97844
769,5.41375
770,7.84504
771,9.30309
772,9.2894
773,9.03818
774,8.99349
775,8.98073
776,13.9338
777,20.1845
778,20.1728
779,16.426
780,16.4149
781,17.018
782,17.0076
783,16.6941
784,16.6844
785,18.1584
786,19.7528
787,19.7442
788,12.8416
789,12.8338
790,17.5477
791,17.5406
792,8.12781
793,4.67581
794,4.66987
795,12.1349
796,16.2976
797,18.7334
798,18.729
799,14.4
800,11.0248
801,9.26082
802,9.25807
803,14.0201
804,19.5963
805,20.3315
806,20.3303
807,19.4433
808,17.6423
809,16.3685
810,15.6415
811,12.716
812,5.06552
813,4.46022
814,4.46237
815,9.65153
816,9.6545
817,9.65788
818,10.9782
819,15.2592
820,15.2638
821,12.2058
822,12.2112
823,17.533
824,17.9773
825,17.9839
826,16.3769
827,16.3843
828,21.0949
829,21.8214
830,21.83
831,19.298
832,14.2418
833,10.2308
834,9.10449
835,9.11495
836,13.6582
837,18.6199
838,18.6314
839,17.3711
840,13.7672
841,9.02244
842,9.03541
843,10.5938
844,11.761
845,11.775
846,10.6715
847,4.05064
848,3.3319
849,3.34715
850,11.1871
851,14.3925
852,14.4087
853,13.6797
854,10.9641
855,7.69962
856,3.41746
857,3.43502
858,5.87048
859,5.94169
860,5.96002
861,0.487432
862,0.506249
863,0.884597
864,0.903873
865,0.0535083
866,0.0732195
867,1.37711
868,2.94177
869,6.01126
870,6.03177
871,3.10452
872,1.9254
873,1.94644
874,8.43123
875,8.4526
876,4.24944
877,1.40786
878,0.63367
879,0.655603
880,6.12394
881,6.14612
882,5.31595
883,0.113253
884,-0.132816
885,-0.110227
886,3.48415
887,6.73187
888,6.75471
889,1.30011
890,1.32309
891,6.97363
892,8.50134
893,8.5245
894,8.54771
895,10.7341
896,14.0083
897,14.0317
898,12.8616
899,11.7315
900,10.8934
901,9.45984
902,7.11774
903,7.14118
904,10.4312
905,10.4546
906,8.98116
907,9.00457
908,9.9405
909,9.96385
910,8.27552
911,4.30374
912,4.32696
913,11.0834
914,11.4723
915,11.4953
916,10.8796
917,10.9024
918,11.6141
919,13.8276
920,13.8502
921,6.79826
922,3.52055
923,3.54274
924,9.04299
925,9.06491
926,5.5052
927,5.52681
928,6.09515
929,6.66967
930,6.98173
931,7.80627
932,12.4976
933,12.5181
934,9.48506
935,4.78647
936,4.80628
937,5.95419
938,8.15971
939,10.458
940,10.4768
941,7.32946
942,5.07776
943,4.83283
944,4.85045
945,9.60408
946,9.62107
947,8.00801
948,8.02432
949,10.114
950,14.3976
951,14.4128
952,14.18
953,14.1945
954,14.2085
955,12.8254
956,6.68379
957,2.24778
958,-0.33149
959,-0.319589
960,4.10044
961,8.38381
962,10.2669
963,10.2769
964,5.35571
965,0.58789
966,0.596478
967,1.91058
968,1.91818
969,0.116271
970,-0.674279
971,-0.66819
972,0.52787
973,3.55424
974,5.87167
975,6.79447
976,6.79811
977,5.61439
978,3.74815
979,1.90481
980,1.73936
981,1.74078
982,3.49032
983,4.28464
984,4.98973
985,8.214
986,12.3502
987,12.3492
988,8.9713
989,8.96959
990,14.6606
991,16.0086
992,16.0058
993,14.0158
994,13.1822
995,13.1784
996,14.8797
997,15.1886
998,15.184
999,14.5445
1000,14.5393
1001,16.3798
1002,17.936
1003,18.7121
1004,18.7058
1005,13.8667
1006,10.0033
1007,7.75837
1008,5.88012
1009,5.54186
1010,5.53415
1011,6.53009
1012,6.52194
1013,5.6291
1014,4.84808
1015,4.31934
1016,4.31038
1017,5.80674
1018,9.22005
1019,9.21052
1020,7.69202
1021,7.68214
1022,13.1201
1023,13.1099
1024,9.07691
1025,9.06638
1026,16.0416
1027,16.604
1028,16.593
1029,14.9901
1030,14.9789
1031,15.5271
1032,16.345
1033,16.3333
1034,13.5328
1035,11.6068
1036,11.5948
1037,14.8764
1038,14.8642
1039,12.5779
1040,12.2018
1041,12.1892
1042,14.0118
1043,16.8679
1044,16.855
1045,15.7388
1046,14.5911
1047,14.0278
1048,12.7209
1049,5.68546
1050,-0.388386
1051,-0.402044
1052,0.748069
1053,6.32796
1054,11.8106
1055,16.8838
1056,20.3662
1057,20.352
1058,13.9353
1059,12.8957
1060,12.8815
1061,14.39
1062,15.4249
1063,16.0623
1064,16.048
1065,15.2137
1066,8.27284
1067,8.25856
1068,8.49456
1069,12.7058
1070,14.1247
1071,16.0427
1072,20.6804
1073,20.6664
1074,15.1915
1075,8.5051
1076,8.49123
1077,14.984
1078,14.9703
1079,14.0128
1080,13.9993
1081,17.1545
1082,18.1741
1083,18.4279
1084,19.8154
1085,23.9948
1086,23.9819
1087,22.6451
1088,20.2608
1089,20.1828
1090,18.5791
1091,14.7313
1092,12.1648
1093,11.0018
1094,9.60501
1095,8.19052
1096,8.17883
1097,8.82106
1098,8.80966
1099,8.56716
1100,5.4979
1101,5.48693
1102,7.53293
1103,10.237
1104,10.9432
1105,10.9329
1106,5.56488
1107,5.5548
1108,6.78527
1109,6.77549
1110,0.937144
1111,0.927678
1112,10.0219
1113,11.3632
1114,11.3542
1115,6.34262
1116,1.16833
1117,1.15981
1118,6.23572
1119,12.0884
1120,12.0803
1121,11.37
1122,5.07361
1123,5.06604
1124,6.49853
1125,10.1764
1126,10.1693
1127,1.97391
1128,1.96714
1129,3.52237
1130,8.95318
1131,16.1754
1132,20.7873
1133,20.7813
1134,17.7964
1135,8.82106
1136,6.85709
1137,6.8517
1138,9.83353
1139,13.837
1140,13.832
1141,12.4831
1142,9.49582
1143,4.31861
1144,4.31421
1145,8.39102
1146,10.8369
1147,10.8329
1148,10.8291
1149,15.1498
1150,15.1462
1151,14.4365
1152,14.029
1153,14.0257
1154,15.1985
1155,15.1955
1156,9.05241
1157,8.3222
1158,7.95823
1159,3.41562
1160,1.63293
1161,1.6304
1162,7.83279
1163,11.3171
1164,11.3148
1165,10.638
1166,5.89729
1167,5.89517
1168,13.5541
1169,14.0097
1170,14.0078
1171,14.0058
1172,13.2346
1173,13.2327
1174,7.94935
1175,7.9475
1176,12.2211
1177,17.5255
1178,22.5856
1179,22.5837
1180,16.7849
1181,13.481
1182,13.4791
1183,14.874
1184,22.2077
1185,22.2057
1186,18.0237
1187,15.5767
1188,15.5745
1189,18.5734
1190,18.571
1191,18.5686
1192,19.7111
1193,19.7084
1194,16.6716
1195,13.4514
1196,13.4484
1197,13.4452
1198,11.4396
1199,7.02635
1200,4.12369
1201,4.11985
1202,6.59513
1203,13.261
1204,13.606
1205,13.6013
1206,8.38394
1207,4.75791
1208,4.75252
1209,9.87034
1210,9.86442
1211,8.7108
1212,8.70431
1213,10.1196
1214,11.865
1215,13.1665
1216,15.3796
1217,15.3714
1218,11.9434
1219,-1.06424
1220,-1.07347
1221,12.8703
1222,17.3833
1223,17.373
1224,14.5159
1225,9.17924
1226,9.16788
1227,14.8549
1228,19.4966
1229,20.5678
1230,20.5551
1231,20.105
1232,20.0833
1233,19.9677
1234,18.5912
1235,14.1434
1236,14.1292
1237,14.6159
1238,16.7395
1239,19.0586
1240,19.9471
1241,19.9318
1242,18.427
1243,16.7594
1244,16.7435
1245,18.8964
1246,18.8801
1247,7.2349
1248,7.21822
1249,8.28944
1250,12.9272
1251,12.91
1252,12.0004
1253,11.9829
1254,12.9454
1255,12.9277
1256,12.9098
1257,14.3858
1258,14.3677
1259,11.6064
1260,11.0462
1261,11.0278
1262,11.0092
1263,10.3517
1264,8.48081
1265,8.46195
1266,9.34269
1267,9.42941
1268,9.68229
1269,13.1267
1270,15.9464
1271,15.927
1272,15.5249
1273,13.2965
1274,12.0535
1275,12.0338
1276,12.9047
1277,12.8849
1278,12.482
1279,11.1443
1280,9.95328
1281,9.71013
1282,9.47232
1283,3.43664
1284,3.41648
1285,7.40838
1286,13.0034
1287,12.9831
1288,7.99418
1289,6.36894
1290,6.3485
1291,11.7473
1292,11.7268
1293,11.6165
1294,4.25777
1295,1.50748
1296,1.48679
1297,5.60048
1298,11.5709
1299,11.5501
1300,10.3996
1301,6.53853
1302,2.51606
1303,2.03325
1304,2.01224
1305,8.72136
1306,15.0239
1307,15.0028
1308,13.7617
1309,8.20866
1310,8.18739
1311,9.38683
1312,14.0929
1313,14.0715
1314,12.2591
1315,10.3998
1316,8.44895
1317,5.46512
1318,3.02394
1319,3.00222
1320,4.14794
1321,9.47769
1322,11.2871
1323,11.2651
1324,8.63613
1325,6.32532
1326,6.30316
1327,6.6592
1328,7.76084
1329,7.73847
1330,6.58368
1331,3.18174
1332,3.15912
1333,6.58839
1334,8.81071
1335,8.78782
1336,6.03131
1337,-0.646573
1338,-0.669749
1339,5.88184
1340,14.4848
1341,18.5505
1342,18.527
1343,13.585
1344,10.1921
1345,9.35352
1346,8.88195
1347,3.72207
1348,3.69836
1349,8.58981
1350,10.6833
1351,10.6596
1352,10.5254
1353,10.5017
1354,11.3724
1355,11.4444
1356,11.421
1357,7.23954
1358,3.64213
1359,0.803878
1360,0.780745
1361,0.930749
1362,5.30059
1363,12.0951
1364,15.4915
1365,17.3023
1366,23.9195
1367,27.9108
1368,27.8887
1369,15.3299
1370,15.3081
1371,16.1806
1372,16.1592
1373,11.8708
1374,10.158
1375,10.1372
1376,14.0602
1377,14.0398
1378,13.0278
1379,8.54143
1380,8.52172
1381,11.3023
1382,11.2831
1383,11.2641
1384,11.2736
1385,16.1866
1386,17.9286
1387,17.9107
1388,13.2815
1389,13.2641
1390,18.2657
1391,18.2489
1392,15.4894
1393,15.2699
1394,15.2539
1395,19.2712
1396,19.2558
1397,12.9738
1398,-0.161193
1399,-0.175637
1400,7.72364
1401,17.3982
1402,20.6312
1403,20.8869
1404,20.8741
1405,18.0169
1406,13.9028
1407,9.67586
1408,9.66445
1409,10.5136
1410,24.6328
1411,24.6225
1412,14.6547
1413,14.6451
1414,25.4425
1415,25.4338
1416,14.7642
1417,14.7562
1418,17.1194
1419,17.7128
1420,19.6586
1421,22.6413
1422,22.6354
1423,17.3323
1424,12.2416
1425,12.2369
1426,16.9518
1427,16.9531
1428,16.9496
1429,16.7539
1430,16.4531
1431,12.8786
1432,12.25
1433,12.2487
1434,14.9547
1435,17.3755
1436,17.3754
1437,15.9804
1438,15.9811
1439,22.5733
1440,22.5749
1441,8.12526
1442,0.72824
1443,0.731121
1444,6.39026
1445,17.0663
1446,17.0705
1447,16.2845
1448,14.8133
1449,13.7964
1450,13.8022
1451,19.4721
1452,23.2891
1453,23.2961
1454,22.8887
1455,20.3894
1456,14.4256
1457,14.4342
1458,17.8556
1459,24.1204
1460,24.1302
1461,21.5057
1462,14.5213
1463,9.1346
1464,9.1459
1465,11.2885
1466,22.819
1467,22.8314
1468,10.5678
1469,7.89571
1470,7.90912
1471,8.56646
1472,9.48669
1473,11.6952
1474,11.7099
1475,10.8427
1476,8.3579
1477,8.37355
1478,17.7885
1479,17.8047
1480,13.1032
1481,11.3454
1482,11.3625
1483,12.2434
1484,12.261
1485,2.10487
1486,2.12293
1487,7.12575
1488,10.3366
1489,10.3553
1490,10.3743
1491,13.5364
1492,13.5557
1493,7.50404
1494,5.16115
1495,5.17676
1496,5.19684
1497,7.6701
1498,7.69049
1499,6.78627
1500,3.11102
1501,2.50547
1502,2.52638
1503,8.21417
1504,13.0596
1505,13.0809
1506,9.89791
1507,9.91929
1508,19.1574
1509,19.1789
1510,15.5674
1511,11.4723
1512,10.37
1513,9.33175
1514,7.46739
1515,5.33088
1516,5.35253
1517,13.9196
1518,26.7265
1519,26.7481
1520,22.9964
1521,21.4639
1522,20.2114
1523,15.5384
1524,10.1249
1525,4.21103
1526,0.951301
1527,0.972189
1528,2.11438
1529,4.0396
1530,4.06004
1531,1.94677
1532,0.274883
1533,0.294779
1534,3.90875
1535,14.6341
1536,14.6534
1537,13.1148
1538,8.45993
1539,2.71043
1540,2.72864
1541,2.74656
1542,-0.934195
1543,-0.916895
1544,4.26716
1545,4.28383
1546,0.456415
1547,0.472484
1548,9.67463
1549,9.69012
1550,8.94512
1551,6.64339
1552,6.65806
1553,7.50449
1554,11.2783
1555,14.5358
1556,14.5494
1557,13.2979
1558,9.16211
1559,9.17506
1560,12.3814
1561,19.8197
1562,21.896
1563,23.1557
1564,21.9199
1565,19.5483
1566,19.5597
1567,25.0832
1568,25.0942
1569,22.4723
1570,22.4831
1571,22.4936
1572,19.1899
1573,19.2
1574,20.601
1575,24.9998
1576,25.0095
1577,19.9219
1578,16.0573
1579,16.0664
1580,18.5846
1581,19.8701
1582,19.8787
1583,17.4073
1584,17.4156
1585,22.2148
1586,22.2228
1587,21.688
1588,12.5813
1589,4.1659
1590,4.17323
1591,5.61297
1592,14.0152
1593,21.1071
1594,21.1137
1595,16.7752
1596,12.2938
1597,12.3
1598,16.9864
1599,27.3569
1600,31.7706
1601,31.776
1602,28.9726
1603,26.048
1604,26.0529
1605,26.0575
1606,18.5357
1607,18.54
1608,19.6384
1609,19.6422
1610,15.5584
1611,15.5617
1612,16.0839
1613,18.762
1614,20.1773
1615,20.1797
1616,19.445
1617,15.0198
1618,15.0214
1619,16.3063
1620,16.3073
1621,12.6111
1622,12.6115
1623,16.2826
1624,21.4537
1625,21.4532
1626,19.9843
1627,19.9833
1628,22.5326
1629,23.0728
1630,25.3671
1631,25.3646
1632,25.0542
1633,21.9316
1634,16.65
1635,16.646
1636,19.6774
1637,22.7399
1638,22.7346
1639,18.3455
1640,6.62862
1641,6.622
1642,13.518
1643,23.0705
1644,23.0624
1645,12.1572
1646,-1.57312
1647,-1.58272
1648,0.31893
1649,17.7196
1650,17.7085
1651,12.1795
1652,12.1675
1653,13.0665
1654,13.0536
1655,6.00926
1656,5.99567
1657,6.40477
1658,10.2457
1659,12.3101
1660,12.4213
1661,14.3813
1662,17.4768
1663,22.5729
1664,22.557
1665,21.8372
1666,17.3218
1667,12.6491
1668,12.6325
1669,23.8111
1670,26.0256
1671,26.0088
1672,22.4833
1673,22.4663
1674,24.0995
1675,26.307
1676,26.2899
1677,22.7278
1678,18.6342
1679,15.5549
1680,10.6242
1681,6.08473
1682,6.06787
1683,8.35337
1684,16.2207
1685,16.2041
1686,10.5554
1687,10.5391
1688,14.374
1689,14.3581
1690,14.3423
1691,17.1734
1692,18.9973
1693,18.9822
1694,14.5586
1695,9.59983
1696,7.25783
1697,7.24378
1698,14.3643
1699,14.3509
1700,9.92201
1701,9.9092
1702,19.3602
1703,20.2982
1704,20.2864
1705,12.9813
1706,12.9703
1707,13.4275
1708,24.0795
1709,24.0697
1710,19.5515
1711,6.87698
1712,6.86853
1713,14.1041
1714,23.9271
1715,26.183
1716,26.1764
1717,26.1704
1718,30.006
1719,30.001
1720,25.2367
1721,11.2627
1722,11.2593
1723,15.0948
1724,28.3437
1725,28.342
1726,10.9444
1727,10.9439
1728,24.8777
1729,31.2314
1730,31.2326
1731,11.6587
1732,8.0165
1733,8.01955
1734,16.9027
1735,23.8263
1736,23.8312
1737,22.0854
1738,22.0916
1739,29.0488
1740,39.9566
1741,39.9648
1742,22.8477
1743,22.8572
1744,27.1849
1745,27.1958
1746,21.781
1747,18.6872
1748,18.7001
1749,25.8269
1750,25.8412
1751,20.2038
1752,15.3153
1753,15.3317
1754,17.4129
1755,17.4579
1756,21.0577
1757,21.0769
1758,10.3109
1759,10.3315
1760,18.2163
1761,32.6311
1762,42.5371
1763,42.5604
1764,28.7335
1765,21.3667
1766,16.138
1767,14.1456
1768,12.2376
1769,9.44128
1770,9.46946
1771,28.4023
1772,28.4318
1773,27.3098
1774,27.3407
1775,31.732
1776,37.4782
1777,37.5111
1778,27.4789
1779,27.5131
1780,33.7934
1781,37.4502
1782,37.4863
1783,29.5307
1784,29.568
1785,30.3732
1786,30.4118
1787,19.1836
1788,13.7296
1789,12.596
1790,10.0002
1791,10.0417
1792,12.7881
1793,25.1252
1794,27.7869
1795,27.8307
1796,12.1325
1797,12.1773
1798,21.3092
1799,25.1429
1800,28.2666
1801,28.3134
1802,25.3275
1803,17.0221
1804,12.1237
1805,12.1723
1806,15.7778
1807,15.8273
1808,10.2217
1809,6.91444
1810,6.96515
1811,14.8145
1812,24.6675
1813,24.7193
1814,16.7598
1815,16.8123
1816,21.6987
1817,21.7518
1818,21.8051
1819,22.6669
1820,25.7639
1821,25.8181
1822,20.0193
1823,17.6152
1824,17.67
1825,22.9716
1826,23.0268
1827,23.0821
1828,20.3418
1829,19.0136
1830,8.65692
1831,8.71279
1832,14.7271
1833,22.7047
1834,26.3213
1835,26.3775
1836,21.2887
1837,-0.994621
1838,-0.938469
1839,14.8041
1840,15.7342
1841,17.3502
1842,18.1164
1843,18.1725
1844,16.6981
1845,16.7542
1846,22.6017
1847,31.2359
1848,31.2919
1849,39.2953
