#wnum,raman
275,277.903
276,277.949
277,268.884
278,258.273
279,246.019
280,232.051
281,217.524
282,203.257
283,187.791
284,178.537
285,168.86
286,155.653
287,139.01
288,121.998
289,105.604
290,89.1278
291,75.6554
292,64.3759
293,54.5136
294,49.7579
295,43.063
296,33.5277
297,22.3033
298,21.0844
299,21.1259
300,24.1252
301,24.1654
302,20.4978
303,17.11
304,14.0371
305,11.0268
306,7.19844
307,3.36687
308,1.84842
309,1.77235
310,1.75863
311,-0.700164
312,-2.09533
313,-2.06525
314,0.892735
315,3.00192
316,3.02889
317,3.05485
318,4.87169
319,7.26129
320,10.4419
321,14.9268
322,15.2461
323,15.2662
324,10.7557
325,6.16423
326,1.4839
327,1.50037
328,7.90979
329,17.519
330,17.5329
331,14.6263
332,10.1662
333,3.37118
334,0.272039
335,0.28173
336,6.15756
337,9.80553
338,10.255
339,10.2615
340,9.40765
341,8.22117
342,5.92393
343,2.7359
344,0.775347
345,0.777501
346,1.43466
347,2.2987
348,3.25885
349,5.05829
350,8.55488
351,11.2669
352,11.2643
353,9.97509
354,8.09804
355,5.71161
356,4.99495
357,4.98935
358,4.98317
359,3.99749
360,-0.00122323
361,-0.00910361
362,6.93985
363,9.64908
364,9.63958
365,2.75127
366,2.74073
367,3.05319
368,3.11803
369,3.10601
370,3.0935
371,3.28418
372,8.90338
373,10.7001
374,10.6858
375,10.671
376,11.8853
377,16.1595
378,16.1435
379,12.1139
380,11.0054
381,10.9882
382,14.2249
383,16.2911
384,17.3275
385,17.3089
386,13.0164
387,10.8822
388,10.8625
389,14.3877
390,15.6355
391,15.6148
392,15.0094
393,9.00144
394,3.04962
395,3.02771
396,4.86206
397,7.67321
398,11.6323
399,15.6231
400,16.7019
401,16.6783
402,16.5324
403,14.6305
404,12.8416
405,12.1031
406,12.0783
407,12.3321
408,14.0554
409,14.0299
410,8.88185
411,3.71306
412,1.01316
413,-0.306583
414,-0.33316
415,4.15718
416,8.33836
417,10.7709
418,13.3544
419,13.3269
420,12.2703
421,12.1315
422,12.1036
423,12.6105
424,13.9615
425,13.9333
426,13.0531
427,8.72306
428,8.69456
429,12.8313
430,16.969
431,16.9403
432,13.3148
433,11.4645
434,11.4357
435,11.8298
436,16.3459
437,18.8476
438,18.8188
439,13.9589
440,10.4335
441,9.65137
442,9.62261
443,15.5656
444,20.4869
445,20.4582
446,12.3521
447,12.3236
448,14.8716
449,20.1223
450,20.094
451,16.4107
452,16.3826
453,21.3904
454,23.2155
455,23.1877
456,20.9752
457,20.0904
458,19.5484
459,17.5942
460,13.3952
461,9.19624
462,5.27059
463,1.4654
464,1.43869
465,3.84517
466,6.22148
467,8.52582
468,10.8126
469,13.4035
470,16.052
471,16.0264
472,13.736
473,11.7632
474,10.9323
475,10.1292
476,10.0997
477,10.0047
478,9.4104
479,7.81815
480,7.79401
481,8.20758
482,8.3207
483,8.29709
484,5.75115
485,3.67133
486,2.19695
487,2.17408
488,4.53951
489,5.9818
490,5.9595
491,1.43807
492,1.41614
493,5.43683
494,10.4971
495,11.3626
496,11.3415
497,10.7065
498,8.01236
499,7.99179
500,11.4428
501,11.4226
502,10.7441
503,5.36265
504,3.16658
505,3.14718
506,3.69487
507,6.63457
508,9.43038
509,10.3999
510,10.3814
511,8.69752
512,4.15172
513,4.13387
514,5.97233
515,10.2204
516,10.2031
517,9.98627
518,9.96937
519,10.2924
520,10.7959
521,11.8097
522,12.7861
523,16.0973
524,19.6021
525,19.5865
526,18.3563
527,17.1256
528,17.1105
529,17.0955
530,11.8467
531,5.81363
532,4.70184
533,4.68754
534,6.43477
535,10.5498
536,13.3468
537,13.3331
538,11.2767
539,6.47958
540,-0.542105
541,-0.55529
542,1.70638
543,8.11211
544,12.1957
545,15.6529
546,15.6404
547,12.4051
548,12.0182
549,12.0062
550,11.9944
551,9.69227
552,5.25493
553,5.24374
554,7.78743
555,9.28626
556,9.27571
557,8.84919
558,8.14019
559,8.13032
560,11.5549
561,18.4517
562,20.9468
563,20.9379
564,19.1502
565,15.8772
566,12.5043
567,11.227
568,11.0022
569,9.57162
570,5.90947
571,5.90281
572,13.8574
573,19.4474
574,19.4416
575,7.44481
576,7.43966
577,10.5183
578,14.3271
579,14.3229
580,11.795
581,11.7915
582,11.7882
583,9.80804
584,2.33035
585,2.32811
586,6.35846
587,10.4859
588,10.4846
589,5.13504
590,5.13449
591,14.3137
592,14.3138
593,13.5853
594,8.72579
595,8.72698
596,10.5752
597,12.7999
598,14.6645
599,14.6672
600,8.21512
601,7.17674
602,7.18042
603,11.7462
604,11.7506
605,9.30913
606,9.31425
607,12.9148
608,15.9578
609,17.5627
610,17.5693
611,13.845
612,6.70952
613,6.71715
614,10.3839
615,10.3922
616,7.68131
617,6.82607
618,6.83546
619,11.7695
620,14.3594
621,15.6331
622,16.7658
623,17.6901
624,17.7016
625,13.4764
626,8.53542
627,7.49523
628,7.50806
629,8.48586
630,10.3566
631,11.8866
632,12.0918
633,12.3277
634,15.2843
635,15.2994
636,12.8887
637,1.63421
638,1.65022
639,10.7368
640,22.7707
641,23.2553
642,23.2725
643,19.872
644,14.4625
645,10.1693
646,7.20575
647,4.05577
648,-0.0805302
649,-0.0614504
650,1.10077
651,7.3654
652,11.806
653,15.1675
654,15.1878
655,12.6252
656,12.646
657,14.8255
658,19.8087
659,19.8301
660,18.1022
661,18.124
662,19.9825
663,20.0047
664,19.9765
665,18.5707
666,18.5935
667,18.6151
668,11.0702
669,0.117775
670,0.141217
671,3.83375
672,7.85398
673,7.87784
674,7.90183
675,9.48001
676,13.4243
677,15.9911
678,17.2484
679,17.273
680,13.4005
681,10.1741
682,10.1988
683,10.4364
684,12.3646
685,14.659
686,16.6617
687,17.939
688,17.9641
689,12.7505
690,7.6065
691,4.65288
692,1.69685
693,0.529207
694,0.554164
695,3.98561
696,12.4984
697,19.6705
698,22.4943
699,22.519
700,13.3161
701,3.15632
702,3.18069
703,10.5654
704,10.5895
705,5.47996
706,5.50381
707,7.60631
708,7.88062
709,7.90396
710,1.99946
711,2.02241
712,2.5605
713,5.79226
714,11.352
715,11.4283
716,11.4501
717,8.00984
718,6.00627
719,6.02724
720,7.04549
721,12.1097
722,12.1298
723,10.0783
724,7.16209
725,6.03583
726,6.05448
727,7.28913
728,9.76778
729,12.4241
730,14.9918
731,15.0085
732,11.572
733,8.69891
734,7.92769
735,7.94249
736,8.82107
737,10.4971
738,10.5104
739,9.79631
740,9.80854
741,9.69803
742,9.17067
743,4.16951
744,-0.350549
745,-0.341227
746,-0.332523
747,-0.861844
748,-0.854393
749,2.12588
750,10.8069
751,11.2457
752,11.2508
753,10.7532
754,10.7571
755,10.7605
756,10.4248
757,5.51948
758,5.39203
759,5.39338
760,7.20787
761,10.1509
762,10.1509
763,8.42349
764,8.0948
765,8.09348
766,11.5167
767,11.5146
768,8.61108
769,8.60823
770,10.0401
771,12.8492
772,18.3465
773,18.3424
774,17.5013
775,11.2342
776,10.7894
777,10.7841
778,11.4151
779,12.1022
780,13.9109
781,17.9635
782,17.957
783,13.7834
784,12.8754
785,12.8683
786,20.779
787,20.7715
788,20.5368
789,15.8606
790,7.5874
791,7.57936
792,13.3261
793,21.4688
794,21.4604
795,19.6666
796,18.0005
797,16.3368
798,13.9908
799,11.8224
800,11.8135
801,18.7125
802,18.7036
803,14.7901
804,11.9148
805,11.9058
806,17.4745
807,17.4655
808,13.6212
809,13.6122
810,16.0428
811,16.0338
812,5.83996
813,5.83102
814,6.78378
815,13.2657
816,13.2569
817,11.9395
818,11.9308
819,17.7589
820,19.0489
821,19.0404
822,19.032
823,20.5597
824,22.4281
825,25.3263
826,27.2754
827,27.2674
828,25.637
829,22.3102
830,18.9044
831,18.8968
832,25.0365
833,25.0292
834,21.1675
835,18.5718
836,18.5648
837,19.158
838,19.1512
839,19.1445
840,19.3518
841,26.6538
842,26.6474
843,26.1524
844,21.0894
845,10.6393
846,1.03509
847,-0.410895
848,-0.416528
849,9.33624
850,18.2176
851,18.2123
852,7.40012
853,7.39515
854,13.8978
855,20.25
856,24.1804
857,24.1761
858,22.0035
859,21.9995
860,22.4992
861,26.9875
862,26.9841
863,22.9776
864,22.9747
865,24.8445
866,26.1944
867,26.2469
868,26.2448
869,23.6623
870,21.1229
871,20.3394
872,19.4646
873,19.1475
874,19.0049
875,14.7315
876,8.22345
877,8.2236
878,14.1377
879,19.9585
880,24.7687
881,24.7699
882,19.5866
883,12.6203
884,12.6223
885,14.8991
886,19.006
887,23.4388
888,25.7817
889,25.785
890,24.3607
891,17.5546
892,12.3498
893,12.3451
894,12.3497
895,16.2122
896,20.0429
897,26.8644
898,28.2049
899,28.2108
900,17.277
901,16.4603
902,16.4669
903,18.2782
904,19.1052
905,20.4103
906,23.1707
907,25.7363
908,26.8122
909,26.8204
910,21.6978
911,14.4445
912,14.4534
913,15.9674
914,17.5064
915,18.8752
916,20.7546
917,22.2398
918,22.2498
919,9.32836
920,2.49971
921,2.51012
922,7.37699
923,10.3943
924,13.0422
925,13.0531
926,13.0642
927,15.4432
928,22.7132
929,27.9319
930,30.5425
931,30.5541
932,27.0878
933,22.7697
934,18.518
935,14.1476
936,12.214
937,10.3995
938,7.90481
939,7.91668
940,9.18724
941,16.526
942,16.5379
943,8.62481
944,8.63658
945,10.624
946,13.3025
947,13.3141
948,12.0299
949,10.5457
950,10.557
951,11.7032
952,11.7143
953,11.3176
954,9.10165
955,9.1123
956,17.7109
957,17.7212
958,15.2083
959,15.2182
960,16.6532
961,17.788
962,17.7972
963,15.9784
964,10.2853
965,8.07913
966,8.08727
967,8.0951
968,6.92023
969,-1.10795
970,-1.10111
971,5.372
972,5.37816
973,4.97964
974,4.98516
975,6.49711
976,9.62633
977,15.0527
978,15.057
979,14.6697
980,14.6735
981,16.0528
982,16.0561
983,13.7974
984,0.714379
985,0.716941
986,6.75172
987,11.2858
988,14.244
989,16.6919
990,18.4933
991,18.4946
992,15.84
993,12.327
994,8.00742
995,8.00808
996,12.8634
997,16.5221
998,16.5224
999,13.8481
1000,13.8481
1001,21.5796
1002,27.3543
1003,29.2016
1004,29.2011
1005,20.0918
1006,12.6432
1007,7.88172
1008,6.73598
1009,6.73498
1010,6.7339
1011,3.0654
1012,3.06416
1013,6.11858
1014,13.0952
1015,13.0938
1016,13.0923
1017,15.8514
1018,21.5251
1019,24.437
1020,24.4353
1021,21.4545
1022,11.4026
1023,10.5544
1024,10.5525
1025,13.104
1026,13.7655
1027,13.7635
1028,13.3562
1029,12.3923
1030,9.30676
1031,6.10666
1032,2.96752
1033,2.96531
1034,6.2127
1035,14.0689
1036,14.6367
1037,14.6344
1038,13.276
1039,11.5375
1040,9.0123
1041,5.87224
1042,5.86981
1043,6.17462
1044,6.17213
1045,6.27655
1046,6.27402
1047,12.927
1048,17.3272
1049,17.3246
1050,15.5146
1051,8.88136
1052,5.28187
1053,5.27916
1054,5.71648
1055,5.71371
1056,0.130009
1057,-0.282959
1058,-0.285836
1059,2.07973
1060,5.57581
1061,12.3122
1062,22.3916
1063,22.3886
1064,10.8734
1065,7.18341
1066,7.18039
1067,8.33291
1068,8.32989
1069,8.32688
1070,10.7771
1071,10.7741
1072,6.51247
1073,3.1998
1074,3.19687
1075,8.21222
1076,8.20934
1077,5.25082
1078,5.24801
1079,6.51822
1080,8.51003
1081,9.7967
1082,9.79405
1083,9.19588
1084,9.19333
1085,22.7294
1086,24.0655
1087,24.0631
1088,19.9132
1089,18.7235
1090,18.7213
1091,24.7889
1092,25.3423
1093,25.3403
1094,20.6795
1095,18.6176
1096,17.5411
1097,17.5394
1098,17.5377
1099,12.6969
1100,7.83537
1101,7.83384
1102,14.5653
1103,16.3754
1104,16.374
1105,15.0063
1106,12.713
1107,11.4633
1108,11.4622
1109,11.7518
1110,13.4945
1111,15.9735
1112,19.4203
1113,19.4194
1114,14.697
1115,10.0101
1116,7.89222
1117,7.89142
1118,11.093
1119,15.3443
1120,20.8248
1121,26.4509
1122,27.5662
1123,27.5655
1124,22.8849
1125,19.6846
1126,19.6838
1127,20.6127
1128,20.612
1129,14.5673
1130,12.4044
1131,12.4036
1132,13.5439
1133,14.4057
1134,14.4047
1135,8.47773
1136,8.47664
1137,14.9672
1138,14.966
1139,9.84048
1140,4.47382
1141,0.914325
1142,0.912703
1143,8.94445
1144,10.105
1145,10.1031
1146,6.59098
1147,5.40082
1148,5.35594
1149,5.35338
1150,6.49065
1151,12.0148
1152,16.5983
1153,16.595
1154,15.3175
1155,11.8318
1156,10.3015
1157,10.2975
1158,10.2931
1159,9.98745
1160,5.5767
1161,1.6219
1162,1.61658
1163,2.22219
1164,7.59123
1165,7.58508
1166,0.956336
1167,0.949571
1168,8.59012
1169,11.4643
1170,11.4566
1171,7.24069
1172,-1.10164
1173,-1.11044
1174,5.51335
1175,11.9974
1176,16.3507
1177,16.3405
1178,11.3479
1179,7.41728
1180,7.40622
1181,8.12236
1182,10.7707
1183,10.7588
1184,8.05468
1185,4.14091
1186,1.07939
1187,1.06665
1188,4.47888
1189,10.2444
1190,18.9194
1191,18.9059
1192,14.7509
1193,14.7372
1194,17.0779
1195,23.7682
1196,23.7541
1197,13.3943
1198,13.3801
1199,15.3726
1200,20.0744
1201,20.0599
1202,13.4368
1203,-0.0605315
1204,-0.075092
1205,7.32351
1206,10.5516
1207,12.2663
1208,16.4929
1209,21.7802
1210,24.2193
1211,25.0234
1212,27.4827
1213,29.2199
1214,29.2057
1215,23.2983
1216,20.4938
1217,20.4798
1218,20.8726
1219,20.8588
1220,18.6347
1221,10.0575
1222,9.04199
1223,9.02869
1224,12.5757
1225,17.0192
1226,17.0064
1227,9.07665
1228,5.32353
1229,5.31121
1230,6.10397
1231,6.83759
1232,8.50287
1233,12.0484
1234,12.0371
1235,8.9614
1236,8.9505
1237,19.0397
1238,19.0292
1239,12.2962
1240,12.2862
1241,17.5134
1242,17.6247
1243,17.6155
1244,16.4057
1245,16.3971
1246,16.3887
1247,10.3215
1248,9.88289
1249,9.87533
1250,14.4543
1251,16.5771
1252,16.5704
1253,13.6409
1254,9.73863
1255,8.30535
1256,8.29986
1257,15.2197
1258,15.2149
1259,9.35475
1260,5.68896
1261,5.68505
1262,12.374
1263,18.269
1264,19.6297
1265,19.6271
1266,15.7037
1267,14.6053
1268,13.4869
1269,10.8321
1270,10.8311
1271,15.8937
1272,20.1425
1273,20.1425
1274,16.8988
1275,7.3476
1276,7.34865
1277,14.8129
1278,23.1912
1279,23.1933
1280,19.3018
1281,19.3045
1282,20.275
1283,20.2784
1284,19.8407
1285,19.8448
1286,24.465
1287,27.0341
1288,27.0391
1289,21.5101
1290,16.4722
1291,16.4782
1292,20.1101
1293,23.0446
1294,23.0515
1295,20.9622
1296,15.8707
1297,10.8973
1298,7.04535
1299,7.05377
1300,8.42232
1301,19.4061
1302,19.4154
1303,17.0818
1304,9.85462
1305,9.86468
1306,15.5366
1307,15.5471
1308,14.2748
1309,10.4534
1310,6.63317
1311,3.77537
1312,3.7871
1313,8.68541
1314,9.75069
1315,9.76304
1316,6.88554
1317,6.89828
1318,7.25909
1319,7.27219
1320,7.28547
1321,18.7748
1322,18.7884
1323,15.0704
1324,2.22937
1325,2.2434
1326,3.33733
1327,12.3538
1328,17.4356
1329,17.4501
1330,14.9867
1331,13.2769
1332,13.2917
1333,19.949
1334,20.2693
1335,20.2843
1336,14.9206
1337,7.02562
1338,6.17412
1339,6.18928
1340,6.3821
1341,7.69082
1342,7.706
1343,19.9837
1344,19.9989
1345,16.5361
1346,8.13956
1347,2.42916
1348,2.17856
1349,2.19346
1350,4.18021
1351,4.77089
1352,8.61195
1353,17.6931
1354,18.5653
1355,18.5796
1356,12.695
1357,3.51385
1358,3.52769
1359,15.0697
1360,15.0832
1361,7.80444
1362,2.5362
1363,0.465705
1364,-0.968893
1365,-0.956496
1366,1.18515
1367,7.13971
1368,7.15141
1369,8.20028
1370,12.6672
1371,23.6162
1372,24.3642
1373,25.969
1374,26.9627
1375,30.4919
1376,30.5021
1377,28.5436
1378,21.7799
1379,13.6622
1380,9.16181
1381,7.9319
1382,7.94119
1383,11.5861
1384,12.2965
1385,12.3054
1386,12.0478
1387,12.0565
1388,12.947
1389,13.7097
1390,13.7725
1391,13.7808
1392,20.1174
1393,25.7142
1394,26.4338
1395,26.4418
1396,16.2775
1397,16.2853
1398,18.7547
1399,19.9867
1400,19.9944
1401,20.002
1402,26.1091
1403,26.1166
1404,13.38
1405,13.3874
1406,18.3763
1407,21.0727
1408,21.08
1409,17.4561
1410,16.7526
1411,16.7596
1412,22.3709
1413,22.3779
1414,3.40311
1415,3.40998
1416,23.6286
1417,23.6354
1418,20.3271
1419,20.3338
1420,20.3404
1421,14.6735
1422,3.49881
1423,1.37291
1424,1.37928
1425,3.6043
1426,6.95571
1427,8.95975
1428,11.0174
1429,15.3755
1430,19.4241
1431,19.5898
1432,19.5956
1433,9.95052
1434,9.95617
1435,11.2849
1436,11.2904
1437,10.053
1438,10.0583
1439,19.0024
1440,27.02
1441,30.801
1442,30.8059
1443,18.0697
1444,18.0743
1445,19.7397
1446,23.1887
1447,23.1929
1448,16.8071
1449,7.79376
1450,7.79754
1451,20.8374
1452,20.8408
1453,20.3487
1454,20.3518
1455,20.3548
1456,17.3175
1457,17.3201
1458,22.9018
1459,22.9039
1460,18.3786
1461,8.09765
1462,6.68148
1463,6.68265
1464,11.5505
1465,12.0719
1466,12.0723
1467,8.08047
1468,1.26984
1469,1.26937
1470,5.25403
1471,13.111
1472,17.1295
1473,17.1277
1474,5.17581
1475,5.17339
1476,15.5342
1477,19.1618
1478,19.1583
1479,18.386
1480,17.4333
1481,17.4286
1482,21.1886
1483,24.7977
1484,24.7917
1485,18.8695
1486,18.8626
1487,21.9252
1488,21.9173
1489,11.474
1490,6.27691
1491,4.65154
1492,4.64164
1493,-1.31349
1494,-1.32448
1495,3.73319
1496,8.67673
1497,13.7744
1498,17.6194
1499,17.6058
1500,14.2155
1501,6.97499
1502,6.95996
1503,6.94448
1504,5.32217
1505,4.21655
1506,4.19982
1507,7.86885
1508,14.0709
1509,14.0531
1510,11.1165
1511,5.86291
1512,1.32352
1513,1.30433
1514,3.03369
1515,6.42871
1516,10.2666
1517,10.5968
1518,11.2037
1519,13.9447
1520,13.9237
1521,10.4655
1522,5.59009
1523,5.56843
1524,12.7724
1525,13.8729
1526,13.8507
1527,11.7481
1528,11.7256
1529,14.6246
1530,14.602
1531,4.1974
1532,4.17452
1533,9.95774
1534,14.1686
1535,14.8059
1536,19.9181
1537,19.895
1538,19.2495
1539,13.4259
1540,13.4027
1541,16.6005
1542,16.5773
1543,16.554
1544,17.0166
1545,16.9934
1546,15.7792
1547,10.2509
1548,4.18805
1549,4.16513
1550,9.11645
1551,14.3424
1552,18.9602
1553,19.4218
1554,19.3994
1555,15.4501
1556,11.5941
1557,11.572
1558,11.5501
1559,9.24374
1560,4.44281
1561,-0.144492
1562,-0.165813
1563,2.75017
1564,9.15021
1565,17.3126
1566,21.3606
1567,21.3403
1568,19.2576
1569,19.2377
1570,22.672
1571,22.6526
1572,22.4447
1573,9.92081
1574,9.90219
1575,17.4529
1576,22.8422
1577,22.8244
1578,14.0944
1579,14.0772
1580,15.9926
1581,15.9761
1582,12.3882
1583,12.3723
1584,17.1522
1585,19.5555
1586,20.1517
1587,28.8802
1588,28.8661
1589,25.8204
1590,23.7748
1591,23.7619
1592,23.7494
1593,21.2612
1594,21.2494
1595,30.6218
1596,30.6109
1597,29.4103
1598,24.2996
1599,20.1799
1600,16.7266
1601,15.641
1602,15.6326
1603,18.3635
1604,18.7829
1605,19.5143
1606,22.9752
1607,22.9689
1608,5.00876
1609,5.00334
1610,13.1116
1611,17.2748
1612,19.5535
1613,20.954
1614,20.9508
1615,20.7195
1616,8.38077
1617,2.13849
1618,2.13699
1619,12.9424
1620,26.2967
1621,29.3391
1622,32.1289
1623,32.1295
1624,30.4558
1625,17.4582
1626,17.4601
1627,23.68
1628,23.6828
1629,19.9016
1630,19.2046
1631,18.6433
1632,18.1866
1633,15.591
1634,2.67111
1635,2.67679
1636,11.1784
1637,11.1848
1638,5.33892
1639,5.34616
1640,14.8725
1641,18.6298
1642,20.8285
1643,26.017
1644,27.0819
1645,27.0914
1646,27.1012
1647,27.5082
1648,30.1629
1649,31.8387
1650,31.8498
1651,27.3069
1652,20.2896
1653,15.0832
1654,15.0956
1655,19.56
1656,23.5487
1657,26.5327
1658,26.5462
1659,21.6357
1660,5.4233
1661,4.14159
1662,4.15609
1663,8.74195
1664,8.75688
1665,6.83073
1666,0.102786
1667,0.118311
1668,4.1109
1669,16.3851
1670,20.0385
1671,20.0547
1672,15.1377
1673,8.79338
1674,8.80995
1675,8.61814
1676,8.63492
1677,8.65178
1678,15.3728
1679,15.3898
1680,13.6669
1681,12.723
1682,12.7402
1683,12.7573
1684,11.3514
1685,11.3686
1686,12.3013
1687,12.3184
1688,8.14946
1689,7.92652
1690,7.93448
1691,7.96048
1692,8.17444
1693,14.7836
1694,14.8003
1695,16.9786
1696,19.3246
1697,20.5963
1698,20.6124
1699,20.6283
1700,22.3836
1701,27.919
1702,27.9344
1703,27.9495
1704,32.0647
1705,32.0793
1706,28.669
1707,17.1962
1708,17.21
1709,19.0491
1710,19.0622
1711,18.7706
1712,18.783
1713,21.7009
1714,30.0513
1715,31.6065
1716,34.2972
1717,34.3076
1718,30.7891
1719,21.2309
1720,21.2399
1721,25.4656
1722,25.4734
1723,15.9249
1724,-1.59532
1725,-1.58918
1726,14.1762
1727,15.663
1728,15.6673
1729,13.0867
1730,12.4485
1731,12.4512
1732,12.4534
1733,11.5743
1734,11.5754
1735,24.1022
1736,24.1024
1737,22.8704
1738,15.4583
1739,7.44922
1740,7.44757
1741,10.1844
1742,23.5592
1743,31.8869
1744,31.8836
1745,26.9421
1746,20.0516
1747,20.0472
1748,21.6032
1749,21.598
1750,16.5078
1751,15.4523
1752,15.4461
1753,22.7186
1754,22.7117
1755,22.3228
1756,22.3153
1757,22.7548
1758,23.0039
1759,22.9956
1760,18.058
1761,18.0492
1762,23.6512
1763,23.6418
1764,17.1902
1765,12.9819
1766,12.9717
1767,18.8939
1768,18.8832
1769,5.83663
1770,5.82554
1771,9.10842
1772,12.3105
1773,13.4311
1774,13.4191
1775,13.407
1776,8.50271
1777,8.49014
1778,13.168
1779,22.3726
1780,24.8291
1781,24.8158
1782,14.1548
1783,14.1411
1784,17.0152
1785,17.0011
1786,10.813
1787,6.69428
1788,6.6797
1789,20.1928
1790,21.3317
1791,23.7274
1792,32.6676
1793,34.3789
1794,34.3633
1795,34.3476
1796,41.0589
1797,41.0429
1798,16.303
1799,16.2867
1800,20.551
1801,20.5343
1802,20.5174
1803,21.4785
1804,24.7252
1805,24.7078
1806,14.006
1807,-0.563129
1808,-0.581071
1809,5.24449
1810,5.50384
1811,9.36248
1812,24.6252
1813,34.4006
1814,34.3817
1815,32.2912
1816,21.8254
1817,21.2179
1818,21.1985
1819,23.827
1820,23.8074
1821,17.5871
1822,17.2561
1823,17.2363
1824,21.3568
1825,21.3368
1826,21.2984
1827,18.7877
1828,18.7675
1829,20.289
1830,22.3515
1831,25.6215
1832,25.6012
1833,22.336
1834,17.5657
1835,16.0695
1836,11.9967
1837,6.74065
1838,6.72017
1839,27.8953
1840,27.8748
1841,24.3564
1842,24.3359
1843,26.5299
1844,26.5094
1845,18.9442
1846,13.1026
1847,13.0821
1848,26.3467
1849,32.4871
