#wnum,raman
275,1836.18
276,1838.48
277,1726.82
278,1615.16
279,1507.4
280,1400.03
281,1308.74
282,1235.85
283,1162.68
284,1076.51
285,990.34
286,915.725
287,849.587
288,786.22
289,740.793
290,695.366
291,644.168
292,590.396
293,543.965
294,519.465
295,496.873
296,466.565
297,435.331
298,409.202
299,392.477
300,375.857
301,343.158
302,309.063
303,276.899
304,248.577
305,221.496
306,215.588
307,208.579
308,197.568
309,185.785
310,172.639
311,153.665
312,134.545
313,121.392
314,111.053
315,102.843
316,97.689
317,92.2275
318,84.4945
319,76.9647
320,74.0163
321,75.6992
322,76.2703
323,54.8909
324,33.6876
325,35.7711
326,50.8889
327,52.9507
328,45.1558
329,29.7987
330,23.3302
331,19.064
332,15.7258
333,14.5161
334,15.9409
335,17.9046
336,22.7831
337,24.7195
338,23.5022
339,22.0746
340,18.81
341,17.3443
342,19.2073
343,25.5759
344,27.4074
345,21.4998
346,14.6566
347,14.7614
348,16.5267
349,20.965
350,30.6878
351,32.4005
352,20.2116
353,-0.170948
354,-3.34099
355,-1.70256
356,-0.083391
357,-1.94978
358,-5.44162
359,-7.76087
360,-9.5902
361,-8.07049
362,-3.57803
363,1.62833
364,15.6308
365,28.3876
366,29.8075
367,16.4901
368,13.2014
369,14.563
370,20.3801
371,21.7034
372,16.7354
373,11.7322
374,6.7336
375,1.72382
376,0.732689
377,1.94415
378,11.2763
379,33.7757
380,37.805
381,38.9444
382,26.9529
383,28.057
384,37.1043
385,38.1736
386,33.9258
387,31.8483
388,32.8664
389,40.4282
390,41.4127
391,35.537
392,29.3752
393,21.4573
394,22.2179
395,23.1207
396,39.2968
397,40.1677
398,20.9804
399,0.459245
400,1.28326
401,4.56352
402,5.35686
403,1.75724
404,2.52038
405,14.4959
406,28.143
407,28.8617
408,27.4727
409,28.1624
410,30.6529
411,31.3141
412,31.5252
413,28.9419
414,26.8754
415,25.8137
416,26.4055
417,37.7144
418,38.2793
419,37.0159
420,20.5102
421,17.647
422,18.1594
423,22.7096
424,25.7173
425,27.695
426,28.1567
427,27.4029
428,27.84
429,39.933
430,48.3036
431,48.7046
432,48.1362
433,48.5136
434,59.6114
435,61.3714
436,61.7143
437,55.6226
438,54.0027
439,53.597
440,53.8954
441,54.4116
442,55.2036
443,58.3574
444,61.4809
445,69.4006
446,79.541
447,79.7657
448,57.6993
449,40.7687
450,40.9633
451,48.4697
452,58.3909
453,70.1512
454,70.3071
455,66.4607
456,61.8576
457,61.9855
458,72.032
459,72.1418
460,69.3944
461,69.4864
462,70.145
463,74.2832
464,74.3492
465,71.1904
466,68.6759
467,67.2169
468,65.6562
469,63.4777
470,63.4941
471,65.6276
472,73.1822
473,73.1749
474,62.1987
475,49.8646
476,49.8345
477,49.797
478,48.8943
479,43.5352
480,43.4758
481,45.9891
482,45.9156
483,43.9984
484,36.2168
485,36.1226
486,49.6232
487,51.9937
488,51.8795
489,47.5456
490,47.4185
491,53.0089
492,52.8692
493,41.922
494,41.7701
495,45.1495
496,57.0814
497,56.9115
498,56.2659
499,54.2803
500,52.5899
501,50.8837
502,48.5871
503,48.3834
504,53.3433
505,64.5789
506,64.3593
507,56.2356
508,44.4909
509,34.0682
510,27.64
511,27.3952
512,37.9529
513,41.7811
514,41.5219
515,39.0729
516,31.7261
517,24.4668
518,24.1894
519,28.1283
520,34.3522
521,45.5807
522,50.0113
523,49.7125
524,42.2654
525,36.6484
526,32.0508
527,31.7361
528,40.6583
529,40.3359
530,36.994
531,23.3937
532,23.0603
533,24.2615
534,27.3681
535,29.2739
536,31.0927
537,33.5629
538,33.6457
539,33.2887
540,27.5235
541,27.1602
542,31.9715
543,31.6023
544,23.2968
545,11.016
546,10.6382
547,23.0129
548,32.0152
549,34.2108
550,33.8222
551,27.7942
552,19.4738
553,14.3026
554,13.9041
555,15.027
556,34.1983
557,33.793
558,26.7983
559,8.50716
560,8.09548
561,27.0221
562,44.2685
563,58.9603
564,71.3927
565,70.9714
566,70.246
567,65.344
568,58.9102
569,51.7958
570,44.0533
571,43.6221
572,50.3496
573,49.9155
574,45.8044
575,25.1936
576,24.7554
577,50.6631
578,50.2224
579,43.3696
580,27.4463
581,27.0022
582,39.4226
583,45.1375
584,45.6762
585,48.1296
586,56.5004
587,56.0505
588,52.9211
589,39.1268
590,32.4297
591,31.8984
592,31.4448
593,40.7582
594,49.7004
595,55.8686
596,58.4702
597,58.0137
598,49.2409
599,38.8659
600,26.9423
601,24.7173
602,24.2589
603,31.0308
604,33.4832
605,33.6509
606,33.1915
607,28.5206
608,28.0609
609,51.0708
610,56.4027
611,55.9428
612,33.3828
613,32.9229
614,41.4677
615,47.3718
616,46.9121
617,46.4525
618,52.185
619,58.6188
620,62.2695
621,64.829
622,64.3704
623,63.0559
624,60.4583
625,53.5095
626,53.0522
627,55.1794
628,66.7644
629,66.3082
630,61.3622
631,60.9068
632,64.6193
633,64.1649
634,62.9021
635,54.1128
636,50.5963
637,49.4909
638,47.6221
639,43.8378
640,41.3378
641,40.8878
642,40.4384
643,35.9771
644,28.9862
645,25.5043
646,25.0574
647,24.8434
648,26.474
649,26.0291
650,11.6257
651,-1.76645
652,-2.20915
653,8.16775
654,21.1882
655,37.8873
656,52.3737
657,55.8554
658,59.5629
659,64.9269
660,65.5095
661,65.0753
662,53.203
663,48.2833
664,47.8528
665,47.4236
666,36.1736
667,24.6302
668,24.2051
669,28.4437
670,29.6471
671,29.2267
672,27.7522
673,23.5602
674,23.1448
675,26.3559
676,33.6446
677,33.9768
678,34.4909
679,37.1444
680,47.2717
681,46.8692
682,41.3611
683,29.3682
684,22.2065
685,18.785
686,18.3931
687,26.8961
688,36
689,46.1622
690,52.6342
691,52.2537
692,49.6645
693,49.2888
694,48.9155
695,39.5816
696,22.1709
697,21.2167
698,20.8536
699,28.6135
700,32.894
701,32.5389
702,25.2766
703,9.79042
704,9.44357
705,19.1505
706,21.2695
707,20.9312
708,20.5958
709,34.5429
710,51.3422
711,51.0157
712,47.9137
713,42.802
714,36.1305
715,31.2493
716,30.9382
717,30.9598
718,34.8124
719,38.6449
720,46.7682
721,56.0832
722,59.4779
723,59.7927
724,59.6266
725,63.5623
726,63.284
727,62.1638
728,57.2998
729,52.4129
730,47.4537
731,44.5997
732,44.3422
733,45.9319
734,57.2579
735,68.3674
736,77.8021
737,82.3167
738,82.0807
739,73.52
740,56.9402
741,34.755
742,31.5259
743,31.3083
744,39.4164
745,45.2465
746,51.0768
747,51.0521
748,50.8531
749,45.0796
750,36.4446
751,36.0139
752,35.8301
753,35.6501
754,31.5259
755,25.4649
756,21.7732
757,21.6084
758,32.8809
759,55.6007
760,55.4475
761,37.3869
762,23.253
763,23.1114
764,24.7283
765,27.3774
766,27.2475
767,22.3585
768,15.4792
769,15.3609
770,31.4319
771,31.3215
772,22.629
773,21.2529
774,21.1542
775,28.5414
776,28.4505
777,21.9547
778,19.9044
779,19.8253
780,20.8636
781,23.1674
782,23.1001
783,13.4601
784,7.89776
785,7.8422
786,12.3268
787,18.1522
788,20.3709
789,20.331
790,7.06851
791,7.0365
792,15.2756
793,26.6017
794,26.5814
795,26.5651
796,29.6933
797,33.776
798,33.9291
799,33.9284
800,32.4341
801,29.9939
802,26.7587
803,20.9302
804,20.9491
805,23.9512
806,32.4133
807,35.949
808,36.647
809,36.6853
810,32.326
811,29.6969
812,29.7146
813,29.014
814,25.0431
815,25.1045
816,25.6446
817,28.7312
818,28.804
819,25.2576
820,20.8823
821,18.6156
822,18.7036
823,35.2445
824,36.8812
825,36.9804
826,37.0834
827,44.4948
828,51.305
829,51.4191
830,30.9888
831,31.1103
832,53.9276
833,54.0564
834,52.8325
835,48.4671
836,48.6068
837,53.6302
838,62.459
839,68.4668
840,68.6207
841,62.0716
842,51.538
843,38.0328
844,26.7314
845,19.2118
846,19.3867
847,20.5505
848,27.092
849,42.7982
850,44.5297
851,44.7214
852,23.465
853,23.6633
854,37.7489
855,58.3341
856,88.6861
857,105.265
858,105.479
859,99.2268
860,79.8126
861,74.7903
862,75.0171
863,89.3037
864,89.5366
865,68.3566
866,68.5953
867,73.0923
868,73.3368
869,65.5123
870,58.3033
871,58.5563
872,58.812
873,52.5806
874,42.187
875,37.3672
876,34.8867
877,33.7833
878,33.4596
879,31.5258
880,26.7912
881,22.7165
882,21.4545
883,20.1081
884,13.6195
885,13.9074
886,25.639
887,43.6033
888,43.8976
889,26.5716
890,18.0635
891,18.3639
892,24.1877
893,41.8264
894,48.5703
895,48.8782
896,42.078
897,36.7717
898,37.0848
899,39.0619
900,49.5974
901,49.9152
902,45.3787
903,38.5552
904,29.319
905,22.1747
906,19.7619
907,20.0881
908,33.5266
909,33.8551
910,24.5451
911,10.3043
912,10.636
913,29.4257
914,29.7594
915,25.6008
916,18.6675
917,11.7468
918,12.0837
919,31.2325
920,32.7832
921,33.1219
922,22.6935
923,23.0332
924,25.1419
925,30.0172
926,31.427
927,31.7681
928,23.489
929,15.9943
930,9.26138
931,9.60291
932,16.7554
933,26.6704
934,41.0683
935,41.4094
936,35.4068
937,16.775
938,13.7871
939,14.127
940,28.2668
941,44.1295
942,44.4679
943,21.1466
944,21.4837
945,34.4393
946,34.7749
947,28.9493
948,29.2831
949,40.232
950,41.5109
951,41.8416
952,22.756
953,17.7539
954,18.081
955,21.6353
956,31.7813
957,32.1042
958,30.8953
959,27.618
960,27.1817
961,27.4982
962,45.7464
963,46.0594
964,34.3254
965,22.7617
966,23.0688
967,28.0464
968,28.3493
969,21.9035
970,22.2019
971,37.3706
972,45.6611
973,45.9523
974,45.5261
975,33.3619
976,26.3328
977,25.4194
978,24.3223
979,1.90622
980,-5.81277
981,-5.54371
982,8.70329
983,17.7612
984,26.1584
985,42.6016
986,61.782
987,69.356
988,69.6048
989,57.6887
990,32.0275
991,32.2684
992,39.4585
993,39.8673
994,40.1006
995,33.225
996,33.4534
997,36.0636
998,38.8043
999,39.0257
1000,28.1296
1001,19.728
1002,19.9426
1003,38.0936
1004,39.393
1005,39.6014
1006,37.0289
1007,35.2256
1008,35.4279
1009,37.7773
1010,37.9758
1011,18.6561
1012,16.6914
1013,16.8844
1014,30.8341
1015,47.1518
1016,48.6787
1017,48.8649
1018,29.119
1019,29.3019
1020,30.1055
1021,37.1061
1022,46.1466
1023,52.9427
1024,54.2349
1025,54.4089
1026,40.4121
1027,40.5834
1028,45.2413
1029,57.6908
1030,74.4753
1031,77.9475
1032,78.1124
1033,66.2253
1034,65.0799
1035,65.2413
1036,73.2336
1037,73.3927
1038,68.0648
1039,45.2998
1040,36.0157
1041,35.1291
1042,26.7879
1043,11.1205
1044,11.2726
1045,27.1781
1046,40.9484
1047,44.1633
1048,47.2109
1049,48.9604
1050,50.3161
1051,50.9919
1052,51.8694
1053,58.3019
1054,58.4454
1055,49.2517
1056,47.2485
1057,47.3897
1058,63.7871
1059,63.9269
1060,34.3015
1061,34.4399
1062,42.7433
1063,48.0885
1064,49.4194
1065,49.7634
1066,55.7977
1067,61.419
1068,65.1247
1069,66.2393
1070,66.3719
1071,63.8563
1072,46.758
1073,46.8888
1074,53.6908
1075,77.7566
1076,81.5114
1077,81.6398
1078,71.3184
1079,56.2906
1080,54.2158
1081,53.0829
1082,50.8371
1083,50.1921
1084,50.3164
1085,66.6235
1086,66.7466
1087,56.7169
1088,56.8389
1089,73.4289
1090,73.5496
1091,72.3788
1092,72.4983
1093,88.8533
1094,96.0248
1095,96.1425
1096,94.2232
1097,94.3395
1098,94.4552
1099,86.0703
1100,79.2655
1101,79.379
1102,88.6783
1103,88.7904
1104,70.3618
1105,70.4723
1106,76.7038
1107,79.7896
1108,80.5879
1109,82.3574
1110,84.6531
1111,86.9848
1112,89.6923
1113,92.0218
1114,93.1923
1115,96.1106
1116,103.914
1117,104.014
1118,104.083
1119,99.7792
1120,97.793
1121,95.3363
1122,89.2671
1123,82.8781
1124,80.6379
1125,78.6082
1126,77.4647
1127,76.3376
1128,69.5869
1129,61.9166
1130,61.9991
1131,61.9435
1132,61.7964
1133,58.9806
1134,59.0566
1135,59.1309
1136,57.6441
1137,45.0198
1138,36.3908
1139,36.1487
1140,36.2137
1141,49.9581
1142,50.3818
1143,50.4407
1144,45.4959
1145,41.1107
1146,41.163
1147,48.9096
1148,48.9573
1149,29.489
1150,29.5319
1151,44.1007
1152,59.3294
1153,59.3648
1154,48.6051
1155,43.569
1156,38.5595
1157,36.242
1158,35.5055
1159,35.5243
1160,37.1843
1161,63.9665
1162,79.053
1163,79.0597
1164,50.0332
1165,50.0335
1166,56.1584
1167,62.1152
1168,62.1054
1169,50.4925
1170,21.4212
1171,21.4009
1172,35.1253
1173,48.9902
1174,49.5777
1175,49.5425
1176,13.9136
1177,3.11008
1178,3.063
1179,8.61118
1180,12.2153
1181,14.7945
1182,14.7307
1183,14.3732
1184,9.76185
1185,3.56236
1186,-7.43608
1187,-7.52211
1188,34.1915
1189,35.676
1190,35.5765
1191,14.1414
1192,14.0334
1193,20.2538
1194,45.6552
1195,64.1979
1196,64.0739
1197,57.6501
1198,40.2086
1199,37.0005
1200,36.8616
1201,52.9411
1202,52.7954
1203,50.6509
1204,41.2803
1205,32.5711
1206,32.4126
1207,36.4477
1208,60.7197
1209,90.1978
1210,90.0278
1211,83.9848
1212,71.4102
1213,56.8581
1214,50.4737
1215,47.7352
1216,38.5975
1217,30.1821
1218,29.9925
1219,43.892
1220,45.5013
1221,47.8343
1222,52.7481
1223,64.5542
1224,64.3531
1225,43.8535
1226,43.6491
1227,50.704
1228,50.4966
1229,46.0519
1230,45.8417
1231,46.0104
1232,50.85
1233,58.4051
1234,58.1901
1235,56.2775
1236,56.0605
1237,77.0445
1238,76.8257
1239,55.6134
1240,42.6402
1241,42.4193
1242,42.1978
1243,43.4961
1244,44.1348
1245,65.2638
1246,65.0405
1247,49.973
1248,47.695
1249,47.4709
1250,57.4784
1251,58.3237
1252,58.267
1253,58.3917
1254,58.1675
1255,61.6374
1256,68.0216
1257,87.2985
1258,87.0751
1259,77.4472
1260,69.0888
1261,68.8666
1262,69.7143
1263,69.4931
1264,61.576
1265,42.6398
1266,35.0997
1267,34.8811
1268,36.1135
1269,35.8964
1270,30.1137
1271,22.9445
1272,22.7301
1273,25.2271
1274,33.4064
1275,43.942
1276,53.9138
1277,57.5753
1278,57.3674
1279,53.6292
1280,53.4237
1281,67.6486
1282,76.008
1283,75.8065
1284,67.1006
1285,64.3683
1286,59.0092
1287,11.9456
1288,11.7516
1289,21.0934
1290,65.3903
1291,65.201
1292,63.0817
1293,62.8878
1294,62.7037
1295,48.6189
1296,35.1445
1297,31.5032
1298,31.3264
1299,50.8893
1300,70.9338
1301,73.1666
1302,72.9977
1303,49.3524
1304,49.1875
1305,65.9147
1306,65.754
1307,64.5061
1308,63.8636
1309,63.7094
1310,73.0894
1311,72.9395
1312,60.4048
1313,47.5011
1314,38.3178
1315,38.177
1316,41.2733
1317,52.8196
1318,62.7006
1319,62.7164
1320,62.8294
1321,63.475
1322,63.3509
1323,60.7018
1324,57.4033
1325,52.7385
1326,48.5569
1327,47.5069
1328,47.3975
1329,62.9835
1330,62.8792
1331,55.8647
1332,55.7656
1333,73.4054
1334,73.3113
1335,36.8796
1336,14.4497
1337,14.3635
1338,28.131
1339,58.3713
1340,58.293
1341,52.2469
1342,42.0397
1343,41.9693
1344,45.8309
1345,52.8007
1346,52.7382
1347,50.0424
1348,36.7724
1349,11.9958
1350,11.9439
1351,31.0726
1352,45.5678
1353,45.5239
1354,45.3337
1355,29.4941
1356,29.4583
1357,44.0432
1358,44.0127
1359,37.7661
1360,37.741
1361,42.7454
1362,45.0267
1363,45.4372
1364,48.0979
1365,52.2168
1366,60.9565
1367,62.463
1368,62.4592
1369,45.7286
1370,45.7301
1371,49.6954
1372,59.191
1373,65.0871
1374,65.099
1375,61.9074
1376,61.9245
1377,67.0943
1378,67.1165
1379,67.1414
1380,79.0726
1381,86.4258
1382,86.4582
1383,73.5495
1384,65.8056
1385,58.041
1386,42.3929
1387,42.4377
1388,67.3562
1389,67.4058
1390,42.2296
1391,38.1089
1392,38.1657
1393,65.1479
1394,67.0417
1395,67.1054
1396,56.2506
1397,46.6085
1398,41.449
1399,41.5215
1400,59.1756
1401,59.2525
1402,45.935
1403,31.7492
1404,22.2869
1405,22.3721
1406,33.8834
1407,33.9726
1408,28.8796
1409,28.9728
1410,44.5426
1411,44.6395
1412,42.7576
1413,31.9341
1414,18.1699
1415,12.0163
1416,12.1222
1417,15.6791
1418,25.4702
1419,27.6379
1420,28.8092
1421,60.8521
1422,60.9678
1423,53.0354
1424,39.1893
1425,39.3095
1426,43.4935
1427,43.6164
1428,25.844
1429,25.9696
1430,29.6682
1431,45.6359
1432,51.7784
1433,51.9089
1434,52.0406
1435,52.3571
1436,52.491
1437,44.4512
1438,35.0773
1439,28.8497
1440,28.9874
1441,49.2961
1442,64.1303
1443,75.284
1444,75.4249
1445,74.3874
1446,70.7075
1447,70.8505
1448,72.7848
1449,83.0299
1450,89.3782
1451,89.5232
1452,80.5221
1453,63.8173
1454,60.3656
1455,60.5119
1456,65.761
1457,65.9077
1458,63.9576
1459,55.9803
1460,48.9585
1461,49.1053
1462,62.8847
1463,75.3573
1464,82.3257
1465,82.4718
1466,77.8711
1467,63.5425
1468,40.2571
1469,24.7659
1470,24.9097
1471,34.0154
1472,68.0532
1473,68.1949
1474,63.1798
1475,59.2756
1476,59.4147
1477,62.2254
1478,62.3626
1479,55.0024
1480,39.4236
1481,33.1726
1482,31.8045
1483,31.9354
1484,40.7596
1485,70.2884
1486,70.4148
1487,56.0316
1488,35.527
1489,26.7966
1490,23.5886
1491,22.6916
1492,17.1945
1493,5.60846
1494,5.71987
1495,15.0968
1496,25.2723
1497,25.3769
1498,17.881
1499,17.9807
1500,34.0979
1501,48.5376
1502,48.6295
1503,34.1222
1504,34.2085
1505,38.5841
1506,38.6646
1507,23.6429
1508,-6.78567
1509,-6.71453
1510,9.08224
1511,26.3823
1512,31.9636
1513,48.193
1514,57.6169
1515,57.6697
1516,17.1552
1517,17.2024
1518,32.0391
1519,42.1577
1520,42.197
1521,23.0053
1522,1.60398
1523,1.63578
1524,14.3725
1525,39.3346
1526,39.3595
1527,37.0339
1528,37.0545
1529,48.1841
1530,48.2005
1531,1.02269
1532,1.03516
1533,45.4948
1534,45.5036
1535,33.4657
1536,33.471
1537,32.1385
1538,23.1515
1539,23.152
1540,30.9943
1541,33.575
1542,33.5712
1543,24.2421
1544,24.2356
1545,33.0633
1546,46.861
1547,46.8509
1548,32.7682
1549,19.8753
1550,19.8621
1551,20.3241
1552,42.2954
1553,42.2795
1554,44.1043
1555,49.1043
1556,61.2664
1557,61.2476
1558,61.0282
1559,61.0082
1560,60.9877
1561,56.384
1562,51.9821
1563,50.9698
1564,47.7034
1565,40.9171
1566,35.2729
1567,30.6517
1568,22.1549
1569,11.1701
1570,2.89742
1571,2.8739
1572,24.1862
1573,52.743
1574,52.7195
1575,52.6961
1576,54.9333
1577,54.9102
1578,31.4736
1579,31.4509
1580,32.5665
1581,43.4213
1582,48.634
1583,48.6127
1584,36.1181
1585,26.5074
1586,24.5444
1587,24.525
1588,33.7401
1589,45.3284
1590,45.3107
1591,45.9216
1592,45.9053
1593,78.5447
1594,78.5299
1595,70.6797
1596,61.6704
1597,61.6581
1598,64.9664
1599,69.832
1600,96.3331
1601,96.3244
1602,94.7359
1603,53.5974
1604,42.9025
1605,42.8979
1606,52.1839
1607,69.1786
1608,88.9521
1609,95.7542
1610,95.7552
1611,83.7714
1612,77.3849
1613,77.3894
1614,88.4927
1615,88.4997
1616,70.5749
1617,56.8678
1618,48.8193
1619,48.8314
1620,53.4891
1621,60.942
1622,60.9581
1623,43.222
1624,25.5732
1625,20.5781
1626,20.5996
1627,47.0331
1628,61.8756
1629,61.9013
1630,59.4831
1631,59.5117
1632,80.5026
1633,80.534
1634,64.0178
1635,64.0521
1636,74.2709
1637,74.308
1638,73.1645
1639,73.2046
1640,73.2462
1641,70.4331
1642,59.7802
1643,59.407
1644,59.4543
1645,52.9295
1646,52.9798
1647,67.3664
1648,67.4195
1649,48.9643
1650,38.9554
1651,39.0128
1652,46.0895
1653,62.8619
1654,78.1772
1655,93.4807
1656,108.275
1657,108.341
1658,57.3903
1659,32.5019
1660,32.5717
1661,42.569
1662,53.5283
1663,53.6021
1664,53.6771
1665,57.1028
1666,57.1804
1667,26.0142
1668,5.0048
1669,5.08602
1670,18.3013
1671,31.0903
1672,46.4189
1673,53.9076
1674,53.9946
1675,31.031
1676,23.3103
1677,23.4006
1678,31.1134
1679,31.2058
1680,15.913
1681,16.0073
1682,21.732
1683,29.3005
1684,29.8165
1685,44.2995
1686,44.3986
1687,36.5849
1688,33.6283
1689,33.7299
1690,65.6354
1691,90.6068
1692,90.7107
1693,61.8023
1694,39.9076
1695,28.3035
1696,17.4629
1697,17.5703
1698,31.0255
1699,34.4726
1700,34.5817
1701,26.3217
1702,24.6614
1703,24.7719
1704,19.347
1705,19.4583
1706,46.4805
1707,46.5926
1708,46.705
1709,49.682
1710,49.7949
1711,36.8369
1712,28.6275
1713,28.741
1714,39.0218
1715,48.6272
1716,48.7409
1717,40.183
1718,40.2631
1719,40.3769
1720,42.5804
1721,44.5837
1722,44.6972
1723,44.5976
1724,39.0879
1725,28.4481
1726,28.5606
1727,31.9671
1728,60.3976
1729,64.7954
1730,64.9064
1731,53.0051
1732,53.1151
1733,53.1415
1734,53.2503
1735,13.8329
1736,5.91889
1737,6.02565
1738,56.7689
1739,56.8741
1740,35.1693
1741,-2.13088
1742,-2.02841
1743,13.785
1744,34.3065
1745,52.5403
1746,52.6389
1747,40.8686
1748,40.9652
1749,44.3746
1750,59.5941
1751,59.6878
1752,48.1128
1753,36.5811
1754,22.5232
1755,17.4893
1756,17.5779
1757,33.4341
1758,39.2936
1759,41.1778
1760,41.2622
1761,32.2857
1762,28.8594
1763,28.9406
1764,58.7162
1765,58.7952
1766,46.7111
1767,45.7427
1768,45.8183
1769,38.0143
1770,37.8995
1771,37.9715
1772,47.1641
1773,47.2338
1774,38.1101
1775,23.8021
1776,23.868
1777,41.5297
1778,73.7037
1779,73.7658
1780,51.6978
1781,23.6154
1782,-2.76229
1783,-2.7056
1784,6.04767
1785,34.8194
1786,51.8587
1787,51.9102
1788,38.5971
1789,24.5012
1790,24.5491
1791,47.787
1792,55.9733
1793,56.0179
1794,49.732
1795,41.5024
1796,41.5441
1797,43.7427
1798,54.3873
1799,56.2916
1800,56.3299
1801,32.2373
1802,22.1015
1803,22.1374
1804,27.177
1805,29.857
1806,32.761
1807,35.7429
1808,73.6109
1809,73.643
1810,63.9254
1811,63.9564
1812,83.3567
1813,83.3868
1814,49.1564
1815,49.1856
1816,61.7087
1817,61.737
1818,30.6983
1819,30.7259
1820,35.4131
1821,65.7837
1822,65.8104
1823,68.8736
1824,69.4879
1825,83.4426
1826,83.4684
1827,79.2078
1828,36.2229
1829,36.2481
1830,33.8483
1831,33.8732
1832,33.898
1833,41.0785
1834,59.7588
1835,63.5775
1836,68.9534
1837,74.6557
1838,78.5478
1839,82.6481
1840,82.6722
1841,82.1048
1842,76.8234
1843,71.7041
1844,71.7282
1845,72.8115
1846,80.8909
1847,80.9149
1848,74.9221
1849,74.9462
