#wnum,raman
275,267.891
276,267.968
277,262.143
278,254.853
279,246.191
280,235.894
281,221.764
282,204.339
283,186.087
284,168.592
285,150.477
286,139.099
287,131.284
288,121.32
289,104.047
290,86.7866
291,75.3293
292,65.9723
293,57.8419
294,52.0071
295,44.2873
296,36.3455
297,28.5208
298,22.3525
299,18.1507
300,18.0057
301,18.0768
302,18.167
303,18.2369
304,8.55349
305,0.139066
306,-0.240473
307,-0.173637
308,1.55459
309,4.77711
310,4.84131
311,2.12158
312,-0.286859
313,-0.225564
314,2.62086
315,2.68007
316,0.200518
317,0.257535
318,0.429108
319,3.82606
320,5.43588
321,5.4882
322,5.25595
323,0.820038
324,-2.13855
325,-2.09135
326,2.29922
327,2.34379
328,1.23306
329,0.349713
330,0.390449
331,4.23699
332,5.50738
333,5.54443
334,5.58027
335,7.99832
336,11.0967
337,13.9013
338,16.6932
339,16.7233
340,10.2111
341,2.38808
342,2.41489
343,5.37945
344,7.72006
345,8.8457
346,9.58917
347,9.61081
348,9.63147
349,10.2413
350,14.2433
351,14.9395
352,14.9563
353,11.7994
354,10.726
355,10.7402
356,10.8994
357,11.3097
358,11.3213
359,10.4479
360,8.85517
361,8.86423
362,8.88685
363,9.58931
364,11.1267
365,11.1326
366,10.3907
367,5.89453
368,5.34427
369,5.34728
370,7.99107
371,9.95337
372,11.3244
373,11.3246
374,8.17586
375,7.07768
376,7.07603
377,9.1685
378,9.85737
379,9.9535
380,10.0898
381,12.2872
382,14.5371
383,14.5313
384,14.3818
385,12.4645
386,7.98907
387,4.80386
388,4.79552
389,5.1888
390,5.17949
391,2.36504
392,2.35479
393,3.24061
394,4.86401
395,4.85245
396,3.23115
397,3.21877
398,6.97969
399,10.7025
400,10.916
401,10.9021
402,10.1487
403,8.28322
404,6.65929
405,5.9232
406,5.18238
407,4.33978
408,3.50571
409,2.51236
410,1.27786
411,1.26074
412,4.98546
413,9.67553
414,9.65764
415,7.82683
416,7.80846
417,9.4707
418,12.0042
419,12.9717
420,12.9525
421,12.0703
422,8.1986
423,4.82155
424,4.63744
425,4.61734
426,5.79056
427,7.5543
428,10.3731
429,15.0302
430,15.0094
431,14.25
432,8.90248
433,7.59584
434,7.57464
435,8.5189
436,10.8762
437,10.8547
438,10.1821
439,6.33314
440,6.31152
441,8.04505
442,10.5791
443,13.8505
444,13.8288
445,12.3815
446,4.79274
447,4.13202
448,4.11019
449,7.22365
450,8.43902
451,9.5908
452,11.342
453,13.5706
454,15.3347
455,15.3573
456,15.3356
457,14.4103
458,13.373
459,13.3514
460,13.6202
461,14.4149
462,16.7155
463,16.6942
464,16.3873
465,12.6427
466,10.3146
467,9.85556
468,9.83463
469,10.2737
470,11.0459
471,14.9744
472,20.1225
473,20.1021
474,18.153
475,14.3525
476,11.0744
477,7.71922
478,3.87775
479,-0.173814
480,-0.193535
481,8.41474
482,13.7733
483,13.754
484,9.14808
485,9.12899
486,12.3721
487,13.9794
488,13.9607
489,13.1704
490,12.9431
491,12.9148
492,12.8968
493,13.4953
494,13.4776
495,12.4307
496,10.9783
497,10.3015
498,10.1046
499,10.0879
500,11.3209
501,11.3046
502,8.82565
503,7.50395
504,7.4882
505,11.1944
506,13.7862
507,14.7289
508,15.2329
509,15.2183
510,15.0696
511,13.0788
512,10.3777
513,9.84187
514,9.82833
515,10.7802
516,15.0918
517,18.1077
518,18.0951
519,14.4336
520,11.8723
521,11.0709
522,11.0592
523,14.3594
524,18.2908
525,18.2798
526,16.9367
527,15.5727
528,14.2447
529,12.8074
530,7.40901
531,5.1808
532,5.17146
533,12.115
534,12.1061
535,8.78601
536,8.77758
537,10.1653
538,14.515
539,14.5072
540,8.75064
541,8.74332
542,9.87542
543,13.4271
544,18.676
545,20.3279
546,20.3216
547,13.2506
548,6.94455
549,1.82098
550,1.81552
551,9.1637
552,18.3707
553,18.3658
554,11.2816
555,11.2771
556,15.2185
557,15.2143
558,12.5015
559,7.32208
560,7.31838
561,12.324
562,13.3561
563,13.3529
564,11.9284
565,8.82857
566,8.82573
567,9.73956
568,15.1933
569,15.1908
570,9.15901
571,9.15676
572,10.7001
573,13.8117
574,13.8098
575,12.0483
576,12.0464
577,16.8765
578,17.2515
579,17.2499
580,14.8099
581,8.63292
582,2.52239
583,2.52093
584,7.11231
585,10.6342
586,11.2878
587,11.7385
588,15.4477
589,18.8693
590,18.8679
591,16.7918
592,16.4809
593,16.4793
594,16.4777
595,14.5276
596,12.3198
597,10.6594
598,9.09029
599,9.08827
600,9.28148
601,9.5701
602,9.56773
603,9.38553
604,7.26719
605,4.89787
606,2.21686
607,-0.679896
608,-0.683216
609,3.54033
610,8.51154
611,12.5911
612,15.3277
613,15.3235
614,11.3384
615,9.56048
616,9.55577
617,10.0412
618,10.7368
619,11.4377
620,13.6329
621,15.4094
622,15.4038
623,10.9153
624,10.9094
625,12.6221
626,16.8378
627,17.5285
628,17.522
629,15.3844
630,11.1071
631,10.637
632,10.63
633,10.6229
634,7.81569
635,3.52273
636,1.05416
637,1.04658
638,1.03976
639,7.02167
640,11.8932
641,12.179
642,12.1708
643,11.7979
644,11.127
645,9.26556
646,6.66959
647,4.53593
648,3.39509
649,3.38607
650,6.28497
651,7.83
652,7.82062
653,6.73493
654,6.7253
655,15.9063
656,17.2672
657,17.2572
658,12.4863
659,7.51682
660,2.52879
661,2.51828
662,4.68029
663,6.13532
664,6.29129
665,6.43468
666,6.74911
667,7.12539
668,7.42706
669,7.70522
670,8.19696
671,8.18507
672,8.15031
673,4.31874
674,4.3064
675,4.84637
676,8.89746
677,10.3731
678,11.0561
679,11.4114
680,11.5012
681,11.6139
682,11.6002
683,11.446
684,7.01358
685,2.72218
686,2.70782
687,4.87896
688,7.36191
689,10.2953
690,10.2801
691,4.60134
692,1.22742
693,1.21168
694,5.7786
695,5.76243
696,5.36535
697,5.34874
698,8.11836
699,8.10129
700,7.52618
701,7.50863
702,8.98103
703,14.0136
704,13.9953
705,11.7349
706,10.0782
707,9.84561
708,9.17897
709,4.97739
710,3.91429
711,3.89409
712,8.21072
713,11.415
714,13.7861
715,14.3365
716,14.3147
717,13.439
718,10.7083
719,7.98831
720,7.41884
721,7.29703
722,4.25702
723,-0.893353
724,-0.917777
725,6.40665
726,10.2294
727,10.2039
728,7.24964
729,4.62149
730,3.73612
731,3.70944
732,8.20365
733,8.17642
734,3.76284
735,3.73511
736,4.58068
737,9.23835
738,9.20995
739,8.36578
740,6.14484
741,5.23659
742,5.20746
743,14.4308
744,16.2985
745,16.2689
746,13.6445
747,13.6147
748,15.0522
749,15.0222
750,11.6721
751,9.7234
752,9.69316
753,10.1302
754,14.8454
755,14.815
756,11.9062
757,4.2403
758,4.20986
759,6.94129
760,9.04919
761,10.5124
762,10.482
763,6.53011
764,4.29104
765,4.26075
766,5.64652
767,9.61439
768,10.0714
769,10.0413
770,0.353844
771,0.324012
772,1.05086
773,5.80549
774,9.81237
775,9.783
776,9.53966
777,6.26616
778,6.23721
779,10.5771
780,10.5485
781,6.92807
782,6.89979
783,7.95209
784,10.9868
785,10.9591
786,10.9316
787,11.1434
788,11.4674
789,11.7301
790,11.942
791,11.9156
792,11.458
793,10.9695
794,10.2592
795,9.57768
796,4.90709
797,0.873478
798,0.84893
799,3.89457
800,6.72948
801,9.35081
802,10.5654
803,10.5424
804,9.95957
805,8.68317
806,7.43913
807,7.41732
808,7.39584
809,6.64496
810,5.13773
811,5.11727
812,6.44016
813,6.51537
814,6.49597
815,5.60833
816,3.7957
817,3.77739
818,4.89545
819,8.78447
820,11.1217
821,12.1952
822,12.1788
823,9.35141
824,8.56751
825,8.55231
826,9.6748
827,10.048
828,10.4388
829,12.7017
830,15.3084
831,17.5636
832,17.5513
833,17.4417
834,9.21537
835,9.20435
836,10.4985
837,16.6394
838,17.9202
839,17.911
840,13.3842
841,6.70651
842,6.69856
843,10.9407
844,10.9336
845,-0.0223868
846,-0.0285536
847,1.3513
848,9.13138
849,15.4898
850,15.4854
851,15.2447
852,7.19078
853,7.18778
854,13.0986
855,13.0966
856,10.055
857,10.0538
858,15.4943
859,15.494
860,15.0006
861,9.23099
862,8.09669
863,8.09829
864,9.72513
865,13.021
866,16.5317
867,20.655
868,20.6589
869,17.9198
870,14.6703
871,14.6755
872,14.6812
873,9.92411
874,7.41925
875,7.42631
876,11.743
877,11.751
878,9.74891
879,9.15694
880,9.1662
881,9.63654
882,10.2217
883,10.9257
884,12.8675
885,13.4348
886,13.4467
887,13.1281
888,13.1408
889,14.0333
890,14.0467
891,9.02709
892,6.97132
893,6.98598
894,8.1826
895,11.179
896,13.1802
897,13.1963
898,12.2875
899,8.06827
900,7.35509
901,7.37275
902,14.9266
903,14.9449
904,13.9916
905,14.0106
906,14.9235
907,14.9433
908,14.0704
909,14.0907
910,16.8235
911,16.8445
912,9.4713
913,-0.37353
914,-0.351674
915,12.5019
916,13.956
917,13.9787
918,13.6116
919,13.6349
920,13.6585
921,13.4123
922,12.5881
923,9.94294
924,7.28376
925,7.30877
926,7.50599
927,11.6273
928,17.2249
929,17.251
930,14.4332
931,12.04
932,10.8101
933,10.8373
934,13.258
935,15.1449
936,15.173
937,14.773
938,13.6597
939,12.4672
940,12.1079
941,11.9877
942,10.8686
943,10.0163
944,10.0465
945,13.1916
946,13.2223
947,12.6711
948,12.7023
949,12.933
950,14.0301
951,14.4659
952,14.4981
953,11.153
954,6.90237
955,6.93518
956,7.54589
957,8.75971
958,10.1451
959,10.1788
960,9.51338
961,8.47952
962,7.39478
963,5.81545
964,1.92807
965,1.96281
966,7.34343
967,11.3324
968,11.3676
969,8.42054
970,8.45606
971,13.825
972,13.8608
973,10.2015
974,6.76847
975,3.52218
976,3.55847
977,6.54379
978,7.30111
979,7.3377
980,5.27856
981,0.768107
982,0.80494
983,4.41573
984,13.2742
985,15.8312
986,15.8683
987,15.4593
988,14.5629
989,14.6001
990,19.8446
991,23.8347
992,25.5282
993,25.5654
994,19.3613
995,14.0922
996,13.0885
997,13.1256
998,22.4408
999,32.0659
1000,39.3187
1001,40.1313
1002,40.1682
1003,30.5393
1004,24.6862
1005,20.5964
1006,20.1798
1007,19.2608
1008,17.7605
1009,10.2894
1010,10.3253
1011,10.44
1012,10.4755
1013,8.11277
1014,7.21152
1015,7.24637
1016,11.3815
1017,17.3468
1018,19.6444
1019,19.6782
1020,13.534
1021,9.86782
1022,7.22639
1023,5.07977
1024,5.11201
1025,5.33986
1026,11.5314
1027,12.3984
1028,12.4291
1029,10.5246
1030,9.70983
1031,9.73929
1032,14.0802
1033,15.171
1034,15.1991
1035,11.692
1036,9.69379
1037,8.85769
1038,8.88367
1039,8.9091
1040,6.93299
1041,-0.148742
1042,-0.125069
1043,3.95824
1044,3.98067
1045,-1.20966
1046,-1.18852
1047,8.86587
1048,16.4173
1049,16.4365
1050,15.7063
1051,11.6976
1052,11.715
1053,14.07
1054,16.3082
1055,16.3238
1056,12.7137
1057,12.7283
1058,12.7423
1059,9.40991
1060,2.05598
1061,2.06845
1062,5.55934
1063,5.57083
1064,4.65907
1065,2.96083
1066,2.7077
1067,2.71733
1068,8.90336
1069,14.0969
1070,16.3691
1071,16.3771
1072,7.43062
1073,1.11284
1074,1.11958
1075,3.47782
1076,11.526
1077,15.7056
1078,15.7108
1079,11.6148
1080,11.6194
1081,14.7961
1082,14.8001
1083,12.2602
1084,11.2436
1085,11.2466
1086,13.5698
1087,18.7792
1088,18.7814
1089,13.7725
1090,13.7741
1091,17.7613
1092,17.7625
1093,16.926
1094,12.3495
1095,7.38847
1096,7.38871
1097,7.91255
1098,12.5281
1099,13.6013
1100,14.8417
1101,18.915
1102,23.0966
1103,23.7533
1104,23.752
1105,17.6263
1106,9.44345
1107,9.4416
1108,13.16
1109,13.3938
1110,14.1185
1111,15.0928
1112,18.911
1113,21.2408
1114,21.966
1115,21.963
1116,21.6083
1117,19.7026
1118,15.0349
1119,15.0314
1120,15.8018
1121,19.3361
1122,21.8823
1123,21.8782
1124,19.5853
1125,15.0085
1126,8.83596
1127,6.85171
1128,6.84708
1129,9.33953
1130,9.33467
1131,5.71378
1132,3.60745
1133,1.97417
1134,1.26045
1135,1.25502
1136,2.70371
1137,5.66315
1138,9.1913
1139,12.4692
1140,12.4632
1141,7.76897
1142,7.76276
1143,15.2375
1144,15.231
1145,10.4672
1146,7.4252
1147,7.41842
1148,7.41152
1149,5.75507
1150,5.74794
1151,11.0437
1152,16.3321
1153,17.6657
1154,17.6581
1155,15.613
1156,12.768
1157,10.3505
1158,10.3423
1159,13.7415
1160,13.7331
1161,10.169
1162,-0.417006
1163,-0.42581
1164,2.51582
1165,3.69331
1166,4.43917
1167,4.7541
1168,4.97928
1169,10.577
1170,18.5986
1171,18.5888
1172,18.7261
1173,18.7161
1174,18.7061
1175,17.5146
1176,7.73328
1177,3.38236
1178,2.98113
1179,2.69486
1180,1.93582
1181,1.92531
1182,9.05612
1183,9.04552
1184,2.57986
1185,2.56918
1186,9.4274
1187,9.41665
1188,4.71974
1189,2.4974
1190,2.48659
1191,6.23198
1192,6.96316
1193,7.93
1194,10.7268
1195,10.7159
1196,6.57923
1197,4.45746
1198,4.44663
1199,4.55622
1200,4.54542
1201,4.15993
1202,4.14916
1203,7.57779
1204,11.2562
1205,14.9714
1206,16.7223
1207,16.7117
1208,13.0864
1209,7.5634
1210,7.5529
1211,7.54244
1212,6.91477
1213,6.90441
1214,11.8551
1215,24.3437
1216,24.3335
1217,20.9298
1218,17.712
1219,14.4275
1220,12.5208
1221,11.517
1222,7.94979
1223,2.87635
1224,1.93994
1225,1.84151
1226,1.83187
1227,1.8223
1228,4.3975
1229,11.0113
1230,11.0019
1231,5.03939
1232,5.03012
1233,5.91258
1234,8.35654
1235,10.6275
1236,10.6185
1237,10.5163
1238,10.5074
1239,11.4313
1240,11.4224
1241,9.7651
1242,6.34994
1243,0.329988
1244,0.321391
1245,7.53282
1246,15.3035
1247,22.132
1248,22.1236
1249,14.4424
1250,14.4341
1251,16.0074
1252,15.9992
1253,10.706
1254,10.6978
1255,13.2779
1256,18.2718
1257,18.546
1258,18.997
1259,18.989
1260,18.6512
1261,7.1784
1262,7.17043
1263,12.3619
1264,12.354
1265,7.59451
1266,1.68513
1267,1.67715
1268,5.14536
1269,8.93442
1270,12.7731
1271,16.7332
1272,16.7251
1273,15.8112
1274,12.6707
1275,12.6625
1276,12.8351
1277,18.1989
1278,18.1905
1279,11.7257
1280,11.7172
1281,12.8376
1282,14.9024
1283,14.8936
1284,10.7273
1285,10.7184
1286,11.4536
1287,17.206
1288,22.3745
1289,23.9263
1290,23.9167
1291,21.6984
1292,18.4255
1293,14.7532
1294,10.9866
1295,6.49296
1296,3.35712
1297,3.34637
1298,4.17997
1299,6.21815
1300,9.22479
1301,18.5378
1302,18.526
1303,17.4436
1304,13.6811
1305,13.6685
1306,13.6557
1307,9.17473
1308,3.43929
1309,-1.06739
1310,-1.08142
1311,9.59229
1312,15.1758
1313,15.1609
1314,10.7716
1315,4.61053
1316,4.59482
1317,5.85369
1318,11.6282
1319,19.6447
1320,20.7727
1321,20.7559
1322,16.5786
1323,12.8439
1324,9.85717
1325,9.48414
1326,9.46654
1327,11.5434
1328,13.3377
1329,14.4363
1330,14.4183
1331,13.0162
1332,12.9834
1333,12.1258
1334,10.7211
1335,1.89329
1336,1.87479
1337,8.34611
1338,15.6151
1339,20.0556
1340,20.037
1341,11.9734
1342,11.9548
1343,17.1112
1344,17.0926
1345,7.39262
1346,7.3741
1347,16.809
1348,22.3415
1349,22.3231
1350,19.9883
1351,14.3267
1352,14.2579
1353,12.7285
1354,12.7106
1355,8.48115
1356,8.46336
1357,10.2694
1358,11.3031
1359,11.3137
1360,11.2964
1361,11.2792
1362,11.319
1363,12.1089
1364,12.0921
1365,11.2133
1366,11.1812
1367,11.1649
1368,15.1739
1369,15.3483
1370,15.3326
1371,14.2889
1372,14.2735
1373,16.3917
1374,16.3766
1375,10.3921
1376,10.3774
1377,14.8618
1378,20.6961
1379,20.682
1380,18.8869
1381,11.1054
1382,11.092
1383,11.0548
1384,10.0355
1385,8.7901
1386,5.81876
1387,3.13571
1388,2.79616
1389,2.78435
1390,11.9407
1391,20.1612
1392,25.2439
1393,25.2331
1394,15.9688
1395,8.79746
1396,8.78734
1397,8.97175
1398,10.8045
1399,13.8424
1400,18.4754
1401,19.6488
1402,19.6402
1403,15.7686
1404,8.89782
1405,5.36265
1406,5.355
1407,9.23905
1408,17.3907
1409,17.3838
1410,15.4072
1411,15.4008
1412,16.7439
1413,16.7379
1414,14.8037
1415,6.44235
1416,6.00356
1417,5.99857
1418,18.3912
1419,18.3866
1420,17.2715
1421,12.2228
1422,9.83008
1423,9.82645
1424,9.82305
1425,9.57082
1426,9.56784
1427,13.4254
1428,13.4228
1429,13.1303
1430,10.0821
1431,7.86621
1432,7.86444
1433,13.3497
1434,13.957
1435,15.3282
1436,15.3272
1437,21.1292
1438,21.1285
1439,20.6596
1440,18.0558
1441,15.5821
1442,15.582
1443,15.5821
1444,11.1916
1445,-0.630093
1446,-0.629586
1447,4.04609
1448,10.986
1449,18.2039
1450,25.2782
1451,25.2795
1452,23.741
1453,23.7425
1454,24.7529
1455,24.7548
1456,23.6908
1457,16.5139
1458,13.6689
1459,12.5376
1460,11.8183
1461,11.6443
1462,6.95461
1463,6.95814
1464,7.76327
1465,11.7235
1466,16.5716
1467,16.5761
1468,11.3914
1469,11.3963
1470,14.6419
1471,15.4984
1472,15.6662
1473,18.6282
1474,18.6344
1475,15.2458
1476,6.66252
1477,2.48892
1478,2.49616
1479,9.27844
1480,16.791
1481,16.7991
1482,15.6357
1483,15.3289
1484,14.7882
1485,13.2391
1486,13.2486
1487,17.379
1488,17.3891
1489,17.1085
1490,12.4187
1491,5.34266
1492,5.35383
1493,8.88328
1494,8.89503
1495,5.03838
1496,4.77875
1497,4.79136
1498,7.03111
1499,7.04429
1500,5.5742
1501,3.21349
1502,3.22753
1503,6.00116
1504,14.4455
1505,14.4604
1506,6.59537
1507,6.61085
1508,8.3149
1509,8.33095
1510,3.57856
1511,3.59517
1512,5.36931
1513,7.83097
1514,7.84842
1515,4.18045
1516,3.51356
1517,3.53184
1518,11.1807
1519,11.1996
1520,8.15722
1521,8.1766
1522,11.0676
1523,15.6803
1524,15.7005
1525,15.4102
1526,11.784
1527,10.5519
1528,10.5731
1529,22.1829
1530,26.3205
1531,26.3425
1532,18.7608
1533,11.5494
1534,11.5721
1535,18.7615
1536,18.7847
1537,9.53626
1538,2.87948
1539,2.90332
1540,7.55131
1541,17.781
1542,22.5967
1543,22.6213
1544,22.451
1545,18.7274
1546,14.1329
1547,14.1583
1548,21.2634
1549,21.2892
1550,17.3917
1551,14.7672
1552,14.7935
1553,18.3779
1554,21.3327
1555,21.3594
1556,21.3862
1557,21.7755
1558,23.3128
1559,23.3399
1560,23.3671
1561,26.5408
1562,26.5681
1563,24.8557
1564,24.8832
1565,27.2141
1566,27.2417
1567,23.8783
1568,19.3085
1569,17.6405
1570,17.6681
1571,17.6958
1572,14.0908
1573,14.0826
1574,14.1101
1575,14.1376
1576,11.155
1577,11.1824
1578,19.3509
1579,26.6978
1580,30.3801
1581,30.407
1582,27.8567
1583,23.9596
1584,19.121
1585,15.7347
1586,12.746
1587,12.7719
1588,13.1518
1589,15.6055
1590,15.6307
1591,8.52862
1592,8.55333
1593,13.1623
1594,13.1864
1595,9.14601
1596,9.16949
1597,16.048
1598,16.0708
1599,14.021
1600,7.99304
1601,1.4282
1602,-0.29133
1603,-0.896662
1604,-0.876358
1605,1.70319
1606,10.3524
1607,10.3714
1608,9.94631
1609,9.9644
1610,12.4256
1611,13.9655
1612,13.9824
1613,8.39776
1614,8.41377
1615,9.98055
1616,14.7149
1617,14.7297
1618,14.7441
1619,19.3651
1620,19.3787
1621,15.7314
1622,12.195
1623,11.9288
1624,8.4647
1625,5.57125
1626,5.58264
1627,10.7967
1628,11.924
1629,12.9848
1630,17.9399
1631,18.1091
1632,18.1183
1633,16.0544
1634,16.0357
1635,14.514
1636,11.2657
1637,8.28489
1638,8.29206
1639,10.0286
1640,15.8717
1641,15.8778
1642,15.2366
1643,14.0876
1644,12.7856
1645,12.7904
1646,14.6364
1647,23.1033
1648,23.1071
1649,16.1374
1650,13.6476
1651,13.0607
1652,10.1202
1653,10.1222
1654,17.7951
1655,17.8679
1656,17.8689
1657,12.9834
1658,12.2667
1659,11.1146
1660,8.07996
1661,8.07924
1662,14.3224
1663,19.1588
1664,19.157
1665,14.1103
1666,4.24757
1667,1.05045
1668,-0.441276
1669,-0.444923
1670,4.40211
1671,12.7355
1672,12.7308
1673,11.4533
1674,11.4478
1675,21.917
1676,21.9109
1677,12.8429
1678,5.64513
1679,5.63799
1680,6.06229
1681,10.3063
1682,12.1777
1683,12.1693
1684,6.86814
1685,6.85914
1686,8.96033
1687,12.1999
1688,14.3088
1689,14.2986
1690,14.2882
1691,15.4379
1692,18.7536
1693,22.3814
1694,22.3699
1695,22.3506
1696,22.3386
1697,22.3263
1698,20.6948
1699,7.40057
1700,7.14017
1701,7.12685
1702,2.32952
1703,2.3157
1704,2.51953
1705,9.13581
1706,18.4738
1707,25.7066
1708,25.6915
1709,24.5664
1710,24.5509
1711,30.5527
1712,30.5367
1713,17.1374
1714,8.46746
1715,8.45076
1716,15.4798
1717,21.9132
1718,21.8958
1719,17.2552
1720,17.2373
1721,17.2191
1722,2.79599
1723,2.77735
1724,6.83738
1725,15.0556
1726,22.3733
1727,22.3536
1728,19.3747
1729,14.8031
1730,10.1391
1731,6.03569
1732,6.01472
1733,17.2639
1734,17.2423
1735,18.24
1736,18.218
1737,21.6526
1738,21.6299
1739,21.607
1740,26.5617
1741,26.5382
1742,23.0888
1743,16.1677
1744,7.78284
1745,7.75803
1746,11.592
1747,16.3517
1748,16.3259
1749,6.79576
1750,6.76925
1751,13.6823
1752,20.5784
1753,20.5508
1754,19.7063
1755,15.6519
1756,11.2556
1757,7.14782
1758,7.11826
1759,8.04056
1760,18.7168
1761,20.3698
1762,20.3386
1763,17.4295
1764,14.3754
1765,12.1605
1766,10.0396
1767,7.79403
1768,6.3265
1769,6.2237
1770,3.65641
1771,-0.99302
1772,-1.02906
1773,2.65967
1774,8.87217
1775,8.83462
1776,2.09678
1777,2.05827
1778,17.371
1779,17.3316
1780,13.3787
1781,13.3384
1782,13.2977
1783,8.07466
1784,0.172043
1785,0.130162
1786,3.65725
1787,9.35342
1788,14.9504
1789,17.0206
1790,16.977
1791,16.933
1792,24.8818
1793,32.7933
1794,32.7484
1795,26.3786
1796,14.4579
1797,7.79782
1798,7.34322
1799,7.29699
1800,7.25052
1801,6.26481
1802,6.21787
1803,16.3442
1804,16.501
1805,16.4535
1806,7.92964
1807,2.21586
1808,2.16771
1809,3.77036
1810,5.00615
1811,4.95751
1812,12.3745
1813,18.9863
1814,18.9372
1815,17.0732
1816,14.9608
1817,14.9113
1818,14.8618
1819,10.5714
1820,6.93029
1821,6.3679
1822,1.69968
1823,1.64963
1824,6.01736
1825,15.0193
1826,14.9692
1827,22.7999
1828,37.9891
1829,37.9387
1830,25.0771
1831,25.0266
1832,24.976
1833,17.4743
1834,17.4237
1835,23.4462
1836,23.3955
1837,23.7899
1838,23.8365
1839,23.7858
1840,23.1455
1841,14.118
1842,6.46248
1843,6.41171
1844,27.415
1845,27.3642
1846,23.9182
1847,23.8674
1848,26.2795
1849,28.4265
