#wnum,raman
275,2134.32
276,2136.57
277,2007.58
278,1866.77
279,1740.49
280,1619.62
281,1506.5
282,1402.84
283,1305.51
284,1225.79
285,1149.58
286,1083.46
287,1027.84
288,967.741
289,880.703
290,792.486
291,731.234
292,690.036
293,646.177
294,577.884
295,520.938
296,480.422
297,453.995
298,428.103
299,398.084
300,368.075
301,350.715
302,338.26
303,325.734
304,308.378
305,290.004
306,279.206
307,268.137
308,248.28
309,217.102
310,184.764
311,168.974
312,153.377
313,134.683
314,117.225
315,102.946
316,95.317
317,87.04
318,83.4176
319,83.3621
320,80.9554
321,68.3397
322,55.7429
323,57.7699
324,59.7169
325,56.2602
326,36.4667
327,35.8108
328,37.7763
329,53.4929
330,55.4316
331,38.8287
332,28.3036
333,30.1995
334,35.1517
335,38.8677
336,40.7179
337,39.9381
338,23.9213
339,6.91318
340,8.69788
341,11.5859
342,13.3359
343,7.86713
344,2.0512
345,-10.2373
346,-17.0904
347,-15.4329
348,0.692979
349,3.6307
350,5.23111
351,4.35418
352,5.91702
353,17.1598
354,18.6854
355,9.32785
356,7.56866
357,9.0393
358,12.099
359,13.5334
360,-1.25505
361,0.143577
362,3.40577
363,17.7082
364,26.1061
365,29.8546
366,31.1656
367,16.2386
368,6.93045
369,8.19016
370,16.7594
371,17.9854
372,7.35424
373,8.5471
374,13.1081
375,26.1
376,30.3693
377,31.497
378,31.4315
379,29.6874
380,27.7161
381,23.3765
382,18.936
383,19.9692
384,21.7055
385,23.968
386,25.66
387,26.6323
388,24.0461
389,18.5797
390,15.0295
391,14.9202
392,14.4892
393,9.79614
394,4.63913
395,1.00718
396,-1.67816
397,-0.850732
398,6.17771
399,15.044
400,18.1129
401,18.8855
402,18.9127
403,13.7583
404,14.4911
405,32.53
406,57.0229
407,57.717
408,53.5048
409,54.1738
410,58.9699
411,59.6142
412,55.2208
413,38.9029
414,39.5113
415,64.5945
416,70.5295
417,71.103
418,54.8585
419,55.4092
420,60.7181
421,61.2467
422,57.7863
423,58.2931
424,61.0693
425,72.2902
426,74.7341
427,75.1989
428,73.2921
429,73.5786
430,73.1471
431,70.4287
432,68.6533
433,69.0585
434,73.0783
435,75.9499
436,77.4196
437,77.7873
438,75.0731
439,63.8155
440,64.1562
441,70.6321
442,73.4676
443,73.7822
444,65.2394
445,60.5614
446,60.8508
447,61.9666
448,75.1372
449,87.1517
450,97.3466
451,108.908
452,116.262
453,116.497
454,114.905
455,115.124
456,115.336
457,113.7
458,107.877
459,102.645
460,102.828
461,102.384
462,91.486
463,79.6311
464,76.3805
465,76.5308
466,79.6256
467,89.8151
468,98.2568
469,98.3819
470,96.3028
471,93.7309
472,90.1944
473,84.7398
474,72.7304
475,62.7879
476,62.8718
477,67.7049
478,69.3997
479,69.467
480,68.6557
481,64.3796
482,60.6842
483,60.7305
484,60.7717
485,60.2701
486,47.218
487,35.6668
488,35.6883
489,38.0516
490,47.6785
491,59.6411
492,59.6439
493,49.3661
494,36.0399
495,31.5452
496,29.0153
497,28.9963
498,34.6741
499,39.3896
500,40.23
501,40.331
502,42.8954
503,46.0683
504,46.0213
505,45.272
506,45.2176
507,47.0427
508,46.981
509,42.2759
510,31.3963
511,31.3243
512,39.6026
513,48.7536
514,49.8612
515,50.1331
516,54.9867
517,58.8142
518,58.7198
519,45.388
520,45.2877
521,49.8636
522,63.6019
523,63.4932
524,61.8433
525,58.4782
526,53.2961
527,53.1769
528,54.3834
529,54.2591
530,50.2471
531,35.2097
532,35.0783
533,36.0207
534,35.8847
535,30.8847
536,24.4705
537,24.3281
538,30.5441
539,34.0441
540,34.3668
541,36.1233
542,40.8482
543,40.694
544,29.0061
545,11.0158
546,10.8564
547,26.8657
548,40.4583
549,43.0979
550,43.1311
551,42.9636
552,37.9152
553,37.7448
554,44.1643
555,43.9912
556,39.0861
557,38.9103
558,43.9201
559,57.1592
560,67.4922
561,75.6857
562,75.504
563,63.0051
564,53.1101
565,52.9253
566,52.7395
567,49.2046
568,29.7007
569,29.5121
570,57.8614
571,80.4528
572,80.2618
573,65.1186
574,61.7489
575,59.8234
576,58.8019
577,43.4445
578,42.4246
579,42.2288
580,51.2302
581,51.0333
582,35.087
583,34.889
584,38.4905
585,38.2915
586,30.694
587,30.4942
588,32.7995
589,59.7304
590,77.1414
591,83.6797
592,83.478
593,78.4908
594,73.6421
595,73.4396
596,73.2368
597,70.0036
598,48.1054
599,32.4702
600,31.8142
601,31.6104
602,31.441
603,32.4286
604,45.7338
605,64.6553
606,69.4767
607,69.2721
608,69.0673
609,70.288
610,70.0831
611,64.8631
612,40.4528
613,40.2477
614,58.9294
615,79.5655
616,84.8317
617,84.6264
618,84.4009
619,82.2665
620,82.0611
621,102.593
622,102.388
623,82.9347
624,55.1682
625,45.6457
626,36.4138
627,36.2082
628,38.2567
629,47.8729
630,63.8797
631,63.6739
632,40.3874
633,11.9125
634,11.7065
635,23.5439
636,23.3378
637,15.255
638,15.0487
639,15.2371
640,21.2111
641,29.4712
642,29.5951
643,29.3881
644,11.741
645,5.90072
646,5.69324
647,11.5238
648,34.256
649,56.5015
650,59.0171
651,58.8087
652,48.7572
653,30.7784
654,16.8151
655,12.1966
656,11.9869
657,17.7109
658,23.2031
659,22.9924
660,9.82112
661,7.52952
662,7.31783
663,12.623
664,22.0519
665,31.5024
666,38.2765
667,42.1852
668,41.971
669,33.4601
670,25.6003
671,17.9867
672,10.1573
673,1.90616
674,1.68907
675,3.66229
676,17.9876
677,25.6025
678,25.7287
679,25.7861
680,29.7798
681,33.2734
682,33.0514
683,31.4388
684,24.1158
685,16.8766
686,16.6518
687,27.9332
688,27.7068
689,25.2799
690,18.7939
691,18.5651
692,22.2933
693,25.5713
694,28.5519
695,28.3195
696,24.7164
697,17.8439
698,0.43951
699,-4.89451
700,-5.13186
701,9.81355
702,26.0393
703,42.5659
704,44.6578
705,44.4162
706,44.174
707,44.8572
708,49.3336
709,50.6549
710,50.411
711,48.0191
712,41.098
713,35.6006
714,35.1775
715,34.9331
716,51.5593
717,51.3153
718,43.4302
719,23.0235
720,22.7805
721,59.5325
722,59.2905
723,53.8424
724,34.5418
725,28.7796
726,27.4346
727,27.1965
728,32.0605
729,38.6393
730,46.9479
731,51.3182
732,51.9211
733,53.4774
734,77.8349
735,101.955
736,114.942
737,126.816
738,126.592
739,124.647
740,124.426
741,133.15
742,140.33
743,141.92
744,141.707
745,132.186
746,128.614
747,128.407
748,144.852
749,145.935
750,145.735
751,145.537
752,152.575
753,152.382
754,135.025
755,106.891
756,87.4688
757,71.1027
758,70.9221
759,79.2437
760,79.0684
761,64.7299
762,56.533
763,56.3658
764,57.9473
765,57.7857
766,51.6979
767,51.5419
768,56.5227
769,56.5005
770,56.3533
771,53.318
772,46.3781
773,39.6524
774,30.199
775,27.1283
776,26.9993
777,41.3639
778,53.7459
779,63.7439
780,73.1509
781,80.6512
782,80.5413
783,63.485
784,40.0176
785,39.9175
786,47.0884
787,46.995
788,40.2705
789,40.1837
790,54.9945
791,54.9146
792,53.9258
793,49.303
794,49.2334
795,57.5464
796,64.1919
797,70.4009
798,70.3453
799,64.9494
800,59.4243
801,52.4778
802,52.4363
803,81.86
804,97.5288
805,97.498
806,74.5899
807,74.5663
808,92.063
809,92.0466
810,75.8729
811,75.8638
812,82.4164
813,82.4145
814,69.8167
815,50.1599
816,50.1689
817,68.6982
818,76.6126
819,77.3501
820,88.9398
821,117.197
822,137.808
823,137.842
824,137.88
825,147.423
826,159.833
827,162.859
828,163.845
829,168.687
830,175.351
831,180.847
832,187.808
833,187.878
834,172.021
835,152.678
836,147.167
837,145.931
838,146.018
839,146.108
840,142.274
841,122.655
842,109.197
843,105.437
844,105.542
845,108.902
846,109.014
847,106.933
848,100.797
849,100.918
850,100.564
851,91.7845
852,80.7149
853,80.8469
854,106.79
855,127.991
856,131.339
857,133.771
858,138.038
859,140.719
860,141.783
861,141.935
862,130.849
863,111.361
864,111.52
865,113.592
866,113.754
867,94.2543
868,77.0463
869,74.2093
870,71.343
871,54.0711
872,51.0575
873,51.2324
874,75.213
875,75.3908
876,72.913
877,66.823
878,65.3074
879,65.4901
880,75.089
881,75.2736
882,61.4504
883,40.0311
884,24.2598
885,18.5214
886,18.7098
887,40.0618
888,40.2511
889,28.929
890,20.9939
891,20.4345
892,20.6247
893,11.9803
894,12.1706
895,17.0347
896,31.1431
897,36.9901
898,40.5128
899,56.5087
900,78.2324
901,78.4201
902,50.0617
903,50.2479
904,70.6243
905,70.8088
906,62.8598
907,32.0905
908,27.4605
909,22.4328
910,9.94619
911,3.50836
912,3.68385
913,22.1959
914,36.1167
915,45.7419
916,46.4484
917,46.6149
918,39.0266
919,20.2928
920,19.5753
921,19.733
922,21.2025
923,21.3553
924,3.20439
925,3.35189
926,27.8682
927,28.0101
928,25.0188
929,20.1772
930,20.3099
931,21.218
932,22.6859
933,22.8086
934,14.2843
935,14.3999
936,37.9936
937,55.2532
938,55.3575
939,15.6709
940,-1.78193
941,-1.68988
942,2.24725
943,17.7553
944,32.5092
945,42.6164
946,42.6867
947,10.5639
948,-10.65
949,-10.5935
950,4.36386
951,14.7451
952,24.6491
953,36.2973
954,49.7378
955,57.6763
956,57.7036
957,53.7365
958,43.9891
959,38.4017
960,38.4158
961,38.4268
962,37.6648
963,37.6704
964,57.5964
965,66.2378
966,66.2363
967,46.5254
968,33.2194
969,23.4759
970,23.4668
971,25.29
972,35.5604
973,56.5198
974,75.4133
975,88.1236
976,88.1076
977,73.0261
978,48.0026
979,47.985
980,48.0167
981,77.5172
982,112.396
983,125.652
984,128.427
985,138.981
986,154.33
987,181.571
988,224.967
989,271.696
990,317.622
991,361.219
992,392.726
993,424.515
994,464.003
995,497.074
996,518.527
997,542.854
998,558.498
999,566.522
1000,605.558
1001,664.491
1002,702.025
1003,702.036
1004,700.714
1005,642.64
1006,571.482
1007,495.446
1008,423.164
1009,366.354
1010,314.932
1011,277.002
1012,239.849
1013,201.252
1014,162.815
1015,151.565
1016,143.377
1017,134.993
1018,127.513
1019,127.565
1020,130.829
1021,138.923
1022,149.951
1023,170.604
1024,207.47
1025,230.758
1026,231.877
1027,231.951
1028,249.809
1029,260.66
1030,265.003
1031,274.928
1032,275.014
1033,269.35
1034,250.681
1035,234.132
1036,207.811
1037,178.043
1038,156.624
1039,142.126
1040,123.634
1041,98.6259
1042,73.1027
1043,45.7961
1044,39.4435
1045,39.5594
1046,44.2017
1047,44.3214
1048,39.1836
1049,17.9992
1050,15.6308
1051,15.7578
1052,26.6622
1053,26.7925
1054,21.7329
1055,21.8663
1056,42.9494
1057,43.0857
1058,16.9288
1059,17.0678
1060,19.5787
1061,26.2906
1062,30.2681
1063,35.2049
1064,41.2858
1065,47.4829
1066,48.26
1067,48.4078
1068,44.2184
1069,44.3678
1070,53.734
1071,53.8849
1072,43.572
1073,19.3041
1074,19.4566
1075,33.0225
1076,42.7368
1077,51.9479
1078,61.6327
1079,62.7441
1080,62.8985
1081,44.1979
1082,44.3525
1083,48.0077
1084,56.8618
1085,65.5492
1086,65.7033
1087,47.2352
1088,47.3887
1089,59.7406
1090,59.8932
1091,54.3373
1092,42.1464
1093,42.2973
1094,42.9938
1095,43.1431
1096,41.3216
1097,41.4692
1098,56.0256
1099,56.1711
1100,55.276
1101,45.0281
1102,35.9763
1103,36.1169
1104,45.798
1105,45.9356
1106,32.5648
1107,32.6991
1108,47.1339
1109,56.7711
1110,57.501
1111,61.7596
1112,72.3277
1113,72.4507
1114,62.6949
1115,62.3827
1116,62.4989
1117,62.6128
1118,48.1559
1119,34.3818
1120,34.488
1121,44.1104
1122,46.8856
1123,46.9834
1124,37.7994
1125,30.8663
1126,30.9549
1127,44.6342
1128,57.3536
1129,68.5797
1130,68.655
1131,66.3412
1132,62.3176
1133,60.4226
1134,49.3121
1135,24.8042
1136,24.8569
1137,56.7842
1138,56.8287
1139,28.3341
1140,-1.06476
1141,-8.08222
1142,-8.05527
1143,11.7972
1144,19.7088
1145,19.7225
1146,19.7319
1147,31.6252
1148,50.0784
1149,51.6834
1150,51.6766
1151,35.8659
1152,35.8514
1153,36.1381
1154,55.9463
1155,60.7618
1156,62.4804
1157,62.8454
1158,62.8099
1159,56.6866
1160,49.2253
1161,49.1803
1162,57.4874
1163,63.8993
1164,63.8454
1165,58.4786
1166,36.9278
1167,36.8658
1168,51.9866
1169,65.5993
1170,73.7496
1171,79.4965
1172,82.6134
1173,87.3883
1174,93.1325
1175,93.0517
1176,89.9039
1177,89.8191
1178,99.325
1179,107.188
1180,107.211
1181,107.006
1182,101.721
1183,94.3136
1184,79.689
1185,66.1901
1186,62.8504
1187,62.7492
1188,68.2508
1189,68.1469
1190,53.8396
1191,31.377
1192,31.2697
1193,31.1612
1194,25.0426
1195,18.7005
1196,18.5891
1197,25.5982
1198,26.8702
1199,27.0989
1200,37.419
1201,45.8839
1202,45.7681
1203,45.6516
1204,53.5568
1205,83.2709
1206,93.1017
1207,92.9834
1208,88.9431
1209,80.4593
1210,80.3402
1211,82.9916
1212,90.0741
1213,98.9659
1214,98.8461
1215,91.0625
1216,84.0361
1217,79.904
1218,74.3255
1219,64.9909
1220,64.8713
1221,79.478
1222,84.7987
1223,84.6797
1224,77.9439
1225,65.8248
1226,65.7067
1227,75.4671
1228,75.3497
1229,62.6975
1230,42.9492
1231,21.6937
1232,6.59083
1233,6.47576
1234,7.02752
1235,25.0882
1236,37.9924
1237,38.3166
1238,38.2045
1239,50.6838
1240,64.465
1241,79.609
1242,79.4996
1243,68.8045
1244,55.4697
1245,55.3627
1246,55.2566
1247,39.9712
1248,37.855
1249,37.7514
1250,42.1711
1251,42.0693
1252,34.0613
1253,13.8153
1254,13.7164
1255,16.7347
1256,34.6128
1257,34.5169
1258,34.4221
1259,48.2959
1260,48.2031
1261,44.4906
1262,23.1901
1263,12.1034
1264,12.015
1265,22.2852
1266,44.0547
1267,56.07
1268,67.7255
1269,72.2784
1270,72.1971
1271,47.4647
1272,15.8841
1273,11.3435
1274,11.2671
1275,40.1067
1276,71.0633
1277,70.9907
1278,63.2147
1279,55.1639
1280,47.2263
1281,27.3911
1282,27.3249
1283,28.8361
1284,56.1494
1285,56.0872
1286,56.9511
1287,60.19
1288,60.1318
1289,50.5068
1290,30.4657
1291,23.7282
1292,23.6753
1293,29.612
1294,38.9755
1295,38.9266
1296,38.5228
1297,38.4766
1298,44.1555
1299,60.3107
1300,76.307
1301,76.2663
1302,71.9602
1303,60.0433
1304,51.3864
1305,51.3509
1306,57.106
1307,60.766
1308,63.7994
1309,73.6796
1310,73.6506
1311,66.5781
1312,48.1694
1313,46.0418
1314,46.0179
1315,51.7102
1316,51.6888
1317,35.1978
1318,35.1788
1319,51.5283
1320,86.9651
1321,86.9497
1322,79.2214
1323,60.9962
1324,60.9842
1325,68.5015
1326,72.9928
1327,72.9841
1328,57.4593
1329,57.4526
1330,61.8906
1331,71.5078
1332,80.9991
1333,88.1629
1334,89.6428
1335,89.6419
1336,84.5883
1337,78.3526
1338,73.1673
1339,69.8029
1340,69.8062
1341,71.8901
1342,77.374
1343,77.3794
1344,76.865
1345,61.2971
1346,47.7988
1347,43.1129
1348,43.1212
1349,50.4454
1350,50.4547
1351,45.5851
1352,36.4978
1353,25.1905
1354,13.0059
1355,-0.766588
1356,-0.755296
1357,-0.483667
1358,13.7517
1359,41.1859
1360,41.3126
1361,41.3248
1362,41.3371
1363,42.8425
1364,47.252
1365,50.5982
1366,54.1183
1367,58.5938
1368,58.6065
1369,53.785
1370,47.5898
1371,47.6024
1372,50.7607
1373,61.5276
1374,61.54
1375,48.6243
1376,48.6364
1377,48.6482
1378,46.8471
1379,19.0945
1380,19.1056
1381,55.7687
1382,55.7792
1383,30.9748
1384,28.1584
1385,27.4188
1386,24.3405
1387,19.619
1388,15.8806
1389,15.8881
1390,24.7782
1391,36.2429
1392,47.4778
1393,59.8503
1394,72.8081
1395,75.2014
1396,75.2044
1397,67.5593
1398,66.6027
1399,64.6791
1400,60.0047
1401,60.0036
1402,75.8902
1403,75.8871
1404,63.8616
1405,63.8564
1406,93.8398
1407,93.8324
1408,81.0535
1409,63.7906
1410,59.0894
1411,59.0771
1412,58.4527
1413,46.0635
1414,16.4491
1415,16.4312
1416,50.0673
1417,58.1648
1418,58.1423
1419,27.7783
1420,-5.72695
1421,-5.75461
1422,21.887
1423,35.1631
1424,46.6765
1425,54.9783
1426,61.5965
1427,61.5594
1428,60.8378
1429,57.0506
1430,54.4921
1431,47.9108
1432,47.8677
1433,52.3744
1434,67.3392
1435,92.6455
1436,113.202
1437,117.458
1438,117.41
1439,115.986
1440,113.162
1441,112.752
1442,102.151
1443,73.5627
1444,64.7911
1445,64.7393
1446,91.936
1447,135.007
1448,134.954
1449,123.447
1450,123.394
1451,152.033
1452,163.575
1453,163.523
1454,147.811
1455,140.691
1456,140.639
1457,140.586
1458,132.012
1459,115.825
1460,115.774
1461,126.478
1462,131.178
1463,131.128
1464,133.674
1465,133.625
1466,188.639
1467,221.805
1468,221.757
1469,204.41
1470,195.87
1471,195.823
1472,203.707
1473,203.662
1474,203.617
1475,202.038
1476,201.994
1477,169.339
1478,129.576
1479,111.92
1480,98.5731
1481,98.4041
1482,98.3641
1483,98.5001
1484,98.4614
1485,63.3426
1486,60.1528
1487,60.1157
1488,60.0792
1489,54.9789
1490,46.0221
1491,44.7862
1492,44.7518
1493,44.7178
1494,49.2167
1495,72.3489
1496,72.3164
1497,52.9484
1498,52.9167
1499,57.634
1500,57.6031
1501,34.0748
1502,26.7187
1503,26.6888
1504,28.2212
1505,32.9601
1506,33.6734
1507,33.6447
1508,28.9676
1509,28.9394
1510,46.9526
1511,58.3249
1512,58.2973
1513,53.0978
1514,38.6046
1515,27.4303
1516,27.4031
1517,35.2423
1518,54.1123
1519,54.0852
1520,32.958
1521,32.9309
1522,30.4572
1523,26.8443
1524,22.0376
1525,22.01
1526,21.9823
1527,20.6382
1528,20.6101
1529,22.3754
1530,22.3468
1531,5.71048
1532,5.68122
1533,28.1292
1534,28.0992
1535,7.12356
1536,-1.76907
1537,-1.80037
1538,11.7877
1539,32.6558
1540,34.9343
1541,34.9012
1542,17.768
1543,17.734
1544,25.7177
1545,25.6828
1546,16.8048
1547,16.7691
1548,55.738
1549,55.7015
1550,28.4355
1551,28.3982
1552,37.2979
1553,37.2598
1554,-2.44265
1555,-2.48153
1556,10.4861
1557,24.1036
1558,38.2885
1559,46.4558
1560,47.4601
1561,47.4199
1562,41.6838
1563,29.9335
1564,29.8933
1565,61.7901
1566,61.7501
1567,29.8806
1568,29.8411
1569,47.7135
1570,80.4985
1571,102.817
1572,102.779
1573,78.3358
1574,62.5453
1575,62.5088
1576,86.3147
1577,128.922
1578,139.672
1579,151.738
1580,151.705
1581,141.259
1582,123.17
1583,111.93
1584,99.9627
1585,95.4907
1586,95.463
1587,120.695
1588,153.238
1589,172.639
1590,172.615
1591,145.712
1592,117.827
1593,117.807
1594,123.866
1595,123.848
1596,118.057
1597,118.041
1598,139.031
1599,174.291
1600,187.99
1601,187.979
1602,182.125
1603,169.374
1604,169.368
1605,169.362
1606,161.981
1607,147.005
1608,99.6882
1609,92.6518
1610,92.653
1611,109.995
1612,126.641
1613,126.646
1614,108.6
1615,102.608
1616,102.616
1617,117.431
1618,124.45
1619,124.463
1620,112.992
1621,96.3916
1622,92.9554
1623,90.9461
1624,90.9643
1625,69.0497
1626,69.07
1627,74.413
1628,74.4354
1629,58.4292
1630,58.4535
1631,91.5824
1632,91.6086
1633,74.524
1634,50.0951
1635,50.124
1636,69.6751
1637,69.7055
1638,71.6742
1639,71.7061
1640,74.0591
1641,74.0924
1642,74.1263
1643,74.8258
1644,74.8609
1645,74.4321
1646,60.707
1647,60.7435
1648,60.7805
1649,60.1725
1650,58.7797
1651,58.8177
1652,61.2343
1653,61.4213
1654,66.1985
1655,72.8411
1656,72.88
1657,72.9191
1658,75.0278
1659,80.511
1660,80.55
1661,80.1001
1662,55.4984
1663,35.0613
1664,19.407
1665,19.4449
1666,25.2764
1667,60.3818
1668,60.4185
1669,60.0048
1670,60.0404
1671,65.0006
1672,65.035
1673,55.6201
1674,34.5314
1675,22.342
1676,22.3733
1677,35.5262
1678,35.5555
1679,35.5838
1680,64.2075
1681,64.2336
1682,59.6703
1683,37.8911
1684,37.9134
1685,44.6892
1686,44.7087
1687,38.9133
1688,11.6448
1689,11.6598
1690,31.5979
1691,48.6715
1692,48.6813
1693,-5.68938
1694,-5.68324
1695,22.305
1696,60.2862
1697,67.0789
1698,67.0778
1699,19.9018
1700,19.8974
1701,30.5905
1702,67.4727
1703,79.6864
1704,79.676
1705,65.4988
1706,47.2234
1707,39.0432
1708,38.7939
1709,27.0674
1710,27.0494
1711,39.1016
1712,68.6412
1713,92.7909
1714,92.7688
1715,58.2552
1716,40.873
1717,38.761
1718,38.1991
1719,38.1728
1720,72.0174
1721,117.086
1722,117.057
1723,109.209
1724,57.5463
1725,43.3549
1726,43.3245
1727,62.5167
1728,74.6879
1729,74.6562
1730,56.6387
1731,56.6065
1732,62.508
1733,71.6979
1734,80.3117
1735,85.249
1736,86.6324
1737,86.5989
1738,81.8317
1739,75.5245
1740,66.1744
1741,66.1407
1742,70.4198
1743,70.3862
1744,28.3215
1745,28.0392
1746,28.0058
1747,61.1875
1748,79.0106
1749,78.9777
1750,55.5182
1751,55.4856
1752,55.4533
1753,40.5529
1754,30.9438
1755,30.9123
1756,37.4779
1757,46.0514
1758,56.9554
1759,58.9966
1760,58.9667
1761,44.4172
1762,18.3403
1763,18.3116
1764,28.1163
1765,45.5328
1766,64.1632
1767,82.1534
1768,82.127
1769,64.6337
1770,64.6082
1771,100.84
1772,100.815
1773,74.4209
1774,74.3975
1775,76.4593
1776,80.0356
1777,80.0138
1778,45.9787
1779,33.2707
1780,33.2506
1781,54.1567
1782,68.9606
1783,68.9423
1784,31.0957
1785,19.4856
1786,19.4689
1787,71.975
1788,81.8658
1789,81.8509
1790,75.3373
1791,73.5859
1792,70.5065
1793,64.9477
1794,57.2946
1795,57.2831
1796,61.9531
1797,75.8986
1798,95.7075
1799,95.6981
1800,77.0457
1801,64.4816
1802,53.2712
1803,46.1065
1804,46.0995
1805,48.0136
1806,48.0075
1807,41.1499
1808,41.1447
1809,55.3777
1810,88.3588
1811,88.3547
1812,45.5721
1813,45.5686
1814,66.6047
1815,91.4244
1816,91.4219
1817,65.7475
1818,49.7746
1819,49.7729
1820,69.7991
1821,99.3713
1822,99.3701
1823,102.088
1824,112.418
1825,112.417
1826,87.6414
1827,67.9664
1828,60.9765
1829,60.9756
1830,-2.07785
1831,-2.07884
1832,51.043
1833,80.9497
1834,80.9485
1835,74.4058
1836,56.8357
1837,55.5007
1838,53.4798
1839,53.4783
1840,58.0279
1841,78.4444
1842,78.4428
1843,76.9095
1844,22.3422
1845,22.3406
1846,63.5146
1847,63.513
1848,65.5704
1849,52.7998
