#wnum,raman
275,96.7044
276,96.7079
277,92.0581
278,86.9784
279,78.292
280,68.8489
281,64.2505
282,64.254
283,64.2574
284,61.6011
285,58.5268
286,51.434
287,41.1741
288,31.9209
289,30.4427
290,28.9717
291,26.2666
292,23.0402
293,19.46
294,14.1454
295,8.83331
296,7.78499
297,7.70531
298,7.59524
299,6.4724
300,5.4287
301,4.06429
302,2.71973
303,1.50995
304,0.441016
305,-0.372507
306,-0.372221
307,-0.167679
308,0.9256
309,2.64808
310,4.73438
311,8.62202
312,12.3818
313,12.3801
314,10.6388
315,10.5449
316,10.5424
317,11.4194
318,11.4163
319,11.4129
320,11.5874
321,12.4063
322,12.402
323,6.29528
324,-0.57049
325,-0.575773
326,3.02939
327,6.7408
328,9.10819
329,9.47848
330,9.47166
331,5.59416
332,5.30651
333,5.29887
334,7.10055
335,10.3834
336,13.8481
337,14.2163
338,14.2075
339,13.0854
340,10.9287
341,8.82899
342,7.37304
343,6.24444
344,6.23427
345,7.33949
346,7.32894
347,5.09523
348,-0.197846
349,-0.208912
350,5.24418
351,10.8404
352,10.8289
353,10.8036
354,10.7919
355,12.7336
356,12.7216
357,9.32744
358,6.86227
359,6.85002
360,11.0423
361,11.7553
362,11.7429
363,10.304
364,9.14833
365,9.07887
366,9.06633
367,12.1938
368,15.0147
369,16.5076
370,17.8987
371,17.8862
372,15.8672
373,15.7652
374,15.7528
375,16.6782
376,21.132
377,26.0591
378,26.047
379,21.8604
380,17.4447
381,15.961
382,14.6617
383,14.65
384,15.7323
385,16.9353
386,18.3399
387,18.3286
388,17.3056
389,14.382
390,11.7868
391,9.64646
392,9.16954
393,9.15909
394,10.3717
395,11.409
396,12.6125
397,15.3379
398,21.498
399,21.4885
400,15.2
401,0.784677
402,0.77567
403,6.86934
404,11.0455
405,11.037
406,11.0287
407,11.9481
408,17.5403
409,17.5325
410,10.2964
411,2.42558
412,1.03743
413,1.03048
414,3.71609
415,11.0224
416,16.6831
417,16.7804
418,16.671
419,12.1788
420,5.96089
421,5.59537
422,5.59025
423,8.06359
424,10.0098
425,11.5896
426,13.6606
427,16.4148
428,19.8525
429,24.2648
430,24.2613
431,20.3561
432,12.1302
433,11.7839
434,11.7813
435,13.9895
436,16.0924
437,16.0904
438,15.696
439,10.6815
440,7.5784
441,7.56196
442,7.55216
443,7.47538
444,7.39971
445,5.48485
446,2.6369
447,2.63678
448,3.49888
449,5.88527
450,9.7894
451,13.6461
452,13.6469
453,13.3525
454,13.3536
455,16.8015
456,17.8058
457,17.8074
458,13.1885
459,13.1904
460,13.4723
461,15.6101
462,18.3531
463,18.6717
464,18.6742
465,15.3884
466,12.282
467,9.278
468,8.1583
469,8.16137
470,10.5612
471,11.6598
472,11.6632
473,10.6687
474,5.70387
475,5.30416
476,5.30777
477,9.81961
478,9.82333
479,4.74855
480,0.570849
481,-0.426448
482,-0.422591
483,3.39187
484,9.46505
485,9.46898
486,3.72524
487,3.72924
488,6.61218
489,14.3115
490,17.2899
491,17.294
492,15.9116
493,9.3227
494,3.32362
495,2.55321
496,1.91944
497,1.04273
498,1.04718
499,2.29144
500,10.0609
501,11.875
502,11.8796
503,5.99094
504,5.99569
505,8.30615
506,8.311
507,8.3034
508,7.13725
509,4.87948
510,4.03662
511,4.04175
512,7.5295
513,7.53474
514,6.91017
515,6.91553
516,8.55694
517,10.6549
518,10.6605
519,5.60281
520,3.68193
521,3.68762
522,4.88948
523,5.21955
524,5.22539
525,3.98193
526,1.16104
527,1.16704
528,5.9372
529,6.22762
530,6.23376
531,2.03542
532,2.04165
533,8.63927
534,8.64559
535,8.41786
536,8.42426
537,8.54655
538,13.1271
539,13.1336
540,11.3723
541,9.39727
542,7.45351
543,7.20406
544,7.21074
545,7.21744
546,5.87107
547,0.166368
548,0.173135
549,5.95453
550,10.5163
551,10.5231
552,7.42475
553,4.05747
554,0.458923
555,0.465757
556,6.36486
557,10.9638
558,10.9707
559,9.04515
560,9.05195
561,10.1184
562,10.1252
563,9.38656
564,7.87991
565,5.63331
566,5.08324
567,5.08986
568,8.06946
569,8.076
570,6.80841
571,6.21765
572,6.22405
573,7.78612
574,7.93654
575,7.99426
576,8.2116
577,8.21766
578,8.16502
579,3.78356
580,3.12827
581,3.13399
582,8.24853
583,11.4369
584,12.9685
585,12.9738
586,8.22989
587,3.04675
588,2.33534
589,2.34014
590,4.88175
591,9.70209
592,9.70646
593,6.55676
594,5.96539
595,5.96928
596,9.49508
597,9.49863
598,5.52864
599,5.53182
600,8.90693
601,12.8829
602,13.5611
603,13.5635
604,12.1871
605,9.48496
606,9.48666
607,10.8422
608,10.8434
609,6.37093
610,3.01293
611,3.01338
612,5.47119
613,6.71281
614,7.10778
615,8.30367
616,11.3024
617,11.3012
618,7.18963
619,3.40786
620,3.4056
621,10.5158
622,10.5129
623,9.47723
624,5.9202
625,5.26499
626,4.71318
627,3.05986
628,3.05466
629,3.22316
630,8.91576
631,9.10055
632,9.0937
633,5.81472
634,4.65801
635,4.64982
636,7.61119
637,14.1254
638,18.7207
639,20.2575
640,20.2469
641,11.75
642,3.48009
643,3.46795
644,6.29509
645,6.28187
646,1.93753
647,1.92318
648,12.7254
649,17.059
650,17.0429
651,9.39725
652,3.45953
653,-1.29099
654,-1.30958
655,6.94618
656,14.4425
657,17.4721
658,17.4511
659,13.882
660,4.87688
661,1.82004
662,1.79681
663,3.61511
664,8.27302
665,11.7154
666,11.6902
667,11.014
668,9.9532
669,8.81995
670,8.79301
671,11.7527
672,14.7911
673,16.1432
674,17.0317
675,19.1937
676,21.4463
677,21.4168
678,21.2653
679,19.1755
680,17.081
681,15.1532
682,12.995
683,10.8504
684,9.13714
685,7.52555
686,6.69565
687,6.66372
688,7.36065
689,11.084
690,11.0515
691,10.5572
692,8.00756
693,7.97469
694,8.81034
695,8.77725
696,5.78332
697,5.75005
698,7.20818
699,8.28107
700,8.24762
701,8.21412
702,8.51804
703,11.284
704,11.3965
705,11.8965
706,11.863
707,15.7369
708,18.0554
709,18.0219
710,16.2767
711,11.8901
712,6.89923
713,6.86602
714,8.07577
715,9.85084
716,10.1602
717,10.1274
718,6.9397
719,6.19509
720,6.16265
721,11.057
722,11.0249
723,7.95963
724,7.92781
725,12.1734
726,12.1419
727,8.07834
728,2.62265
729,2.5918
730,10.7032
731,15.2455
732,15.5548
733,15.5248
734,7.08993
735,0.691515
736,0.66232
737,2.66425
738,10.5624
739,18.5145
740,18.4864
741,8.76825
742,6.35899
743,6.33179
744,8.19106
745,8.16449
746,8.13824
747,14.1916
748,22.6004
749,22.5752
750,15.5382
751,8.59303
752,2.09495
753,2.07111
754,4.96224
755,12.5319
756,12.5091
757,12.4434
758,12.4214
759,13.5277
760,13.5065
761,11.7131
762,11.6927
763,16.1242
764,16.1046
765,13.0657
766,4.89802
767,4.02817
768,4.0103
769,7.47353
770,13.6685
771,13.6519
772,8.18044
773,3.27224
774,3.257
775,5.25622
776,5.28623
777,5.27233
778,5.08952
779,5.07654
780,5.43202
781,7.03498
782,7.0234
783,4.73252
784,4.72187
785,8.11974
786,15.0302
787,17.3557
788,17.347
789,15.0968
790,8.85005
791,8.84276
792,16.9823
793,21.2619
794,21.2561
795,17.1494
796,13.7357
797,10.3836
798,10.3797
799,10.3583
800,10.3554
801,7.08952
802,7.08764
803,11.2676
804,11.2667
805,10.2715
806,3.99511
807,3.9957
808,6.55452
809,9.35382
810,12.2126
811,12.2933
812,12.2963
813,11.0422
814,9.48791
815,9.49243
816,10.139
817,11.008
818,11.014
819,8.01428
820,8.02122
821,9.50502
822,9.51291
823,8.28019
824,8.28902
825,9.54586
826,12.0413
827,17.1564
828,22.443
829,23.8034
830,23.815
831,23.2127
832,22.3038
833,18.6387
834,8.96655
835,8.98043
836,12.4578
837,19.1411
838,19.1563
839,13.9473
840,10.6117
841,10.6282
842,14.7323
843,29.9505
844,29.9682
845,17.9568
846,3.32251
847,-0.085619
848,-0.0664024
849,3.14508
850,10.2297
851,13.7678
852,15.7141
853,15.7351
854,12.8392
855,12.8609
856,18.6765
857,20.9309
858,20.9537
859,20.9768
860,22.2515
861,24.6529
862,24.6769
863,22.2679
864,19.8275
865,17.4597
866,15.2836
867,13.3833
868,11.5408
869,9.8137
870,9.83993
871,19.7152
872,24.1617
873,24.1886
874,15.5572
875,15.5846
876,16.0034
877,17.505
878,18.013
879,18.1291
880,18.3711
881,18.7088
882,18.9629
883,19.1087
884,21.7808
885,21.8097
886,18.7417
887,11.156
888,6.22302
889,2.7187
890,2.74806
891,5.02153
892,7.62364
893,8.72993
894,8.75943
895,7.19733
896,5.16088
897,4.22334
898,3.34941
899,2.89203
900,2.92137
901,4.67715
902,8.88929
903,8.9184
904,7.26045
905,7.28934
906,12.21
907,16.7313
908,16.7598
909,16.4399
910,16.2859
911,16.1866
912,12.0569
913,7.14155
914,7.16887
915,11.105
916,11.1318
917,5.65976
918,5.68604
919,7.25845
920,11.6673
921,17.4059
922,17.431
923,16.7639
924,9.63605
925,4.25472
926,-0.70443
927,-0.681296
928,-0.392176
929,1.89233
930,5.35827
931,8.81325
932,11.9618
933,14.774
934,16.1643
935,16.1841
936,14.1734
937,11.4775
938,11.4962
939,12.9971
940,14.1997
941,14.2666
942,14.2837
943,13.5252
944,12.8277
945,12.1628
946,10.1228
947,4.22187
948,-0.197634
949,-0.183077
950,0.0256095
951,0.039435
952,0.0529023
953,3.63533
954,9.09802
955,13.5711
956,17.1903
957,17.202
958,16.3339
959,15.1248
960,14.9646
961,13.0325
962,5.09531
963,4.5922
964,4.60173
965,6.47208
966,6.481
967,6.48963
968,7.66809
969,15.1599
970,15.1676
971,10.8122
972,10.8194
973,15.5453
974,15.552
975,7.41524
976,5.77182
977,5.77765
978,5.78322
979,3.23002
980,-0.24792
981,-0.243138
982,1.28133
983,4.7408
984,8.69669
985,8.7005
986,7.15136
987,6.22793
988,6.23107
989,9.45739
990,17.5248
991,19.0554
992,19.0577
993,16.3788
994,12.9855
995,9.59667
996,9.42043
997,9.42195
998,10.8818
999,12.0731
1000,19.5563
1001,25.179
1002,25.1798
1003,16.6885
1004,14.3217
1005,14.0574
1006,14.0577
1007,12.5559
1008,12.556
1009,15.2941
1010,15.294
1011,9.34578
1012,7.28721
1013,7.28684
1014,7.28639
1015,6.07925
1016,5.50785
1017,5.50716
1018,13.2204
1019,13.2196
1020,12.4927
1021,11.6496
1022,10.9666
1023,10.9655
1024,10.7787
1025,10.0732
1026,4.89527
1027,4.89395
1028,9.9183
1029,16.7814
1030,23.8862
1031,24.4115
1032,24.4099
1033,19.223
1034,19.2213
1035,19.2196
1036,16.7419
1037,11.1086
1038,5.07325
1039,3.47602
1040,3.47413
1041,15.7452
1042,15.7432
1043,13.272
1044,7.50452
1045,1.00585
1046,1.00369
1047,5.55512
1048,9.56103
1049,9.55874
1050,9.5564
1051,12.1075
1052,14.7933
1053,14.7909
1054,14.1977
1055,12.739
1056,12.008
1057,12.0053
1058,14.0498
1059,14.0469
1060,12.8901
1061,11.0379
1062,8.27375
1063,5.18388
1064,1.91524
1065,-0.325754
1066,-0.329078
1067,1.67618
1068,12.4435
1069,12.44
1070,11.8464
1071,4.48227
1072,2.29952
1073,2.29573
1074,6.39347
1075,13.0152
1076,15.4908
1077,17.5403
1078,17.5363
1079,16.3404
1080,15.281
1081,15.2768
1082,15.9945
1083,19.3719
1084,20.4345
1085,20.4303
1086,19.6242
1087,19.6199
1088,20.796
1089,25.3002
1090,25.2959
1091,19.414
1092,13.6113
1093,10.758
1094,9.66482
1095,9.66042
1096,10.4542
1097,10.4498
1098,9.87418
1099,9.28922
1100,8.67295
1101,7.8088
1102,7.07104
1103,5.09679
1104,2.58397
1105,0.960552
1106,0.955947
1107,1.14564
1108,4.1351
1109,6.16775
1110,7.19169
1111,9.94943
1112,15.1489
1113,15.1441
1114,14.9151
1115,14.9103
1116,16.4076
1117,18.3971
1118,20.5723
1119,21.0445
1120,21.0394
1121,19.2684
1122,18.2196
1123,16.8239
1124,13.616
1125,13.6107
1126,13.8395
1127,15.6016
1128,15.5961
1129,10.3276
1130,4.84139
1131,-0.393316
1132,-0.399158
1133,0.339721
1134,3.26079
1135,7.12558
1136,12.1138
1137,16.5176
1138,16.5113
1139,8.54805
1140,8.54161
1141,17.0604
1142,17.0538
1143,8.11987
1144,7.21495
1145,7.20824
1146,11.1451
1147,12.5022
1148,12.4954
1149,9.16968
1150,4.99993
1151,3.74932
1152,3.74232
1153,8.09176
1154,11.2247
1155,11.2176
1156,9.65421
1157,9.64706
1158,9.73411
1159,13.3299
1160,13.352
1161,13.3447
1162,7.32866
1163,6.48003
1164,6.47273
1165,9.03542
1166,12.5711
1167,16.8817
1168,19.0297
1169,19.0223
1170,12.1435
1171,12.1361
1172,13.5161
1173,16.0526
1174,18.4883
1175,18.4808
1176,17.7822
1177,15.3408
1178,11.1841
1179,7.32548
1180,4.346
1181,4.33835
1182,14.3653
1183,18.0186
1184,18.0109
1185,15.4736
1186,14.4783
1187,13.6231
1188,11.3063
1189,8.49148
1190,7.15481
1191,6.03089
1192,1.9979
1193,1.98975
1194,6.5717
1195,15.0293
1196,23.1336
1197,25.8643
1198,25.8558
1199,23.0517
1200,23.0431
1201,27.3138
1202,31.7542
1203,31.7453
1204,30.2953
1205,22.8733
1206,18.0558
1207,14.1425
1208,12.4472
1209,12.4376
1210,13.1732
1211,16.0669
1212,16.0569
1213,15.4256
1214,13.2376
1215,11.903
1216,11.8924
1217,13.556
1218,13.545
1219,8.90111
1220,8.09514
1221,8.08349
1222,9.77764
1223,11.2585
1224,11.2462
1225,5.58298
1226,1.49523
1227,-0.397937
1228,-0.792482
1229,-0.806124
1230,2.48833
1231,9.82211
1232,9.80769
1233,9.02741
1234,9.01252
1235,11.9616
1236,14.7273
1237,14.9822
1238,16.3725
1239,20.6639
1240,20.6479
1241,12.6908
1242,8.97531
1243,8.9589
1244,10.762
1245,11.197
1246,11.4098
1247,11.4855
1248,11.649
1249,13.6522
1250,13.6351
1251,5.11734
1252,5.1002
1253,11.9098
1254,11.8926
1255,9.64563
1256,7.19162
1257,7.1744
1258,7.15719
1259,4.09355
1260,2.93392
1261,2.91679
1262,7.47715
1263,14.3537
1264,20.7695
1265,21.276
1266,21.2592
1267,21.2212
1268,20.6541
1269,17.5883
1270,14.6105
1271,14.5113
1272,14.2833
1273,8.29922
1274,2.69028
1275,2.67445
1276,2.90602
1277,3.97584
1278,5.2659
1279,9.78398
1280,14.4158
1281,18.3281
1282,18.3134
1283,15.8308
1284,13.4165
1285,13.4024
1286,16.9904
1287,20.982
1288,21.79
1289,21.7768
1290,20.9943
1291,20.9815
1292,22.4937
1293,22.4814
1294,21.9809
1295,18.5281
1296,18.5165
1297,25.1148
1298,25.1037
1299,22.2114
1300,13.1027
1301,13.0923
1302,15.4249
1303,16.8091
1304,18.2325
1305,20.1819
1306,20.1729
1307,16.2241
1308,14.1019
1309,14.0936
1310,17.2949
1311,23.4707
1312,23.4632
1313,10.4506
1314,7.24081
1315,7.23419
1316,17.9733
1317,20.2462
1318,22.3622
1319,22.6169
1320,23.3649
1321,27.2296
1322,27.2248
1323,21.899
1324,17.5878
1325,17.5839
1326,19.5284
1327,20.7907
1328,21.9903
1329,24.0362
1330,24.0334
1331,15.1513
1332,7.8666
1333,5.86197
1334,4.11303
1335,4.11149
1336,5.93772
1337,19.41
1338,19.4092
1339,18.9355
1340,13.7704
1341,13.7702
1342,15.513
1343,18.2178
1344,18.2181
1345,12.0403
1346,12.041
1347,15.2233
1348,15.2243
1349,11.4498
1350,11.4511
1351,13.0055
1352,13.0071
1353,10.8792
1354,6.69439
1355,0.800485
1356,0.399819
1357,0.401996
1358,2.44782
1359,4.56255
1360,5.99181
1361,5.99434
1362,5.27802
1363,4.77944
1364,4.78217
1365,10.8663
1366,10.8691
1367,10.6889
1368,7.44869
1369,6.38857
1370,6.39151
1371,12.4319
1372,14.9508
1373,16.0865
1374,20.0491
1375,20.052
1376,18.4822
1377,9.57283
1378,8.37759
1379,8.38031
1380,8.63508
1381,8.89769
1382,13.156
1383,13.1584
1384,8.21979
1385,3.60168
1386,3.60376
1387,8.84587
1388,10.4515
1389,10.4532
1390,7.36719
1391,7.36852
1392,9.4525
1393,9.45346
1394,8.65767
1395,8.65823
1396,20.2346
1397,23.5465
1398,23.5464
1399,18.4448
1400,11.9444
1401,10.7513
1402,8.54435
1403,8.4004
1404,-0.855644
1405,-0.857751
1406,2.92345
1407,5.27113
1408,5.35336
1409,7.5564
1410,11.4949
1411,16.3646
1412,16.3604
1413,15.4593
1414,2.49114
1415,2.48608
1416,5.68608
1417,10.9041
1418,15.5933
1419,15.5872
1420,15.4886
1421,15.482
1422,15.4752
1423,7.04123
1424,2.37511
1425,2.36758
1426,8.03013
1427,8.31112
1428,8.30292
1429,18.7289
1430,20.4857
1431,20.4768
1432,14.591
1433,6.60972
1434,6.60029
1435,7.30138
1436,11.5007
1437,14.1839
1438,18.263
1439,22.5442
1440,22.5336
1441,11.1066
1442,5.99019
1443,5.85406
1444,3.84632
1445,0.0468491
1446,-0.216851
1447,-0.228673
1448,4.61746
1449,11.4343
1450,14.3052
1451,14.3235
1452,14.3109
1453,14.2982
1454,16.7937
1455,20.0584
1456,20.0452
1457,19.0457
1458,17.4998
1459,15.684
1460,10.3434
1461,10.3297
1462,15.9179
1463,19.0583
1464,19.0443
1465,17.0041
1466,15.347
1467,15.3327
1468,14.6988
1469,14.409
1470,10.1467
1471,4.03389
1472,-0.29983
1473,-0.31457
1474,7.06396
1475,16.5851
1476,18.3447
1477,18.3297
1478,6.41526
1479,6.40026
1480,8.38671
1481,8.37169
1482,8.35666
1483,13.2703
1484,16.9577
1485,16.99
1486,16.9277
1487,16.2371
1488,12.6064
1489,3.95186
1490,0.618362
1491,0.60366
1492,5.82482
1493,13.6935
1494,13.6791
1495,7.37258
1496,7.35829
1497,10.0725
1498,10.0585
1499,0.721417
1500,0.707566
1501,2.55508
1502,4.10574
1503,4.29689
1504,4.28357
1505,3.59694
1506,3.58392
1507,5.88094
1508,13.5334
1509,14.0018
1510,13.9894
1511,9.11917
1512,3.33079
1513,3.319
1514,10.3281
1515,11.4025
1516,12.4107
1517,16.4152
1518,16.4044
1519,10.6851
1520,4.85609
1521,4.84599
1522,5.93511
1523,5.92547
1524,3.21807
1525,3.20892
1526,8.51495
1527,8.51188
1528,8.50348
1529,8.49534
1530,7.64018
1531,7.63257
1532,8.40818
1533,24.0479
1534,24.0411
1535,11.6056
1536,11.5994
1537,15.6895
1538,16.109
1539,16.1037
1540,14.7019
1541,14.6971
1542,16.5024
1543,18.9029
1544,19.6797
1545,21.1421
1546,22.3369
1547,22.3339
1548,19.037
1549,16.9019
1550,16.8998
1551,17.2733
1552,17.2718
1553,15.5137
1554,10.2264
1555,8.50676
1556,8.50651
1557,14.3961
1558,19.9315
1559,19.9321
1560,15.894
1561,6.40069
1562,5.00707
1563,5.00893
1564,10.1923
1565,16.8619
1566,16.8646
1567,14.4906
1568,12.8189
1569,12.8225
1570,17.2542
1571,23.7615
1572,23.766
1573,22.4161
1574,8.95657
1575,1.97152
1576,1.97706
1577,10.1416
1578,29.3736
1579,29.38
1580,25.8527
1581,20.407
1582,19.5524
1583,18.8172
1584,17.1558
1585,17.1635
1586,17.1715
1587,13.3035
1588,13.312
1589,18.1809
1590,18.1898
1591,16.7336
1592,12.9105
1593,12.9199
1594,12.9295
1595,10.3356
1596,10.3456
1597,17.7298
1598,21.8913
1599,23.2993
1600,23.3098
1601,22.9584
1602,19.9347
1603,19.9455
1604,21.2994
1605,21.3105
1606,20.1089
1607,17.1557
1608,16.9535
1609,16.9648
1610,21.1342
1611,24.5659
1612,24.5774
1613,21.6695
1614,17.3054
1615,17.317
1616,17.3285
1617,12.3074
1618,12.3189
1619,17.7942
1620,17.8057
1621,15.5401
1622,9.74881
1623,9.75999
1624,11.0949
1625,11.1058
1626,11.061
1627,10.0745
1628,9.75657
1629,9.76698
1630,19.553
1631,25.9214
1632,25.9312
1633,18.2907
1634,-0.443038
1635,-0.433839
1636,11.9249
1637,11.9336
1638,11.0508
1639,9.08737
1640,9.0953
1641,21.4448
1642,21.4522
1643,17.038
1644,8.02475
1645,8.03128
1646,8.03752
1647,2.35078
1648,2.3564
1649,9.11755
1650,14.5198
1651,17.9307
1652,19.1986
1653,19.2026
1654,7.78666
1655,7.78996
1656,13.0523
1657,23.7566
1658,23.7588
1659,19.9339
1660,12.5231
1661,12.5241
1662,12.5256
1663,12.5258
1664,12.5256
1665,16.8365
1666,20.5488
1667,20.5473
1668,20.5453
1669,20.5628
1670,21.7879
1671,21.7845
1672,18.9149
1673,14.9873
1674,12.2053
1675,12.1999
1676,15.8432
1677,19.3341
1678,19.3271
1679,15.5942
1680,13.3816
1681,11.1629
1682,11.1535
1683,15.8551
1684,33.0383
1685,33.0271
1686,25.3959
1687,22.4494
1688,21.3081
1689,17.2473
1690,13.7235
1691,13.3054
1692,11.5595
1693,6.93062
1694,6.91313
1695,11.0713
1696,11.0523
1697,7.31517
1698,7.29455
1699,7.56669
1700,13.7923
1701,13.7691
1702,12.1098
1703,7.13521
1704,6.94235
1705,6.9157
1706,14.8146
1707,14.7862
1708,13.4718
1709,13.4414
1710,14.5946
1711,20.3194
1712,20.286
1713,9.92977
1714,9.89432
1715,17.4499
1716,23.7367
1717,23.698
1718,20.9254
1719,20.8845
1720,24.1223
1721,27.883
1722,27.8387
1723,20.1063
1724,9.45152
1725,1.04118
1726,-2.14567
1727,-2.19618
1728,4.15011
1729,10.6337
1730,17.8125
1731,29.4683
1732,29.4118
1733,20.3755
1734,20.3167
1735,23.65
1736,28.4528
1737,32.0756
1738,38.1308
1739,38.0668
1740,28.574
1741,25.1669
1742,25.1
1743,34.1039
1744,37.3784
1745,37.3089
1746,25.6046
1747,25.5334
1748,41.0444
1749,40.9716
1750,40.8114
1751,30.554
1752,22.5668
1753,22.0474
1754,21.971
1755,30.2202
1756,36.5082
1757,36.4298
1758,36.1498
1759,29.7624
1760,25.6452
1761,19.2385
1762,15.9697
1763,15.8878
1764,35.4808
1765,38.4815
1766,38.3982
1767,28.7548
1768,28.6705
1769,33.2801
1770,33.1949
1771,23.9823
1772,20.0394
1773,19.8296
1774,16.2386
1775,16.1514
1776,17.9359
1777,22.8736
1778,22.7853
1779,21.3187
1780,15.0854
1781,14.9962
1782,20.1632
1783,20.0734
1784,19.9834
1785,25.3074
1786,25.2168
1787,18.4128
1788,17.508
1789,13.3358
1790,6.88519
1791,6.79349
1792,9.14977
1793,29.6268
1794,29.5345
1795,28.9111
1796,28.8185
1797,34.6417
1798,36.855
1799,36.7619
1800,27.8306
1801,27.7373
1802,27.6439
1803,23.6727
1804,15.0408
1805,4.2835
1806,4.18966
1807,9.01771
1808,17.3361
1809,19.7954
1810,19.7012
1811,14.4275
1812,10.4859
1813,7.80238
1814,7.70794
1815,11.6233
1816,11.5288
1817,9.85117
1818,9.75654
1819,20.3585
1820,20.2638
1821,20.6875
1822,20.5927
1823,20.4979
1824,20.3767
1825,18.2466
1826,18.1518
1827,26.9552
1828,26.8603
1829,20.796
1830,15.7333
1831,15.6384
1832,25.2441
1833,27.2642
1834,27.1693
1835,14.5841
1836,14.4892
1837,15.8002
1838,15.7053
1839,10.886
1840,10.7911
1841,10.6962
1842,-0.0241646
1843,-0.119076
1844,15.9315
1845,15.8366
1846,11.7163
1847,11.6214
1848,11.5264
1849,19.7325
