178.677	151.778
181.278	148
183.879	146.667
186.48	150.667
189.078	152.222
191.677	148.889
194.275	150
196.871	152
199.467	149.333
202.061	148
204.656	142.889
207.248	145.111
209.841	144.222
212.431	149.556
215.022	147.333
217.613	149.333
220.201	147.111
222.789	145.111
225.375	144.889
227.962	147.111
230.547	148
233.13	146.444
235.714	151.556
238.296	153.778
240.879	156.667
243.459	156.889
246.04	158.444
248.618	158.444
251.196	157.333
253.774	166.222
256.35	157.111
258.927	157.333
261.501	158.444
264.074	158.222
266.648	157.111
269.22	160.222
271.791	167.556
274.362	157.333
276.931	160.444
279.5	162.889
282.069	159.333
284.635	151.333
287.201	151.556
289.766	144.667
292.331	143.333
294.894	141.556
297.457	139.333
300.018	139.556
302.58	128.667
305.14	132
307.699	131.111
310.257	129.556
312.814	129.556
315.372	128.444
317.928	127.778
320.482	130.889
323.036	126.667
325.589	127.333
328.142	130.222
330.693	122.222
333.243	122.667
335.795	131.111
338.343	131.556
340.891	122.444
343.439	129.556
345.985	130
348.53	130
351.075	127.778
353.619	130.889
356.162	130
358.704	135.778
361.245	131.778
363.786	128.889
366.325	132.222
368.864	134.667
371.402	128.444
373.939	136
376.475	129.778
379.011	133.778
381.545	135.111
384.079	134
386.612	140
389.144	134.889
391.674	136.667
394.204	139.111
396.734	132.667
399.263	138
401.791	136
404.318	140.889
406.844	140.444
409.368	141.111
411.893	144.667
414.417	153.333
416.94	153.778
419.462	147.333
421.982	142.222
424.502	138
427.022	134.444
429.541	131.778
432.057	133.556
434.574	131.111
437.091	131.111
439.606	131.111
442.12	130.667
444.634	126.222
447.147	128.667
449.657	129.111
452.169	132.667
454.68	127.778
457.188	132
459.697	126.889
462.205	132.667
464.711	131.778
467.217	129.333
469.722	127.778
472.227	134.889
474.731	135.778
477.232	135.111
479.735	127.333
482.235	136.889
484.736	132.444
487.234	135.556
489.734	129.333
492.23	133.111
494.728	130.444
497.223	132
499.719	133.111
502.213	135.111
504.707	129.111
507.199	134.667
509.692	137.333
512.182	134.889
514.673	138.222
517.162	130.222
519.65	134.222
522.139	134.889
524.625	134.222
527.112	134.889
529.597	136.222
532.081	132.222
534.565	137.333
537.047	138.444
539.529	133.778
542.011	134.889
544.491	137.556
546.97	132.444
549.45	135.778
551.927	141.778
554.404	137.778
556.88	135.333
559.356	136.222
561.831	134.222
564.304	133.778
566.777	139.333
569.25	132.222
571.721	140.444
574.191	140.222
576.661	137.111
579.129	141.778
581.599	139.556
584.066	138.222
586.532	142.222
588.997	134.444
591.462	136.444
593.926	138.444
596.389	136
598.851	134.889
601.314	137.556
603.775	139.333
606.235	140.222
608.694	138
611.152	138.667
613.609	138.222
616.066	143.333
618.522	139.778
620.977	139.556
623.431	142.889
625.885	144
628.338	137.778
630.79	139.111
633.241	135.333
635.691	141.111
638.141	136.889
640.589	140.444
643.036	143.778
645.483	145.111
647.929	149.111
650.375	148
652.82	143.111
655.264	145.111
657.707	146.667
660.149	146.889
662.59	147.778
665.031	148
667.471	146.444
669.91	147.111
672.349	145.111
674.786	151.111
677.222	150.667
679.658	154.889
682.093	149.778
684.528	153.333
686.96	154.667
689.393	154.222
691.826	149.111
694.256	153.111
696.686	152.444
699.116	149.111
701.545	151.111
703.972	147.111
706.4	147.111
708.826	152.444
711.251	150.222
713.676	147.111
716.099	156.667
718.523	152
720.946	149.778
723.366	148.444
725.788	154.222
728.207	152.222
730.627	152
733.044	152.222
735.462	151.778
737.88	153.778
740.295	151.778
742.711	150.889
745.125	149.778
747.539	152
749.951	151.556
752.363	150.889
754.775	155.778
757.185	155.333
759.595	151.556
762.003	151.111
764.412	156.667
766.819	154.667
769.225	155.111
771.632	153.556
774.036	154.444
776.441	156.889
778.844	154.667
781.246	151.778
783.649	158.667
786.05	158.667
788.449	154
790.85	155.111
793.248	158.667
795.646	160
798.042	157.778
800.44	159.556
802.835	158
805.23	158.444
807.623	158
810.018	153.111
812.41	158
814.801	161.556
817.192	159.111
819.582	158.889
821.972	168.222
824.361	155.111
826.748	163.111
829.135	158.222
831.521	163.333
833.907	163.778
836.291	162.667
838.675	157.778
841.059	163.333
843.442	160.889
845.823	156.667
848.204	162.667
850.584	163.778
852.963	162.444
855.342	165.556
857.72	158.222
860.097	164.667
862.473	162
864.848	162.222
867.223	166.667
869.597	162.444
871.97	162.222
874.343	164
876.714	162
879.084	169.333
881.454	167.333
883.824	168.667
886.192	167.778
888.56	161.556
890.927	160.667
893.294	165.111
895.66	167.556
898.023	166
900.387	170.667
902.751	161.556
905.114	163.778
907.476	164
909.835	165.111
912.196	168.222
914.555	168
916.914	164.222
919.271	162
921.629	164
923.985	166.667
926.341	163.111
928.695	162.667
931.05	165.111
933.404	165.556
935.755	166.222
938.107	165.556
940.459	165.778
942.808	162.222
945.158	167.111
947.508	169.111
949.855	169.778
952.202	166.444
954.548	170.222
956.894	164.889
959.239	173.333
961.583	164.889
963.928	173.333
966.27	172.667
968.612	176
970.953	174
973.294	167.556
975.633	172.889
977.972	175.778
980.31	171.333
982.647	178.444
984.984	173.556
987.32	179.333
989.656	182.667
991.989	180.667
994.324	184.444
996.656	187.556
998.988	189.333
1001.32	183.778
1003.65	174.444
1005.98	175.111
1008.31	178.222
1010.64	186.444
1012.97	200.222
1015.29	206
1017.62	189.333
1019.94	188
1022.27	184.889
1024.59	184.222
1026.92	176.889
1029.24	169.111
1031.56	177.556
1033.88	174.444
1036.2	176.444
1038.52	178.889
1040.84	182.444
1043.16	174
1045.48	172.889
1047.79	171.333
1050.11	170.444
1052.42	166.667
1054.74	174
1057.05	174.667
1059.36	170.889
1061.67	177.111
1063.99	183.111
1066.3	185.333
1068.61	187.778
1070.92	189.333
1073.22	194.667
1075.53	187.333
1077.84	180.444
1080.15	175.556
1082.45	173.778
1084.76	176
1087.06	171.556
1089.36	167.333
1091.66	167.778
1093.97	170.889
1096.27	171.111
1098.57	172
1100.87	168
1103.17	170
1105.46	172.667
1107.76	174
1110.06	171.333
1112.35	171.556
1114.65	168.444
1116.94	173.778
1119.24	173.111
1121.53	175.333
1123.82	171.556
1126.11	165.556
1128.4	170.444
1130.7	174
1132.98	174
1135.27	171.111
1137.56	168.667
1139.85	172.222
1142.13	167.778
1144.42	172.444
1146.71	176.889
1148.99	176.667
1151.27	179.556
1153.56	174
1155.84	174.667
1158.12	177.111
1160.4	172.667
1162.68	178.889
1164.96	174.889
1167.24	181.333
1169.51	184.444
1171.79	176.667
1174.07	181.111
1176.34	177.778
1178.62	177.778
1180.89	175.556
1183.17	181.111
1185.44	178.667
1187.71	177.333
1189.98	174
1192.25	175.111
1194.52	179.111
1196.79	175.111
1199.06	178
1201.33	179.111
1203.59	179.111
1205.86	179.333
1208.12	173.111
1210.39	177.778
1212.65	181.556
1214.92	182.444
1217.18	176.889
1219.44	178
1221.7	185.778
1223.96	179.778
1226.22	179.556
1228.48	181.111
1230.74	182.667
1233	183.333
1235.25	177.333
1237.51	176
1239.77	181.556
1242.02	175.333
1244.27	178.222
1246.53	179.778
1248.78	177.111
1251.03	185.556
1253.28	181.778
1255.53	181.556
1257.78	178.222
1260.03	176.889
1262.28	180.889
1264.53	180
1266.78	180.889
1269.02	177.333
1271.27	185.111
1273.51	188
1275.76	178
1278	180.889
1280.24	182.667
1282.48	188.889
1284.72	181.556
1286.97	182.222
1289.21	179.556
1291.44	182
1293.68	185.333
1295.92	184
1298.16	178.444
1300.39	185.111
1302.63	179.556
1304.86	184.222
1307.1	183.111
1309.33	180.667
1311.56	183.556
1313.8	184.222
1316.03	185.556
1318.26	185.333
1320.49	183.556
1322.72	181.111
1324.95	190.889
1327.17	182.222
1329.4	184.222
1331.63	188.222
1333.85	183.778
1336.08	190
1338.3	188.444
1340.53	188
1342.75	182.444
1344.97	188.444
1347.19	190.222
1349.41	189.111
1351.63	188.444
1353.85	188.444
1356.07	187.111
1358.29	191.333
1360.51	185.111
1362.72	195.778
1364.94	190.444
1367.16	194.444
1369.37	192.444
1371.58	198.222
1373.8	205.333
1376.01	206.667
1378.22	204.222
1380.43	206
1382.64	205.333
1384.85	203.778
1387.06	198.889
1389.27	197.778
1391.48	203.333
1393.68	193.333
1395.89	187.556
1398.1	190.444
1400.3	183.333
1402.51	192.444
1404.71	184.889
1406.91	185.333
1409.11	186.222
1411.32	184.889
1413.52	188
1415.72	183.333
1417.92	187.778
1420.11	182.667
1422.31	181.556
1424.51	191.111
1426.71	188.222
1428.9	180
1431.1	187.778
1433.29	186.444
1435.49	192.222
1437.68	191.778
1439.87	183.778
1442.06	188
1444.25	187.333
1446.45	180.444
1448.64	190.222
1450.82	189.111
1453.01	188.667
1455.2	185.778
1457.39	182.889
1459.57	183.556
1461.76	190
1463.94	187.556
1466.13	186.444
1468.31	186.444
1470.5	192.889
1472.68	190.444
1474.86	192.444
1477.04	182
1479.22	186.889
1481.4	191.556
1483.58	182.667
1485.76	187.333
1487.94	188.444
1490.11	189.556
1492.29	186.222
1494.46	182.889
1496.64	190.667
1498.81	187.556
1500.99	188
1503.16	188
1505.33	183.556
1507.5	189.778
1509.67	190.222
1511.84	188.889
1514.01	188.667
1516.18	187.111
1518.35	186
1520.52	182.889
1522.68	198.889
1524.85	194
1527.02	194
1529.18	197.111
1531.35	198
1533.51	202
1535.67	192.444
1537.83	201.111
1539.99	199.111
1542.16	201.333
1544.31	197.556
1546.47	199.556
1548.63	189.333
1550.79	201.333
1552.95	194.222
1555.11	196
1557.26	200.444
1559.42	202.222
1561.57	201.778
1563.73	199.556
1565.88	200.444
1568.03	205.778
1570.18	214
1572.34	212.222
1574.49	216.444
1576.64	204.889
1578.79	201.111
1580.93	200.444
1583.08	199.778
1585.23	196
1587.38	194.889
1589.52	194.222
1591.67	198.667
1593.81	203.556
1595.96	197.333
1598.1	205.778
1600.24	205.333
1602.38	199.556
1604.53	201.556
1606.67	198.667
1608.81	198.889
1610.95	197.111
1613.09	194.222
1615.22	195.333
1617.36	195.778
1619.5	188
1621.63	186.222
1623.77	195.111
1625.9	189.111
1628.04	189.556
1630.17	187.111
1632.3	191.778
1634.44	187.778
1636.57	182.444
1638.7	186.222
1640.83	186.222
1642.96	184.444
1645.09	180.444
1647.22	190.667
1649.34	182.889
1651.47	182
1653.6	180.444
1655.72	183.778
1657.85	183.556
1659.97	177.111
1662.1	177.778
1664.22	186.444
1666.34	178.667
1668.46	181.556
1670.58	180
1672.7	184.889
1674.82	179.778
1676.94	180
1679.06	181.778
1681.18	170.889
1683.3	181.778
1685.41	184
1687.53	176.889
1689.64	176.889
1691.76	176
1693.87	176
1695.99	176.444
1698.1	183.778
1700.21	180.667
1702.32	177.111
1704.43	177.556
1706.54	181.111
1708.65	181.333
1710.76	175.333
1712.87	175.778
1714.98	177.556
1717.08	172.222
1719.19	178.444
1721.29	175.333
1723.4	177.111
1725.5	177.778
1727.61	177.556
1729.71	182.667
1731.81	177.111
1733.91	178.889
1736.02	176.889
1738.12	178
1740.22	165.111
1742.31	179.556
1744.41	175.111
1746.51	173.778
1748.61	177.111
1750.7	171.556
1752.8	168.222
1754.9	178.889
1756.99	175.778
1759.08	170.889
1761.18	178.889
1763.27	172.222
1765.36	174.889
1767.45	176
1769.54	176.222
1771.63	180.667
1773.72	175.333
1775.81	172.444
1777.9	177.333
1779.99	174.667
1782.08	174.889
1784.16	174.889
1786.25	173.333
1788.33	172.889
1790.42	174.222
1792.5	178
1794.58	175.778
1796.67	175.333
1798.75	177.111
1800.83	174.667
1802.91	174.889
1804.99	176
1807.07	176.889
1809.15	176.444
1811.23	165.778
1813.3	168.667
1815.38	172.889
1817.46	175.556
1819.53	168.667
1821.61	174.222
1823.68	172
1825.75	176.444
1827.83	178.444
1829.9	172.444
1831.97	175.111
1834.04	177.778
1836.11	176
1838.18	172.222
1840.25	167.333
1842.32	172.889
1844.39	174.667
1846.46	170.444
1848.52	169.556
1850.59	171.556
1852.65	170.222
1854.72	169.556
1856.78	170.889
1858.85	168.889
1860.91	169.333
1862.97	170.889
1865.03	168
1867.09	170
1869.16	173.333
1871.22	169.556
1873.27	171.778
1875.33	170.444
1877.39	173.778
1879.45	171.333
1881.51	166.444
1883.56	171.333
1885.62	169.778
1887.67	170.444
1889.73	169.778
1891.78	171.333
1893.83	171.333
1895.89	169.333
1897.94	166
1899.99	171.778
1902.04	170
1904.09	172.667
1906.14	173.333
1908.19	172
1910.23	174.222
1912.28	172.222
1914.33	169.778
1916.37	170.222
1918.42	170.444
1920.46	171.111
1922.51	169.556
1924.55	173.111
1926.6	169.111
1928.64	173.556
1930.68	166.667
1932.72	165.333
1934.76	167.556
1936.8	168.667
1938.84	166.444
1940.88	167.111
1942.92	169.778
1944.96	168.889
1946.99	169.111
1949.03	167.778
1951.06	170
1953.1	168.444
1955.13	167.333
1957.17	168.222
1959.2	172.222
1961.23	169.778
1963.27	170.889
1965.3	166.444
1967.33	168
1969.36	169.778
1971.39	164
1973.42	165.778
1975.44	168.222
1977.47	164.667
1979.5	164.222
1981.53	170.667
1983.55	166.444
1985.58	164.889
1987.6	170
1989.63	168.889
1991.65	171.556
1993.67	169.556
1995.69	166.222
1997.72	169.333
1999.74	173.111
2001.76	170
2003.78	164.889
2005.8	167.111
2007.82	161.333
2009.83	169.111
2011.85	168.889
2013.87	171.333
2015.88	173.778
2017.9	165.778
2019.91	170.222
2021.93	170.222
2023.94	170.667
2025.96	165.556
2027.97	173.778
2029.98	169.556
2031.99	168.889
2034	166.667
2036.01	174
2038.02	165.556
2040.03	168
2042.04	165.333
2044.05	167.778
2046.05	169.333
2048.06	166
2050.07	166.222
2052.07	165.778
2054.08	164.444
2056.08	168
2058.08	164.889
2060.09	165.333
2062.09	166.222
2064.09	172.444
2066.09	173.111
2068.09	166.889
2070.09	167.778
2072.09	166.667
2074.09	166.889
2076.09	167.556
2078.09	163.333
2080.08	174
2082.08	166
2084.08	166.444
2086.07	162.889
2088.07	159.556
2090.06	167.111
2092.05	165.111
2094.05	170
2096.04	167.556
2098.03	162
2100.02	171.333
2102.01	170.222
2104	165.111
2105.99	168.444
2107.98	166.222
2109.97	168
2111.95	169.556
2113.94	173.333
2115.93	172
2117.91	172.444
2119.9	178.222
2121.88	174.889
2123.87	174
2125.85	176.444
2127.83	177.111
2129.81	176.222
2131.8	170.667
2133.78	173.333
2135.76	176.667
2137.74	175.556
2139.72	179.111
2141.69	173.556
2143.67	176.667
2145.65	176.889
2147.63	170.667
2149.6	170.444
2151.58	168
2153.55	172
2155.53	174.444
2157.5	172
2159.48	164.667
2161.45	166.667
2163.42	163.111
2165.39	169.556
2167.36	162
2169.33	165.556
2171.3	162.444
2173.27	162.889
2175.24	162.889
2177.21	167.333
2179.18	166.222
2181.14	158.222
2183.11	162.444
2185.07	163.333
2187.04	168
2189	166
2190.97	165.111
2192.93	164.222
2194.89	161.556
2196.86	164.222
2198.82	168.889
2200.78	171.111
2202.74	161.111
2204.7	162
2206.66	166
2208.62	161.111
2210.57	161.778
2212.53	159.111
2214.49	161.333
2216.45	163.333
2218.4	164.667
2220.36	160.667
2222.31	165.111
2224.27	164.667
2226.22	162.222
2228.17	161.778
2230.12	163.778
2232.08	162.667
2234.03	164
2235.98	163.333
2237.93	162.222
2239.88	160.889
2241.83	164
2243.78	163.556
2245.72	164.222
2247.67	163.111
2249.62	154.444
2251.56	164.444
2253.51	163.333
2255.45	159.556
2257.4	163.111
2259.34	161.556
2261.28	160.667
2263.23	161.778
2265.17	161.556
2267.11	162.889
2269.05	163.556
2270.99	164
2272.93	160.889
2274.87	159.778
2276.81	159.333
2278.75	162.667
2280.68	160.444
2282.62	162.667
2284.56	162.889
2286.49	156.889
2288.43	161.111
2290.36	157.111
2292.3	163.333
2294.23	162
2296.16	156.667
2298.09	156.444
2300.03	157.778
2301.96	158.222
2303.89	157.333
2305.82	163.333
2307.75	158.667
2309.68	159.333
2311.6	151.556
2313.53	159.333
2315.46	154.667
2317.39	160.222
2319.31	160.889
2321.24	163.778
2323.16	156.667
2325.09	153.111
2327.01	165.778
2328.93	162.444
2330.86	163.111
2332.78	161.333
2334.7	152.667
2336.62	158
2338.54	156.667
2340.46	156
2342.38	159.556
2344.3	161.333
2346.22	160
2348.14	152.667
2350.05	159.111
2351.97	160.222
2353.89	151.556
2355.8	158.444
2357.71	160.222
2359.63	158.667
2361.54	156.667
2363.46	160.222
2365.37	157.778
2367.28	159.778
2369.19	158.444
2371.1	160.222
2373.01	159.111
2374.92	157.111
2376.83	156
2378.74	148.889
2380.65	158
2382.56	159.333
2384.46	152.444
2386.37	155.111
2388.27	158.444
2390.18	156
2392.08	156.889
2393.99	154
2395.89	153.111
2397.8	154.667
2399.7	152.889
2401.6	157.778
2403.5	156.667
2405.4	157.556
2407.3	153.556
2409.2	158.222
2411.1	148.889
2413	152.444
2414.9	150
2416.8	157.333
2418.69	156.667
2420.59	157.556
2422.48	152.222
2424.38	151.778
2426.28	157.556
2428.17	151.778
2430.06	154.889
2431.96	151.333
2433.85	154.222
2435.74	154.222
2437.63	154.222
2439.52	152.222
2441.41	152.444
2443.3	152
2445.19	153.556
2447.08	157.333
