178.677	84.2222
181.278	84
183.879	81.3333
186.48	84.8889
189.078	84.2222
191.677	85.3333
194.275	83.5556
196.871	82
199.467	81.5556
202.061	83.5556
204.656	84.6667
207.248	81.3333
209.841	81.1111
212.431	82.6667
215.022	84.4444
217.613	82.6667
220.201	80
222.789	80.6667
225.375	82.6667
227.962	81.1111
230.547	82.4444
233.13	86.6667
235.714	84.2222
238.296	88.2222
240.879	88.4444
243.459	85.1111
246.04	84
248.618	84.8889
251.196	86.2222
253.774	85.3333
256.35	88.6667
258.927	86
261.501	90.4444
264.074	88.4444
266.648	87.7778
269.22	86.6667
271.791	84.4444
274.362	86
276.931	90.4444
279.5	86.6667
282.069	87.7778
284.635	84.2222
287.201	82.6667
289.766	84.4444
292.331	82.8889
294.894	81.1111
297.457	77.5556
300.018	77.3333
302.58	77.1111
305.14	77.5556
307.699	79.1111
310.257	79.7778
312.814	75.3333
315.372	76.8889
317.928	74.4445
320.482	79.3333
323.036	75.3333
325.589	77.5556
328.142	76.2222
330.693	75.7778
333.243	73.5556
335.795	77.3333
338.343	78.4444
340.891	76.2222
343.439	78.4444
345.985	77.7778
348.53	78
351.075	74
353.619	78.2222
356.162	78
358.704	76
361.245	79.7778
363.786	77.5556
366.325	76.6667
368.864	78.6667
371.402	80.2222
373.939	79.5556
376.475	80
379.011	78.6667
381.545	79.5555
384.079	73.7778
386.612	76.6667
389.144	76
391.674	75.3333
394.204	78.4444
396.734	84
399.263	79.7778
401.791	77.1111
404.318	76.4444
406.844	80.2222
409.368	82.4444
411.893	79.3333
414.417	76
416.94	83.1111
419.462	78.6667
421.982	79.3333
424.502	79.3333
427.022	76
429.541	78
432.057	75.5556
434.574	75.5556
437.091	76.4444
439.606	76.2222
442.12	77.3333
444.634	76.6667
447.147	76.2222
449.657	72
452.169	75.5556
454.68	76.2222
457.188	75.5556
459.697	75.3333
462.205	75.3333
464.711	75.5556
467.217	74.4444
469.722	76.6667
472.227	75.7778
474.731	77.7778
477.232	74
479.735	73.7778
482.235	75.1111
484.736	76
487.234	77.1111
489.734	76.8889
492.23	78.2222
494.728	76.4444
497.223	77.7778
499.719	74.6667
502.213	75.7778
504.707	75.5556
507.199	75.7778
509.692	77.7778
512.182	76
514.673	77.1111
517.162	76.4444
519.65	81.3333
522.139	79.5556
524.625	79.5555
527.112	75.5556
529.597	73.3333
532.081	77.3333
534.565	76
537.047	72.6667
539.529	73.3333
542.011	74.4444
544.491	76
546.97	75.1111
549.45	76.8889
551.927	78.4444
554.404	75.3333
556.88	75.7778
559.356	76.8889
561.831	76.4444
564.304	74.8889
566.777	73.5556
569.25	73.5556
571.721	81.7778
574.191	76
576.661	78.4444
579.129	76.2222
581.599	78.6667
584.066	78.2222
586.532	76.6667
588.997	75.1111
591.462	78.6667
593.926	78.6667
596.389	77.5556
598.851	77.7778
601.314	74.4444
603.775	76.4444
606.235	77.3333
608.694	78.4444
611.152	78.4444
613.609	76.6667
616.066	78.2222
618.522	78.2222
620.977	79.1111
623.431	80.2222
625.885	78.2222
628.338	77.3333
630.79	79.7778
633.241	76.6667
635.691	79.7778
638.141	76.4444
640.589	80.6667
643.036	78.8889
645.483	78.6667
647.929	75.5556
650.375	79.3333
652.82	81.1111
655.264	81.3333
657.707	79.7778
660.149	79.1111
662.59	83.1111
665.031	79.3333
667.471	78.4444
669.91	78.4444
672.349	83.1111
674.786	79.7778
677.222	84
679.658	80.2222
682.093	79.1111
684.528	85.3333
686.96	84
689.393	82
691.826	81.1111
694.256	81.1111
696.686	80.8889
699.116	82
701.545	80.6667
703.972	83.1111
706.4	80.6667
708.826	84.6667
711.251	85.1111
713.676	82.6667
716.099	82
718.523	83.3333
720.946	81.5556
723.366	80
725.788	80.8889
728.207	83.7778
730.627	81.3333
733.044	85.1111
735.462	83.7778
737.88	83.5556
740.295	86.6667
742.711	84.6667
745.125	82.6667
747.539	84.8889
749.951	82.2222
752.363	82.2222
754.775	85.3333
757.185	87.3333
759.595	83.1111
762.003	81.5555
764.412	86.6667
766.819	83.5556
769.225	86.6667
771.632	81.7778
774.036	91.5556
776.441	88
778.844	87.3333
781.246	86.8889
783.649	85.1111
786.05	87.5556
788.449	82.6667
790.85	88
793.248	84.2222
795.646	84.4444
798.042	88.8889
800.44	88.2222
802.835	91.1111
805.23	88.6667
807.623	89.1111
810.018	84.6667
812.41	87.7778
814.801	86.8889
817.192	86
819.582	85.5555
821.972	87.7778
824.361	83.3333
826.748	90
829.135	88.4445
831.521	87.5556
833.907	90.8889
836.291	88.2222
838.675	91.3333
841.059	90.6667
843.442	92.8889
845.823	85.7778
848.204	86.6667
850.584	91.1111
852.963	90
855.342	84
857.72	90.2222
860.097	84.6667
862.473	88.2222
864.848	87.5556
867.223	86.8889
869.597	88.4444
871.97	88.6667
874.343	86.6667
876.714	93.7778
879.084	85.3333
881.454	88.6667
883.824	91.1111
886.192	83.7778
888.56	86.8889
890.927	89.7778
893.294	86.4444
895.66	86.8889
898.023	88.6667
900.387	86.4444
902.751	83.1111
905.114	87.7778
907.476	88.4444
909.835	84.2222
912.196	89.3333
914.555	83.7778
916.914	87.5556
919.271	86
921.629	86.4444
923.985	87.5556
926.341	88.6667
928.695	85.7778
931.05	88.8889
933.404	84.4444
935.755	84.6667
938.107	83.7778
940.459	90.6667
942.808	86
945.158	84
947.508	86.6667
949.855	88
952.202	86.2222
954.548	84.4444
956.894	85.3333
959.239	85.7778
961.583	86
963.928	86.6667
966.27	88.4444
968.612	90
970.953	84.6667
973.294	90.2222
975.633	87.7778
977.972	89.7778
980.31	84.6667
982.647	84.8889
984.984	91.7778
987.32	85.7778
989.656	88.8889
991.989	91.3333
994.324	92.6667
996.656	96
998.988	92.4444
1001.32	88.8889
1003.65	87.1111
1005.98	90.4444
1008.31	91.5556
1010.64	90.4444
1012.97	98.4444
1015.29	99.5556
1017.62	95.1111
1019.94	92.8889
1022.27	94
1024.59	88.2222
1026.92	89.3333
1029.24	88.6667
1031.56	88.2222
1033.88	91.3333
1036.2	92.6667
1038.52	88.6667
1040.84	95.1111
1043.16	94.8889
1045.48	91.3333
1047.79	88.4444
1050.11	89.1111
1052.42	88.6667
1054.74	91.1111
1057.05	85.1111
1059.36	86.2222
1061.67	88.4444
1063.99	90.6667
1066.3	93.3333
1068.61	87.3333
1070.92	94.8889
1073.22	95.5555
1075.53	89.3333
1077.84	85.7778
1080.15	88.8889
1082.45	88.6667
1084.76	89.5556
1087.06	86.4444
1089.36	88.8889
1091.66	87.5556
1093.97	88.4444
1096.27	88.6667
1098.57	87.1111
1100.87	84
1103.17	88.2222
1105.46	85.7778
1107.76	87.5556
1110.06	87.1111
1112.35	82.6667
1114.65	85.5556
1116.94	88.4445
1119.24	83.3333
1121.53	87.3333
1123.82	86.2222
1126.11	89.3333
1128.4	84.6667
1130.7	86.6667
1132.98	90.8889
1135.27	87.7778
1137.56	88.4444
1139.85	86.4444
1142.13	88
1144.42	84.8889
1146.71	86.2222
1148.99	84.6667
1151.27	88.6667
1153.56	88.2222
1155.84	87.5556
1158.12	86.4445
1160.4	89.3333
1162.68	85.3333
1164.96	87.7778
1167.24	85.5556
1169.51	85.1111
1171.79	83.7778
1174.07	87.7778
1176.34	89.7778
1178.62	86.2222
1180.89	89.3333
1183.17	88.8889
1185.44	88.8889
1187.71	86.6667
1189.98	87.7778
1192.25	87.5556
1194.52	88.4444
1196.79	84.4444
1199.06	88.6667
1201.33	86.6667
1203.59	88
1205.86	90.6667
1208.12	92.6667
1210.39	91.5556
1212.65	86.2222
1214.92	94.4444
1217.18	92.2222
1219.44	89.1111
1221.7	86.2222
1223.96	90.4444
1226.22	90.8889
1228.48	86
1230.74	88.4445
1233	88.4444
1235.25	89.3333
1237.51	92
1239.77	92.2222
1242.02	90.8889
1244.27	92.6667
1246.53	90.4444
1248.78	93.1111
1251.03	88.2222
1253.28	91.5556
1255.53	92
1257.78	90
1260.03	90.6667
1262.28	92.4444
1264.53	94
1266.78	93.1111
1269.02	93.5555
1271.27	93.7778
1273.51	92.4444
1275.76	93.1111
1278	94
1280.24	90.6667
1282.48	94.8889
1284.72	90
1286.97	95.3333
1289.21	92.6667
1291.44	88.2222
1293.68	88.2222
1295.92	94
1298.16	89.1111
1300.39	96.4445
1302.63	96.2222
1304.86	90.2222
1307.1	98.4444
1309.33	89.1111
1311.56	90
1313.8	94.6667
1316.03	94.8889
1318.26	92.4444
1320.49	95.1111
1322.72	94.4445
1324.95	94
1327.17	92.6667
1329.4	92.2222
1331.63	92.6667
1333.85	90.4444
1336.08	91.5556
1338.3	92.6667
1340.53	94.4444
1342.75	93.3333
1344.97	98
1347.19	95.3333
1349.41	92.4444
1351.63	97.7778
1353.85	97.7778
1356.07	92.2222
1358.29	97.5556
1360.51	97.7778
1362.72	102.222
1364.94	96.4444
1367.16	98.6667
1369.37	100
1371.58	94.8889
1373.8	100
1376.01	102.667
1378.22	97.3333
1380.43	104
1382.64	99.5555
1384.85	98.8889
1387.06	98
1389.27	101.333
1391.48	101.111
1393.68	101.333
1395.89	98
1398.1	94.8889
1400.3	97.1111
1402.51	97.3333
1404.71	96.6667
1406.91	97.3333
1409.11	97.3333
1411.32	95.7778
1413.52	96.4444
1415.72	95.5556
1417.92	94.4444
1420.11	94.6667
1422.31	92.6667
1424.51	94.8889
1426.71	94.4444
1428.9	95.5556
1431.1	94.2222
1433.29	98.4444
1435.49	98.8889
1437.68	98.6667
1439.87	95.7778
1442.06	99.1111
1444.25	95.3333
1446.45	95.3333
1448.64	93.1111
1450.82	96.4444
1453.01	96.6667
1455.2	97.5556
1457.39	94
1459.57	97.3333
1461.76	98.6667
1463.94	99.3333
1466.13	98.4444
1468.31	96
1470.5	99.7778
1472.68	97.3333
1474.86	96
1477.04	94.6667
1479.22	95.5556
1481.4	99.5556
1483.58	100
1485.76	94.6667
1487.94	93.5556
1490.11	98.2222
1492.29	99.1111
1494.46	96.2222
1496.64	97.7778
1498.81	91.7778
1500.99	98.2222
1503.16	93.5556
1505.33	97.3333
1507.5	98
1509.67	95.7778
1511.84	97.3333
1514.01	99.7778
1516.18	100.444
1518.35	97.3333
1520.52	96.6667
1522.68	98.6667
1524.85	98
1527.02	93.7778
1529.18	95.7778
1531.35	98.6667
1533.51	98.8889
1535.67	95.7778
1537.83	100.889
1539.99	99.5556
1542.16	99.3333
1544.31	98.6667
1546.47	102.222
1548.63	101.333
1550.79	101.333
1552.95	102.667
1555.11	101.778
1557.26	107.333
1559.42	107.111
1561.57	99.7778
1563.73	102.444
1565.88	98.8889
1568.03	106.222
1570.18	105.333
1572.34	106.889
1574.49	107.111
1576.64	102.222
1578.79	98.6667
1580.93	105.333
1583.08	104.444
1585.23	102.667
1587.38	102
1589.52	100.889
1591.67	104.667
1593.81	96.8889
1595.96	103.111
1598.1	101.111
1600.24	102.444
1602.38	100
1604.53	100.444
1606.67	104.444
1608.81	101.556
1610.95	98.2222
1613.09	99.1111
1615.22	102.222
1617.36	99.7778
1619.5	102.889
1621.63	98.8889
1623.77	98.6667
1625.9	100
1628.04	98.8889
1630.17	98.4444
1632.3	100
1634.44	98.8889
1636.57	100.667
1638.7	97.3333
1640.83	97.7778
1642.96	96
1645.09	98.6667
1647.22	94.8889
1649.34	96.6667
1651.47	99.5556
1653.6	99.3333
1655.72	96.2222
1657.85	98.2222
1659.97	98
1662.1	95.7778
1664.22	100.444
1666.34	97.1111
1668.46	96
1670.58	98.2222
1672.7	98.6667
1674.82	98
1676.94	98
1679.06	96.2222
1681.18	98
1683.3	97.5556
1685.41	95.5556
1687.53	103.333
1689.64	97.5556
1691.76	90.8889
1693.87	96.2222
1695.99	97.3333
1698.1	95.1111
1700.21	96.8889
1702.32	98.6667
1704.43	99.1111
1706.54	95.1111
1708.65	102.667
1710.76	99.3333
1712.87	98
1714.98	98
1717.08	96.6667
1719.19	100.889
1721.29	99.5556
1723.4	98.2222
1725.5	100
1727.61	98.4444
1729.71	97.7778
1731.81	97.3333
1733.91	98.4444
1736.02	99.7778
1738.12	98.8889
1740.22	94.4444
1742.31	98.2222
1744.41	98.6667
1746.51	97.1111
1748.61	97.1111
1750.7	95.5556
1752.8	95.3333
1754.9	94.8889
1756.99	94.6667
1759.08	92.8889
1761.18	100.667
1763.27	96
1765.36	95.1111
1767.45	94.8889
1769.54	97.7778
1771.63	95.1111
1773.72	95.1111
1775.81	95.1111
1777.9	92.4444
1779.99	94.4444
1782.08	95.7778
1784.16	96.8889
1786.25	97.3333
1788.33	99.5556
1790.42	96.2222
1792.5	96.4445
1794.58	100
1796.67	95.1111
1798.75	96.4445
1800.83	96.2222
1802.91	91.7778
1804.99	95.5556
1807.07	95.7778
1809.15	93.1111
1811.23	92.8889
1813.3	100.222
1815.38	97.1111
1817.46	93.7778
1819.53	96.6667
1821.61	100
1823.68	100.444
1825.75	94.8889
1827.83	96.6667
1829.9	94.8889
1831.97	97.5555
1834.04	96
1836.11	96.6667
1838.18	98.8889
1840.25	97.7778
1842.32	94.6667
1844.39	96.2222
1846.46	92
1848.52	98.4444
1850.59	96.2222
1852.65	97.7778
1854.72	95.5556
1856.78	98.6667
1858.85	94.8889
1860.91	94.8889
1862.97	97.3333
1865.03	96.6667
1867.09	95.7778
1869.16	93.7778
1871.22	92
1873.27	97.7778
1875.33	94.6667
1877.39	95.7778
1879.45	96.4444
1881.51	97.3333
1883.56	97.3333
1885.62	95.3333
1887.67	96.8889
1889.73	98
1891.78	100
1893.83	98.8889
1895.89	93.7778
1897.94	99.3333
1899.99	99.1111
1902.04	100.889
1904.09	100.889
1906.14	101.111
1908.19	100.889
1910.23	101.333
1912.28	97.3333
1914.33	98.8889
1916.37	100.222
1918.42	99.5556
1920.46	99.7778
1922.51	96.2222
1924.55	98.2222
1926.6	98
1928.64	101.556
1930.68	99.5556
1932.72	99.5556
1934.76	96
1936.8	101.778
1938.84	99.1111
1940.88	102.444
1942.92	100.889
1944.96	96.8889
1946.99	96
1949.03	99.1111
1951.06	96.4444
1953.1	99.7778
1955.13	103.556
1957.17	95.1111
1959.2	98.2222
1961.23	97.5555
1963.27	98.2222
1965.3	97.5556
1967.33	102.222
1969.36	98.4444
1971.39	98.8889
1973.42	99.3333
1975.44	97.1111
1977.47	98.4444
1979.5	99.7778
1981.53	95.7778
1983.55	99.7778
1985.58	100.667
1987.6	100.222
1989.63	96.8889
1991.65	102.667
1993.67	102
1995.69	95.3333
1997.72	98.6667
1999.74	96.4444
2001.76	96.4444
2003.78	100.444
2005.8	100.667
2007.82	96.6667
2009.83	103.556
2011.85	98.4444
2013.87	100.222
2015.88	96.4444
2017.9	101.111
2019.91	98.8889
2021.93	99.3333
2023.94	95.5556
2025.96	103.778
2027.97	100.889
2029.98	100.889
2031.99	99.7778
2034	98.8889
2036.01	99.7778
2038.02	99.1111
2040.03	103.778
2042.04	103.556
2044.05	100.444
2046.05	103.111
2048.06	100.444
2050.07	96.2222
2052.07	100.889
2054.08	100
2056.08	103.111
2058.08	104.667
2060.09	103.778
2062.09	103.556
2064.09	102.222
2066.09	99.5556
2068.09	97.7778
2070.09	98.6667
2072.09	103.556
2074.09	98.4444
2076.09	100
2078.09	101.778
2080.08	101.111
2082.08	97.3333
2084.08	100.889
2086.07	101.333
2088.07	99.1111
2090.06	100.222
2092.05	98.6667
2094.05	102
2096.04	102.667
2098.03	100.222
2100.02	100.667
2102.01	102
2104	102
2105.99	98.6667
2107.98	99.5555
2109.97	100.222
2111.95	101.333
2113.94	99.1111
2115.93	99.7778
2117.91	106.444
2119.9	101.556
2121.88	102.667
2123.87	100.444
2125.85	104.889
2127.83	103.778
2129.81	106
2131.8	101.333
2133.78	104.667
2135.76	103.556
2137.74	103.111
2139.72	105.778
2141.69	105.111
2143.67	102.222
2145.65	102.889
2147.63	102.222
2149.6	104.222
2151.58	104.222
2153.55	101.778
2155.53	101.778
2157.5	103.111
2159.48	104.889
2161.45	106.444
2163.42	102.222
2165.39	100.222
2167.36	103.778
2169.33	98.6667
2171.3	100.889
2173.27	101.556
2175.24	97.5556
2177.21	102.222
2179.18	100.667
2181.14	100.667
2183.11	101.333
2185.07	101.778
2187.04	104.889
2189	104.222
2190.97	98.8889
2192.93	102
2194.89	99.5555
2196.86	104.444
2198.82	101.778
2200.78	102.222
2202.74	104.444
2204.7	102.667
2206.66	100.444
2208.62	100.444
2210.57	97.7778
2212.53	103.556
2214.49	93.5556
2216.45	102.222
2218.4	99.7778
2220.36	102.889
2222.31	100.667
2224.27	105.111
2226.22	100.889
2228.17	99.5556
2230.12	104.444
2232.08	102
2234.03	104.222
2235.98	100
2237.93	103.333
2239.88	103.333
2241.83	100.889
2243.78	101.778
2245.72	103.111
2247.67	106.222
2249.62	103.778
2251.56	104.444
2253.51	100.222
2255.45	101.333
2257.4	100.667
2259.34	102.222
2261.28	102.889
2263.23	103.556
2265.17	105.778
2267.11	103.556
2269.05	100.222
2270.99	101.778
2272.93	102.889
2274.87	100.444
2276.81	100.889
2278.75	102.889
2280.68	103.778
2282.62	102.889
2284.56	102.222
2286.49	101.111
2288.43	101.778
2290.36	101.333
2292.3	100.667
2294.23	99.5556
2296.16	105.111
2298.09	104
2300.03	104.444
2301.96	103.556
2303.89	105.556
2305.82	100.889
2307.75	97.5556
2309.68	104.667
2311.6	102.444
2313.53	105.333
2315.46	100.889
2317.39	98.6667
2319.31	101.111
2321.24	98.4444
2323.16	106.444
2325.09	105.778
2327.01	106.444
2328.93	104.667
2330.86	105.333
2332.78	108.667
2334.7	101.556
2336.62	101.111
2338.54	101.333
2340.46	103.111
2342.38	103.556
2344.3	98.2222
2346.22	104
2348.14	98.8889
2350.05	102.667
2351.97	103.111
2353.89	100
2355.8	101.333
2357.71	103.778
2359.63	100.889
2361.54	98.8889
2363.46	101.778
2365.37	102.444
2367.28	102.889
2369.19	104
2371.1	101.556
2373.01	102
2374.92	105.111
2376.83	101.778
2378.74	103.333
2380.65	103.556
2382.56	100
2384.46	102.444
2386.37	105.333
2388.27	104.889
2390.18	102
2392.08	105.333
2393.99	102.222
2395.89	100.889
2397.8	104.889
2399.7	101.333
2401.6	100.889
2403.5	108.889
2405.4	104.889
2407.3	101.111
2409.2	106
2411.1	104.444
2413	104.889
2414.9	102.667
2416.8	101.556
2418.69	101.556
2420.59	100.667
2422.48	97.5556
2424.38	107.111
2426.28	106
2428.17	102.667
2430.06	105.556
2431.96	103.556
2433.85	106.667
2435.74	104.444
2437.63	104.667
2439.52	104.222
2441.41	106.667
2443.3	102.889
2445.19	106.222
2447.08	104.222
