176.817	104.889
179.42	98.6667
182.022	98
184.622	93.5555
187.223	93.5556
189.821	93.5556
192.419	92.4444
195.017	88.6667
197.612	88.8889
200.208	86.6667
202.802	86.4444
205.397	88
207.99	88.6667
210.581	85.7778
213.173	82.8889
215.762	78.8889
218.352	82.4444
220.94	77.7778
223.528	78.8889
226.114	76
228.701	79.3333
231.285	74.4444
233.87	74.4444
236.452	74.6667
239.034	73.3333
241.616	70
244.196	72.6667
246.777	73.5556
249.355	74.2222
251.933	73.3333
254.511	72.2222
257.086	74.6667
259.663	74.2222
262.237	72.2222
264.81	72.8889
267.383	71.3333
269.955	71.1111
272.525	73.1111
275.097	72.6667
277.665	69.7778
280.234	66.8889
282.802	68
285.368	72.2222
287.934	64
290.499	69.1111
293.064	69.1111
295.627	62.8889
298.189	64.4444
300.75	62.4444
303.312	66.6667
305.871	64.2222
308.43	63.7778
310.988	62.8889
313.545	63.5556
316.101	60
318.658	65.1111
321.212	60.4444
323.766	57.5556
326.319	61.3333
328.871	60
331.422	60.6667
333.972	60.6667
336.522	57.1111
339.072	59.5556
341.619	59.5556
344.166	60.6667
346.712	58.2222
349.258	59.1111
351.802	60.6667
354.346	58.2222
356.888	62.4444
359.43	59.7778
361.971	61.7778
364.511	60.2222
367.051	60.4444
369.589	60.6667
372.127	62.4444
374.664	63.5556
377.2	62.2222
379.735	61.1111
382.27	59.7778
384.802	60.6667
387.334	64.2222
389.866	63.3333
392.397	64.4444
394.927	68
397.457	63.7778
399.985	69.1111
402.513	69.7778
405.038	72
407.565	73.7778
410.09	74.6667
412.614	83.7778
415.138	86.2222
417.66	91.1111
420.181	103.556
422.702	112.889
425.222	130
427.742	139.556
430.259	158
432.777	164.889
435.294	163.778
437.81	159.778
440.324	150.444
442.838	145.778
445.352	137.556
447.863	127.556
450.375	118.889
452.887	106
455.395	106
457.905	98.6667
460.414	89.7778
462.92	86
465.427	82.2222
467.932	77.7778
470.438	76.6667
472.942	72.8889
475.445	73.1111
477.948	71.1111
480.448	67.7778
482.95	67.7778
485.449	68.4444
487.949	64.6667
490.446	65.3333
492.944	64.2222
495.44	62.6667
497.937	60.8889
500.431	62.8889
502.926	61.5556
505.418	58
507.912	58.2222
510.403	58.6667
512.894	62.2222
515.384	58.8889
517.874	58.8889
520.361	60.8889
522.848	57.5556
525.336	59.3333
527.821	57.7778
530.306	55.7778
532.791	56.6667
535.274	57.5556
537.756	58.4444
540.238	57.7778
542.719	60.4444
545.199	57.3333
547.679	61.5556
550.157	54
552.634	56.6667
555.112	56.6667
557.588	59.1111
560.063	58.2222
562.537	59.5556
565.011	56.8889
567.484	55.7778
569.955	59.1111
572.426	61.1111
574.896	61.5556
577.367	60
579.835	58
582.303	55.1111
584.77	54.8889
587.236	61.7778
589.701	56.6667
592.165	58.8889
594.629	54.4444
597.093	57.7778
599.555	58.2222
602.016	58.2222
604.477	56.6667
606.936	58.8889
609.395	63.1111
611.853	57.7778
614.311	58.8889
616.767	57.5556
619.223	61.3333
621.678	60
624.132	58.4444
626.585	62.2222
629.037	58.2222
631.489	59.5556
633.94	60
636.39	60
638.839	61.3333
641.288	61.1111
643.736	57.1111
646.183	61.5556
648.627	56.4444
651.073	61.7778
653.517	62.6667
655.961	58.6667
658.404	60.2222
660.846	58.2222
663.288	58.2222
665.727	59.5556
668.167	60
670.606	63.5556
673.044	58.8889
675.482	60.2222
677.917	59.1111
680.353	57.5556
682.788	60.8889
685.222	60.4444
687.655	60.2222
690.087	61.5556
692.519	56.8889
694.951	62
697.38	63.1111
699.809	60.2222
702.238	61.7778
704.665	59.3333
707.092	62
709.519	61.7778
711.943	60.4444
714.368	59.3333
716.791	61.7778
719.214	61.5556
721.637	62.2222
724.058	59.5556
726.479	63.1111
728.898	61.1111
731.317	59.3333
733.734	62.8889
736.152	60.8889
738.568	66.2222
740.985	62.6667
743.399	61.3333
745.814	64.2222
748.227	63.1111
750.64	62.6667
753.051	61.7778
755.463	61.1111
757.872	63.5556
760.283	64.4444
762.691	64.6667
765.098	64.2222
767.506	65.5556
769.912	67.1111
772.318	62
774.722	69.5556
777.126	67.5556
779.53	63.5556
781.932	66.6667
784.333	68.2222
786.735	68.2222
789.135	65.1111
791.533	66
793.933	71.7778
796.33	68.6667
798.727	68.4444
801.123	72
803.519	70.8889
805.913	73.5556
808.307	73.7778
810.699	75.1111
813.093	77.3333
815.484	74.6667
817.874	76.4444
820.264	78.8889
822.653	74.2222
825.041	76.4444
827.43	74
829.817	73.5556
832.203	76.4445
834.588	78
836.972	78.2222
839.356	83.3333
841.738	80.4444
844.12	83.1111
846.502	87.3333
848.882	92.4445
851.262	96.8889
853.641	94.4444
856.02	103.556
858.397	112.667
860.774	120.889
863.15	126
865.525	141.778
867.9	171.333
870.273	208.889
872.646	267.333
875.019	353.556
877.39	512.444
879.761	730.667
882.131	949.333
884.5	1054.67
886.869	984.889
889.236	790.889
891.602	568.222
893.968	397.556
896.334	281.111
898.698	221.111
901.062	176
903.426	153.333
905.787	132.444
908.148	119.556
910.509	114.667
912.87	107.556
915.228	99.5556
917.587	97.1111
919.945	92.8889
922.302	86.8889
924.657	88.8889
927.013	82.6667
929.368	84.8889
931.721	81.5556
934.074	80.4444
936.427	79.3333
938.778	78.2222
941.129	77.5556
943.479	78.2222
945.828	76.4445
948.177	75.3333
950.524	71.7778
952.871	77.1111
955.218	74.4444
957.563	77.3333
959.908	72.6667
962.252	71.3333
964.595	73.7778
966.937	73.7778
969.28	75.3333
971.62	74.2222
973.961	74
976.3	79.5556
978.639	73.3333
980.976	77.1111
983.314	76.6667
985.65	74.4444
987.987	79.3333
990.321	76.2222
992.655	78.4444
994.989	80
997.321	80
999.653	82.2222
1001.98	85.7778
1004.31	84.6667
1006.65	85.3333
1008.97	91.3333
1011.3	91.1111
1013.63	90.8889
1015.96	95.5556
1018.28	98.8889
1020.61	104.444
1022.93	107.556
1025.26	108.222
1027.58	118.889
1029.9	123.556
1032.22	134
1034.54	150.667
1036.86	164
1039.18	185.556
1041.5	210.889
1043.82	249.556
1046.14	281.111
1048.45	312.444
1050.77	337.778
1053.08	348.667
1055.4	340.222
1057.71	325.778
1060.02	283.111
1062.33	239.556
1064.64	224
1066.96	202.889
1069.27	194.667
1071.57	189.111
1073.88	186
1076.19	197.333
1078.5	204.667
1080.8	215.111
1083.11	225.556
1085.41	245.111
1087.72	263.556
1090.02	295.556
1092.32	315.111
1094.62	334.444
1096.92	352.889
1099.22	356.889
1101.52	325.556
1103.82	292.444
1106.12	256.222
1108.42	225.556
1110.71	203.111
1113.01	188.889
1115.3	178.667
1117.6	176
1119.89	170.667
1122.18	165.333
1124.48	160.889
1126.77	148
1129.06	147.333
1131.35	139.111
1133.64	128
1135.93	123.778
1138.21	121.556
1140.5	113.333
1142.79	110.444
1145.07	109.556
1147.36	105.111
1149.64	107.556
1151.92	98.4444
1154.21	98.8889
1156.49	97.7778
1158.77	98
1161.05	97.1111
1163.33	94.4445
1165.61	90.4444
1167.89	89.7778
1170.16	90
1172.44	96.6667
1174.72	89.7778
1176.99	87.7778
1179.27	86.4444
1181.54	85.3333
1183.81	89.5555
1186.09	87.1111
1188.36	85.3333
1190.63	87.1111
1192.9	90
1195.17	85.3333
1197.44	86
1199.71	85.3333
1201.97	89.1111
1204.24	90.2222
1206.5	89.7778
1208.77	91.5556
1211.03	89.7778
1213.3	91.7778
1215.56	93.1111
1217.82	89.1111
1220.09	95.7778
1222.35	95.3333
1224.61	92
1226.87	96.4444
1229.12	96.4444
1231.38	97.7778
1233.64	99.5556
1235.9	101.333
1238.15	104.889
1240.41	100.444
1242.66	104.667
1244.92	108
1247.17	110
1249.42	112.444
1251.67	115.556
1253.92	114.667
1256.17	123.111
1258.42	128.222
1260.67	132.444
1262.92	139.333
1265.17	154.222
1267.42	170.222
1269.66	179.333
1271.91	195.111
1274.15	212.889
1276.39	219.556
1278.64	219.333
1280.88	204
1283.12	186.889
1285.36	175.556
1287.6	158.222
1289.84	146.889
1292.08	133.778
1294.32	136.222
1296.56	125.556
1298.79	126.444
1301.03	116.667
1303.26	120.667
1305.5	120.222
1307.73	115.556
1309.97	112
1312.2	113.778
1314.43	110.667
1316.66	108.444
1318.89	113.111
1321.12	114.889
1323.35	116.222
1325.58	109.556
1327.81	108.889
1330.03	114.222
1332.26	109.111
1334.49	110.222
1336.71	112.889
1338.94	112
1341.16	110.444
1343.38	110.222
1345.6	117.333
1347.83	114.667
1350.05	113.556
1352.27	116.222
1354.49	113.556
1356.7	118.444
1358.92	113.333
1361.14	122.667
1363.36	124.667
1365.57	120.889
1367.79	122.889
1370	127.333
1372.21	130
1374.43	128.444
1376.64	134
1378.85	135.111
1381.06	138.889
1383.27	144
1385.48	143.778
1387.69	144.667
1389.9	138.667
1392.11	144.667
1394.31	149.778
1396.52	147.778
1398.73	155.111
1400.93	149.111
1403.13	158
1405.34	159.778
1407.54	153.556
1409.74	166.222
1411.94	168.444
1414.14	168.667
1416.34	178.222
1418.54	184
1420.74	186.889
1422.94	192.222
1425.14	198
1427.33	207.556
1429.53	209.111
1431.72	219.778
1433.92	235.333
1436.11	247.778
1438.3	261.778
1440.5	280.444
1442.69	311.556
1444.88	346.889
1447.07	370.667
1449.26	411.778
1451.45	427.333
1453.64	459.111
1455.82	462
1458.01	447.111
1460.2	419.556
1462.38	378.889
1464.57	329.333
1466.75	303.333
1468.93	275.333
1471.12	267.556
1473.3	252.222
1475.48	246.222
1477.66	254.667
1479.84	253.111
1482.02	252.889
1484.2	249.111
1486.38	240
1488.55	233.111
1490.73	215.333
1492.91	201.556
1495.08	193.111
1497.26	179.556
1499.43	169.778
1501.61	165.111
1503.78	157.778
1505.95	150.667
1508.12	150
1510.29	144.667
1512.46	142.667
1514.63	137.333
1516.8	131.333
1518.97	137.556
1521.14	134.889
1523.3	130.444
1525.47	129.333
1527.63	121.333
1529.8	125.111
1531.96	121.333
1534.12	124.222
1536.29	115.111
1538.45	114.889
1540.61	115.333
1542.77	118
1544.93	117.111
1547.09	112.667
1549.25	111.111
1551.41	111.556
1553.56	108.667
1555.72	112
1557.88	109.111
1560.03	111.556
1562.18	108
1564.34	101.556
1566.49	106.889
1568.64	105.556
1570.8	108.889
1572.95	104.222
1575.1	99.7778
1577.25	103.111
1579.4	104
1581.55	99.3333
1583.69	104.444
1585.84	100.444
1587.99	105.778
1590.13	99.7778
1592.28	104.667
1594.42	102.444
1596.57	99.1111
1598.71	102.889
1600.85	103.556
1602.99	104.667
1605.14	105.556
1607.28	105.111
1609.42	101.333
1611.56	105.778
1613.69	102.889
1615.83	107.556
1617.97	106
1620.11	101.778
1622.24	104.444
1624.38	99.5556
1626.51	100.667
1628.65	100.444
1630.78	99.5556
1632.91	101.111
1635.04	98.8889
1637.17	101.333
1639.31	97.1111
1641.44	95.7778
1643.57	100.444
1645.69	98.4444
1647.82	99.1111
1649.95	100.889
1652.08	96.8889
1654.2	98
1656.33	98
1658.45	99.7778
1660.58	98.8889
1662.7	100.667
1664.82	97.1111
1666.94	101.778
1669.07	100.444
1671.19	96.8889
1673.31	100.222
1675.43	99.1111
1677.55	96.4445
1679.66	97.7778
1681.78	97.5555
1683.9	102.667
1686.01	104.667
1688.13	101.556
1690.25	99.7778
1692.36	104
1694.47	103.778
1696.59	99.5556
1698.7	99.1111
1700.81	103.556
1702.92	100.444
1705.03	103.556
1707.14	100.444
1709.25	100.667
1711.36	102.444
1713.47	104
1715.58	100.222
1717.68	102
1719.79	100.222
1721.89	102.444
1724	99.3333
1726.1	102.222
1728.21	100.222
1730.31	102.667
1732.41	102.889
1734.51	97.1111
1736.61	103.556
1738.71	102.222
1740.81	98.8889
1742.91	98
1745.01	99.3333
1747.11	99.5556
1749.2	100
1751.3	97.3333
1753.4	99.5556
1755.49	103.333
1757.59	100
1759.68	101.111
1761.77	98.8889
1763.86	99.3333
1765.96	100.667
1768.05	102
1770.14	102.889
1772.23	99.7778
1774.32	102.222
1776.41	96.6667
1778.49	98
1780.58	97.3333
1782.67	98.6667
1784.76	96.6667
1786.84	98.8889
1788.92	95.7778
1791.01	99.1111
1793.09	101.333
1795.18	103.111
1797.26	99.3333
1799.34	98.8889
1801.42	103.111
1803.5	101.333
1805.58	98.8889
1807.66	98.8889
1809.74	104
1811.82	99.5556
1813.89	98
1815.97	100.889
1818.05	103.556
1820.12	99.5556
1822.2	100.667
1824.27	99.3333
1826.34	97.3333
1828.42	101.778
1830.49	97.1111
1832.56	99.7778
1834.63	104
1836.7	100.889
1838.77	101.556
1840.84	97.1111
1842.91	98.4444
1844.98	99.3333
1847.04	105.778
1849.11	98.6667
1851.18	98.2222
1853.24	104
1855.31	101.333
1857.37	100.889
1859.43	98.4444
1861.5	100.444
1863.56	101.333
1865.62	105.111
1867.68	99.3333
1869.74	103.111
1871.8	99.7778
1873.86	106.222
1875.92	102.444
1877.98	102.222
1880.03	105.111
1882.09	104
1884.15	108.222
1886.2	104
1888.26	107.556
1890.31	96.8889
1892.36	103.778
1894.42	102.667
1896.47	107.333
1898.52	104.667
1900.57	102.444
1902.62	102.889
1904.67	104
1906.72	100.667
1908.77	109.333
1910.82	103.111
1912.86	104.222
1914.91	101.556
1916.96	104.667
1919	102
1921.04	104.889
1923.09	102.444
1925.13	106.667
1927.18	103.556
1929.22	104.222
1931.26	108.222
1933.3	102.222
1935.34	105.556
1937.38	101.556
1939.42	104.889
1941.46	103.556
1943.5	101.111
1945.53	98.6667
1947.57	108.667
1949.61	107.778
1951.64	102.889
1953.68	106.444
1955.71	109.778
1957.75	106
1959.78	108.444
1961.81	104.444
1963.84	107.111
1965.87	105.556
1967.9	108.889
1969.93	104.222
1971.96	108
1973.99	106.444
1976.02	102.222
1978.05	107.111
1980.07	107.778
1982.1	104.889
1984.13	104.889
1986.15	108.889
1988.18	106.222
1990.2	109.556
1992.22	107.556
1994.25	104.889
1996.27	105.778
1998.29	105.556
2000.31	107.556
2002.33	105.778
2004.35	102.444
2006.37	110
2008.39	107.111
2010.41	106
2012.42	106.889
2014.44	109.778
2016.46	109.111
2018.47	102.889
2020.49	103.556
2022.5	106.222
2024.51	110.667
2026.53	108.667
2028.54	107.333
2030.55	109.111
2032.56	108.222
2034.57	107.556
2036.58	109.333
2038.59	108.889
2040.6	108.222
2042.61	110.889
2044.62	104.889
2046.62	111.333
2048.63	105.778
2050.64	106.889
2052.64	111.556
2054.65	110.667
2056.65	108.444
2058.65	113.333
2060.66	110.889
2062.66	111.333
2064.66	114
2066.66	104.222
2068.66	109.556
2070.66	114.667
2072.66	109.333
2074.66	107.111
2076.66	110.444
2078.65	112.667
2080.65	108.889
2082.65	113.111
2084.64	110.889
2086.64	112.889
2088.63	113.111
2090.63	114
2092.62	110.222
2094.61	109.556
2096.6	108.889
2098.59	112.222
2100.59	116
2102.58	111.111
2104.56	111.556
2106.55	116.222
2108.54	111.778
2110.53	114.444
2112.52	112.667
2114.5	113.333
2116.49	106.889
2118.48	112.889
2120.46	113.556
2122.44	113.333
2124.43	112.667
2126.41	114.667
2128.39	114.889
2130.38	113.111
2132.36	113.556
2134.34	113.778
2136.32	107.556
2138.3	117.333
2140.28	114.667
2142.26	109.778
2144.23	111.333
2146.21	109.778
2148.19	113.556
2150.16	108.222
2152.14	115.111
2154.11	113.111
2156.09	115.111
2158.06	112.444
2160.04	107.556
2162.01	113.111
2163.98	110.889
2165.95	113.556
2167.92	115.556
2169.89	108.889
2171.86	112.222
2173.83	111.111
2175.8	114.222
2177.77	109.556
2179.73	108.889
2181.7	117.778
2183.67	114
2185.63	118
2187.6	117.111
2189.56	112.222
2191.53	118.222
2193.49	113.333
2195.45	114.222
2197.41	116
2199.37	116.222
2201.34	113.778
2203.29	110.889
2205.26	115.556
2207.21	111.778
2209.17	111.333
2211.13	115.778
2213.09	117.556
2215.05	117.111
2217	116.667
2218.96	117.333
2220.91	118.222
2222.87	114.667
2224.82	112.667
2226.77	115.333
2228.73	117.556
2230.68	117.333
2232.63	118.222
2234.58	116.889
2236.53	116.222
2238.48	117.556
2240.43	120.667
2242.38	119.778
2244.33	122.889
2246.27	117.333
2248.22	118.444
2250.17	124
2252.11	119.778
2254.06	118.889
2256	122
2257.95	118.667
2259.89	119.111
2261.84	121.111
2263.78	116
2265.72	120.444
2267.66	116.444
2269.6	122
2271.54	118.889
2273.48	117.778
2275.42	120.889
2277.36	118.222
2279.3	124.222
2281.23	118.444
2283.17	122.667
2285.11	115.778
2287.04	122.222
2288.98	121.556
2290.91	120
2292.84	120.889
2294.78	118
2296.71	121.111
2298.64	117.333
2300.57	116.667
2302.51	119.778
2304.44	119.556
2306.37	118.444
2308.29	117.333
2310.22	119.333
2312.15	116.667
2314.08	118.889
2316.01	119.556
2317.93	118.889
2319.86	122.222
2321.78	118.667
2323.71	121.333
2325.63	120.667
2327.56	117.111
2329.48	121.556
2331.4	118.444
2333.32	112.667
2335.25	116.222
2337.17	116.444
2339.09	116.667
2341.01	115.778
2342.92	120
2344.84	118
2346.76	119.333
2348.68	122.222
2350.6	115.556
2352.51	123.111
2354.43	116.667
2356.34	118.667
2358.26	118
2360.17	124
2362.09	118.444
2364	121.778
2365.91	122
2367.82	114.444
2369.73	120.667
2371.64	117.111
2373.55	120.667
2375.46	119.556
2377.37	120
2379.28	118.222
2381.19	119.778
2383.1	118.444
2385	118.889
2386.91	121.556
2388.82	117.778
2390.72	114.667
2392.62	115.111
2394.53	119.111
2396.43	120.444
2398.33	118.889
2400.24	122.667
2402.14	117.778
2404.04	123.556
2405.94	118.889
2407.84	119.556
2409.74	122.667
2411.64	119.778
2413.54	120.222
2415.44	126.667
2417.33	123.556
2419.23	125.333
2421.13	120.222
2423.02	122.667
2424.92	118.889
2426.81	120.222
2428.71	123.778
2430.6	124.222
2432.49	122.222
2434.38	124.667
2436.28	119.556
2438.17	122.667
2440.06	120.889
2441.95	117.333
2443.84	121.778
2445.73	121.333
