176.817	54.6667
179.42	54
182.022	52.6667
184.622	53.3333
187.223	50.6667
189.821	54
192.419	53.3333
195.017	52.6667
197.612	50
200.208	51.3333
202.802	46.6667
205.397	49.3333
207.99	48.6667
210.581	50
213.173	45.3333
215.762	50.6667
218.352	46
220.94	49.3333
223.528	47.3333
226.114	46.6667
228.701	45.3333
231.285	42.6667
233.87	49.3333
236.452	48
239.034	46.6667
241.616	44
244.196	46
246.777	43.3333
249.355	45.3333
251.933	40.6667
254.511	46
257.086	42.6667
259.663	46
262.237	46
264.81	44.6667
267.383	46.6667
269.955	46.6667
272.525	44.6667
275.097	46
277.665	47.3333
280.234	48
282.802	43.3333
285.368	39.3333
287.934	43.3333
290.499	42.6667
293.064	42
295.627	44
298.189	41.3333
300.75	40.6667
303.312	41.3333
305.871	45.3333
308.43	42
310.988	40
313.545	44
316.101	38.6667
318.658	39.3333
321.212	42
323.766	40.6667
326.319	41.3333
328.871	36.6667
331.422	38.6667
333.972	43.3333
336.522	42
339.072	40
341.619	42.6667
344.166	42.6667
346.712	39.3333
349.258	41.3333
351.802	45.3333
354.346	41.3333
356.888	37.3333
359.43	41.3333
361.971	40.6667
364.511	42
367.051	38.6667
369.589	42
372.127	44.6667
374.664	40
377.2	38.6667
379.735	39.3333
382.27	40
384.802	44
387.334	42.6667
389.866	39.3333
392.397	40
394.927	40
397.457	44
399.985	44
402.513	42.6667
405.038	43.3333
407.565	42
410.09	43.3333
412.614	47.3333
415.138	46.6667
417.66	48
420.181	48.6667
422.702	54
425.222	58
427.742	62
430.259	67.3333
432.777	74.6667
435.294	69.3333
437.81	72
440.324	68.6667
442.838	70
445.352	65.3333
447.863	61.3333
450.375	56.6667
452.887	55.3333
455.395	53.3333
457.905	50.6667
460.414	48
462.92	48
465.427	46.6667
467.932	44.6667
470.438	44.6667
472.942	49.3333
475.445	44.6667
477.948	46
480.448	44.6667
482.95	42.6667
485.449	42.6667
487.949	40.6667
490.446	40.6667
492.944	41.3333
495.44	38.6667
497.937	41.3333
500.431	40
502.926	42
505.418	39.3333
507.912	41.3333
510.403	40
512.894	41.3333
515.384	40.6667
517.874	42.6667
520.361	36.6667
522.848	39.3333
525.336	40.6667
527.821	38.6667
530.306	39.3333
532.791	38
535.274	38.6667
537.756	42.6667
540.238	42
542.719	40.6667
545.199	38.6667
547.679	35.3333
550.157	40
552.634	37.3333
555.112	36.6667
557.588	38
560.063	36.6667
562.537	38.6667
565.011	38.6667
567.484	38.6667
569.955	39.3333
572.426	38.6667
574.896	42.6667
577.367	40
579.835	42
582.303	38
584.77	30
587.236	38.6667
589.701	39.3333
592.165	38
594.629	39.3333
597.093	37.3333
599.555	40.6667
602.016	40
604.477	38.6667
606.936	39.3333
609.395	40
611.853	42.6667
614.311	40.6667
616.767	39.3333
619.223	40.6667
621.678	38
624.132	37.3333
626.585	38.6667
629.037	38
631.489	40.6667
633.94	36.6667
636.39	38.6667
638.839	40
641.288	40
643.736	41.3333
646.183	39.3333
648.627	40
651.073	44
653.517	42
655.961	40
658.404	39.3333
660.846	42
663.288	42.6667
665.727	41.3333
668.167	40.6667
670.606	38
673.044	42.6667
675.482	39.3333
677.917	38.6667
680.353	38.6667
682.788	40
685.222	44
687.655	42
690.087	39.3333
692.519	40
694.951	41.3333
697.38	40.6667
699.809	41.3333
702.238	40.6667
704.665	41.3333
707.092	40.6667
709.519	38.6667
711.943	42
714.368	42
716.791	44
719.214	41.3333
721.637	38.6667
724.058	44.6667
726.479	44
728.898	41.3333
731.317	42
733.734	42
736.152	42
738.568	42
740.985	44.6667
743.399	44
745.814	41.3333
748.227	45.3333
750.64	38
753.051	42
755.463	39.3333
757.872	43.3333
760.283	41.3333
762.691	47.3333
765.098	42
767.506	46.6667
769.912	42.6667
772.318	39.3333
774.722	44.6667
777.126	44.6667
779.53	45.3333
781.932	48.6667
784.333	43.3333
786.735	43.3333
789.135	44
791.533	43.3333
793.933	47.3333
796.33	48
798.727	42
801.123	45.3333
803.519	45.3333
805.913	44
808.307	48.6667
810.699	43.3333
813.093	44.6667
815.484	45.3333
817.874	48
820.264	42.6667
822.653	46
825.041	47.3333
827.43	47.3333
829.817	46.6667
832.203	46
834.588	46.6667
836.972	46
839.356	49.3333
841.738	46.6667
844.12	48
846.502	48
848.882	52
851.262	51.3333
853.641	51.3333
856.02	53.3333
858.397	53.3333
860.774	58.6667
863.15	63.3333
865.525	66
867.9	75.3333
870.273	81.3333
872.646	111.333
875.019	136.667
877.39	174.667
879.761	252.667
882.131	327.333
884.5	369.333
886.869	341.333
889.236	291.333
891.602	206.667
893.968	145.333
896.334	116.667
898.698	98
901.062	80
903.426	72.6667
905.787	68
908.148	62
910.509	58.6667
912.87	54.6667
915.228	48.6667
917.587	50.6667
919.945	47.3333
922.302	52
924.657	48
927.013	46
929.368	44.6667
931.721	46.6667
934.074	47.3333
936.427	41.3333
938.778	47.3333
941.129	44.6667
943.479	45.3333
945.828	45.3333
948.177	45.3333
950.524	46
952.871	48
955.218	42.6667
957.563	45.3333
959.908	44
962.252	44.6667
964.595	46.6667
966.937	46
969.28	47.3333
971.62	44.6667
973.961	43.3333
976.3	44
978.639	45.3333
980.976	46
983.314	41.3333
985.65	44.6667
987.987	48.6667
990.321	47.3333
992.655	44
994.989	45.3333
997.321	47.3333
999.653	46.6667
1001.98	46
1004.31	49.3333
1006.65	50.6667
1008.97	48
1011.3	54.6667
1013.63	51.3333
1015.96	52.6667
1018.28	52.6667
1020.61	56.6667
1022.93	54
1025.26	55.3333
1027.58	58
1029.9	60
1032.22	60.6667
1034.54	69.3333
1036.86	74.6667
1039.18	82.6667
1041.5	91.3333
1043.82	90.6667
1046.14	108.667
1048.45	120.667
1050.77	130
1053.08	136
1055.4	132.667
1057.71	121.333
1060.02	114.667
1062.33	98
1064.64	88.6667
1066.96	89.3333
1069.27	82.6667
1071.57	82
1073.88	76.6667
1076.19	81.3333
1078.5	79.3333
1080.8	80
1083.11	96.6667
1085.41	94
1087.72	101.333
1090.02	116.667
1092.32	120.667
1094.62	133.333
1096.92	136.667
1099.22	138.667
1101.52	131.333
1103.82	111.333
1106.12	102
1108.42	98
1110.71	86.6667
1113.01	82.6667
1115.3	74.6667
1117.6	76
1119.89	70
1122.18	74
1124.48	71.3333
1126.77	62.6667
1129.06	68
1131.35	64
1133.64	56
1135.93	59.3333
1138.21	56.6667
1140.5	58
1142.79	54
1145.07	57.3333
1147.36	52.6667
1149.64	52.6667
1151.92	52
1154.21	52
1156.49	52.6667
1158.77	50
1161.05	52
1163.33	51.3333
1165.61	52
1167.89	48
1170.16	53.3333
1172.44	48.6667
1174.72	49.3333
1176.99	48
1179.27	42.6667
1181.54	49.3333
1183.81	48.6667
1186.09	49.3333
1188.36	47.3333
1190.63	46.6667
1192.9	53.3333
1195.17	48
1197.44	51.3333
1199.71	46.6667
1201.97	47.3333
1204.24	48
1206.5	48
1208.77	47.3333
1211.03	49.3333
1213.3	50
1215.56	50
1217.82	50.6667
1220.09	53.3333
1222.35	50
1224.61	51.3333
1226.87	48.6667
1229.12	50
1231.38	48.6667
1233.64	50
1235.9	53.3333
1238.15	53.3333
1240.41	52.6667
1242.66	57.3333
1244.92	54.6667
1247.17	58
1249.42	57.3333
1251.67	56
1253.92	60
1256.17	56
1258.42	60.6667
1260.67	64
1262.92	66.6667
1265.17	69.3333
1267.42	74.6667
1269.66	76
1271.91	89.3333
1274.15	90.6667
1276.39	92
1278.64	93.3333
1280.88	90.6667
1283.12	82
1285.36	73.3333
1287.6	66.6667
1289.84	64.6667
1292.08	62.6667
1294.32	65.3333
1296.56	58.6667
1298.79	56
1301.03	63.3333
1303.26	59.3333
1305.5	59.3333
1307.73	55.3333
1309.97	52
1312.2	57.3333
1314.43	58.6667
1316.66	55.3333
1318.89	56.6667
1321.12	55.3333
1323.35	53.3333
1325.58	54
1327.81	59.3333
1330.03	52
1332.26	52.6667
1334.49	60.6667
1336.71	56
1338.94	54.6667
1341.16	56.6667
1343.38	52.6667
1345.6	60.6667
1347.83	58.6667
1350.05	54.6667
1352.27	59.3333
1354.49	52
1356.7	57.3333
1358.92	56.6667
1361.14	60.6667
1363.36	62
1365.57	58.6667
1367.79	63.3333
1370	56.6667
1372.21	64.6667
1374.43	68
1376.64	64
1378.85	66.6667
1381.06	67.3333
1383.27	66
1385.48	64.6667
1387.69	66
1389.9	68.6667
1392.11	69.3333
1394.31	66
1396.52	72.6667
1398.73	66
1400.93	69.3333
1403.13	70
1405.34	72.6667
1407.54	74
1409.74	70.6667
1411.94	73.3333
1414.14	76
1416.34	79.3333
1418.54	76
1420.74	77.3333
1422.94	80.6667
1425.14	83.3333
1427.33	82.6667
1429.53	93.3333
1431.72	96.6667
1433.92	91.3333
1436.11	99.3333
1438.3	104
1440.5	105.333
1442.69	121.333
1444.88	126
1447.07	147.333
1449.26	154
1451.45	156
1453.64	163.333
1455.82	171.333
1458.01	169.333
1460.2	160.667
1462.38	147.333
1464.57	128.667
1466.75	113.333
1468.93	108.667
1471.12	104
1473.3	100
1475.48	99.3333
1477.66	98.6667
1479.84	100
1482.02	98
1484.2	100.667
1486.38	96.6667
1488.55	95.3333
1490.73	93.3333
1492.91	88
1495.08	83.3333
1497.26	84
1499.43	80.6667
1501.61	75.3333
1503.78	71.3333
1505.95	73.3333
1508.12	71.3333
1510.29	66
1512.46	67.3333
1514.63	68.6667
1516.8	59.3333
1518.97	64
1521.14	61.3333
1523.3	62
1525.47	60.6667
1527.63	60
1529.8	63.3333
1531.96	60.6667
1534.12	56
1536.29	58.6667
1538.45	60
1540.61	64
1542.77	58
1544.93	56
1547.09	56.6667
1549.25	58
1551.41	54.6667
1553.56	57.3333
1555.72	54
1557.88	56
1560.03	57.3333
1562.18	55.3333
1564.34	62
1566.49	59.3333
1568.64	55.3333
1570.8	53.3333
1572.95	57.3333
1575.1	52
1577.25	54.6667
1579.4	57.3333
1581.55	47.3333
1583.69	54.6667
1585.84	54
1587.99	56.6667
1590.13	54
1592.28	51.3333
1594.42	58
1596.57	52
1598.71	54
1600.85	58
1602.99	54.6667
1605.14	54.6667
1607.28	55.3333
1609.42	55.3333
1611.56	57.3333
1613.69	54.6667
1615.83	56
1617.97	54.6667
1620.11	56.6667
1622.24	52.6667
1624.38	53.3333
1626.51	56.6667
1628.65	56
1630.78	54
1632.91	54.6667
1635.04	50.6667
1637.17	52.6667
1639.31	52
1641.44	54.6667
1643.57	53.3333
1645.69	56
1647.82	50
1649.95	54.6667
1652.08	54
1654.2	58
1656.33	49.3333
1658.45	58
1660.58	53.3333
1662.7	52
1664.82	51.3333
1666.94	56
1669.07	58.6667
1671.19	53.3333
1673.31	56.6667
1675.43	54.6667
1677.55	56
1679.66	56
1681.78	57.3333
1683.9	52.6667
1686.01	55.3333
1688.13	52.6667
1690.25	48.6667
1692.36	56
1694.47	53.3333
1696.59	53.3333
1698.7	51.3333
1700.81	54.6667
1702.92	57.3333
1705.03	54
1707.14	56
1709.25	60
1711.36	53.3333
1713.47	59.3333
1715.58	54.6667
1717.68	56
1719.79	52
1721.89	54.6667
1724	56.6667
1726.1	49.3333
1728.21	48
1730.31	52.6667
1732.41	53.3333
1734.51	56.6667
1736.61	52
1738.71	52.6667
1740.81	56.6667
1742.91	52
1745.01	51.3333
1747.11	55.3333
1749.2	53.3333
1751.3	54.6667
1753.4	56
1755.49	56
1757.59	54.6667
1759.68	58
1761.77	57.3333
1763.86	55.3333
1765.96	54.6667
1768.05	55.3333
1770.14	54.6667
1772.23	54.6667
1774.32	54.6667
1776.41	54.6667
1778.49	52
1780.58	54
1782.67	58
1784.76	57.3333
1786.84	56.6667
1788.92	56
1791.01	54
1793.09	53.3333
1795.18	52.6667
1797.26	58.6667
1799.34	50
1801.42	55.3333
1803.5	56
1805.58	57.3333
1807.66	52
1809.74	58.6667
1811.82	59.3333
1813.89	57.3333
1815.97	56.6667
1818.05	56.6667
1820.12	55.3333
1822.2	58
1824.27	52.6667
1826.34	53.3333
1828.42	54.6667
1830.49	56
1832.56	57.3333
1834.63	57.3333
1836.7	55.3333
1838.77	54.6667
1840.84	51.3333
1842.91	53.3333
1844.98	56
1847.04	56.6667
1849.11	54
1851.18	59.3333
1853.24	58
1855.31	56.6667
1857.37	57.3333
1859.43	54.6667
1861.5	58
1863.56	54
1865.62	54
1867.68	61.3333
1869.74	56.6667
1871.8	59.3333
1873.86	56
1875.92	58.6667
1877.98	48
1880.03	54.6667
1882.09	58
1884.15	56.6667
1886.2	55.3333
1888.26	54.6667
1890.31	56.6667
1892.36	60
1894.42	55.3333
1896.47	55.3333
1898.52	60.6667
1900.57	55.3333
1902.62	57.3333
1904.67	58
1906.72	54.6667
1908.77	55.3333
1910.82	61.3333
1912.86	54
1914.91	59.3333
1916.96	58
1919	53.3333
1921.04	60
1923.09	60.6667
1925.13	52.6667
1927.18	56.6667
1929.22	59.3333
1931.26	55.3333
1933.3	58.6667
1935.34	56.6667
1937.38	60
1939.42	57.3333
1941.46	60
1943.5	60
1945.53	62
1947.57	57.3333
1949.61	54.6667
1951.64	57.3333
1953.68	56
1955.71	58
1957.75	58
1959.78	57.3333
1961.81	58
1963.84	54.6667
1965.87	60.6667
1967.9	58.6667
1969.93	62
1971.96	57.3333
1973.99	56.6667
1976.02	54
1978.05	56
1980.07	56
1982.1	55.3333
1984.13	54.6667
1986.15	58
1988.18	58
1990.2	57.3333
1992.22	58.6667
1994.25	60
1996.27	58
1998.29	61.3333
2000.31	54.6667
2002.33	57.3333
2004.35	58.6667
2006.37	56
2008.39	58
2010.41	60
2012.42	60
2014.44	60.6667
2016.46	57.3333
2018.47	53.3333
2020.49	58.6667
2022.5	58.6667
2024.51	58.6667
2026.53	59.3333
2028.54	60.6667
2030.55	58.6667
2032.56	57.3333
2034.57	52.6667
2036.58	60
2038.59	57.3333
2040.6	59.3333
2042.61	58.6667
2044.62	56
2046.62	59.3333
2048.63	56
2050.64	60
2052.64	58.6667
2054.65	61.3333
2056.65	57.3333
2058.65	60
2060.66	60
2062.66	62
2064.66	60.6667
2066.66	58.6667
2068.66	59.3333
2070.66	58
2072.66	56.6667
2074.66	58.6667
2076.66	60
2078.65	58
2080.65	59.3333
2082.65	57.3333
2084.64	61.3333
2086.64	63.3333
2088.63	66
2090.63	60.6667
2092.62	64.6667
2094.61	64.6667
2096.6	64
2098.59	59.3333
2100.59	58
2102.58	60
2104.56	62
2106.55	61.3333
2108.54	60.6667
2110.53	56
2112.52	61.3333
2114.5	59.3333
2116.49	58.6667
2118.48	62
2120.46	62
2122.44	60.6667
2124.43	61.3333
2126.41	59.3333
2128.39	60
2130.38	58.6667
2132.36	60
2134.34	61.3333
2136.32	60.6667
2138.3	58
2140.28	64
2142.26	62.6667
2144.23	60.6667
2146.21	62
2148.19	56
2150.16	53.3333
2152.14	60
2154.11	64
2156.09	62.6667
2158.06	58.6667
2160.04	59.3333
2162.01	62.6667
2163.98	62.6667
2165.95	59.3333
2167.92	64.6667
2169.89	54.6667
2171.86	61.3333
2173.83	56.6667
2175.8	60.6667
2177.77	58.6667
2179.73	58.6667
2181.7	58.6667
2183.67	60.6667
2185.63	58.6667
2187.6	61.3333
2189.56	62.6667
2191.53	59.3333
2193.49	62.6667
2195.45	58
2197.41	63.3333
2199.37	62.6667
2201.34	62
2203.29	64
2205.26	56
2207.21	60
2209.17	64.6667
2211.13	62
2213.09	58.6667
2215.05	54.6667
2217	65.3333
2218.96	61.3333
2220.91	65.3333
2222.87	65.3333
2224.82	62.6667
2226.77	58.6667
2228.73	60
2230.68	61.3333
2232.63	62.6667
2234.58	67.3333
2236.53	64
2238.48	62
2240.43	56.6667
2242.38	63.3333
2244.33	58.6667
2246.27	64
2248.22	63.3333
2250.17	61.3333
2252.11	64.6667
2254.06	59.3333
2256	68
2257.95	62
2259.89	64
2261.84	62.6667
2263.78	63.3333
2265.72	64
2267.66	64.6667
2269.6	63.3333
2271.54	62.6667
2273.48	59.3333
2275.42	60.6667
2277.36	68.6667
2279.3	59.3333
2281.23	65.3333
2283.17	62
2285.11	64
2287.04	68
2288.98	62.6667
2290.91	64.6667
2292.84	64.6667
2294.78	66
2296.71	58
2298.64	65.3333
2300.57	60.6667
2302.51	64
2304.44	63.3333
2306.37	66
2308.29	66
2310.22	65.3333
2312.15	68
2314.08	63.3333
2316.01	64
2317.93	66.6667
2319.86	60.6667
2321.78	63.3333
2323.71	60
2325.63	66
2327.56	66
2329.48	58.6667
2331.4	62
2333.32	63.3333
2335.25	63.3333
2337.17	62
2339.09	64
2341.01	62
2342.92	59.3333
2344.84	62
2346.76	62
2348.68	61.3333
2350.6	61.3333
2352.51	62
2354.43	60.6667
2356.34	62.6667
2358.26	68.6667
2360.17	59.3333
2362.09	61.3333
2364	64
2365.91	65.3333
2367.82	64
2369.73	66.6667
2371.64	61.3333
2373.55	61.3333
2375.46	66.6667
2377.37	65.3333
2379.28	62
2381.19	62
2383.1	66
2385	63.3333
2386.91	66
2388.82	59.3333
2390.72	63.3333
2392.62	60.6667
2394.53	59.3333
2396.43	59.3333
2398.33	67.3333
2400.24	61.3333
2402.14	60.6667
2404.04	56
2405.94	63.3333
2407.84	59.3333
2409.74	67.3333
2411.64	62.6667
2413.54	62.6667
2415.44	65.3333
2417.33	59.3333
2419.23	69.3333
2421.13	66
2423.02	64
2424.92	60.6667
2426.81	64.6667
2428.71	68
2430.6	60
2432.49	62.6667
2434.38	67.3333
2436.28	62
2438.17	61.3333
2440.06	60.6667
2441.95	66
2443.84	63.3333
2445.73	64
