176.817	52
179.42	51.3333
182.022	54
184.622	50.6667
187.223	50
189.821	51.3333
192.419	54
195.017	48.6667
197.612	46.6667
200.208	52.6667
202.802	48.6667
205.397	51.3333
207.99	44
210.581	48.6667
213.173	47.3333
215.762	48
218.352	44
220.94	44.6667
223.528	44
226.114	46.6667
228.701	44.6667
231.285	48.6667
233.87	44
236.452	42.6667
239.034	49.3333
241.616	47.3333
244.196	45.3333
246.777	45.3333
249.355	48
251.933	40.6667
254.511	48.6667
257.086	44
259.663	46.6667
262.237	45.3333
264.81	43.3333
267.383	42.6667
269.955	43.3333
272.525	45.3333
275.097	42.6667
277.665	44
280.234	45.3333
282.802	42.6667
285.368	47.3333
287.934	40.6667
290.499	48
293.064	44
295.627	42
298.189	42.6667
300.75	41.3333
303.312	42.6667
305.871	41.3333
308.43	42
310.988	42.6667
313.545	38
316.101	41.3333
318.658	42
321.212	40.6667
323.766	38
326.319	40
328.871	39.3333
331.422	38.6667
333.972	44
336.522	41.3333
339.072	40.6667
341.619	38.6667
344.166	40.6667
346.712	38.6667
349.258	38
351.802	40.6667
354.346	42.6667
356.888	44
359.43	42
361.971	40.6667
364.511	40
367.051	38.6667
369.589	44.6667
372.127	42
374.664	41.3333
377.2	39.3333
379.735	40
382.27	42.6667
384.802	40
387.334	42
389.866	40.6667
392.397	42.6667
394.927	42
397.457	39.3333
399.985	45.3333
402.513	42
405.038	42
407.565	44.6667
410.09	44
412.614	45.3333
415.138	40
417.66	50
420.181	50.6667
422.702	54.6667
425.222	57.3333
427.742	72
430.259	74
432.777	65.3333
435.294	75.3333
437.81	66.6667
440.324	68
442.838	69.3333
445.352	62.6667
447.863	56.6667
450.375	62.6667
452.887	58
455.395	55.3333
457.905	54.6667
460.414	46
462.92	44.6667
465.427	46.6667
467.932	44
470.438	42.6667
472.942	43.3333
475.445	42
477.948	42.6667
480.448	40
482.95	42
485.449	38.6667
487.949	42
490.446	42.6667
492.944	42.6667
495.44	38
497.937	42.6667
500.431	40.6667
502.926	40.6667
505.418	41.3333
507.912	40.6667
510.403	41.3333
512.894	39.3333
515.384	38.6667
517.874	40
520.361	40.6667
522.848	38
525.336	42.6667
527.821	40
530.306	40.6667
532.791	40
535.274	38
537.756	38.6667
540.238	36.6667
542.719	34
545.199	40
547.679	36.6667
550.157	37.3333
552.634	40.6667
555.112	41.3333
557.588	36.6667
560.063	40.6667
562.537	40.6667
565.011	38.6667
567.484	40.6667
569.955	36
572.426	39.3333
574.896	40.6667
577.367	40
579.835	41.3333
582.303	44
584.77	42
587.236	41.3333
589.701	41.3333
592.165	38.6667
594.629	38
597.093	38
599.555	40
602.016	37.3333
604.477	38.6667
606.936	36.6667
609.395	40
611.853	38
614.311	38
616.767	36
619.223	38.6667
621.678	38.6667
624.132	41.3333
626.585	42.6667
629.037	40.6667
631.489	37.3333
633.94	40.6667
636.39	37.3333
638.839	39.3333
641.288	42
643.736	37.3333
646.183	38.6667
648.627	43.3333
651.073	36.6667
653.517	40
655.961	38.6667
658.404	39.3333
660.846	39.3333
663.288	41.3333
665.727	40
668.167	40
670.606	40
673.044	38.6667
675.482	41.3333
677.917	42
680.353	37.3333
682.788	40.6667
685.222	40.6667
687.655	38.6667
690.087	44
692.519	40
694.951	43.3333
697.38	40.6667
699.809	39.3333
702.238	43.3333
704.665	40.6667
707.092	42.6667
709.519	38.6667
711.943	36
714.368	40.6667
716.791	42
719.214	38.6667
721.637	40.6667
724.058	41.3333
726.479	38
728.898	40.6667
731.317	41.3333
733.734	42.6667
736.152	42.6667
738.568	42
740.985	43.3333
743.399	41.3333
745.814	44.6667
748.227	37.3333
750.64	38.6667
753.051	43.3333
755.463	42.6667
757.872	40.6667
760.283	40.6667
762.691	40.6667
765.098	40
767.506	42
769.912	44
772.318	40.6667
774.722	43.3333
777.126	42
779.53	46
781.932	44
784.333	46
786.735	40
789.135	44.6667
791.533	40
793.933	41.3333
796.33	40.6667
798.727	46
801.123	48
803.519	45.3333
805.913	45.3333
808.307	46.6667
810.699	47.3333
813.093	46
815.484	44
817.874	43.3333
820.264	46
822.653	42
825.041	46.6667
827.43	48
829.817	48
832.203	52
834.588	44.6667
836.972	46.6667
839.356	48.6667
841.738	47.3333
844.12	50
846.502	48
848.882	48.6667
851.262	50.6667
853.641	54.6667
856.02	54.6667
858.397	58.6667
860.774	58
863.15	62
865.525	69.3333
867.9	72
870.273	86.6667
872.646	104.667
875.019	140.667
877.39	184.667
879.761	246.667
882.131	315.333
884.5	360
886.869	338.667
889.236	288.667
891.602	209.333
893.968	150
896.334	112
898.698	88
901.062	76
903.426	70.6667
905.787	68.6667
908.148	62
910.509	57.3333
912.87	54.6667
915.228	54
917.587	50
919.945	50.6667
922.302	50
924.657	52
927.013	50
929.368	47.3333
931.721	50
934.074	46
936.427	47.3333
938.778	46.6667
941.129	45.3333
943.479	46.6667
945.828	40.6667
948.177	44
950.524	46
952.871	42.6667
955.218	42
957.563	43.3333
959.908	41.3333
962.252	46
964.595	46
966.937	42.6667
969.28	46
971.62	47.3333
973.961	42.6667
976.3	39.3333
978.639	46.6667
980.976	48.6667
983.314	48.6667
985.65	44
987.987	46.6667
990.321	43.3333
992.655	45.3333
994.989	50.6667
997.321	45.3333
999.653	43.3333
1001.98	47.3333
1004.31	45.3333
1006.65	45.3333
1008.97	48.6667
1011.3	44.6667
1013.63	47.3333
1015.96	52.6667
1018.28	54.6667
1020.61	54
1022.93	48
1025.26	56
1027.58	57.3333
1029.9	63.3333
1032.22	62
1034.54	72.6667
1036.86	74.6667
1039.18	74.6667
1041.5	87.3333
1043.82	99.3333
1046.14	109.333
1048.45	114
1050.77	134.667
1053.08	132
1055.4	125.333
1057.71	120.667
1060.02	105.333
1062.33	91.3333
1064.64	86.6667
1066.96	81.3333
1069.27	82
1071.57	79.3333
1073.88	82.6667
1076.19	78.6667
1078.5	74.6667
1080.8	84.6667
1083.11	94
1085.41	94.6667
1087.72	98.6667
1090.02	112
1092.32	122
1094.62	136.667
1096.92	130
1099.22	135.333
1101.52	127.333
1103.82	122
1106.12	97.3333
1108.42	90.6667
1110.71	86
1113.01	82
1115.3	78
1117.6	76.6667
1119.89	72.6667
1122.18	72
1124.48	70.6667
1126.77	67.3333
1129.06	65.3333
1131.35	60
1133.64	60.6667
1135.93	57.3333
1138.21	60
1140.5	50
1142.79	60.6667
1145.07	53.3333
1147.36	54.6667
1149.64	53.3333
1151.92	54.6667
1154.21	50
1156.49	50.6667
1158.77	54
1161.05	46
1163.33	48
1165.61	52.6667
1167.89	50
1170.16	48.6667
1172.44	52
1174.72	44.6667
1176.99	45.3333
1179.27	49.3333
1181.54	49.3333
1183.81	48.6667
1186.09	47.3333
1188.36	48.6667
1190.63	46.6667
1192.9	44.6667
1195.17	46
1197.44	48
1199.71	45.3333
1201.97	50.6667
1204.24	45.3333
1206.5	51.3333
1208.77	48
1211.03	49.3333
1213.3	50
1215.56	54
1217.82	49.3333
1220.09	48.6667
1222.35	52
1224.61	52
1226.87	52
1229.12	46.6667
1231.38	49.3333
1233.64	48
1235.9	53.3333
1238.15	52.6667
1240.41	54
1242.66	55.3333
1244.92	55.3333
1247.17	54.6667
1249.42	52.6667
1251.67	57.3333
1253.92	56.6667
1256.17	60.6667
1258.42	58
1260.67	59.3333
1262.92	68
1265.17	70
1267.42	68.6667
1269.66	75.3333
1271.91	84.6667
1274.15	94
1276.39	92
1278.64	89.3333
1280.88	82.6667
1283.12	78
1285.36	76.6667
1287.6	73.3333
1289.84	65.3333
1292.08	64.6667
1294.32	62.6667
1296.56	63.3333
1298.79	53.3333
1301.03	60.6667
1303.26	60.6667
1305.5	59.3333
1307.73	58.6667
1309.97	59.3333
1312.2	58.6667
1314.43	56
1316.66	56
1318.89	62
1321.12	58.6667
1323.35	54.6667
1325.58	52
1327.81	56.6667
1330.03	58.6667
1332.26	56
1334.49	55.3333
1336.71	54
1338.94	55.3333
1341.16	56
1343.38	55.3333
1345.6	58
1347.83	56.6667
1350.05	54.6667
1352.27	54
1354.49	52
1356.7	56
1358.92	54.6667
1361.14	60
1363.36	59.3333
1365.57	56
1367.79	56
1370	61.3333
1372.21	64
1374.43	66
1376.64	67.3333
1378.85	63.3333
1381.06	64.6667
1383.27	62.6667
1385.48	69.3333
1387.69	65.3333
1389.9	67.3333
1392.11	68.6667
1394.31	70.6667
1396.52	65.3333
1398.73	64.6667
1400.93	70.6667
1403.13	74
1405.34	70
1407.54	70
1409.74	69.3333
1411.94	72.6667
1414.14	73.3333
1416.34	78.6667
1418.54	75.3333
1420.74	80
1422.94	88
1425.14	82.6667
1427.33	84
1429.53	88.6667
1431.72	90.6667
1433.92	93.3333
1436.11	93.3333
1438.3	110
1440.5	110
1442.69	120.667
1444.88	122
1447.07	136
1449.26	150.667
1451.45	158
1453.64	161.333
1455.82	167.333
1458.01	159.333
1460.2	150.667
1462.38	136.667
1464.57	123.333
1466.75	123.333
1468.93	112.667
1471.12	108.667
1473.3	104
1475.48	104.667
1477.66	102
1479.84	100
1482.02	102.667
1484.2	100.667
1486.38	95.3333
1488.55	91.3333
1490.73	92
1492.91	88.6667
1495.08	84.6667
1497.26	77.3333
1499.43	76
1501.61	73.3333
1503.78	70.6667
1505.95	72.6667
1508.12	69.3333
1510.29	64.6667
1512.46	68
1514.63	60.6667
1516.8	66
1518.97	64
1521.14	66.6667
1523.3	59.3333
1525.47	64
1527.63	63.3333
1529.8	56.6667
1531.96	64.6667
1534.12	59.3333
1536.29	58.6667
1538.45	58
1540.61	60
1542.77	52.6667
1544.93	58.6667
1547.09	60
1549.25	56.6667
1551.41	58
1553.56	56.6667
1555.72	57.3333
1557.88	56
1560.03	56
1562.18	51.3333
1564.34	56
1566.49	57.3333
1568.64	61.3333
1570.8	52
1572.95	54.6667
1575.1	55.3333
1577.25	54.6667
1579.4	52
1581.55	56.6667
1583.69	54
1585.84	54.6667
1587.99	58.6667
1590.13	47.3333
1592.28	57.3333
1594.42	55.3333
1596.57	55.3333
1598.71	54.6667
1600.85	52
1602.99	52.6667
1605.14	59.3333
1607.28	51.3333
1609.42	56.6667
1611.56	54.6667
1613.69	54.6667
1615.83	52
1617.97	53.3333
1620.11	55.3333
1622.24	53.3333
1624.38	56
1626.51	57.3333
1628.65	50.6667
1630.78	53.3333
1632.91	51.3333
1635.04	55.3333
1637.17	52.6667
1639.31	52
1641.44	50.6667
1643.57	55.3333
1645.69	51.3333
1647.82	52
1649.95	52.6667
1652.08	53.3333
1654.2	49.3333
1656.33	54.6667
1658.45	55.3333
1660.58	57.3333
1662.7	54.6667
1664.82	57.3333
1666.94	56
1669.07	55.3333
1671.19	54.6667
1673.31	50
1675.43	50.6667
1677.55	54.6667
1679.66	52.6667
1681.78	58
1683.9	58.6667
1686.01	56
1688.13	54
1690.25	56
1692.36	48.6667
1694.47	52.6667
1696.59	54
1698.7	60
1700.81	56.6667
1702.92	54.6667
1705.03	54.6667
1707.14	54
1709.25	54
1711.36	53.3333
1713.47	54.6667
1715.58	58.6667
1717.68	56
1719.79	55.3333
1721.89	58.6667
1724	57.3333
1726.1	55.3333
1728.21	55.3333
1730.31	56
1732.41	50
1734.51	51.3333
1736.61	54
1738.71	59.3333
1740.81	50.6667
1742.91	53.3333
1745.01	55.3333
1747.11	54
1749.2	54
1751.3	55.3333
1753.4	54
1755.49	56.6667
1757.59	58
1759.68	53.3333
1761.77	50.6667
1763.86	57.3333
1765.96	54.6667
1768.05	56
1770.14	53.3333
1772.23	52.6667
1774.32	52
1776.41	57.3333
1778.49	58
1780.58	51.3333
1782.67	52.6667
1784.76	53.3333
1786.84	55.3333
1788.92	52.6667
1791.01	52
1793.09	52.6667
1795.18	54
1797.26	50
1799.34	53.3333
1801.42	50
1803.5	48.6667
1805.58	56.6667
1807.66	58
1809.74	51.3333
1811.82	53.3333
1813.89	54.6667
1815.97	51.3333
1818.05	53.3333
1820.12	56.6667
1822.2	57.3333
1824.27	54.6667
1826.34	52.6667
1828.42	56
1830.49	54
1832.56	56
1834.63	50.6667
1836.7	50
1838.77	55.3333
1840.84	54.6667
1842.91	58
1844.98	58
1847.04	58
1849.11	50.6667
1851.18	57.3333
1853.24	55.3333
1855.31	56.6667
1857.37	58
1859.43	58.6667
1861.5	56
1863.56	56
1865.62	52.6667
1867.68	53.3333
1869.74	57.3333
1871.8	52.6667
1873.86	55.3333
1875.92	56.6667
1877.98	52
1880.03	55.3333
1882.09	59.3333
1884.15	58.6667
1886.2	56
1888.26	56.6667
1890.31	52
1892.36	53.3333
1894.42	57.3333
1896.47	55.3333
1898.52	56.6667
1900.57	58
1902.62	61.3333
1904.67	55.3333
1906.72	54.6667
1908.77	57.3333
1910.82	50.6667
1912.86	55.3333
1914.91	58.6667
1916.96	54
1919	56.6667
1921.04	58.6667
1923.09	53.3333
1925.13	49.3333
1927.18	58.6667
1929.22	53.3333
1931.26	56.6667
1933.3	56.6667
1935.34	56.6667
1937.38	58
1939.42	57.3333
1941.46	62.6667
1943.5	54.6667
1945.53	51.3333
1947.57	58
1949.61	60
1951.64	58
1953.68	56
1955.71	58.6667
1957.75	58.6667
1959.78	58.6667
1961.81	56
1963.84	54.6667
1965.87	57.3333
1967.9	53.3333
1969.93	55.3333
1971.96	60.6667
1973.99	56
1976.02	54.6667
1978.05	55.3333
1980.07	55.3333
1982.1	57.3333
1984.13	58
1986.15	54
1988.18	54
1990.2	57.3333
1992.22	53.3333
1994.25	57.3333
1996.27	60
1998.29	60.6667
2000.31	58
2002.33	55.3333
2004.35	58
2006.37	54.6667
2008.39	56
2010.41	59.3333
2012.42	55.3333
2014.44	54.6667
2016.46	56.6667
2018.47	59.3333
2020.49	60
2022.5	58
2024.51	61.3333
2026.53	53.3333
2028.54	62.6667
2030.55	60.6667
2032.56	58.6667
2034.57	59.3333
2036.58	61.3333
2038.59	58.6667
2040.6	56
2042.61	57.3333
2044.62	54.6667
2046.62	54.6667
2048.63	57.3333
2050.64	58.6667
2052.64	61.3333
2054.65	61.3333
2056.65	60.6667
2058.65	56.6667
2060.66	62
2062.66	58.6667
2064.66	58
2066.66	56
2068.66	58
2070.66	64
2072.66	57.3333
2074.66	54.6667
2076.66	62
2078.65	59.3333
2080.65	60.6667
2082.65	56
2084.64	60.6667
2086.64	56
2088.63	64.6667
2090.63	63.3333
2092.62	61.3333
2094.61	60
2096.6	59.3333
2098.59	54.6667
2100.59	61.3333
2102.58	60.6667
2104.56	58.6667
2106.55	63.3333
2108.54	64.6667
2110.53	61.3333
2112.52	61.3333
2114.5	60
2116.49	61.3333
2118.48	58.6667
2120.46	59.3333
2122.44	53.3333
2124.43	59.3333
2126.41	62
2128.39	58.6667
2130.38	60.6667
2132.36	59.3333
2134.34	56.6667
2136.32	62.6667
2138.3	60.6667
2140.28	57.3333
2142.26	54.6667
2144.23	58
2146.21	58
2148.19	63.3333
2150.16	60.6667
2152.14	59.3333
2154.11	58.6667
2156.09	55.3333
2158.06	63.3333
2160.04	60.6667
2162.01	56
2163.98	58
2165.95	62
2167.92	60.6667
2169.89	56.6667
2171.86	62.6667
2173.83	62.6667
2175.8	62.6667
2177.77	61.3333
2179.73	64
2181.7	64
2183.67	54.6667
2185.63	54
2187.6	61.3333
2189.56	52.6667
2191.53	60
2193.49	58
2195.45	61.3333
2197.41	60
2199.37	64.6667
2201.34	59.3333
2203.29	57.3333
2205.26	64.6667
2207.21	62.6667
2209.17	66.6667
2211.13	62.6667
2213.09	55.3333
2215.05	62.6667
2217	61.3333
2218.96	62
2220.91	58.6667
2222.87	57.3333
2224.82	59.3333
2226.77	62
2228.73	59.3333
2230.68	60.6667
2232.63	62.6667
2234.58	60
2236.53	64.6667
2238.48	59.3333
2240.43	61.3333
2242.38	62.6667
2244.33	63.3333
2246.27	66.6667
2248.22	65.3333
2250.17	64
2252.11	60
2254.06	62.6667
2256	60
2257.95	60
2259.89	64.6667
2261.84	63.3333
2263.78	64.6667
2265.72	70.6667
2267.66	61.3333
2269.6	62
2271.54	62
2273.48	62.6667
2275.42	64.6667
2277.36	63.3333
2279.3	64.6667
2281.23	63.3333
2283.17	64.6667
2285.11	63.3333
2287.04	66
2288.98	64
2290.91	64
2292.84	62
2294.78	61.3333
2296.71	67.3333
2298.64	62.6667
2300.57	64.6667
2302.51	62
2304.44	60.6667
2306.37	60.6667
2308.29	60
2310.22	63.3333
2312.15	58.6667
2314.08	61.3333
2316.01	67.3333
2317.93	62
2319.86	69.3333
2321.78	62.6667
2323.71	61.3333
2325.63	60.6667
2327.56	65.3333
2329.48	66.6667
2331.4	61.3333
2333.32	71.3333
2335.25	65.3333
2337.17	66
2339.09	59.3333
2341.01	58.6667
2342.92	65.3333
2344.84	64
2346.76	62.6667
2348.68	65.3333
2350.6	67.3333
2352.51	66.6667
2354.43	63.3333
2356.34	66.6667
2358.26	59.3333
2360.17	64.6667
2362.09	62
2364	64.6667
2365.91	67.3333
2367.82	66
2369.73	60
2371.64	64
2373.55	65.3333
2375.46	66
2377.37	62.6667
2379.28	58
2381.19	65.3333
2383.1	66.6667
2385	62.6667
2386.91	61.3333
2388.82	66.6667
2390.72	65.3333
2392.62	64
2394.53	64.6667
2396.43	63.3333
2398.33	66.6667
2400.24	66.6667
2402.14	60.6667
2404.04	62.6667
2405.94	64.6667
2407.84	65.3333
2409.74	64
2411.64	68.6667
2413.54	67.3333
2415.44	63.3333
2417.33	62.6667
2419.23	62
2421.13	66.6667
2423.02	66.6667
2424.92	62.6667
2426.81	66
2428.71	64.6667
2430.6	64
2432.49	68
2434.38	64.6667
2436.28	64.6667
2438.17	66
2440.06	67.3333
2441.95	64
2443.84	58.6667
2445.73	68.6667
