176.817	49.3333
179.42	54.6667
182.022	48.6667
184.622	49.3333
187.223	53.3333
189.821	52.6667
192.419	52
195.017	48
197.612	49.3333
200.208	45.3333
202.802	49.3333
205.397	49.3333
207.99	47.3333
210.581	50
213.173	46.6667
215.762	48.6667
218.352	48.6667
220.94	47.3333
223.528	44.6667
226.114	48.6667
228.701	46
231.285	44.6667
233.87	41.3333
236.452	46
239.034	42
241.616	50
244.196	46.6667
246.777	47.3333
249.355	48
251.933	46
254.511	50.6667
257.086	43.3333
259.663	44.6667
262.237	47.3333
264.81	46.6667
267.383	48
269.955	48.6667
272.525	47.3333
275.097	42
277.665	46.6667
280.234	46.6667
282.802	38
285.368	43.3333
287.934	42
290.499	43.3333
293.064	44
295.627	42
298.189	38
300.75	41.3333
303.312	40
305.871	40.6667
308.43	41.3333
310.988	42.6667
313.545	42
316.101	41.3333
318.658	42
321.212	42.6667
323.766	44
326.319	42
328.871	42.6667
331.422	42.6667
333.972	39.3333
336.522	39.3333
339.072	42.6667
341.619	39.3333
344.166	41.3333
346.712	42.6667
349.258	38
351.802	38
354.346	42
356.888	38.6667
359.43	42
361.971	42.6667
364.511	44.6667
367.051	39.3333
369.589	41.3333
372.127	40.6667
374.664	38
377.2	39.3333
379.735	42
382.27	37.3333
384.802	42.6667
387.334	41.3333
389.866	42
392.397	40.6667
394.927	38.6667
397.457	45.3333
399.985	42.6667
402.513	44.6667
405.038	48.6667
407.565	45.3333
410.09	46.6667
412.614	50
415.138	50.6667
417.66	54
420.181	48.6667
422.702	54
425.222	59.3333
427.742	61.3333
430.259	76.6667
432.777	72.6667
435.294	66.6667
437.81	70
440.324	66.6667
442.838	61.3333
445.352	64.6667
447.863	55.3333
450.375	60
452.887	55.3333
455.395	55.3333
457.905	52.6667
460.414	50
462.92	48
465.427	46.6667
467.932	42
470.438	42.6667
472.942	42.6667
475.445	40.6667
477.948	42
480.448	41.3333
482.95	37.3333
485.449	40.6667
487.949	40.6667
490.446	39.3333
492.944	38.6667
495.44	41.3333
497.937	44
500.431	39.3333
502.926	44
505.418	42.6667
507.912	38.6667
510.403	39.3333
512.894	38
515.384	39.3333
517.874	38.6667
520.361	39.3333
522.848	40.6667
525.336	40.6667
527.821	42
530.306	34.6667
532.791	36
535.274	39.3333
537.756	38
540.238	38.6667
542.719	37.3333
545.199	41.3333
547.679	40.6667
550.157	41.3333
552.634	35.3333
555.112	39.3333
557.588	38.6667
560.063	40.6667
562.537	38
565.011	38.6667
567.484	38
569.955	38.6667
572.426	39.3333
574.896	36
577.367	41.3333
579.835	41.3333
582.303	40.6667
584.77	39.3333
587.236	42.6667
589.701	40
592.165	37.3333
594.629	37.3333
597.093	40
599.555	38
602.016	40
604.477	38.6667
606.936	37.3333
609.395	40
611.853	40.6667
614.311	38
616.767	41.3333
619.223	39.3333
621.678	39.3333
624.132	41.3333
626.585	42.6667
629.037	38.6667
631.489	38
633.94	39.3333
636.39	42
638.839	41.3333
641.288	40
643.736	38
646.183	40
648.627	40.6667
651.073	44.6667
653.517	38
655.961	42.6667
658.404	42
660.846	38
663.288	38.6667
665.727	40.6667
668.167	43.3333
670.606	41.3333
673.044	39.3333
675.482	40
677.917	39.3333
680.353	38.6667
682.788	40
685.222	42
687.655	40.6667
690.087	40.6667
692.519	42
694.951	40
697.38	40.6667
699.809	40
702.238	39.3333
704.665	44.6667
707.092	43.3333
709.519	38.6667
711.943	40.6667
714.368	41.3333
716.791	42.6667
719.214	38
721.637	40
724.058	40
726.479	40
728.898	41.3333
731.317	41.3333
733.734	42
736.152	41.3333
738.568	43.3333
740.985	38
743.399	43.3333
745.814	38.6667
748.227	40.6667
750.64	41.3333
753.051	43.3333
755.463	44.6667
757.872	46
760.283	41.3333
762.691	38.6667
765.098	39.3333
767.506	44
769.912	43.3333
772.318	43.3333
774.722	44
777.126	44.6667
779.53	38.6667
781.932	45.3333
784.333	44
786.735	42
789.135	44.6667
791.533	40
793.933	44
796.33	48.6667
798.727	43.3333
801.123	48.6667
803.519	45.3333
805.913	44.6667
808.307	44
810.699	50
813.093	46.6667
815.484	48
817.874	43.3333
820.264	47.3333
822.653	42
825.041	45.3333
827.43	41.3333
829.817	41.3333
832.203	47.3333
834.588	47.3333
836.972	40
839.356	43.3333
841.738	52
844.12	48
846.502	50.6667
848.882	52
851.262	56.6667
853.641	49.3333
856.02	57.3333
858.397	56.6667
860.774	58.6667
863.15	60
865.525	65.3333
867.9	73.3333
870.273	84
872.646	102
875.019	136
877.39	190.667
879.761	258.667
882.131	330
884.5	365.333
886.869	349.333
889.236	292.667
891.602	212
893.968	148
896.334	107.333
898.698	90.6667
901.062	82.6667
903.426	65.3333
905.787	63.3333
908.148	58.6667
910.509	54.6667
912.87	50
915.228	50
917.587	51.3333
919.945	50.6667
922.302	42.6667
924.657	46
927.013	46
929.368	44.6667
931.721	46.6667
934.074	50
936.427	45.3333
938.778	48.6667
941.129	44
943.479	42.6667
945.828	46
948.177	43.3333
950.524	46
952.871	47.3333
955.218	46
957.563	44.6667
959.908	46.6667
962.252	44.6667
964.595	44
966.937	44.6667
969.28	44
971.62	43.3333
973.961	39.3333
976.3	42.6667
978.639	41.3333
980.976	44
983.314	44
985.65	47.3333
987.987	48
990.321	48.6667
992.655	44
994.989	48.6667
997.321	45.3333
999.653	46.6667
1001.98	48
1004.31	49.3333
1006.65	50.6667
1008.97	44.6667
1011.3	49.3333
1013.63	47.3333
1015.96	44.6667
1018.28	55.3333
1020.61	52
1022.93	49.3333
1025.26	56
1027.58	58
1029.9	58.6667
1032.22	68.6667
1034.54	68.6667
1036.86	70.6667
1039.18	77.3333
1041.5	85.3333
1043.82	98.6667
1046.14	105.333
1048.45	116.667
1050.77	124
1053.08	128.667
1055.4	132
1057.71	122.667
1060.02	106.667
1062.33	98
1064.64	95.3333
1066.96	88
1069.27	85.3333
1071.57	88
1073.88	84.6667
1076.19	83.3333
1078.5	87.3333
1080.8	94
1083.11	96
1085.41	100.667
1087.72	100.667
1090.02	110
1092.32	114.667
1094.62	137.333
1096.92	142.667
1099.22	140.667
1101.52	126
1103.82	122
1106.12	94
1108.42	91.3333
1110.71	85.3333
1113.01	80.6667
1115.3	80.6667
1117.6	76
1119.89	74.6667
1122.18	72.6667
1124.48	67.3333
1126.77	65.3333
1129.06	67.3333
1131.35	65.3333
1133.64	59.3333
1135.93	56
1138.21	53.3333
1140.5	58
1142.79	48.6667
1145.07	53.3333
1147.36	48.6667
1149.64	53.3333
1151.92	53.3333
1154.21	50.6667
1156.49	53.3333
1158.77	53.3333
1161.05	48
1163.33	49.3333
1165.61	48
1167.89	50.6667
1170.16	48.6667
1172.44	47.3333
1174.72	46.6667
1176.99	50
1179.27	50.6667
1181.54	50.6667
1183.81	48.6667
1186.09	50
1188.36	48.6667
1190.63	49.3333
1192.9	44
1195.17	50
1197.44	47.3333
1199.71	48.6667
1201.97	45.3333
1204.24	48
1206.5	45.3333
1208.77	43.3333
1211.03	46
1213.3	46
1215.56	47.3333
1217.82	50.6667
1220.09	44.6667
1222.35	47.3333
1224.61	48.6667
1226.87	54
1229.12	52
1231.38	52
1233.64	49.3333
1235.9	48.6667
1238.15	52.6667
1240.41	52
1242.66	50.6667
1244.92	56.6667
1247.17	54.6667
1249.42	54.6667
1251.67	58
1253.92	55.3333
1256.17	61.3333
1258.42	59.3333
1260.67	56.6667
1262.92	70.6667
1265.17	66
1267.42	74.6667
1269.66	76.6667
1271.91	86.6667
1274.15	78.6667
1276.39	88.6667
1278.64	88.6667
1280.88	88.6667
1283.12	89.3333
1285.36	80.6667
1287.6	68
1289.84	62.6667
1292.08	64
1294.32	65.3333
1296.56	60
1298.79	59.3333
1301.03	61.3333
1303.26	58.6667
1305.5	60
1307.73	60.6667
1309.97	60.6667
1312.2	58.6667
1314.43	54
1316.66	54.6667
1318.89	53.3333
1321.12	58.6667
1323.35	62.6667
1325.58	56
1327.81	54
1330.03	56
1332.26	58
1334.49	57.3333
1336.71	56
1338.94	58
1341.16	53.3333
1343.38	55.3333
1345.6	58.6667
1347.83	56.6667
1350.05	57.3333
1352.27	56.6667
1354.49	53.3333
1356.7	58
1358.92	57.3333
1361.14	56.6667
1363.36	56.6667
1365.57	62
1367.79	58
1370	61.3333
1372.21	57.3333
1374.43	63.3333
1376.64	60.6667
1378.85	63.3333
1381.06	66
1383.27	61.3333
1385.48	66
1387.69	64.6667
1389.9	65.3333
1392.11	60.6667
1394.31	66.6667
1396.52	65.3333
1398.73	70
1400.93	69.3333
1403.13	70
1405.34	75.3333
1407.54	66.6667
1409.74	70.6667
1411.94	71.3333
1414.14	74.6667
1416.34	74.6667
1418.54	78
1420.74	76.6667
1422.94	79.3333
1425.14	85.3333
1427.33	80.6667
1429.53	89.3333
1431.72	82.6667
1433.92	90.6667
1436.11	98
1438.3	106.667
1440.5	106.667
1442.69	116.667
1444.88	124.667
1447.07	135.333
1449.26	149.333
1451.45	153.333
1453.64	162
1455.82	166
1458.01	160
1460.2	156.667
1462.38	144
1464.57	124
1466.75	116.667
1468.93	114
1471.12	101.333
1473.3	103.333
1475.48	94
1477.66	102.667
1479.84	99.3333
1482.02	104.667
1484.2	98.6667
1486.38	97.3333
1488.55	92
1490.73	94
1492.91	87.3333
1495.08	76.6667
1497.26	78.6667
1499.43	78.6667
1501.61	75.3333
1503.78	70
1505.95	71.3333
1508.12	65.3333
1510.29	64
1512.46	68.6667
1514.63	66
1516.8	65.3333
1518.97	65.3333
1521.14	64.6667
1523.3	58
1525.47	62
1527.63	60.6667
1529.8	66
1531.96	61.3333
1534.12	58.6667
1536.29	56.6667
1538.45	60.6667
1540.61	58
1542.77	58
1544.93	58
1547.09	58.6667
1549.25	59.3333
1551.41	52
1553.56	56
1555.72	56.6667
1557.88	56.6667
1560.03	51.3333
1562.18	56
1564.34	58
1566.49	61.3333
1568.64	58
1570.8	58.6667
1572.95	54.6667
1575.1	54.6667
1577.25	57.3333
1579.4	54.6667
1581.55	51.3333
1583.69	56.6667
1585.84	58
1587.99	52.6667
1590.13	56
1592.28	57.3333
1594.42	56
1596.57	48
1598.71	52.6667
1600.85	53.3333
1602.99	54
1605.14	54
1607.28	55.3333
1609.42	55.3333
1611.56	58.6667
1613.69	60.6667
1615.83	54
1617.97	59.3333
1620.11	56
1622.24	52.6667
1624.38	52.6667
1626.51	60
1628.65	50
1630.78	56
1632.91	54.6667
1635.04	52.6667
1637.17	52
1639.31	54
1641.44	58
1643.57	52
1645.69	54
1647.82	55.3333
1649.95	55.3333
1652.08	56
1654.2	50.6667
1656.33	51.3333
1658.45	52.6667
1660.58	53.3333
1662.7	52.6667
1664.82	52.6667
1666.94	55.3333
1669.07	54.6667
1671.19	54
1673.31	52
1675.43	53.3333
1677.55	53.3333
1679.66	56
1681.78	50.6667
1683.9	51.3333
1686.01	53.3333
1688.13	56.6667
1690.25	55.3333
1692.36	56.6667
1694.47	57.3333
1696.59	54
1698.7	52.6667
1700.81	53.3333
1702.92	52.6667
1705.03	58
1707.14	53.3333
1709.25	52.6667
1711.36	57.3333
1713.47	54.6667
1715.58	56.6667
1717.68	52
1719.79	56.6667
1721.89	54.6667
1724	52.6667
1726.1	54
1728.21	56.6667
1730.31	53.3333
1732.41	52.6667
1734.51	56.6667
1736.61	50
1738.71	53.3333
1740.81	54.6667
1742.91	56
1745.01	49.3333
1747.11	51.3333
1749.2	49.3333
1751.3	52.6667
1753.4	56
1755.49	53.3333
1757.59	56.6667
1759.68	56
1761.77	52.6667
1763.86	52
1765.96	56
1768.05	52
1770.14	54
1772.23	56.6667
1774.32	53.3333
1776.41	52
1778.49	56
1780.58	54.6667
1782.67	55.3333
1784.76	54
1786.84	54.6667
1788.92	55.3333
1791.01	56.6667
1793.09	60
1795.18	56
1797.26	53.3333
1799.34	58
1801.42	54.6667
1803.5	56.6667
1805.58	53.3333
1807.66	56.6667
1809.74	58
1811.82	58
1813.89	57.3333
1815.97	55.3333
1818.05	59.3333
1820.12	52.6667
1822.2	52
1824.27	54.6667
1826.34	55.3333
1828.42	55.3333
1830.49	56
1832.56	58
1834.63	54
1836.7	52
1838.77	57.3333
1840.84	54
1842.91	54
1844.98	54
1847.04	57.3333
1849.11	58.6667
1851.18	53.3333
1853.24	53.3333
1855.31	53.3333
1857.37	52.6667
1859.43	55.3333
1861.5	56.6667
1863.56	51.3333
1865.62	57.3333
1867.68	58
1869.74	54.6667
1871.8	58.6667
1873.86	56
1875.92	55.3333
1877.98	52
1880.03	56.6667
1882.09	58.6667
1884.15	54
1886.2	56.6667
1888.26	57.3333
1890.31	48.6667
1892.36	55.3333
1894.42	58.6667
1896.47	58.6667
1898.52	58
1900.57	56.6667
1902.62	53.3333
1904.67	55.3333
1906.72	60
1908.77	56.6667
1910.82	60
1912.86	59.3333
1914.91	53.3333
1916.96	57.3333
1919	58.6667
1921.04	55.3333
1923.09	56
1925.13	51.3333
1927.18	56
1929.22	51.3333
1931.26	52.6667
1933.3	54
1935.34	52.6667
1937.38	60
1939.42	55.3333
1941.46	56.6667
1943.5	56.6667
1945.53	54.6667
1947.57	57.3333
1949.61	57.3333
1951.64	57.3333
1953.68	52.6667
1955.71	56.6667
1957.75	58
1959.78	50.6667
1961.81	60
1963.84	54.6667
1965.87	57.3333
1967.9	57.3333
1969.93	54.6667
1971.96	62.6667
1973.99	61.3333
1976.02	54.6667
1978.05	55.3333
1980.07	62
1982.1	56.6667
1984.13	56
1986.15	59.3333
1988.18	52
1990.2	56
1992.22	54.6667
1994.25	58.6667
1996.27	57.3333
1998.29	60
2000.31	59.3333
2002.33	60.6667
2004.35	56
2006.37	56
2008.39	55.3333
2010.41	56
2012.42	58.6667
2014.44	50.6667
2016.46	60
2018.47	55.3333
2020.49	56
2022.5	60.6667
2024.51	56
2026.53	60.6667
2028.54	60
2030.55	58.6667
2032.56	54
2034.57	58
2036.58	58
2038.59	60.6667
2040.6	56
2042.61	58
2044.62	60.6667
2046.62	62
2048.63	58.6667
2050.64	61.3333
2052.64	60.6667
2054.65	56.6667
2056.65	59.3333
2058.65	59.3333
2060.66	61.3333
2062.66	59.3333
2064.66	62.6667
2066.66	57.3333
2068.66	58.6667
2070.66	60
2072.66	59.3333
2074.66	59.3333
2076.66	58
2078.65	61.3333
2080.65	57.3333
2082.65	56.6667
2084.64	61.3333
2086.64	60
2088.63	60
2090.63	54.6667
2092.62	64.6667
2094.61	53.3333
2096.6	61.3333
2098.59	62
2100.59	59.3333
2102.58	60
2104.56	58.6667
2106.55	64
2108.54	56.6667
2110.53	60
2112.52	56.6667
2114.5	54.6667
2116.49	59.3333
2118.48	59.3333
2120.46	58.6667
2122.44	62.6667
2124.43	62
2126.41	63.3333
2128.39	62
2130.38	57.3333
2132.36	58.6667
2134.34	62.6667
2136.32	64
2138.3	56
2140.28	60
2142.26	62
2144.23	55.3333
2146.21	60.6667
2148.19	62.6667
2150.16	64.6667
2152.14	58
2154.11	61.3333
2156.09	57.3333
2158.06	62.6667
2160.04	62.6667
2162.01	64
2163.98	58
2165.95	62
2167.92	63.3333
2169.89	65.3333
2171.86	62.6667
2173.83	63.3333
2175.8	62
2177.77	56.6667
2179.73	62
2181.7	60
2183.67	60.6667
2185.63	58.6667
2187.6	66
2189.56	64
2191.53	55.3333
2193.49	60.6667
2195.45	61.3333
2197.41	57.3333
2199.37	60.6667
2201.34	64
2203.29	59.3333
2205.26	59.3333
2207.21	59.3333
2209.17	64
2211.13	63.3333
2213.09	58
2215.05	58.6667
2217	64
2218.96	57.3333
2220.91	64.6667
2222.87	64
2224.82	59.3333
2226.77	60.6667
2228.73	57.3333
2230.68	62
2232.63	61.3333
2234.58	63.3333
2236.53	62
2238.48	60.6667
2240.43	52.6667
2242.38	66.6667
2244.33	62.6667
2246.27	64
2248.22	59.3333
2250.17	68.6667
2252.11	66
2254.06	64
2256	61.3333
2257.95	66.6667
2259.89	63.3333
2261.84	60
2263.78	64.6667
2265.72	62.6667
2267.66	60
2269.6	61.3333
2271.54	64.6667
2273.48	62
2275.42	60.6667
2277.36	68.6667
2279.3	62.6667
2281.23	60
2283.17	70.6667
2285.11	60.6667
2287.04	58
2288.98	56
2290.91	70.6667
2292.84	64
2294.78	62
2296.71	61.3333
2298.64	61.3333
2300.57	63.3333
2302.51	68.6667
2304.44	63.3333
2306.37	62
2308.29	64
2310.22	64
2312.15	62
2314.08	60.6667
2316.01	62.6667
2317.93	62.6667
2319.86	64.6667
2321.78	64
2323.71	65.3333
2325.63	64.6667
2327.56	61.3333
2329.48	57.3333
2331.4	64.6667
2333.32	62.6667
2335.25	61.3333
2337.17	61.3333
2339.09	61.3333
2341.01	59.3333
2342.92	58.6667
2344.84	60
2346.76	62.6667
2348.68	64.6667
2350.6	59.3333
2352.51	59.3333
2354.43	62.6667
2356.34	65.3333
2358.26	65.3333
2360.17	62.6667
2362.09	63.3333
2364	63.3333
2365.91	60.6667
2367.82	64.6667
2369.73	62
2371.64	66
2373.55	65.3333
2375.46	60.6667
2377.37	68
2379.28	62.6667
2381.19	66
2383.1	68
2385	62
2386.91	64
2388.82	67.3333
2390.72	70.6667
2392.62	70
2394.53	70.6667
2396.43	59.3333
2398.33	66
2400.24	62.6667
2402.14	63.3333
2404.04	64
2405.94	64.6667
2407.84	63.3333
2409.74	64.6667
2411.64	64
2413.54	63.3333
2415.44	62
2417.33	63.3333
2419.23	66
2421.13	64
2423.02	62.6667
2424.92	64.6667
2426.81	69.3333
2428.71	64.6667
2430.6	68
2432.49	63.3333
2434.38	66
2436.28	68
2438.17	62.6667
2440.06	63.3333
2441.95	61.3333
2443.84	66
2445.73	66.6667
