176.817	50
179.42	57.3333
182.022	54.6667
184.622	53.3333
187.223	52.6667
189.821	51.3333
192.419	49.3333
195.017	52.6667
197.612	54.6667
200.208	52.6667
202.802	46.6667
205.397	46.6667
207.99	47.3333
210.581	45.3333
213.173	50.6667
215.762	51.3333
218.352	45.3333
220.94	44
223.528	44.6667
226.114	48.6667
228.701	48.6667
231.285	45.3333
233.87	48.6667
236.452	48.6667
239.034	44.6667
241.616	47.3333
244.196	44.6667
246.777	46
249.355	46.6667
251.933	46.6667
254.511	51.3333
257.086	48.6667
259.663	47.3333
262.237	45.3333
264.81	48
267.383	42
269.955	46.6667
272.525	41.3333
275.097	41.3333
277.665	46.6667
280.234	48.6667
282.802	48
285.368	46
287.934	48.6667
290.499	46.6667
293.064	43.3333
295.627	40.6667
298.189	42
300.75	40
303.312	45.3333
305.871	41.3333
308.43	42.6667
310.988	38.6667
313.545	44
316.101	45.3333
318.658	42.6667
321.212	42.6667
323.766	42
326.319	42.6667
328.871	40.6667
331.422	36.6667
333.972	46
336.522	39.3333
339.072	45.3333
341.619	40.6667
344.166	42
346.712	40.6667
349.258	44
351.802	41.3333
354.346	40.6667
356.888	48
359.43	40.6667
361.971	42
364.511	37.3333
367.051	40.6667
369.589	39.3333
372.127	41.3333
374.664	42.6667
377.2	41.3333
379.735	40.6667
382.27	41.3333
384.802	43.3333
387.334	38.6667
389.866	43.3333
392.397	42.6667
394.927	41.3333
397.457	44.6667
399.985	44.6667
402.513	46.6667
405.038	42.6667
407.565	46.6667
410.09	45.3333
412.614	44
415.138	43.3333
417.66	46
420.181	49.3333
422.702	58
425.222	60
427.742	69.3333
430.259	77.3333
432.777	76.6667
435.294	74.6667
437.81	74.6667
440.324	74
442.838	67.3333
445.352	64
447.863	62
450.375	60.6667
452.887	57.3333
455.395	49.3333
457.905	50.6667
460.414	48
462.92	47.3333
465.427	42.6667
467.932	46
470.438	42.6667
472.942	46
475.445	43.3333
477.948	42.6667
480.448	45.3333
482.95	45.3333
485.449	40.6667
487.949	44.6667
490.446	44
492.944	40
495.44	42
497.937	42
500.431	39.3333
502.926	42.6667
505.418	39.3333
507.912	38.6667
510.403	39.3333
512.894	40.6667
515.384	40.6667
517.874	41.3333
520.361	40.6667
522.848	41.3333
525.336	44
527.821	39.3333
530.306	35.3333
532.791	42
535.274	38
537.756	40
540.238	40.6667
542.719	40.6667
545.199	41.3333
547.679	38.6667
550.157	42
552.634	39.3333
555.112	41.3333
557.588	42.6667
560.063	38
562.537	36.6667
565.011	40
567.484	36.6667
569.955	38.6667
572.426	38.6667
574.896	41.3333
577.367	42.6667
579.835	37.3333
582.303	38
584.77	40.6667
587.236	38
589.701	38
592.165	40.6667
594.629	42
597.093	40
599.555	38
602.016	40
604.477	38.6667
606.936	38.6667
609.395	37.3333
611.853	36
614.311	37.3333
616.767	38.6667
619.223	38.6667
621.678	40
624.132	40
626.585	38.6667
629.037	40.6667
631.489	40
633.94	44
636.39	41.3333
638.839	39.3333
641.288	38
643.736	39.3333
646.183	40
648.627	43.3333
651.073	41.3333
653.517	44
655.961	43.3333
658.404	40.6667
660.846	40
663.288	40
665.727	40.6667
668.167	42
670.606	39.3333
673.044	41.3333
675.482	41.3333
677.917	38.6667
680.353	44.6667
682.788	40
685.222	40.6667
687.655	45.3333
690.087	44
692.519	40.6667
694.951	41.3333
697.38	36.6667
699.809	41.3333
702.238	40.6667
704.665	40
707.092	40
709.519	43.3333
711.943	42
714.368	38.6667
716.791	40.6667
719.214	40.6667
721.637	42.6667
724.058	42
726.479	42.6667
728.898	42.6667
731.317	39.3333
733.734	44.6667
736.152	40
738.568	43.3333
740.985	44
743.399	42
745.814	44
748.227	42.6667
750.64	44
753.051	38.6667
755.463	40.6667
757.872	38.6667
760.283	39.3333
762.691	44
765.098	40.6667
767.506	40
769.912	38.6667
772.318	46.6667
774.722	44.6667
777.126	44
779.53	42
781.932	43.3333
784.333	49.3333
786.735	46
789.135	42.6667
791.533	45.3333
793.933	42
796.33	46.6667
798.727	44.6667
801.123	46
803.519	42
805.913	43.3333
808.307	45.3333
810.699	51.3333
813.093	47.3333
815.484	48
817.874	48.6667
820.264	50
822.653	46.6667
825.041	47.3333
827.43	53.3333
829.817	42
832.203	49.3333
834.588	46.6667
836.972	49.3333
839.356	52.6667
841.738	46.6667
844.12	46
846.502	54
848.882	55.3333
851.262	52
853.641	50
856.02	58.6667
858.397	56.6667
860.774	59.3333
863.15	62
865.525	72
867.9	77.3333
870.273	90.6667
872.646	108
875.019	133.333
877.39	182
879.761	252
882.131	340.667
884.5	384.667
886.869	371.333
889.236	292
891.602	222
893.968	166
896.334	120.667
898.698	99.3333
901.062	82
903.426	72
905.787	68.6667
908.148	56.6667
910.509	59.3333
912.87	56.6667
915.228	60
917.587	50
919.945	50
922.302	48.6667
924.657	50
927.013	48
929.368	50.6667
931.721	48
934.074	50.6667
936.427	46.6667
938.778	46
941.129	48.6667
943.479	48
945.828	42
948.177	48
950.524	43.3333
952.871	40.6667
955.218	46
957.563	46.6667
959.908	40.6667
962.252	44.6667
964.595	45.3333
966.937	45.3333
969.28	45.3333
971.62	45.3333
973.961	47.3333
976.3	47.3333
978.639	48
980.976	41.3333
983.314	44.6667
985.65	46
987.987	45.3333
990.321	44
992.655	46.6667
994.989	46.6667
997.321	46
999.653	44.6667
1001.98	47.3333
1004.31	48
1006.65	48
1008.97	44.6667
1011.3	53.3333
1013.63	50
1015.96	51.3333
1018.28	54
1020.61	54.6667
1022.93	57.3333
1025.26	55.3333
1027.58	65.3333
1029.9	65.3333
1032.22	62.6667
1034.54	71.3333
1036.86	77.3333
1039.18	75.3333
1041.5	88.6667
1043.82	96.6667
1046.14	112
1048.45	122
1050.77	126
1053.08	132
1055.4	141.333
1057.71	122.667
1060.02	120
1062.33	94
1064.64	91.3333
1066.96	93.3333
1069.27	81.3333
1071.57	86.6667
1073.88	84.6667
1076.19	81.3333
1078.5	90.6667
1080.8	87.3333
1083.11	98
1085.41	100.667
1087.72	104.667
1090.02	113.333
1092.32	130
1094.62	136.667
1096.92	144.667
1099.22	142.667
1101.52	130.667
1103.82	120
1106.12	109.333
1108.42	97.3333
1110.71	91.3333
1113.01	84.6667
1115.3	86.6667
1117.6	81.3333
1119.89	76
1122.18	77.3333
1124.48	76.6667
1126.77	68.6667
1129.06	73.3333
1131.35	60.6667
1133.64	64
1135.93	60
1138.21	62
1140.5	54
1142.79	58
1145.07	54.6667
1147.36	52
1149.64	54
1151.92	52.6667
1154.21	56
1156.49	53.3333
1158.77	54
1161.05	48.6667
1163.33	54
1165.61	52
1167.89	50
1170.16	52
1172.44	45.3333
1174.72	49.3333
1176.99	52
1179.27	50
1181.54	46
1183.81	46
1186.09	49.3333
1188.36	48.6667
1190.63	50.6667
1192.9	46.6667
1195.17	46.6667
1197.44	50.6667
1199.71	49.3333
1201.97	49.3333
1204.24	49.3333
1206.5	50
1208.77	45.3333
1211.03	49.3333
1213.3	48.6667
1215.56	47.3333
1217.82	49.3333
1220.09	53.3333
1222.35	48
1224.61	51.3333
1226.87	48.6667
1229.12	48
1231.38	52
1233.64	49.3333
1235.9	51.3333
1238.15	50
1240.41	54
1242.66	51.3333
1244.92	52.6667
1247.17	56.6667
1249.42	54
1251.67	57.3333
1253.92	56.6667
1256.17	60.6667
1258.42	59.3333
1260.67	66
1262.92	65.3333
1265.17	68.6667
1267.42	72.6667
1269.66	79.3333
1271.91	82
1274.15	91.3333
1276.39	88.6667
1278.64	94.6667
1280.88	90.6667
1283.12	76.6667
1285.36	84
1287.6	76
1289.84	69.3333
1292.08	70.6667
1294.32	58.6667
1296.56	57.3333
1298.79	60
1301.03	58.6667
1303.26	56.6667
1305.5	60
1307.73	64
1309.97	55.3333
1312.2	60.6667
1314.43	53.3333
1316.66	60.6667
1318.89	56
1321.12	59.3333
1323.35	54.6667
1325.58	57.3333
1327.81	53.3333
1330.03	58
1332.26	54.6667
1334.49	55.3333
1336.71	62
1338.94	58.6667
1341.16	58.6667
1343.38	60
1345.6	61.3333
1347.83	55.3333
1350.05	60
1352.27	56.6667
1354.49	57.3333
1356.7	62.6667
1358.92	58.6667
1361.14	62.6667
1363.36	62
1365.57	62.6667
1367.79	64
1370	64.6667
1372.21	58.6667
1374.43	60.6667
1376.64	62.6667
1378.85	67.3333
1381.06	66.6667
1383.27	64
1385.48	64.6667
1387.69	67.3333
1389.9	70.6667
1392.11	74
1394.31	65.3333
1396.52	67.3333
1398.73	72.6667
1400.93	68.6667
1403.13	68.6667
1405.34	72
1407.54	72.6667
1409.74	78.6667
1411.94	71.3333
1414.14	80
1416.34	74.6667
1418.54	82
1420.74	79.3333
1422.94	81.3333
1425.14	82
1427.33	94
1429.53	92
1431.72	95.3333
1433.92	104.667
1436.11	102
1438.3	112.667
1440.5	110
1442.69	123.333
1444.88	124.667
1447.07	150
1449.26	141.333
1451.45	164.667
1453.64	166
1455.82	180
1458.01	167.333
1460.2	158.667
1462.38	152.667
1464.57	136
1466.75	122
1468.93	114
1471.12	111.333
1473.3	100.667
1475.48	105.333
1477.66	108.667
1479.84	105.333
1482.02	104
1484.2	106
1486.38	104.667
1488.55	95.3333
1490.73	91.3333
1492.91	90.6667
1495.08	87.3333
1497.26	81.3333
1499.43	76
1501.61	76
1503.78	75.3333
1505.95	68.6667
1508.12	68.6667
1510.29	67.3333
1512.46	68
1514.63	69.3333
1516.8	66
1518.97	62.6667
1521.14	62
1523.3	69.3333
1525.47	67.3333
1527.63	59.3333
1529.8	64.6667
1531.96	66
1534.12	58.6667
1536.29	59.3333
1538.45	56.6667
1540.61	60.6667
1542.77	60.6667
1544.93	59.3333
1547.09	57.3333
1549.25	58.6667
1551.41	52.6667
1553.56	61.3333
1555.72	62.6667
1557.88	58
1560.03	58.6667
1562.18	52.6667
1564.34	58
1566.49	52.6667
1568.64	56
1570.8	56.6667
1572.95	55.3333
1575.1	57.3333
1577.25	54.6667
1579.4	58
1581.55	56.6667
1583.69	51.3333
1585.84	52.6667
1587.99	54
1590.13	54
1592.28	56
1594.42	55.3333
1596.57	54
1598.71	53.3333
1600.85	54.6667
1602.99	54.6667
1605.14	51.3333
1607.28	54.6667
1609.42	57.3333
1611.56	52
1613.69	53.3333
1615.83	58
1617.97	58.6667
1620.11	54.6667
1622.24	57.3333
1624.38	54.6667
1626.51	54.6667
1628.65	62
1630.78	50.6667
1632.91	55.3333
1635.04	53.3333
1637.17	53.3333
1639.31	50
1641.44	56.6667
1643.57	56.6667
1645.69	52.6667
1647.82	50
1649.95	53.3333
1652.08	56
1654.2	48.6667
1656.33	50
1658.45	51.3333
1660.58	55.3333
1662.7	57.3333
1664.82	56.6667
1666.94	52
1669.07	56
1671.19	54.6667
1673.31	56.6667
1675.43	50.6667
1677.55	56.6667
1679.66	52.6667
1681.78	52
1683.9	52.6667
1686.01	56.6667
1688.13	60.6667
1690.25	54.6667
1692.36	58
1694.47	54.6667
1696.59	57.3333
1698.7	51.3333
1700.81	58.6667
1702.92	54.6667
1705.03	50.6667
1707.14	54.6667
1709.25	54
1711.36	58
1713.47	52.6667
1715.58	53.3333
1717.68	55.3333
1719.79	52
1721.89	55.3333
1724	53.3333
1726.1	58.6667
1728.21	56.6667
1730.31	53.3333
1732.41	54
1734.51	54
1736.61	54.6667
1738.71	54
1740.81	55.3333
1742.91	56.6667
1745.01	55.3333
1747.11	50.6667
1749.2	52.6667
1751.3	56.6667
1753.4	59.3333
1755.49	54
1757.59	51.3333
1759.68	56.6667
1761.77	46.6667
1763.86	55.3333
1765.96	58.6667
1768.05	58.6667
1770.14	55.3333
1772.23	55.3333
1774.32	53.3333
1776.41	55.3333
1778.49	58.6667
1780.58	57.3333
1782.67	56
1784.76	52.6667
1786.84	52.6667
1788.92	52.6667
1791.01	56
1793.09	55.3333
1795.18	52.6667
1797.26	56
1799.34	54
1801.42	58
1803.5	53.3333
1805.58	56.6667
1807.66	58
1809.74	53.3333
1811.82	53.3333
1813.89	52.6667
1815.97	52
1818.05	54
1820.12	56
1822.2	54.6667
1824.27	51.3333
1826.34	54.6667
1828.42	54.6667
1830.49	58.6667
1832.56	54
1834.63	56
1836.7	57.3333
1838.77	57.3333
1840.84	57.3333
1842.91	57.3333
1844.98	52.6667
1847.04	54.6667
1849.11	58
1851.18	58
1853.24	56.6667
1855.31	54
1857.37	59.3333
1859.43	57.3333
1861.5	50.6667
1863.56	60.6667
1865.62	52.6667
1867.68	56
1869.74	57.3333
1871.8	53.3333
1873.86	59.3333
1875.92	54
1877.98	56
1880.03	56
1882.09	56
1884.15	56
1886.2	57.3333
1888.26	58
1890.31	58
1892.36	56
1894.42	55.3333
1896.47	59.3333
1898.52	52.6667
1900.57	54.6667
1902.62	54.6667
1904.67	58
1906.72	58.6667
1908.77	56.6667
1910.82	54.6667
1912.86	62.6667
1914.91	54
1916.96	56
1919	57.3333
1921.04	56.6667
1923.09	57.3333
1925.13	58
1927.18	50.6667
1929.22	57.3333
1931.26	56.6667
1933.3	52.6667
1935.34	60.6667
1937.38	51.3333
1939.42	53.3333
1941.46	55.3333
1943.5	59.3333
1945.53	54
1947.57	58.6667
1949.61	58
1951.64	60.6667
1953.68	56
1955.71	57.3333
1957.75	60.6667
1959.78	59.3333
1961.81	54
1963.84	55.3333
1965.87	55.3333
1967.9	60
1969.93	58
1971.96	57.3333
1973.99	58.6667
1976.02	56.6667
1978.05	54.6667
1980.07	58
1982.1	56
1984.13	51.3333
1986.15	54.6667
1988.18	56
1990.2	60.6667
1992.22	56.6667
1994.25	56
1996.27	59.3333
1998.29	54
2000.31	59.3333
2002.33	51.3333
2004.35	61.3333
2006.37	56
2008.39	58.6667
2010.41	59.3333
2012.42	58
2014.44	56.6667
2016.46	60
2018.47	62
2020.49	62.6667
2022.5	54
2024.51	60.6667
2026.53	59.3333
2028.54	59.3333
2030.55	56.6667
2032.56	58.6667
2034.57	58
2036.58	60.6667
2038.59	56.6667
2040.6	56.6667
2042.61	57.3333
2044.62	62.6667
2046.62	54.6667
2048.63	56
2050.64	62
2052.64	60.6667
2054.65	61.3333
2056.65	56
2058.65	60
2060.66	56
2062.66	59.3333
2064.66	60.6667
2066.66	62.6667
2068.66	57.3333
2070.66	62.6667
2072.66	62.6667
2074.66	66
2076.66	60.6667
2078.65	62
2080.65	63.3333
2082.65	58.6667
2084.64	61.3333
2086.64	62.6667
2088.63	60
2090.63	59.3333
2092.62	59.3333
2094.61	60.6667
2096.6	59.3333
2098.59	62
2100.59	56.6667
2102.58	60
2104.56	60
2106.55	62.6667
2108.54	62
2110.53	62.6667
2112.52	60
2114.5	61.3333
2116.49	60
2118.48	60.6667
2120.46	57.3333
2122.44	61.3333
2124.43	61.3333
2126.41	60
2128.39	60.6667
2130.38	56.6667
2132.36	60
2134.34	61.3333
2136.32	58
2138.3	62.6667
2140.28	58
2142.26	62.6667
2144.23	62.6667
2146.21	65.3333
2148.19	58
2150.16	58.6667
2152.14	61.3333
2154.11	60
2156.09	61.3333
2158.06	63.3333
2160.04	58.6667
2162.01	62
2163.98	63.3333
2165.95	58
2167.92	54.6667
2169.89	65.3333
2171.86	60
2173.83	58.6667
2175.8	60
2177.77	64
2179.73	60
2181.7	63.3333
2183.67	57.3333
2185.63	67.3333
2187.6	64.6667
2189.56	62.6667
2191.53	60
2193.49	65.3333
2195.45	57.3333
2197.41	62
2199.37	58.6667
2201.34	59.3333
2203.29	66.6667
2205.26	56.6667
2207.21	64.6667
2209.17	62
2211.13	61.3333
2213.09	60
2215.05	63.3333
2217	64
2218.96	61.3333
2220.91	62.6667
2222.87	60.6667
2224.82	60.6667
2226.77	62.6667
2228.73	56
2230.68	62
2232.63	60
2234.58	64
2236.53	64.6667
2238.48	62
2240.43	58.6667
2242.38	68.6667
2244.33	62
2246.27	61.3333
2248.22	67.3333
2250.17	62.6667
2252.11	59.3333
2254.06	62
2256	61.3333
2257.95	64
2259.89	63.3333
2261.84	64
2263.78	64
2265.72	65.3333
2267.66	61.3333
2269.6	62
2271.54	66
2273.48	65.3333
2275.42	62
2277.36	60.6667
2279.3	63.3333
2281.23	65.3333
2283.17	65.3333
2285.11	60.6667
2287.04	62.6667
2288.98	64.6667
2290.91	64.6667
2292.84	66.6667
2294.78	66
2296.71	63.3333
2298.64	64
2300.57	62.6667
2302.51	63.3333
2304.44	62
2306.37	60.6667
2308.29	64
2310.22	58.6667
2312.15	70.6667
2314.08	62.6667
2316.01	67.3333
2317.93	61.3333
2319.86	66.6667
2321.78	59.3333
2323.71	64.6667
2325.63	67.3333
2327.56	65.3333
2329.48	62.6667
2331.4	62
2333.32	60.6667
2335.25	62.6667
2337.17	62
2339.09	64.6667
2341.01	67.3333
2342.92	66
2344.84	66
2346.76	62
2348.68	66.6667
2350.6	66
2352.51	65.3333
2354.43	58
2356.34	66.6667
2358.26	63.3333
2360.17	60.6667
2362.09	64.6667
2364	60
2365.91	64.6667
2367.82	69.3333
2369.73	64.6667
2371.64	63.3333
2373.55	58
2375.46	58.6667
2377.37	64.6667
2379.28	69.3333
2381.19	64.6667
2383.1	61.3333
2385	56.6667
2386.91	62.6667
2388.82	64.6667
2390.72	62
2392.62	65.3333
2394.53	62.6667
2396.43	64
2398.33	64.6667
2400.24	65.3333
2402.14	62
2404.04	66.6667
2405.94	61.3333
2407.84	63.3333
2409.74	62.6667
2411.64	67.3333
2413.54	61.3333
2415.44	66
2417.33	60
2419.23	64.6667
2421.13	62
2423.02	64.6667
2424.92	64.6667
2426.81	64.6667
2428.71	62
2430.6	64
2432.49	62
2434.38	64.6667
2436.28	63.3333
2438.17	69.3333
2440.06	66.6667
2441.95	65.3333
2443.84	64.6667
2445.73	67.3333
