176.817	52
179.42	52.6667
182.022	52
184.622	48.6667
187.223	47.3333
189.821	51.3333
192.419	51.3333
195.017	48.6667
197.612	50.6667
200.208	52
202.802	48.6667
205.397	52
207.99	48
210.581	46.6667
213.173	46.6667
215.762	48.6667
218.352	46.6667
220.94	46
223.528	47.3333
226.114	46.6667
228.701	48.6667
231.285	42.6667
233.87	48
236.452	45.3333
239.034	46.6667
241.616	46.6667
244.196	46
246.777	46
249.355	46.6667
251.933	40.6667
254.511	45.3333
257.086	46
259.663	46
262.237	46.6667
264.81	44.6667
267.383	48
269.955	46.6667
272.525	44
275.097	41.3333
277.665	41.3333
280.234	47.3333
282.802	45.3333
285.368	42
287.934	43.3333
290.499	40.6667
293.064	44
295.627	38.6667
298.189	44.6667
300.75	42
303.312	41.3333
305.871	42.6667
308.43	44
310.988	41.3333
313.545	41.3333
316.101	44.6667
318.658	40.6667
321.212	38.6667
323.766	40.6667
326.319	41.3333
328.871	42
331.422	45.3333
333.972	44
336.522	40.6667
339.072	42
341.619	40
344.166	39.3333
346.712	38
349.258	40
351.802	44.6667
354.346	38.6667
356.888	40
359.43	39.3333
361.971	42
364.511	40.6667
367.051	40
369.589	40.6667
372.127	38
374.664	42.6667
377.2	43.3333
379.735	40.6667
382.27	40.6667
384.802	40
387.334	44
389.866	40
392.397	38.6667
394.927	46
397.457	42
399.985	38.6667
402.513	46
405.038	46.6667
407.565	46
410.09	41.3333
412.614	44
415.138	50.6667
417.66	52.6667
420.181	51.3333
422.702	57.3333
425.222	55.3333
427.742	66
430.259	71.3333
432.777	76.6667
435.294	73.3333
437.81	67.3333
440.324	65.3333
442.838	68
445.352	65.3333
447.863	57.3333
450.375	60.6667
452.887	51.3333
455.395	55.3333
457.905	46.6667
460.414	53.3333
462.92	47.3333
465.427	46.6667
467.932	47.3333
470.438	44.6667
472.942	41.3333
475.445	50.6667
477.948	41.3333
480.448	44
482.95	44
485.449	39.3333
487.949	41.3333
490.446	41.3333
492.944	38.6667
495.44	36.6667
497.937	40.6667
500.431	39.3333
502.926	43.3333
505.418	46.6667
507.912	40.6667
510.403	39.3333
512.894	40
515.384	38.6667
517.874	39.3333
520.361	38
522.848	40.6667
525.336	40
527.821	36.6667
530.306	39.3333
532.791	42
535.274	36
537.756	40
540.238	38
542.719	36.6667
545.199	40.6667
547.679	34.6667
550.157	36.6667
552.634	42
555.112	40.6667
557.588	38
560.063	38
562.537	39.3333
565.011	34
567.484	38.6667
569.955	38.6667
572.426	38.6667
574.896	39.3333
577.367	39.3333
579.835	38
582.303	39.3333
584.77	39.3333
587.236	39.3333
589.701	36.6667
592.165	40.6667
594.629	37.3333
597.093	40
599.555	36.6667
602.016	40.6667
604.477	41.3333
606.936	41.3333
609.395	40
611.853	37.3333
614.311	36.6667
616.767	40.6667
619.223	38
621.678	34.6667
624.132	43.3333
626.585	40.6667
629.037	37.3333
631.489	38.6667
633.94	38.6667
636.39	42
638.839	45.3333
641.288	40
643.736	42
646.183	38.6667
648.627	40
651.073	38.6667
653.517	40.6667
655.961	40.6667
658.404	38.6667
660.846	38.6667
663.288	40.6667
665.727	42
668.167	38
670.606	46
673.044	44
675.482	41.3333
677.917	40
680.353	43.3333
682.788	42.6667
685.222	40.6667
687.655	42
690.087	42
692.519	39.3333
694.951	40.6667
697.38	38.6667
699.809	40
702.238	39.3333
704.665	42
707.092	39.3333
709.519	40
711.943	42
714.368	36.6667
716.791	40.6667
719.214	41.3333
721.637	40
724.058	39.3333
726.479	40
728.898	42.6667
731.317	38.6667
733.734	38
736.152	38.6667
738.568	40
740.985	41.3333
743.399	37.3333
745.814	36.6667
748.227	41.3333
750.64	42.6667
753.051	40.6667
755.463	40
757.872	42
760.283	42
762.691	38.6667
765.098	43.3333
767.506	42
769.912	42.6667
772.318	42.6667
774.722	41.3333
777.126	43.3333
779.53	38
781.932	40
784.333	43.3333
786.735	38.6667
789.135	40
791.533	46
793.933	46.6667
796.33	46
798.727	40.6667
801.123	44
803.519	48.6667
805.913	42.6667
808.307	44
810.699	46.6667
813.093	48.6667
815.484	45.3333
817.874	45.3333
820.264	44
822.653	50
825.041	49.3333
827.43	45.3333
829.817	44
832.203	44.6667
834.588	50
836.972	51.3333
839.356	42
841.738	51.3333
844.12	51.3333
846.502	49.3333
848.882	48.6667
851.262	51.3333
853.641	50
856.02	55.3333
858.397	56
860.774	56
863.15	64.6667
865.525	65.3333
867.9	69.3333
870.273	91.3333
872.646	98.6667
875.019	132.667
877.39	182
879.761	245.333
882.131	335.333
884.5	348.667
886.869	325.333
889.236	286.667
891.602	205.333
893.968	162
896.334	106.667
898.698	92
901.062	80
903.426	68
905.787	65.3333
908.148	58.6667
910.509	56
912.87	50.6667
915.228	54.6667
917.587	52.6667
919.945	42
922.302	48
924.657	50.6667
927.013	49.3333
929.368	45.3333
931.721	45.3333
934.074	44
936.427	48
938.778	43.3333
941.129	42
943.479	44
945.828	48
948.177	46
950.524	46.6667
952.871	42.6667
955.218	46.6667
957.563	40
959.908	45.3333
962.252	42.6667
964.595	40.6667
966.937	48.6667
969.28	40.6667
971.62	46
973.961	45.3333
976.3	46.6667
978.639	44.6667
980.976	45.3333
983.314	45.3333
985.65	48
987.987	45.3333
990.321	43.3333
992.655	44.6667
994.989	46.6667
997.321	43.3333
999.653	47.3333
1001.98	48
1004.31	52.6667
1006.65	46.6667
1008.97	48.6667
1011.3	54
1013.63	52.6667
1015.96	46.6667
1018.28	48
1020.61	51.3333
1022.93	55.3333
1025.26	55.3333
1027.58	56.6667
1029.9	62.6667
1032.22	58
1034.54	66
1036.86	77.3333
1039.18	80
1041.5	90
1043.82	99.3333
1046.14	108
1048.45	123.333
1050.77	118.667
1053.08	129.333
1055.4	128.667
1057.71	122
1060.02	109.333
1062.33	106.667
1064.64	85.3333
1066.96	87.3333
1069.27	83.3333
1071.57	86
1073.88	79.3333
1076.19	86.6667
1078.5	82
1080.8	82
1083.11	90
1085.41	96.6667
1087.72	98
1090.02	114
1092.32	122.667
1094.62	135.333
1096.92	129.333
1099.22	134
1101.52	127.333
1103.82	116.667
1106.12	104.667
1108.42	86.6667
1110.71	83.3333
1113.01	83.3333
1115.3	79.3333
1117.6	80
1119.89	77.3333
1122.18	76.6667
1124.48	74.6667
1126.77	68
1129.06	63.3333
1131.35	63.3333
1133.64	59.3333
1135.93	62
1138.21	56.6667
1140.5	57.3333
1142.79	56.6667
1145.07	54.6667
1147.36	56
1149.64	52
1151.92	58
1154.21	52.6667
1156.49	51.3333
1158.77	50
1161.05	48
1163.33	51.3333
1165.61	49.3333
1167.89	48
1170.16	48.6667
1172.44	48.6667
1174.72	46
1176.99	48.6667
1179.27	50.6667
1181.54	46
1183.81	48.6667
1186.09	46
1188.36	49.3333
1190.63	52
1192.9	48.6667
1195.17	46
1197.44	48.6667
1199.71	47.3333
1201.97	48.6667
1204.24	47.3333
1206.5	48
1208.77	50.6667
1211.03	49.3333
1213.3	49.3333
1215.56	52.6667
1217.82	48.6667
1220.09	50.6667
1222.35	50
1224.61	50
1226.87	50.6667
1229.12	50.6667
1231.38	54
1233.64	54.6667
1235.9	52.6667
1238.15	54.6667
1240.41	54
1242.66	54
1244.92	50.6667
1247.17	51.3333
1249.42	58
1251.67	54
1253.92	55.3333
1256.17	56.6667
1258.42	62
1260.67	59.3333
1262.92	61.3333
1265.17	70
1267.42	74.6667
1269.66	80.6667
1271.91	84.6667
1274.15	88.6667
1276.39	93.3333
1278.64	82
1280.88	84.6667
1283.12	80
1285.36	71.3333
1287.6	65.3333
1289.84	71.3333
1292.08	69.3333
1294.32	58.6667
1296.56	62.6667
1298.79	53.3333
1301.03	54
1303.26	60.6667
1305.5	62.6667
1307.73	64
1309.97	60
1312.2	60.6667
1314.43	57.3333
1316.66	54.6667
1318.89	55.3333
1321.12	56.6667
1323.35	54.6667
1325.58	54.6667
1327.81	56
1330.03	54.6667
1332.26	48.6667
1334.49	57.3333
1336.71	55.3333
1338.94	61.3333
1341.16	60.6667
1343.38	54
1345.6	52.6667
1347.83	57.3333
1350.05	52.6667
1352.27	59.3333
1354.49	54
1356.7	58
1358.92	57.3333
1361.14	58.6667
1363.36	62.6667
1365.57	58.6667
1367.79	63.3333
1370	60.6667
1372.21	66
1374.43	60
1376.64	67.3333
1378.85	64
1381.06	67.3333
1383.27	66.6667
1385.48	65.3333
1387.69	64
1389.9	70.6667
1392.11	68
1394.31	70
1396.52	66.6667
1398.73	69.3333
1400.93	68.6667
1403.13	69.3333
1405.34	72.6667
1407.54	76
1409.74	75.3333
1411.94	78.6667
1414.14	80
1416.34	76.6667
1418.54	77.3333
1420.74	79.3333
1422.94	78
1425.14	79.3333
1427.33	90
1429.53	88.6667
1431.72	97.3333
1433.92	96
1436.11	98
1438.3	98
1440.5	108
1442.69	121.333
1444.88	131.333
1447.07	136.667
1449.26	152
1451.45	157.333
1453.64	163.333
1455.82	169.333
1458.01	162.667
1460.2	149.333
1462.38	140
1464.57	131.333
1466.75	119.333
1468.93	108.667
1471.12	102
1473.3	107.333
1475.48	95.3333
1477.66	91.3333
1479.84	98.6667
1482.02	101.333
1484.2	99.3333
1486.38	100
1488.55	87.3333
1490.73	90
1492.91	86
1495.08	78
1497.26	81.3333
1499.43	77.3333
1501.61	76.6667
1503.78	68.6667
1505.95	68
1508.12	71.3333
1510.29	68
1512.46	68.6667
1514.63	70.6667
1516.8	68
1518.97	68
1521.14	61.3333
1523.3	56.6667
1525.47	60.6667
1527.63	60
1529.8	63.3333
1531.96	61.3333
1534.12	60.6667
1536.29	61.3333
1538.45	56
1540.61	54.6667
1542.77	60.6667
1544.93	62
1547.09	58
1549.25	54
1551.41	59.3333
1553.56	56
1555.72	58.6667
1557.88	60
1560.03	52.6667
1562.18	54
1564.34	58.6667
1566.49	58
1568.64	59.3333
1570.8	61.3333
1572.95	52
1575.1	57.3333
1577.25	55.3333
1579.4	53.3333
1581.55	51.3333
1583.69	56.6667
1585.84	54
1587.99	56.6667
1590.13	56.6667
1592.28	50.6667
1594.42	52.6667
1596.57	55.3333
1598.71	53.3333
1600.85	56.6667
1602.99	54.6667
1605.14	60
1607.28	56.6667
1609.42	48.6667
1611.56	56.6667
1613.69	54.6667
1615.83	54.6667
1617.97	55.3333
1620.11	53.3333
1622.24	51.3333
1624.38	52
1626.51	53.3333
1628.65	58
1630.78	52
1632.91	52.6667
1635.04	50
1637.17	48.6667
1639.31	54.6667
1641.44	51.3333
1643.57	58
1645.69	52.6667
1647.82	52
1649.95	54.6667
1652.08	50
1654.2	54.6667
1656.33	56
1658.45	50
1660.58	49.3333
1662.7	50.6667
1664.82	52.6667
1666.94	57.3333
1669.07	52
1671.19	58
1673.31	50.6667
1675.43	54.6667
1677.55	57.3333
1679.66	55.3333
1681.78	56
1683.9	53.3333
1686.01	57.3333
1688.13	53.3333
1690.25	54.6667
1692.36	58.6667
1694.47	52.6667
1696.59	48.6667
1698.7	55.3333
1700.81	52.6667
1702.92	56
1705.03	51.3333
1707.14	58
1709.25	57.3333
1711.36	51.3333
1713.47	57.3333
1715.58	55.3333
1717.68	51.3333
1719.79	56.6667
1721.89	55.3333
1724	55.3333
1726.1	56.6667
1728.21	56.6667
1730.31	56
1732.41	46
1734.51	52.6667
1736.61	54.6667
1738.71	54
1740.81	54.6667
1742.91	58.6667
1745.01	52.6667
1747.11	52.6667
1749.2	58.6667
1751.3	54.6667
1753.4	50
1755.49	54.6667
1757.59	51.3333
1759.68	54
1761.77	59.3333
1763.86	56.6667
1765.96	56
1768.05	52
1770.14	52.6667
1772.23	55.3333
1774.32	57.3333
1776.41	60.6667
1778.49	55.3333
1780.58	55.3333
1782.67	55.3333
1784.76	57.3333
1786.84	52.6667
1788.92	54.6667
1791.01	55.3333
1793.09	55.3333
1795.18	55.3333
1797.26	49.3333
1799.34	56.6667
1801.42	56.6667
1803.5	56
1805.58	55.3333
1807.66	54.6667
1809.74	52.6667
1811.82	48
1813.89	57.3333
1815.97	54.6667
1818.05	54
1820.12	50
1822.2	53.3333
1824.27	52
1826.34	50
1828.42	49.3333
1830.49	54.6667
1832.56	58
1834.63	57.3333
1836.7	51.3333
1838.77	55.3333
1840.84	58
1842.91	54
1844.98	53.3333
1847.04	54.6667
1849.11	56.6667
1851.18	52
1853.24	52
1855.31	55.3333
1857.37	56
1859.43	58
1861.5	54.6667
1863.56	54.6667
1865.62	55.3333
1867.68	54
1869.74	54.6667
1871.8	55.3333
1873.86	52.6667
1875.92	61.3333
1877.98	55.3333
1880.03	48
1882.09	54
1884.15	52.6667
1886.2	54
1888.26	52
1890.31	55.3333
1892.36	58
1894.42	60.6667
1896.47	57.3333
1898.52	59.3333
1900.57	52.6667
1902.62	57.3333
1904.67	56
1906.72	56
1908.77	60
1910.82	56
1912.86	60.6667
1914.91	54.6667
1916.96	54
1919	56
1921.04	59.3333
1923.09	57.3333
1925.13	61.3333
1927.18	59.3333
1929.22	56.6667
1931.26	52.6667
1933.3	62
1935.34	56
1937.38	56
1939.42	59.3333
1941.46	58
1943.5	55.3333
1945.53	58
1947.57	52.6667
1949.61	56.6667
1951.64	58.6667
1953.68	56.6667
1955.71	56
1957.75	53.3333
1959.78	61.3333
1961.81	55.3333
1963.84	55.3333
1965.87	56
1967.9	58.6667
1969.93	52
1971.96	56.6667
1973.99	62
1976.02	56
1978.05	60.6667
1980.07	54.6667
1982.1	60.6667
1984.13	50.6667
1986.15	54.6667
1988.18	53.3333
1990.2	59.3333
1992.22	57.3333
1994.25	61.3333
1996.27	56.6667
1998.29	54.6667
2000.31	58
2002.33	59.3333
2004.35	54.6667
2006.37	60
2008.39	56
2010.41	58
2012.42	56.6667
2014.44	54
2016.46	59.3333
2018.47	56
2020.49	59.3333
2022.5	58.6667
2024.51	54
2026.53	58.6667
2028.54	56
2030.55	59.3333
2032.56	62
2034.57	60
2036.58	60
2038.59	57.3333
2040.6	56
2042.61	58.6667
2044.62	56
2046.62	58.6667
2048.63	58
2050.64	61.3333
2052.64	54
2054.65	59.3333
2056.65	62.6667
2058.65	58
2060.66	54.6667
2062.66	57.3333
2064.66	62.6667
2066.66	54.6667
2068.66	59.3333
2070.66	58.6667
2072.66	56
2074.66	58.6667
2076.66	60.6667
2078.65	60.6667
2080.65	64
2082.65	60
2084.64	62.6667
2086.64	62
2088.63	60
2090.63	61.3333
2092.62	63.3333
2094.61	62.6667
2096.6	58.6667
2098.59	56.6667
2100.59	65.3333
2102.58	58.6667
2104.56	61.3333
2106.55	60
2108.54	62
2110.53	52
2112.52	57.3333
2114.5	58.6667
2116.49	60
2118.48	57.3333
2120.46	56.6667
2122.44	63.3333
2124.43	62.6667
2126.41	58
2128.39	58.6667
2130.38	61.3333
2132.36	63.3333
2134.34	60
2136.32	64
2138.3	62.6667
2140.28	58.6667
2142.26	63.3333
2144.23	62
2146.21	58
2148.19	60
2150.16	60
2152.14	57.3333
2154.11	58
2156.09	60.6667
2158.06	66.6667
2160.04	63.3333
2162.01	62
2163.98	61.3333
2165.95	63.3333
2167.92	63.3333
2169.89	55.3333
2171.86	56
2173.83	56
2175.8	59.3333
2177.77	60
2179.73	60
2181.7	58
2183.67	62.6667
2185.63	59.3333
2187.6	61.3333
2189.56	63.3333
2191.53	62.6667
2193.49	62
2195.45	62.6667
2197.41	64.6667
2199.37	58.6667
2201.34	57.3333
2203.29	62.6667
2205.26	56
2207.21	62.6667
2209.17	58
2211.13	56.6667
2213.09	61.3333
2215.05	58.6667
2217	54.6667
2218.96	62
2220.91	59.3333
2222.87	58.6667
2224.82	56
2226.77	66
2228.73	64
2230.68	62
2232.63	61.3333
2234.58	64
2236.53	61.3333
2238.48	60.6667
2240.43	63.3333
2242.38	65.3333
2244.33	62
2246.27	62
2248.22	64
2250.17	62.6667
2252.11	62.6667
2254.06	62
2256	62
2257.95	59.3333
2259.89	65.3333
2261.84	60.6667
2263.78	59.3333
2265.72	61.3333
2267.66	62
2269.6	62.6667
2271.54	66.6667
2273.48	64.6667
2275.42	59.3333
2277.36	61.3333
2279.3	66
2281.23	61.3333
2283.17	60.6667
2285.11	64.6667
2287.04	62
2288.98	57.3333
2290.91	63.3333
2292.84	66.6667
2294.78	58.6667
2296.71	60.6667
2298.64	66
2300.57	64.6667
2302.51	61.3333
2304.44	63.3333
2306.37	66.6667
2308.29	68
2310.22	61.3333
2312.15	67.3333
2314.08	57.3333
2316.01	66
2317.93	64.6667
2319.86	66.6667
2321.78	64.6667
2323.71	64.6667
2325.63	63.3333
2327.56	63.3333
2329.48	66
2331.4	67.3333
2333.32	63.3333
2335.25	67.3333
2337.17	68.6667
2339.09	60
2341.01	67.3333
2342.92	56
2344.84	61.3333
2346.76	67.3333
2348.68	55.3333
2350.6	62.6667
2352.51	62
2354.43	64.6667
2356.34	62.6667
2358.26	62.6667
2360.17	64.6667
2362.09	58
2364	66.6667
2365.91	66.6667
2367.82	68.6667
2369.73	59.3333
2371.64	64.6667
2373.55	63.3333
2375.46	62.6667
2377.37	61.3333
2379.28	62.6667
2381.19	63.3333
2383.1	63.3333
2385	61.3333
2386.91	62.6667
2388.82	66.6667
2390.72	66
2392.62	57.3333
2394.53	65.3333
2396.43	62
2398.33	60
2400.24	68
2402.14	64
2404.04	64
2405.94	66.6667
2407.84	58.6667
2409.74	68.6667
2411.64	69.3333
2413.54	65.3333
2415.44	66.6667
2417.33	66
2419.23	63.3333
2421.13	65.3333
2423.02	60
2424.92	67.3333
2426.81	64
2428.71	66.6667
2430.6	62.6667
2432.49	66
2434.38	62
2436.28	61.3333
2438.17	64
2440.06	66.6667
2441.95	64.6667
2443.84	62.6667
2445.73	65.3333
