176.817	56.6667
179.42	52
182.022	48.6667
184.622	54
187.223	52.6667
189.821	52.6667
192.419	50
195.017	49.3333
197.612	51.3333
200.208	48.6667
202.802	52
205.397	50.6667
207.99	46.6667
210.581	50.6667
213.173	49.3333
215.762	46.6667
218.352	48.6667
220.94	44.6667
223.528	52
226.114	45.3333
228.701	46
231.285	46
233.87	43.3333
236.452	46
239.034	44.6667
241.616	42.6667
244.196	45.3333
246.777	49.3333
249.355	45.3333
251.933	46.6667
254.511	44.6667
257.086	46
259.663	44
262.237	40.6667
264.81	46
267.383	45.3333
269.955	44.6667
272.525	40
275.097	44.6667
277.665	48
280.234	42
282.802	42
285.368	41.3333
287.934	44
290.499	44
293.064	49.3333
295.627	43.3333
298.189	43.3333
300.75	46
303.312	44
305.871	44.6667
308.43	41.3333
310.988	42
313.545	40
316.101	40.6667
318.658	42.6667
321.212	38.6667
323.766	44
326.319	41.3333
328.871	42
331.422	38.6667
333.972	40.6667
336.522	42
339.072	42
341.619	38.6667
344.166	44
346.712	38.6667
349.258	41.3333
351.802	42
354.346	38
356.888	40
359.43	40.6667
361.971	39.3333
364.511	42
367.051	41.3333
369.589	40.6667
372.127	40
374.664	45.3333
377.2	39.3333
379.735	40
382.27	42
384.802	40.6667
387.334	45.3333
389.866	40
392.397	42
394.927	40.6667
397.457	41.3333
399.985	40.6667
402.513	45.3333
405.038	41.3333
407.565	44.6667
410.09	44.6667
412.614	48
415.138	48.6667
417.66	50
420.181	54
422.702	58.6667
425.222	63.3333
427.742	68
430.259	68
432.777	74.6667
435.294	75.3333
437.81	72.6667
440.324	62
442.838	62.6667
445.352	58
447.863	61.3333
450.375	48
452.887	57.3333
455.395	54.6667
457.905	49.3333
460.414	50.6667
462.92	45.3333
465.427	48
467.932	46
470.438	40
472.942	45.3333
475.445	42.6667
477.948	40.6667
480.448	38.6667
482.95	44.6667
485.449	42.6667
487.949	44
490.446	40
492.944	40
495.44	41.3333
497.937	41.3333
500.431	39.3333
502.926	38.6667
505.418	37.3333
507.912	37.3333
510.403	36
512.894	38
515.384	40.6667
517.874	38
520.361	40.6667
522.848	41.3333
525.336	40
527.821	39.3333
530.306	39.3333
532.791	42
535.274	38
537.756	39.3333
540.238	38
542.719	38.6667
545.199	42.6667
547.679	35.3333
550.157	40
552.634	40
555.112	39.3333
557.588	38.6667
560.063	39.3333
562.537	36.6667
565.011	39.3333
567.484	40
569.955	36.6667
572.426	38.6667
574.896	42
577.367	37.3333
579.835	36.6667
582.303	34.6667
584.77	37.3333
587.236	38
589.701	42
592.165	35.3333
594.629	42
597.093	40.6667
599.555	38.6667
602.016	40
604.477	39.3333
606.936	41.3333
609.395	39.3333
611.853	38.6667
614.311	38.6667
616.767	42
619.223	38
621.678	39.3333
624.132	42.6667
626.585	38
629.037	42
631.489	42.6667
633.94	42.6667
636.39	42
638.839	44.6667
641.288	34.6667
643.736	38
646.183	41.3333
648.627	38
651.073	42
653.517	39.3333
655.961	38.6667
658.404	44
660.846	36.6667
663.288	38
665.727	41.3333
668.167	40.6667
670.606	41.3333
673.044	40.6667
675.482	42
677.917	41.3333
680.353	42
682.788	42
685.222	42.6667
687.655	38.6667
690.087	42.6667
692.519	44
694.951	39.3333
697.38	39.3333
699.809	43.3333
702.238	39.3333
704.665	41.3333
707.092	42.6667
709.519	42
711.943	41.3333
714.368	41.3333
716.791	38.6667
719.214	41.3333
721.637	41.3333
724.058	39.3333
726.479	38.6667
728.898	40
731.317	38.6667
733.734	42.6667
736.152	42.6667
738.568	37.3333
740.985	42
743.399	42.6667
745.814	37.3333
748.227	40.6667
750.64	40.6667
753.051	38
755.463	43.3333
757.872	42
760.283	37.3333
762.691	43.3333
765.098	41.3333
767.506	39.3333
769.912	39.3333
772.318	41.3333
774.722	40.6667
777.126	39.3333
779.53	42.6667
781.932	41.3333
784.333	45.3333
786.735	40
789.135	43.3333
791.533	44.6667
793.933	46
796.33	39.3333
798.727	45.3333
801.123	42.6667
803.519	45.3333
805.913	43.3333
808.307	45.3333
810.699	44.6667
813.093	44.6667
815.484	45.3333
817.874	45.3333
820.264	43.3333
822.653	46.6667
825.041	48
827.43	45.3333
829.817	47.3333
832.203	49.3333
834.588	47.3333
836.972	44.6667
839.356	49.3333
841.738	48.6667
844.12	50
846.502	50
848.882	50.6667
851.262	50.6667
853.641	49.3333
856.02	57.3333
858.397	53.3333
860.774	57.3333
863.15	65.3333
865.525	68
867.9	78.6667
870.273	84
872.646	108
875.019	124.667
877.39	182.667
879.761	250
882.131	312.667
884.5	363.333
886.869	344
889.236	271.333
891.602	204
893.968	147.333
896.334	110
898.698	96
901.062	74.6667
903.426	70
905.787	64.6667
908.148	60
910.509	56
912.87	55.3333
915.228	54
917.587	50.6667
919.945	52.6667
922.302	48.6667
924.657	48
927.013	48.6667
929.368	49.3333
931.721	45.3333
934.074	42.6667
936.427	44
938.778	46
941.129	47.3333
943.479	47.3333
945.828	44.6667
948.177	46
950.524	46
952.871	47.3333
955.218	38
957.563	42
959.908	40.6667
962.252	43.3333
964.595	44
966.937	41.3333
969.28	46
971.62	45.3333
973.961	50
976.3	43.3333
978.639	47.3333
980.976	44.6667
983.314	42.6667
985.65	46
987.987	42
990.321	46.6667
992.655	40.6667
994.989	46
997.321	48.6667
999.653	48
1001.98	48
1004.31	46
1006.65	51.3333
1008.97	47.3333
1011.3	51.3333
1013.63	47.3333
1015.96	52
1018.28	48.6667
1020.61	52.6667
1022.93	54.6667
1025.26	56.6667
1027.58	54.6667
1029.9	64
1032.22	62.6667
1034.54	67.3333
1036.86	66.6667
1039.18	72
1041.5	84.6667
1043.82	86.6667
1046.14	108.667
1048.45	115.333
1050.77	124.667
1053.08	132
1055.4	126
1057.71	121.333
1060.02	115.333
1062.33	104.667
1064.64	92.6667
1066.96	85.3333
1069.27	79.3333
1071.57	78.6667
1073.88	80.6667
1076.19	82
1078.5	92
1080.8	91.3333
1083.11	94.6667
1085.41	97.3333
1087.72	108
1090.02	112
1092.32	121.333
1094.62	127.333
1096.92	140
1099.22	141.333
1101.52	125.333
1103.82	126.667
1106.12	106
1108.42	95.3333
1110.71	93.3333
1113.01	84.6667
1115.3	84
1117.6	73.3333
1119.89	75.3333
1122.18	75.3333
1124.48	72.6667
1126.77	70
1129.06	69.3333
1131.35	70.6667
1133.64	60.6667
1135.93	60.6667
1138.21	58.6667
1140.5	57.3333
1142.79	58.6667
1145.07	54.6667
1147.36	53.3333
1149.64	52
1151.92	52.6667
1154.21	51.3333
1156.49	49.3333
1158.77	50
1161.05	49.3333
1163.33	48
1165.61	49.3333
1167.89	50.6667
1170.16	49.3333
1172.44	49.3333
1174.72	48.6667
1176.99	50.6667
1179.27	47.3333
1181.54	49.3333
1183.81	51.3333
1186.09	52.6667
1188.36	48.6667
1190.63	47.3333
1192.9	48.6667
1195.17	48
1197.44	51.3333
1199.71	50.6667
1201.97	47.3333
1204.24	50.6667
1206.5	46.6667
1208.77	44.6667
1211.03	50
1213.3	48.6667
1215.56	48
1217.82	48
1220.09	52.6667
1222.35	48.6667
1224.61	49.3333
1226.87	45.3333
1229.12	48
1231.38	56
1233.64	47.3333
1235.9	50.6667
1238.15	50.6667
1240.41	53.3333
1242.66	56
1244.92	56
1247.17	54.6667
1249.42	58.6667
1251.67	54
1253.92	61.3333
1256.17	58.6667
1258.42	55.3333
1260.67	66
1262.92	62.6667
1265.17	69.3333
1267.42	73.3333
1269.66	76
1271.91	80.6667
1274.15	86
1276.39	86.6667
1278.64	94
1280.88	84.6667
1283.12	84
1285.36	74
1287.6	71.3333
1289.84	68
1292.08	63.3333
1294.32	62
1296.56	61.3333
1298.79	62
1301.03	65.3333
1303.26	60
1305.5	61.3333
1307.73	60
1309.97	58.6667
1312.2	53.3333
1314.43	60
1316.66	53.3333
1318.89	52.6667
1321.12	56.6667
1323.35	52
1325.58	58
1327.81	52.6667
1330.03	52
1332.26	60.6667
1334.49	55.3333
1336.71	53.3333
1338.94	54.6667
1341.16	54.6667
1343.38	51.3333
1345.6	58.6667
1347.83	56
1350.05	58.6667
1352.27	58
1354.49	54.6667
1356.7	54.6667
1358.92	58.6667
1361.14	58.6667
1363.36	55.3333
1365.57	61.3333
1367.79	60.6667
1370	57.3333
1372.21	63.3333
1374.43	60
1376.64	65.3333
1378.85	61.3333
1381.06	68.6667
1383.27	68.6667
1385.48	65.3333
1387.69	68.6667
1389.9	67.3333
1392.11	64.6667
1394.31	68
1396.52	70.6667
1398.73	64
1400.93	66.6667
1403.13	65.3333
1405.34	74.6667
1407.54	68.6667
1409.74	74
1411.94	72.6667
1414.14	77.3333
1416.34	85.3333
1418.54	78
1420.74	72.6667
1422.94	85.3333
1425.14	82.6667
1427.33	78
1429.53	83.3333
1431.72	88
1433.92	92.6667
1436.11	100
1438.3	102
1440.5	104.667
1442.69	121.333
1444.88	128
1447.07	144.667
1449.26	150
1451.45	155.333
1453.64	164
1455.82	171.333
1458.01	168
1460.2	156.667
1462.38	140.667
1464.57	128.667
1466.75	118
1468.93	113.333
1471.12	111.333
1473.3	104
1475.48	104.667
1477.66	100
1479.84	102.667
1482.02	103.333
1484.2	99.3333
1486.38	99.3333
1488.55	96.6667
1490.73	87.3333
1492.91	79.3333
1495.08	71.3333
1497.26	78
1499.43	71.3333
1501.61	75.3333
1503.78	76
1505.95	68.6667
1508.12	68
1510.29	68
1512.46	68.6667
1514.63	68
1516.8	67.3333
1518.97	62.6667
1521.14	66
1523.3	64.6667
1525.47	61.3333
1527.63	63.3333
1529.8	62
1531.96	59.3333
1534.12	57.3333
1536.29	62.6667
1538.45	60.6667
1540.61	55.3333
1542.77	58.6667
1544.93	58.6667
1547.09	54
1549.25	58.6667
1551.41	58
1553.56	55.3333
1555.72	59.3333
1557.88	59.3333
1560.03	58.6667
1562.18	54
1564.34	53.3333
1566.49	48.6667
1568.64	53.3333
1570.8	56
1572.95	55.3333
1575.1	60
1577.25	57.3333
1579.4	61.3333
1581.55	56
1583.69	52
1585.84	50
1587.99	51.3333
1590.13	57.3333
1592.28	50.6667
1594.42	56
1596.57	51.3333
1598.71	56.6667
1600.85	52.6667
1602.99	50.6667
1605.14	56
1607.28	46.6667
1609.42	50.6667
1611.56	61.3333
1613.69	58
1615.83	60.6667
1617.97	56.6667
1620.11	58
1622.24	56
1624.38	56
1626.51	58.6667
1628.65	53.3333
1630.78	52.6667
1632.91	54
1635.04	52
1637.17	50.6667
1639.31	56.6667
1641.44	53.3333
1643.57	54
1645.69	56
1647.82	56.6667
1649.95	52
1652.08	58
1654.2	52
1656.33	52
1658.45	58
1660.58	52.6667
1662.7	51.3333
1664.82	56
1666.94	54
1669.07	52.6667
1671.19	54
1673.31	56
1675.43	56.6667
1677.55	51.3333
1679.66	57.3333
1681.78	58
1683.9	55.3333
1686.01	57.3333
1688.13	58.6667
1690.25	55.3333
1692.36	56
1694.47	58
1696.59	54
1698.7	60.6667
1700.81	56
1702.92	57.3333
1705.03	56.6667
1707.14	55.3333
1709.25	53.3333
1711.36	58
1713.47	56.6667
1715.58	54.6667
1717.68	54.6667
1719.79	52.6667
1721.89	52.6667
1724	52
1726.1	54.6667
1728.21	57.3333
1730.31	52.6667
1732.41	55.3333
1734.51	56
1736.61	58.6667
1738.71	55.3333
1740.81	51.3333
1742.91	54.6667
1745.01	54.6667
1747.11	54.6667
1749.2	52.6667
1751.3	54
1753.4	54.6667
1755.49	53.3333
1757.59	52
1759.68	58
1761.77	54
1763.86	54.6667
1765.96	56
1768.05	54
1770.14	52.6667
1772.23	57.3333
1774.32	54.6667
1776.41	52.6667
1778.49	55.3333
1780.58	55.3333
1782.67	50
1784.76	55.3333
1786.84	54
1788.92	54
1791.01	57.3333
1793.09	52.6667
1795.18	55.3333
1797.26	52
1799.34	53.3333
1801.42	58.6667
1803.5	56
1805.58	54.6667
1807.66	52.6667
1809.74	54.6667
1811.82	59.3333
1813.89	54
1815.97	51.3333
1818.05	59.3333
1820.12	54.6667
1822.2	50.6667
1824.27	55.3333
1826.34	55.3333
1828.42	58
1830.49	50
1832.56	52.6667
1834.63	54.6667
1836.7	62
1838.77	51.3333
1840.84	52.6667
1842.91	55.3333
1844.98	57.3333
1847.04	54
1849.11	54.6667
1851.18	58.6667
1853.24	56
1855.31	56
1857.37	56.6667
1859.43	60
1861.5	54.6667
1863.56	52
1865.62	53.3333
1867.68	57.3333
1869.74	54.6667
1871.8	56
1873.86	54.6667
1875.92	56
1877.98	54
1880.03	56.6667
1882.09	53.3333
1884.15	58.6667
1886.2	56.6667
1888.26	60.6667
1890.31	58
1892.36	58
1894.42	57.3333
1896.47	59.3333
1898.52	58
1900.57	58
1902.62	52.6667
1904.67	57.3333
1906.72	56
1908.77	54.6667
1910.82	54
1912.86	57.3333
1914.91	54.6667
1916.96	56.6667
1919	58
1921.04	59.3333
1923.09	55.3333
1925.13	58.6667
1927.18	50.6667
1929.22	59.3333
1931.26	58
1933.3	60.6667
1935.34	57.3333
1937.38	60.6667
1939.42	56.6667
1941.46	55.3333
1943.5	55.3333
1945.53	56.6667
1947.57	58
1949.61	58
1951.64	54.6667
1953.68	58.6667
1955.71	58.6667
1957.75	56
1959.78	53.3333
1961.81	57.3333
1963.84	57.3333
1965.87	55.3333
1967.9	56.6667
1969.93	60.6667
1971.96	58.6667
1973.99	60.6667
1976.02	61.3333
1978.05	64.6667
1980.07	54
1982.1	56
1984.13	57.3333
1986.15	56
1988.18	63.3333
1990.2	55.3333
1992.22	60.6667
1994.25	55.3333
1996.27	56.6667
1998.29	59.3333
2000.31	60
2002.33	61.3333
2004.35	60
2006.37	58
2008.39	55.3333
2010.41	59.3333
2012.42	63.3333
2014.44	57.3333
2016.46	57.3333
2018.47	55.3333
2020.49	60.6667
2022.5	58
2024.51	63.3333
2026.53	61.3333
2028.54	59.3333
2030.55	56.6667
2032.56	60.6667
2034.57	58
2036.58	54.6667
2038.59	56.6667
2040.6	56.6667
2042.61	55.3333
2044.62	60
2046.62	56.6667
2048.63	61.3333
2050.64	61.3333
2052.64	62
2054.65	62.6667
2056.65	56.6667
2058.65	62
2060.66	56
2062.66	56.6667
2064.66	56.6667
2066.66	56
2068.66	60.6667
2070.66	57.3333
2072.66	61.3333
2074.66	60.6667
2076.66	58
2078.65	58
2080.65	58.6667
2082.65	61.3333
2084.64	62
2086.64	60
2088.63	58.6667
2090.63	61.3333
2092.62	60.6667
2094.61	56.6667
2096.6	60.6667
2098.59	62.6667
2100.59	60.6667
2102.58	59.3333
2104.56	62
2106.55	60.6667
2108.54	57.3333
2110.53	62
2112.52	56
2114.5	54.6667
2116.49	62
2118.48	60.6667
2120.46	62.6667
2122.44	60
2124.43	59.3333
2126.41	64.6667
2128.39	57.3333
2130.38	64.6667
2132.36	62
2134.34	65.3333
2136.32	60
2138.3	64.6667
2140.28	58.6667
2142.26	59.3333
2144.23	63.3333
2146.21	62
2148.19	53.3333
2150.16	58
2152.14	61.3333
2154.11	60
2156.09	56
2158.06	64
2160.04	58.6667
2162.01	60
2163.98	67.3333
2165.95	62
2167.92	62
2169.89	62
2171.86	61.3333
2173.83	63.3333
2175.8	61.3333
2177.77	54.6667
2179.73	62
2181.7	62
2183.67	60
2185.63	56.6667
2187.6	60.6667
2189.56	64
2191.53	63.3333
2193.49	60
2195.45	58
2197.41	59.3333
2199.37	64
2201.34	61.3333
2203.29	58.6667
2205.26	61.3333
2207.21	64.6667
2209.17	61.3333
2211.13	64
2213.09	61.3333
2215.05	60.6667
2217	60.6667
2218.96	59.3333
2220.91	61.3333
2222.87	57.3333
2224.82	57.3333
2226.77	59.3333
2228.73	63.3333
2230.68	62.6667
2232.63	61.3333
2234.58	62.6667
2236.53	61.3333
2238.48	68
2240.43	68
2242.38	64.6667
2244.33	59.3333
2246.27	61.3333
2248.22	62
2250.17	64
2252.11	62
2254.06	62.6667
2256	66.6667
2257.95	64
2259.89	64.6667
2261.84	66
2263.78	61.3333
2265.72	60
2267.66	69.3333
2269.6	65.3333
2271.54	64
2273.48	66.6667
2275.42	61.3333
2277.36	62.6667
2279.3	62
2281.23	65.3333
2283.17	64
2285.11	61.3333
2287.04	61.3333
2288.98	63.3333
2290.91	64
2292.84	66
2294.78	64
2296.71	62.6667
2298.64	61.3333
2300.57	64.6667
2302.51	65.3333
2304.44	66
2306.37	61.3333
2308.29	60.6667
2310.22	64
2312.15	66
2314.08	60.6667
2316.01	64.6667
2317.93	67.3333
2319.86	61.3333
2321.78	63.3333
2323.71	58.6667
2325.63	66.6667
2327.56	66
2329.48	64.6667
2331.4	62
2333.32	61.3333
2335.25	65.3333
2337.17	62
2339.09	61.3333
2341.01	66.6667
2342.92	68.6667
2344.84	58.6667
2346.76	58
2348.68	67.3333
2350.6	60.6667
2352.51	64
2354.43	65.3333
2356.34	62.6667
2358.26	57.3333
2360.17	60
2362.09	66.6667
2364	58.6667
2365.91	64
2367.82	64.6667
2369.73	64.6667
2371.64	62
2373.55	58
2375.46	66
2377.37	63.3333
2379.28	65.3333
2381.19	61.3333
2383.1	62.6667
2385	65.3333
2386.91	64.6667
2388.82	66
2390.72	64.6667
2392.62	64
2394.53	68.6667
2396.43	65.3333
2398.33	62.6667
2400.24	62
2402.14	65.3333
2404.04	63.3333
2405.94	62.6667
2407.84	64
2409.74	64.6667
2411.64	66
2413.54	64.6667
2415.44	64.6667
2417.33	62.6667
2419.23	66.6667
2421.13	67.3333
2423.02	70
2424.92	60.6667
2426.81	63.3333
2428.71	64
2430.6	58.6667
2432.49	60.6667
2434.38	66.6667
2436.28	68.6667
2438.17	68
2440.06	68.6667
2441.95	60.6667
2443.84	64.6667
2445.73	63.3333
