epoch,beta,train_loss,train_reconstruction_loss,train_kl_unnormalized,train_kl_normalized
1,0.0,0.0805065175033089,0.0805065175033089,51.02492442734484,0.036420360048069124
2,0.08,0.060474215532946525,0.044969156874394595,271.5323481027305,0.19381323918824447
3,0.16,0.04924716723726937,0.042123354768043124,62.377878189086914,0.04452382454610058
4,0.24,0.042465174732447854,0.03658002430097045,34.354568050753684,0.024521461849217475
5,0.32,0.03974271577692801,0.03535150875228806,19.22525683230265,0.013722524505569345
6,0.4,0.038659157134389166,0.03481002901183908,13.481572991269397,0.009622821549799713
7,0.48,0.037687305924910174,0.03462289902323824,8.944238662719727,0.006384181772105444
8,0.56,0.03765799362147712,0.03490708929211567,6.882173342976913,0.004912329295486733
9,0.64,0.03755035987193176,0.0345448554394115,6.579236852915648,0.0046961005374130255
10,0.72,0.03700919541768342,0.03379926189003748,6.245995127533565,0.004458240633500046
11,0.8,0.03641171325414116,0.03316340103708485,5.688605552275778,0.004060389402052661
12,0.88,0.03491444140672684,0.03178372759159386,4.984239837371978,0.0035576301480171146
13,0.96,0.034026751132963905,0.029855637152496697,6.087220113863129,0.004344910859288458
14,1.0,0.03286952982025762,0.02807561300750406,6.7162768160439015,0.004793916356919273
15,1.0,0.03154529851142585,0.026748978414991062,6.719643959632287,0.00479631974277822
16,1.0,0.031228228876593687,0.02629346289110391,6.913606592798351,0.004934765590862492
17,1.0,0.031036063215277035,0.026487457859456984,6.37259555868712,0.0045486049669429835
18,1.0,0.02988273481244485,0.025148272967294192,6.632981677800787,0.00473446229678857
19,1.0,0.02980704795079255,0.024770769389997938,7.055826311371758,0.005036278594840656
20,1.0,0.029315599501502723,0.024304991079582176,7.019862256629887,0.00501060832022119
21,1.0,0.02873164277625439,0.02362603166836219,7.152960999727841,0.0051056109919542045
22,1.0,0.02805792347114376,0.022969686761313574,7.12861950995017,0.0050882366238045465
23,1.0,0.02751020332405496,0.022418290339687622,7.1337702907344545,0.005091913126862566
24,1.0,0.02697346995009234,0.021547330843825496,7.602021367614974,0.005426139448690202
25,1.0,0.026607141226862856,0.02137856879190683,7.32522999737458,0.0052285724463772875
26,0.0,0.01928327955934161,0.01928327955934161,10.599146036001352,0.007565414729479909
27,0.08,0.018221658541273243,0.016809146292045454,24.736624289387212,0.017656405631254254
28,0.16,0.018758751646090973,0.015134083560064768,31.738504031160037,0.022654178466209877
29,0.24,0.01926506072671035,0.014849934260136732,25.773301851069068,0.018396361064289126
30,0.32,0.01962494327878538,0.015634426726929603,17.47098176828389,0.012470365287854312
31,0.4,0.020039206426174707,0.01607638855855311,13.879770435115539,0.009907045278455059
32,0.48,0.02060708617121351,0.016147078729001226,13.01764651504403,0.009291682023586031
33,0.56,0.021136977490287263,0.016120510517848338,12.550125330316813,0.008957976681168317
34,0.64,0.021405803344718574,0.0161485843009156,11.508381346615018,0.008214404958326208
35,0.72,0.02184362207578666,0.016643061646937435,10.119423837874722,0.007223000598054762
36,0.8,0.0221655757279683,0.01671019453952833,9.553736450062791,0.00681922658819614
37,0.88,0.022754526112422752,0.017116331414460544,8.976262253508082,0.006407039438621044
38,0.96,0.02319968148381923,0.017230390129661738,8.711435381886977,0.006218012406771575
39,1.0,0.02326552280994414,0.017473781305751196,8.114230231670824,0.005791741778494521
40,1.0,0.0233961949240481,0.017443657512996095,8.339505126990987,0.005952537563876508
41,1.0,0.022623551829207326,0.017047830009209015,7.81158599309235,0.00557572162247848
42,1.0,0.022926844739662507,0.017618324755513046,7.437236240424826,0.005308519800445986
43,1.0,0.023214518802041745,0.017305887320423246,8.277992494644657,0.005908631330938371
44,1.0,0.02273690298421507,0.017005980121105834,8.029022491303627,0.0057309225491103686
45,1.0,0.022421130138650425,0.01694120843860115,7.677370592027385,0.005479921907228683
46,1.0,0.022560834940106935,0.01680306750569243,8.066632684939552,0.0057577677979582815
47,1.0,0.02274534987197916,0.017086516506507735,7.9280256550601935,0.005658833444011559
48,1.0,0.022094027728544866,0.016656335156697493,7.6182069577295195,0.005437692332426495
49,1.0,0.02252482803580039,0.017164071906293297,7.510419908291649,0.00536075653696763
50,1.0,0.022527899676309922,0.016688276428923416,8.181312136259622,0.005839623223597161
51,0.0,0.01621010366170933,0.01621010366170933,9.713212046374753,0.0069330564213952554
52,0.08,0.01489160315967893,0.013789787467929625,19.295547291303688,0.013772696139403061
53,0.16,0.015921537202803728,0.013001402257652792,25.569432005397143,0.01825084368693586
54,0.24,0.016869306453404297,0.01284674038791627,23.481730326233667,0.016760692595455866
55,0.32,0.0173690848828989,0.013466484747623688,17.086071814260176,0.012195625848865223
56,0.4,0.01786222822372582,0.014070462576453354,13.280659308800331,0.009479414210421365
57,0.48,0.018144613034819845,0.0142321995189113,11.419357110489686,0.008150861606345244
58,0.56,0.019029167732662954,0.014533542438639009,11.24709064729752,0.00802790196095469
59,0.64,0.01943487039404383,0.014211763815016073,11.4337064137234,0.008161103792807566
60,0.72,0.020167210848803258,0.014955611525117315,10.140903404273702,0.0072383321943424
61,0.8,0.02051711020986584,0.015124674683099349,9.443502634393962,0.006740544350031379
62,0.88,0.02089355928966632,0.015603011025684347,8.422793019202448,0.006011986451964631
63,0.96,0.021315156974397582,0.015578119722067865,8.37248926186384,0.005976080843585896
64,1.0,0.021467216141873198,0.015602273818003776,8.216784164864135,0.005864942301830218
65,1.0,0.021222375726174775,0.015554148514313674,7.941186196159192,0.0056682271207417504
66,1.0,0.02146765708035926,0.01589080148489762,7.8131741010225735,0.005576855175604977
67,1.0,0.02122875037730184,0.015430557636299145,8.123267893164092,0.0057981926432291876
68,1.0,0.02099766577166452,0.015884651171584285,7.163333634880577,0.005113014728679926
69,1.0,0.021320194648416994,0.015880048991395876,7.6216441904640675,0.0054401457462270285
70,1.0,0.021031991941461492,0.015151192131394488,8.239001039831573,0.00588080017118599
71,1.0,0.02095720447858717,0.015347785905706084,7.858795644036002,0.005609418732359745
72,1.0,0.020869402006897086,0.015483173978498792,7.54610562265363,0.005386228138939065
73,1.0,0.020761216595473125,0.015397595193135383,7.514433522378245,0.005363621357871696
74,1.0,0.021176259964704514,0.015522146941839761,7.92141254604898,0.00565411316634474
75,1.0,0.020783025073465283,0.01521492981705491,7.800901528919305,0.005568095309721132
76,0.0,0.014388670643361716,0.014388670643361716,9.062983385090792,0.006468938890143321
77,0.08,0.013894334319914246,0.013009519138311039,15.495330332526498,0.011060192956835474
78,0.16,0.014458676837107384,0.012038513555863951,21.191556660768118,0.015126021884916572
79,0.24,0.015420418537727952,0.011859719262506915,20.78558413976475,0.01483624849376499
80,0.32,0.015999275682581863,0.012392902723686866,15.789152976005308,0.011269916471095867
81,0.4,0.016319967173132353,0.012698310727794324,12.68485172214934,0.009054141129300029
82,0.48,0.016942712517626232,0.013140973124292589,11.09632697945493,0.007920290492116296
83,0.56,0.017424080590197524,0.013171367587581757,10.639377478038703,0.007594130962197504
84,0.64,0.017952767628298207,0.013203833185173293,10.395713770655782,0.007420209686406697
85,0.72,0.01857886678324296,0.013484164559404844,9.913441312520144,0.007075975240913736
86,0.8,0.01888147407851503,0.013534395888484737,9.364070568132046,0.006683847657481832
87,0.88,0.01936621723174309,0.014094402703916464,8.39296800622869,0.005990698077251028
88,0.96,0.01971064306906524,0.014111909557771743,8.170651705625927,0.005832014065400376
89,1.0,0.020147133558507887,0.014254401964840315,8.255717637225358,0.005892732075107322
90,1.0,0.020040279166500266,0.014455986530439138,7.823594332332942,0.00558429288531973
91,1.0,0.019832039746472026,0.014342032331353973,7.691499949093196,0.005490007101422696
92,1.0,0.02008793501659451,0.014521104764313467,7.799129326349452,0.005566830354282264
93,1.0,0.019656947321690637,0.014329671196491636,7.463514034564678,0.0053272762559348165
94,1.0,0.019826517507396915,0.014424549147634589,7.5681580941079565,0.005401968661033516
95,1.0,0.019458023507711905,0.013979716577726618,7.67510839963965,0.005478307208879122
96,1.0,0.01963238227677996,0.014143264974945828,7.690253331111028,0.005489117295582461
97,1.0,0.01966477619026494,0.014269476518423179,7.558815075800969,0.0053952998399721406
98,1.0,0.019743872954332206,0.014255549178618208,7.689142111217413,0.005488324133631273
99,1.0,0.019939184207330568,0.01457334236789578,7.517544997241302,0.005365842253562671
100,1.0,0.019483095372359156,0.013989592410124856,7.696398335118448,0.005493503451190898
