epoch,beta,train_loss,train_reconstruction_loss,train_kl_unnormalized,train_kl_normalized
1,0.0,0.06823796384312489,0.06823796384312489,88.8321385042167,0.063406237333488
2,0.08,0.06330889380640453,0.047887288604253606,270.07085445074387,0.19277006027890353
3,0.16,0.05247689759657707,0.04982850971965142,23.189956938190225,0.01655243179028567
4,0.24,0.04634908138785833,0.04268714962182222,21.376528954211576,0.015258050645404407
5,0.32,0.044053257201556804,0.03998471618066599,17.812581698099773,0.012714191076445234
6,0.4,0.04185306133679402,0.03894132378476638,10.198361409740684,0.007279344332434464
7,0.48,0.04004614233602712,0.03672631336031137,9.689748975965712,0.00691630904779851
8,0.56,0.03812474302119679,0.03420334306580049,9.810503618216808,0.00700250079815618
9,0.64,0.035192572914155916,0.030931318744465156,9.328152034900807,0.006658209875018421
10,0.72,0.033860500423628606,0.02827535591283698,10.867760733616205,0.007757145420140046
11,0.8,0.03264973116693674,0.027137492279763576,9.653308710639859,0.006890298865553076
12,0.88,0.03147893775208497,0.026023976408221104,8.684547159406874,0.006198820242260438
13,0.96,0.031172899106218493,0.025000363266394463,9.008044765613697,0.006429725028989077
14,1.0,0.030863502152540065,0.0248998048496835,8.355139552222358,0.005963697039416386
15,1.0,0.030088929974554496,0.02364739980318664,9.024583628148209,0.006441530070055824
16,1.0,0.028328077039784856,0.022203574072063706,8.5804293502996,0.006124503462026838
17,1.0,0.027578316435769752,0.0210293121084019,9.175155418301806,0.006549004581228983
18,1.0,0.02688078623678949,0.02028855448703707,9.235716942210257,0.006592231935910247
19,1.0,0.026092772562930612,0.019674026726940533,8.992662620544433,0.006418745624942493
20,1.0,0.02563155013837932,0.018932834525167207,9.38490044158182,0.006698715518616574
21,1.0,0.025003907636359887,0.01873461535591402,8.783278670134369,0.006269292412658364
22,1.0,0.024876869134145017,0.018620506940800467,8.765163172027211,0.006256362007157182
23,1.0,0.024854714455611913,0.01866749251882235,8.66829810672336,0.006187222060473491
24,1.0,0.024477085061831237,0.018062458109156587,8.986892883865922,0.006414627326099873
25,1.0,0.023927477912770376,0.01764470540722947,8.802164628770615,0.00628277275429737
26,0.0,0.016038377560031267,0.016038377560031267,12.76482610349302,0.00911122491327125
27,0.08,0.015120563244470107,0.013481118240290219,28.71078488385236,0.02049306558447706
28,0.16,0.016602123238974146,0.012581734281079268,35.20353298422731,0.025127432536921707
29,0.24,0.017508306713015946,0.01282114546837998,27.361302637170862,0.01952983771389783
30,0.32,0.01753834003559601,0.013347955416014166,18.346028853051457,0.013094952785903967
31,0.4,0.018716340783385584,0.014056549846758077,16.320917593402626,0.011649477225840562
32,0.48,0.019286621463151625,0.014229922557686582,14.759239524087787,0.010534789096422404
33,0.56,0.01981454547724606,0.014074164410524162,14.361203975442015,0.010250680924655257
34,0.64,0.020777431581123374,0.015013061896150495,12.618566324681412,0.009006828211764035
35,0.72,0.02127431642126154,0.015280364582568038,11.663231998019748,0.008324933617430226
36,0.8,0.02152178229097231,0.015262855929724964,10.96094435232657,0.007823657639062506
37,0.88,0.02179982667259964,0.015337682437197662,10.288027850492501,0.0073433460745842265
38,0.96,0.022779877948356262,0.016104949822212444,9.74122359899827,0.00695305039186172
39,1.0,0.02234807417348579,0.015770339202365757,9.21540717607663,0.006577735314829857
40,1.0,0.022779333821417374,0.01634404583385697,9.01583861598262,0.006435288091350907
41,1.0,0.02265786677139041,0.01618820788959662,9.063992295441803,0.00646965902601128
42,1.0,0.02280336790430693,0.0158927421235008,9.681786539525161,0.006910625652765997
43,1.0,0.022980126641966678,0.016514916600728475,9.057759120140547,0.00646520993586049
44,1.0,0.022875376763167206,0.016224113065335485,9.318420337158956,0.006651263623953574
45,1.0,0.022633861032900986,0.015349201154377726,10.205808764328191,0.007284660074466946
46,1.0,0.022316848215313604,0.01602188967352296,8.819236891946675,0.00629495852387343
47,1.0,0.022163923098533243,0.015410395895625338,9.461691682132674,0.006753527253485135
48,1.0,0.022408073818610038,0.01563235894765383,9.492776609350134,0.006775714924589674
49,1.0,0.022081932292124372,0.01547993086738351,9.24940460110888,0.006602001856608765
50,1.0,0.021923966839173695,0.015721722669255585,8.689344535639256,0.006202244493675415
51,0.0,0.01456337434090214,0.01456337434090214,12.553450351291232,0.00896035000092165
52,0.08,0.013161241355133645,0.011736930748102841,24.943239179069614,0.0178038823547963
53,0.16,0.014433919730377786,0.010710443149286288,32.603693465244625,0.023271729811024
54,0.24,0.015437199110970084,0.010898567211848719,26.4942647156892,0.01891096696337559
55,0.32,0.01593162388437324,0.011765850130698563,18.23827941329391,0.013018043835327559
56,0.4,0.016820509064896606,0.012553570095311712,14.94495262098901,0.010667346624546046
57,0.48,0.017420004124258773,0.012449396969635545,14.507959749669205,0.010355431655723914
58,0.56,0.018187367865516817,0.012699682681740801,13.729012298583985,0.009799437757733037
59,0.64,0.018555705948376362,0.012911763336555457,12.354943760530448,0.008818660785532083
60,0.72,0.019387233197505092,0.013546037204839566,11.365993900063597,0.00811277223416388
61,0.8,0.019737870489925514,0.01308387736617415,11.652805220050576,0.008317491234868362
62,0.88,0.020709052709517655,0.014307084973947502,10.192224081062976,0.007274963655291204
63,0.96,0.021010601497542712,0.014361764637776364,9.7031467202269,0.006925872034423198
64,1.0,0.020689650303051796,0.013967508038528908,9.4177211596642,0.006722142155363455
65,1.0,0.020852607847363862,0.014413699309950994,9.020910945939429,0.006438908598100948
66,1.0,0.020594787928793164,0.013997770167519281,9.242422235747915,0.006597018012668034
67,1.0,0.020367420740701535,0.013928477459207729,9.02096008018211,0.0064389436689379805
68,1.0,0.020355236189968793,0.01435675439827236,8.40387287846318,0.005998481711965153
69,1.0,0.020680373562154946,0.014353890395090904,8.863403040097083,0.006326483254887282
70,1.0,0.020501388701391808,0.013697183389722565,9.532692158075026,0.00680420568028196
71,1.0,0.02017956125423496,0.014025757277821318,8.621479366443776,0.006153803973193273
72,1.0,0.02005744813768952,0.013688473470141122,8.922934105955525,0.006368975093472894
73,1.0,0.019889650535252358,0.013829589566146886,8.490145315947355,0.006060060896464922
74,1.0,0.02006775061197487,0.013784313001842411,8.803096122506224,0.00628343763205298
75,1.0,0.020021132940863384,0.014140111877134553,8.239310996915087,0.0058810214110742946
76,0.0,0.01250154054781169,0.01250154054781169,12.19634029718093,0.008705453459800807
77,0.08,0.011705104020182733,0.010381219591255542,23.18452589246962,0.01654855524087767
78,0.16,0.013084131849492774,0.009777673814491725,28.952175926867827,0.020665364687271825
79,0.24,0.013771533602733671,0.009804469917291477,23.157735391310705,0.016529432827488012
80,0.32,0.014194164687284717,0.010456280081452411,16.36492731070813,0.011680890300291312
81,0.4,0.014930336963799265,0.010996259539675566,13.779106201360255,0.009835193576988048
82,0.48,0.015523183405583287,0.011213211811803006,12.579730290542415,0.008979107987539196
83,0.56,0.0162285388343864,0.01122619152115083,12.51480113370919,0.008932763121848101
84,0.64,0.016705128509137364,0.011411864324300377,11.587285934259862,0.008270725149364642
85,0.72,0.017465039784157716,0.011964854690027825,10.702442757877304,0.007639145437457033
86,0.8,0.017716066005789205,0.012022799396036584,9.970332640188712,0.007116582898064748
87,0.88,0.018287530472433127,0.012407396492306834,9.361440503155743,0.006681970380553706
88,0.96,0.01902603672610389,0.012736506382992238,9.178783729929982,0.006551594382533892
89,1.0,0.01954176276922226,0.013094334667663516,9.032846893498927,0.006447428189506729
90,1.0,0.019061384566220238,0.012898854796349266,8.633704128971806,0.00616252971375575
91,1.0,0.01921651552396792,0.012902208562526439,8.84634405300941,0.0063143069614628195
92,1.0,0.019126597313601293,0.01298598271139242,8.603001173042957,0.006140614684541725
93,1.0,0.019177274208193942,0.012586300960385505,9.2339534783069,0.006590973217920699
94,1.0,0.018595154468476035,0.0126614703854293,8.313091714882557,0.005933684307553574
95,1.0,0.01879294350927259,0.01268397707860043,8.558662073111828,0.006108966504719363
96,1.0,0.018554128214348983,0.012520827504771728,8.452654663133032,0.006033300972971472
97,1.0,0.01853198432995949,0.01255538204891814,8.373220368373541,0.005976602689774119
98,1.0,0.01848728933636053,0.012272046586889544,8.707555252828715,0.006215242864260325
99,1.0,0.0186176754626227,0.01269832638632736,8.29300831688775,0.005919349262589401
100,1.0,0.018611551250940488,0.012498206502677483,8.564796219343021,0.0061133449103090804
