178.677	3169.11
181.278	3156.67
183.879	3186.44
186.48	3243.11
189.078	3321.56
191.677	3375.56
194.275	3504.22
196.871	3616.67
199.467	3726.22
202.061	3855.78
204.656	3929.33
207.248	4061.56
209.841	4148.22
212.431	4315.78
215.022	4430.67
217.613	4600.22
220.201	4811.33
222.789	5106.67
225.375	5397.78
227.962	5733.56
230.547	6123.78
233.13	6601.11
235.714	7025.11
238.296	7406.44
240.879	7625.11
243.459	7571.78
246.04	7334.67
248.618	6867.33
251.196	6344.89
253.774	5712.67
256.35	5148
258.927	4570
261.501	4086.44
264.074	3682
266.648	3373.78
269.22	3087.56
271.791	2831.11
274.362	2672
276.931	2498.22
279.5	2362.44
282.069	2253.56
284.635	2142.22
287.201	2065.11
289.766	1995.33
292.331	1931.78
294.894	1872.67
297.457	1826.22
300.018	1789.11
302.58	1772.67
305.14	1734.22
307.699	1707.56
310.257	1684.67
312.814	1650.67
315.372	1648.44
317.928	1637.78
320.482	1599.56
323.036	1590.22
325.589	1589.56
328.142	1585.11
330.693	1569.33
333.243	1565.33
335.795	1545.56
338.343	1547.78
340.891	1545.78
343.439	1554.22
345.985	1546.89
348.53	1532.89
351.075	1532.67
353.619	1523.56
356.162	1529.56
358.704	1518
361.245	1532.44
363.786	1513.56
366.325	1520.89
368.864	1510.44
371.402	1525.56
373.939	1515.11
376.475	1520.44
379.011	1507.56
381.545	1501.56
384.079	1506.22
386.612	1507.11
389.144	1500.67
391.674	1471.11
394.204	1482.67
396.734	1486.44
399.263	1499.56
401.791	1540
404.318	1535.78
406.844	1594.22
409.368	1655.56
411.893	1771.56
414.417	1950.89
416.94	2032
419.462	2066.44
421.982	1940.22
424.502	1860.22
427.022	1729.33
429.541	1692.44
432.057	1643.56
434.574	1577.56
437.091	1542.67
439.606	1501.11
442.12	1455.33
444.634	1440
447.147	1432
449.657	1428.67
452.169	1433.11
454.68	1415.33
457.188	1418.22
459.697	1421.56
462.205	1428.44
464.711	1411.33
467.217	1422
469.722	1416.89
472.227	1422.44
474.731	1406.44
477.232	1399.33
479.735	1391.33
482.235	1393.11
484.736	1407.56
487.234	1376.44
489.734	1372.89
492.23	1388.67
494.728	1354.44
497.223	1363.56
499.719	1364
502.213	1371.11
504.707	1372.89
507.199	1358.44
509.692	1359.11
512.182	1353.56
514.673	1355.56
517.162	1352.89
519.65	1353.78
522.139	1346
524.625	1347.11
527.112	1334.22
529.597	1339.11
532.081	1347.33
534.565	1336.44
537.047	1340.67
539.529	1332
542.011	1351.78
544.491	1354.89
546.97	1346
549.45	1336.89
551.927	1349.11
554.404	1349.78
556.88	1341.78
559.356	1372.44
561.831	1349.11
564.304	1345.56
566.777	1362
569.25	1349.78
571.721	1356.22
574.191	1341.33
576.661	1351.33
579.129	1342.89
581.599	1348.44
584.066	1350.22
586.532	1361.11
588.997	1349.11
591.462	1346
593.926	1342.22
596.389	1327.56
598.851	1366.44
601.314	1373.56
603.775	1360.22
606.235	1350.22
608.694	1371.78
611.152	1356.67
613.609	1382.44
616.066	1354.44
618.522	1372.67
620.977	1373.56
623.431	1366.44
625.885	1365.56
628.338	1370.67
630.79	1368.67
633.241	1376.89
635.691	1368.44
638.141	1376
640.589	1364.22
643.036	1367.56
645.483	1364.89
647.929	1365.33
650.375	1368
652.82	1356.44
655.264	1365.11
657.707	1362.67
660.149	1362.67
662.59	1362.89
665.031	1370.22
667.471	1358.44
669.91	1357.78
672.349	1371.11
674.786	1360
677.222	1374.67
679.658	1386
682.093	1419.56
684.528	1448.44
686.96	1500.67
689.393	1566
691.826	1561.11
694.256	1529.11
696.686	1453.11
699.116	1417.33
701.545	1406.67
703.972	1388.44
706.4	1379.56
708.826	1384
711.251	1398.67
713.676	1375.56
716.099	1374.22
718.523	1370.67
720.946	1392.67
723.366	1369.33
725.788	1380.67
728.207	1372.22
730.627	1380.89
733.044	1373.78
735.462	1380.89
737.88	1380
740.295	1371.78
742.711	1393.33
745.125	1386.67
747.539	1372
749.951	1376.22
752.363	1366.67
754.775	1367.56
757.185	1370.67
759.595	1357.78
762.003	1374.22
764.412	1367.11
766.819	1381.11
769.225	1361.56
771.632	1380.89
774.036	1380.44
776.441	1376.89
778.844	1379.56
781.246	1385.33
783.649	1364.67
786.05	1392.44
788.449	1361.11
790.85	1390.44
793.248	1384.89
795.646	1380.67
798.042	1388
800.44	1382.22
802.835	1396.22
805.23	1396.67
807.623	1394.44
810.018	1393.78
812.41	1411.33
814.801	1395.78
817.192	1385.56
819.582	1383.56
821.972	1393.78
824.361	1396.67
826.748	1388.22
829.135	1385.33
831.521	1384.44
833.907	1390.22
836.291	1384.89
838.675	1400.89
841.059	1384.22
843.442	1394.89
845.823	1385.11
848.204	1379.33
850.584	1390.89
852.963	1397.78
855.342	1390.67
857.72	1413.78
860.097	1395.78
862.473	1390.67
864.848	1389.11
867.223	1396.44
869.597	1404.44
871.97	1405.11
874.343	1402.89
876.714	1411.56
879.084	1400.89
881.454	1414.22
883.824	1406.67
886.192	1391.56
888.56	1421.78
890.927	1427.11
893.294	1416.89
895.66	1404.44
898.023	1416
900.387	1403.11
902.751	1421.78
905.114	1427.78
907.476	1412.67
909.835	1423.33
912.196	1408.67
914.555	1413.33
916.914	1393.56
919.271	1403.11
921.629	1396.44
923.985	1406
926.341	1399.33
928.695	1388
931.05	1416.67
933.404	1408.22
935.755	1410
938.107	1420.22
940.459	1411.78
942.808	1412.89
945.158	1408.67
947.508	1418.22
949.855	1435.78
952.202	1407.33
954.548	1413.33
956.894	1439.78
959.239	1415.11
961.583	1435.56
963.928	1443.78
966.27	1448.44
968.612	1438.22
970.953	1449.78
973.294	1449.11
975.633	1451.56
977.972	1465.11
980.31	1453.11
982.647	1477.11
984.984	1482
987.32	1488
989.656	1492.44
991.989	1517.56
994.324	1644.44
996.656	1985.11
998.988	2153.56
1001.32	1934.44
1003.65	1668.67
1005.98	1516.22
1008.31	1474.44
1010.64	1502
1012.97	1488.89
1015.29	1554.89
1017.62	1716.89
1019.94	1961.56
1022.27	2069.11
1024.59	1910.44
1026.92	1688.44
1029.24	1568.22
1031.56	1495.78
1033.88	1480.89
1036.2	1469.78
1038.52	1469.56
1040.84	1484.67
1043.16	1463.11
1045.48	1466.67
1047.79	1474.89
1050.11	1486.44
1052.42	1510.44
1054.74	1556
1057.05	1598.44
1059.36	1674.22
1061.67	1850.44
1063.99	2024.22
1066.3	2265.56
1068.61	2445.11
1070.92	2500.22
1073.22	2376.44
1075.53	2150.67
1077.84	1912.44
1080.15	1767.78
1082.45	1638.44
1084.76	1604
1087.06	1573.33
1089.36	1553.56
1091.66	1548.22
1093.97	1546.44
1096.27	1578
1098.57	1596
1100.87	1579.56
1103.17	1581.33
1105.46	1597.33
1107.76	1596
1110.06	1595.11
1112.35	1591.78
1114.65	1593.33
1116.94	1572.22
1119.24	1566.89
1121.53	1542.67
1123.82	1530.22
1126.11	1527.33
1128.4	1516
1130.7	1514
1132.98	1503.11
1135.27	1496.89
1137.56	1505.56
1139.85	1470.89
1142.13	1486.89
1144.42	1517.33
1146.71	1485.56
1148.99	1495.33
1151.27	1512.22
1153.56	1498.44
1155.84	1519.33
1158.12	1520.67
1160.4	1502.44
1162.68	1499.11
1164.96	1487.11
1167.24	1513.33
1169.51	1510.67
1171.79	1488.67
1174.07	1491.78
1176.34	1542.22
1178.62	1561.78
1180.89	1560.44
1183.17	1563.78
1185.44	1540
1187.71	1518.67
1189.98	1493.33
1192.25	1467.33
1194.52	1483.11
1196.79	1466.44
1199.06	1466.22
1201.33	1473.56
1203.59	1471.56
1205.86	1476.67
1208.12	1466.67
1210.39	1475.78
1212.65	1466.44
1214.92	1475.33
1217.18	1467.78
1219.44	1472.89
1221.7	1491.33
1223.96	1489.11
1226.22	1483.11
1228.48	1488
1230.74	1509.78
1233	1491.56
1235.25	1488.22
1237.51	1488.22
1239.77	1494.22
1242.02	1490.67
1244.27	1504
1246.53	1508.89
1248.78	1502.44
1251.03	1504.44
1253.28	1504.44
1255.53	1515.33
1257.78	1502.89
1260.03	1511.11
1262.28	1505.11
1264.53	1508.22
1266.78	1520.22
1269.02	1511.56
1271.27	1522.67
1273.51	1498.67
1275.76	1522.89
1278	1511.11
1280.24	1514.44
1282.48	1523.56
1284.72	1518
1286.97	1510.22
1289.21	1511.33
1291.44	1522.67
1293.68	1502
1295.92	1522.44
1298.16	1535.56
1300.39	1512.44
1302.63	1527.11
1304.86	1518.22
1307.1	1529.78
1309.33	1517.33
1311.56	1520.89
1313.8	1528.89
1316.03	1528.22
1318.26	1516.67
1320.49	1535.78
1322.72	1555.11
1324.95	1532.22
1327.17	1540.89
1329.4	1538
1331.63	1532.67
1333.85	1534.22
1336.08	1552.89
1338.3	1552.22
1340.53	1554.89
1342.75	1549.11
1344.97	1539.11
1347.19	1561.78
1349.41	1546.44
1351.63	1551.56
1353.85	1570.89
1356.07	1560
1358.29	1543.11
1360.51	1552.22
1362.72	1554.22
1364.94	1558.44
1367.16	1572.67
1369.37	1569.11
1371.58	1552.44
1373.8	1559.33
1376.01	1564.44
1378.22	1560.22
1380.43	1571.33
1382.64	1581.78
1384.85	1576.89
1387.06	1547.56
1389.27	1552.89
1391.48	1533.33
1393.68	1548.67
1395.89	1534.89
1398.1	1514.89
1400.3	1526.89
1402.51	1528
1404.71	1528.67
1406.91	1519.56
1409.11	1529.11
1411.32	1525.56
1413.52	1524.22
1415.72	1506.44
1417.92	1523.33
1420.11	1517.11
1422.31	1523.33
1424.51	1516.67
1426.71	1527.56
1428.9	1543.33
1431.1	1537.33
1433.29	1524.89
1435.49	1528.44
1437.68	1536.67
1439.87	1532.44
1442.06	1538
1444.25	1522.67
1446.45	1526.67
1448.64	1533.78
1450.82	1530.44
1453.01	1533.11
1455.2	1541.56
1457.39	1545.33
1459.57	1542.44
1461.76	1551.33
1463.94	1555.11
1466.13	1590.22
1468.31	1595.56
1470.5	1640
1472.68	1683.78
1474.86	1671.56
1477.04	1626.22
1479.22	1599.11
1481.4	1567.78
1483.58	1537.56
1485.76	1529.33
1487.94	1540
1490.11	1540.22
1492.29	1508.89
1494.46	1525.78
1496.64	1516.67
1498.81	1517.56
1500.99	1513.11
1503.16	1529.78
1505.33	1540.89
1507.5	1520.89
1509.67	1507.78
1511.84	1528.22
1514.01	1547.11
1516.18	1510
1518.35	1520.67
1520.52	1508
1522.68	1520.67
1524.85	1535.33
1527.02	1521.56
1529.18	1514
1531.35	1524.44
1533.51	1520.44
1535.67	1524
1537.83	1534.67
1539.99	1547.56
1542.16	1522.22
1544.31	1540
1546.47	1546
1548.63	1544.67
1550.79	1562.89
1552.95	1596
1555.11	1632.67
1557.26	1650.44
1559.42	1706.22
1561.57	1782.67
1563.73	1910.89
1565.88	2062
1568.03	2304.67
1570.18	2502.22
1572.34	2572
1574.49	2445.78
1576.64	2202.89
1578.79	1972
1580.93	1834.44
1583.08	1755.33
1585.23	1684.89
1587.38	1671.56
1589.52	1646.22
1591.67	1618.89
1593.81	1628
1595.96	1612
1598.1	1591.11
1600.24	1572
1602.38	1573.33
1604.53	1558.67
1606.67	1539.78
1608.81	1536
1610.95	1527.33
1613.09	1520.44
1615.22	1526.89
1617.36	1519.56
1619.5	1499.33
1621.63	1501.33
1623.77	1485.78
1625.9	1504.44
1628.04	1462.22
1630.17	1475.56
1632.3	1478.22
1634.44	1477.56
1636.57	1449.11
1638.7	1451.56
1640.83	1449.78
1642.96	1455.33
1645.09	1438.22
1647.22	1445.78
1649.34	1438.44
1651.47	1453.33
1653.6	1445.78
1655.72	1440.67
1657.85	1434.89
1659.97	1423.11
1662.1	1440.89
1664.22	1420.89
1666.34	1447.78
1668.46	1430.44
1670.58	1438
1672.7	1409.78
1674.82	1431.11
1676.94	1423.33
1679.06	1427.33
1681.18	1420.44
1683.3	1407.78
1685.41	1429.33
1687.53	1423.33
1689.64	1423.11
1691.76	1405.33
1693.87	1426.44
1695.99	1432.89
1698.1	1431.33
1700.21	1411.56
1702.32	1412.44
1704.43	1423.11
1706.54	1410
1708.65	1400
1710.76	1410.22
1712.87	1418.22
1714.98	1394.22
1717.08	1411.11
1719.19	1397.11
1721.29	1394
1723.4	1416.67
1725.5	1389.11
1727.61	1397.78
1729.71	1390.67
1731.81	1395.78
1733.91	1384.67
1736.02	1391.11
1738.12	1378
1740.22	1400
1742.31	1387.11
1744.41	1388.89
1746.51	1380.22
1748.61	1383.56
1750.7	1372.22
1752.8	1364.67
1754.9	1384.44
1756.99	1378.89
1759.08	1374.89
1761.18	1380.67
1763.27	1366.67
1765.36	1366.22
1767.45	1369.78
1769.54	1359.33
1771.63	1370.22
1773.72	1362
1775.81	1356.22
1777.9	1350.89
1779.99	1344.89
1782.08	1354.44
1784.16	1360.44
1786.25	1346
1788.33	1350.67
1790.42	1351.11
1792.5	1357.56
1794.58	1361.33
1796.67	1347.11
1798.75	1348.44
1800.83	1365.78
1802.91	1363.11
1804.99	1360.67
1807.07	1343.56
1809.15	1354
1811.23	1358
1813.3	1356.67
1815.38	1353.33
1817.46	1351.56
1819.53	1353.56
1821.61	1351.11
1823.68	1342.67
1825.75	1345.56
1827.83	1329.56
1829.9	1330.67
1831.97	1334.44
1834.04	1320.44
1836.11	1343.78
1838.18	1325.11
1840.25	1344.89
1842.32	1329.33
1844.39	1330.89
1846.46	1335.78
1848.52	1322.44
1850.59	1307.56
1852.65	1312
1854.72	1306.44
1856.78	1322.89
1858.85	1318.89
1860.91	1323.78
1862.97	1293.11
1865.03	1316.67
1867.09	1322
1869.16	1315.11
1871.22	1327.11
1873.27	1313.78
1875.33	1326.22
1877.39	1312.89
1879.45	1328
1881.51	1310.22
1883.56	1318.89
1885.62	1296.44
1887.67	1308.89
1889.73	1297.33
1891.78	1307.33
1893.83	1306
1895.89	1316.67
1897.94	1295.56
1899.99	1300.44
1902.04	1310.44
1904.09	1306.67
1906.14	1315.56
1908.19	1300.44
1910.23	1313.56
1912.28	1308
1914.33	1308.22
1916.37	1304.67
1918.42	1312.67
1920.46	1315.11
1922.51	1306.44
1924.55	1292.89
1926.6	1295.78
1928.64	1301.56
1930.68	1286.67
1932.72	1290
1934.76	1287.78
1936.8	1291.78
1938.84	1274.89
1940.88	1278.44
1942.92	1291.11
1944.96	1288.89
1946.99	1282.89
1949.03	1277.33
1951.06	1274
1953.1	1268.22
1955.13	1259.11
1957.17	1283.56
1959.2	1268.22
1961.23	1271.78
1963.27	1274.44
1965.3	1256.22
1967.33	1264.22
1969.36	1277.33
1971.39	1271.11
1973.42	1261.78
1975.44	1260.44
1977.47	1252.89
1979.5	1259.11
1981.53	1256.89
1983.55	1261.11
1985.58	1262
1987.6	1255.78
1989.63	1249.56
1991.65	1253.78
1993.67	1266
1995.69	1256
1997.72	1255.56
1999.74	1248.22
2001.76	1253.78
2003.78	1250.67
2005.8	1249.78
2007.82	1258
2009.83	1237.56
2011.85	1244
2013.87	1252
2015.88	1250.22
2017.9	1254.67
2019.91	1242.22
2021.93	1248.22
2023.94	1274.22
2025.96	1258.44
2027.97	1241.78
2029.98	1250.67
2031.99	1247.11
2034	1244.67
2036.01	1239.78
2038.02	1259.11
2040.03	1261.33
2042.04	1266.44
2044.05	1266.89
2046.05	1255.56
2048.06	1252
2050.07	1239.56
2052.07	1254.22
2054.08	1245.56
2056.08	1256
2058.08	1241.78
2060.09	1242.67
2062.09	1239.56
2064.09	1224.67
2066.09	1240
2068.09	1246.89
2070.09	1248
2072.09	1245.78
2074.09	1240
2076.09	1216.89
2078.09	1225.11
2080.08	1233.78
2082.08	1233.78
2084.08	1218.89
2086.07	1211.11
2088.07	1222.44
2090.06	1233.78
2092.05	1222.67
2094.05	1215.78
2096.04	1224
2098.03	1217.56
2100.02	1212
2102.01	1225.11
2104	1220
2105.99	1222.89
2107.98	1221.33
2109.97	1204.67
2111.95	1214.44
2113.94	1212.44
2115.93	1215.56
2117.91	1221.11
2119.9	1206.22
2121.88	1220.44
2123.87	1206
2125.85	1222
2127.83	1213.33
2129.81	1215.11
2131.8	1202
2133.78	1200.67
2135.76	1194.22
2137.74	1201.33
2139.72	1202
2141.69	1202.44
2143.67	1194
2145.65	1195.56
2147.63	1213.33
2149.6	1205.11
2151.58	1188.89
2153.55	1187.56
2155.53	1195.11
2157.5	1172.22
2159.48	1187.33
2161.45	1195.11
2163.42	1197.78
2165.39	1179.78
2167.36	1181.56
2169.33	1193.33
2171.3	1166.89
2173.27	1175.33
2175.24	1168.89
2177.21	1166.67
2179.18	1166.67
2181.14	1168.44
2183.11	1154.89
2185.07	1173.11
2187.04	1160.22
2189	1137.56
2190.97	1156.89
2192.93	1146.67
2194.89	1155.56
2196.86	1160.89
2198.82	1161.33
2200.78	1146.44
2202.74	1156.67
2204.7	1136.44
2206.66	1157.11
2208.62	1149.33
2210.57	1151.78
2212.53	1143.33
2214.49	1154.89
2216.45	1148.89
2218.4	1146.67
2220.36	1141.78
2222.31	1140.44
2224.27	1141.78
2226.22	1140.67
2228.17	1147.78
2230.12	1148.89
2232.08	1138.67
2234.03	1158
2235.98	1133.78
2237.93	1113.33
2239.88	1126
2241.83	1128.67
2243.78	1145.33
2245.72	1129.11
2247.67	1123.33
2249.62	1125.56
2251.56	1125.56
2253.51	1122.44
2255.45	1131.56
2257.4	1121.33
2259.34	1120.44
2261.28	1117.78
2263.23	1115.56
2265.17	1114.44
2267.11	1110.44
2269.05	1099.56
2270.99	1118.44
2272.93	1104
2274.87	1101.56
2276.81	1112.22
2278.75	1098.44
2280.68	1115.11
2282.62	1086.22
2284.56	1083.78
2286.49	1096.67
2288.43	1094.44
2290.36	1103.11
2292.3	1094.89
2294.23	1092.22
2296.16	1102
2298.09	1092.44
2300.03	1086.67
2301.96	1088.67
2303.89	1100
2305.82	1085.56
2307.75	1076.89
2309.68	1084.89
2311.6	1079.11
2313.53	1076.44
2315.46	1081.78
2317.39	1081.33
2319.31	1076.67
2321.24	1083.78
2323.16	1078.67
2325.09	1055.56
2327.01	1069.56
2328.93	1073.33
2330.86	1074.22
2332.78	1064.22
2334.7	1063.78
2336.62	1076.89
2338.54	1056
2340.46	1059.56
2342.38	1064.67
2344.3	1066.44
2346.22	1062.89
2348.14	1059.33
2350.05	1068.67
2351.97	1061.56
2353.89	1058.89
2355.8	1061.33
2357.71	1059.33
2359.63	1031.56
2361.54	1052.44
2363.46	1050.67
2365.37	1049.78
2367.28	1036.89
2369.19	1036.22
2371.1	1033.11
2373.01	1045.56
2374.92	1046.67
2376.83	1028.22
2378.74	1025.78
2380.65	1038.44
2382.56	1046.67
2384.46	1023.33
2386.37	1022.44
2388.27	1029.33
2390.18	1024
2392.08	1019.78
2393.99	1030.67
2395.89	1004.67
2397.8	1024.44
2399.7	1018.67
2401.6	1029.56
2403.5	1014.44
2405.4	1030.22
2407.3	1006.22
2409.2	1008.44
2411.1	1005.33
2413	1003.33
2414.9	1024.67
2416.8	1021.78
2418.69	1024.67
2420.59	1010.89
2422.48	1003.78
2424.38	1011.33
2426.28	1006.67
2428.17	1007.56
2430.06	1000.67
2431.96	1009.78
2433.85	1010
2435.74	1002.89
2437.63	1000
2439.52	1010.89
2441.41	999.555
2443.3	1011.78
2445.19	1017.56
2447.08	1017.56
