178.677	1393.33
181.278	1367.56
183.879	1348.22
186.48	1351.78
189.078	1345.56
191.677	1344.44
194.275	1323.11
196.871	1333.56
199.467	1312.44
202.061	1319.11
204.656	1300.44
207.248	1292.44
209.841	1282
212.431	1294
215.022	1276.67
217.613	1275.78
220.201	1268.22
222.789	1286.22
225.375	1282.44
227.962	1287.11
230.547	1305.78
233.13	1288
235.714	1308.44
238.296	1321.56
240.879	1339.11
243.459	1338.22
246.04	1350.67
248.618	1347.11
251.196	1360.67
253.774	1347.56
256.35	1343.11
258.927	1355.78
261.501	1372
264.074	1360.67
266.648	1351.11
269.22	1352.67
271.791	1358.89
274.362	1349.33
276.931	1329.78
279.5	1327.11
282.069	1316.67
284.635	1294.89
287.201	1291.56
289.766	1297.78
292.331	1294.44
294.894	1276.89
297.457	1283.78
300.018	1271.33
302.58	1265.56
305.14	1238.89
307.699	1234.89
310.257	1237.11
312.814	1211.56
315.372	1185.78
317.928	1198.67
320.482	1160.89
323.036	1177.11
325.589	1154.22
328.142	1150.67
330.693	1166.89
333.243	1147.78
335.795	1159.33
338.343	1134.44
340.891	1149.11
343.439	1150.67
345.985	1154.44
348.53	1150.89
351.075	1167.56
353.619	1155.56
356.162	1153.56
358.704	1148.44
361.245	1166.22
363.786	1145.56
366.325	1151.33
368.864	1167.78
371.402	1163.33
373.939	1164.67
376.475	1180.67
379.011	1182.44
381.545	1166.22
384.079	1184
386.612	1163.33
389.144	1161.78
391.674	1153.33
394.204	1157.33
396.734	1150.67
399.263	1173.56
401.791	1164.67
404.318	1176.22
406.844	1192.22
409.368	1200.44
411.893	1235.11
414.417	1263.78
416.94	1296.22
419.462	1298.22
421.982	1275.11
424.502	1225.33
427.022	1201.11
429.541	1172
432.057	1179.11
434.574	1159.56
437.091	1172.44
439.606	1170.44
442.12	1160.22
444.634	1148.67
447.147	1152
449.657	1156
452.169	1148.44
454.68	1142.89
457.188	1153.78
459.697	1149.33
462.205	1152.67
464.711	1144
467.217	1152.22
469.722	1156
472.227	1162.89
474.731	1168.44
477.232	1169.56
479.735	1157.11
482.235	1149.33
484.736	1152
487.234	1145.78
489.734	1147.56
492.23	1141.78
494.728	1140.67
497.223	1136
499.719	1163.11
502.213	1141.78
504.707	1128.89
507.199	1147.56
509.692	1161.11
512.182	1144.22
514.673	1139.33
517.162	1135.78
519.65	1143.78
522.139	1150.22
524.625	1144.67
527.112	1119.11
529.597	1139.33
532.081	1140
534.565	1112
537.047	1116.44
539.529	1132.22
542.011	1143.78
544.491	1137.11
546.97	1131.33
549.45	1142.67
551.927	1126.22
554.404	1135.78
556.88	1136.44
559.356	1140.89
561.831	1144.67
564.304	1144
566.777	1158
569.25	1138.22
571.721	1136
574.191	1159.56
576.661	1169.33
579.129	1168.89
581.599	1157.78
584.066	1155.56
586.532	1150
588.997	1148
591.462	1147.11
593.926	1151.78
596.389	1149.11
598.851	1148
601.314	1136
603.775	1141.11
606.235	1147.78
608.694	1171.33
611.152	1165.33
613.609	1168.67
616.066	1170.67
618.522	1180
620.977	1153.33
623.431	1171.78
625.885	1157.33
628.338	1196.22
630.79	1157.33
633.241	1175.11
635.691	1196.67
638.141	1196.67
640.589	1183.33
643.036	1182.67
645.483	1193.33
647.929	1178.67
650.375	1191.33
652.82	1184
655.264	1185.11
657.707	1198.89
660.149	1154.44
662.59	1180.44
665.031	1186.22
667.471	1172.89
669.91	1150.89
672.349	1164.44
674.786	1170.22
677.222	1183.33
679.658	1196.89
682.093	1205.33
684.528	1211.56
686.96	1225.11
689.393	1234.22
691.826	1249.78
694.256	1233.33
696.686	1230.67
699.116	1226.67
701.545	1212.22
703.972	1213.78
706.4	1220.89
708.826	1206.44
711.251	1199.11
713.676	1202.22
716.099	1192.44
718.523	1188.67
720.946	1208.44
723.366	1197.11
725.788	1195.78
728.207	1189.33
730.627	1192.67
733.044	1208
735.462	1213.33
737.88	1210.44
740.295	1191.33
742.711	1188.44
745.125	1199.56
747.539	1193.78
749.951	1181.78
752.363	1178.89
754.775	1187.33
757.185	1201.11
759.595	1184
762.003	1181.11
764.412	1172.67
766.819	1156.22
769.225	1182.89
771.632	1167.78
774.036	1184.44
776.441	1167.33
778.844	1166.89
781.246	1166.67
783.649	1163.11
786.05	1173.56
788.449	1188.22
790.85	1179.11
793.248	1195.56
795.646	1178.22
798.042	1206.67
800.44	1190.22
802.835	1191.56
805.23	1202.22
807.623	1201.11
810.018	1207.11
812.41	1210.89
814.801	1220.44
817.192	1220.89
819.582	1228
821.972	1216.89
824.361	1214.44
826.748	1211.33
829.135	1211.56
831.521	1237.33
833.907	1218.44
836.291	1213.56
838.675	1223.33
841.059	1222.44
843.442	1238.67
845.823	1216.67
848.204	1229.33
850.584	1229.33
852.963	1218.67
855.342	1239.56
857.72	1235.11
860.097	1233.33
862.473	1242
864.848	1235.11
867.223	1235.56
869.597	1241.78
871.97	1246
874.343	1238.67
876.714	1260.44
879.084	1276.44
881.454	1244.67
883.824	1259.56
886.192	1268
888.56	1248.44
890.927	1266.67
893.294	1258.89
895.66	1239.11
898.023	1260.44
900.387	1274
902.751	1252.89
905.114	1244.44
907.476	1251.33
909.835	1250.89
912.196	1236.67
914.555	1245.56
916.914	1231.78
919.271	1236.44
921.629	1226.22
923.985	1220.89
926.341	1243.56
928.695	1231.33
931.05	1231.33
933.404	1249.56
935.755	1260.67
938.107	1261.33
940.459	1271.11
942.808	1235.33
945.158	1245.33
947.508	1239.11
949.855	1224.22
952.202	1239.78
954.548	1234.67
956.894	1246.89
959.239	1247.33
961.583	1249.56
963.928	1249.56
966.27	1268
968.612	1266.89
970.953	1264.22
973.294	1266.67
975.633	1276.89
977.972	1265.78
980.31	1283.11
982.647	1270.67
984.984	1273.56
987.32	1308
989.656	1334.89
991.989	1352
994.324	1389.11
996.656	1483.56
998.988	1496.67
1001.32	1389.33
1003.65	1290.22
1005.98	1261.78
1008.31	1263.11
1010.64	1291.33
1012.97	1291.33
1015.29	1303.78
1017.62	1354.44
1019.94	1418
1022.27	1421.56
1024.59	1361.78
1026.92	1318.89
1029.24	1298.67
1031.56	1284
1033.88	1259.56
1036.2	1268.89
1038.52	1265.78
1040.84	1242.67
1043.16	1259.33
1045.48	1241.11
1047.79	1259.78
1050.11	1260
1052.42	1270
1054.74	1302.44
1057.05	1309.78
1059.36	1354.44
1061.67	1359.11
1063.99	1422.22
1066.3	1470.67
1068.61	1546.22
1070.92	1590.67
1073.22	1606.44
1075.53	1550.44
1077.84	1485.11
1080.15	1453.78
1082.45	1395.78
1084.76	1392
1087.06	1366.89
1089.36	1388
1091.66	1360.22
1093.97	1392
1096.27	1418.44
1098.57	1411.78
1100.87	1404.67
1103.17	1390
1105.46	1403.11
1107.76	1394
1110.06	1407.78
1112.35	1411.56
1114.65	1411.33
1116.94	1441.56
1119.24	1439.56
1121.53	1439.33
1123.82	1427.11
1126.11	1452.22
1128.4	1441.33
1130.7	1454
1132.98	1448.44
1135.27	1439.33
1137.56	1463.11
1139.85	1442.44
1142.13	1456.44
1144.42	1450
1146.71	1461.33
1148.99	1469.11
1151.27	1488.22
1153.56	1481.11
1155.84	1521.78
1158.12	1502.44
1160.4	1480.89
1162.68	1494.67
1164.96	1489.78
1167.24	1501.56
1169.51	1510.89
1171.79	1502.22
1174.07	1536.44
1176.34	1534.89
1178.62	1548.22
1180.89	1539.56
1183.17	1528.44
1185.44	1520.67
1187.71	1500
1189.98	1513.33
1192.25	1510.22
1194.52	1509.78
1196.79	1518
1199.06	1522.44
1201.33	1526
1203.59	1539.33
1205.86	1568.22
1208.12	1554
1210.39	1539.33
1212.65	1545.56
1214.92	1550.44
1217.18	1548.67
1219.44	1564.44
1221.7	1581.56
1223.96	1584.67
1226.22	1587.78
1228.48	1592.89
1230.74	1601.11
1233	1607.11
1235.25	1611.78
1237.51	1618
1239.77	1623.78
1242.02	1618
1244.27	1629.33
1246.53	1624.44
1248.78	1645.56
1251.03	1656
1253.28	1644
1255.53	1633.33
1257.78	1655.56
1260.03	1638.22
1262.28	1662
1264.53	1631.56
1266.78	1668
1269.02	1655.56
1271.27	1661.56
1273.51	1634.67
1275.76	1661.11
1278	1668.89
1280.24	1664.89
1282.48	1648.22
1284.72	1642.89
1286.97	1665.56
1289.21	1658.89
1291.44	1655.56
1293.68	1656
1295.92	1655.78
1298.16	1669.11
1300.39	1643.78
1302.63	1666.67
1304.86	1646.67
1307.1	1650.22
1309.33	1650.44
1311.56	1648.44
1313.8	1643.78
1316.03	1647.78
1318.26	1648.89
1320.49	1657.33
1322.72	1644.89
1324.95	1651.11
1327.17	1646.22
1329.4	1642.44
1331.63	1674.22
1333.85	1654.89
1336.08	1650.67
1338.3	1660.22
1340.53	1652.44
1342.75	1650
1344.97	1654.22
1347.19	1654.44
1349.41	1654.44
1351.63	1646.44
1353.85	1649.33
1356.07	1639.78
1358.29	1622.67
1360.51	1654
1362.72	1640.89
1364.94	1648.22
1367.16	1640.22
1369.37	1649.78
1371.58	1647.33
1373.8	1651.78
1376.01	1657.78
1378.22	1637.56
1380.43	1634.67
1382.64	1609.33
1384.85	1637.11
1387.06	1611.78
1389.27	1631.78
1391.48	1588.22
1393.68	1576.89
1395.89	1572.22
1398.1	1574
1400.3	1566.67
1402.51	1563.78
1404.71	1582.44
1406.91	1583.11
1409.11	1560
1411.32	1589.56
1413.52	1588.44
1415.72	1574.22
1417.92	1616.89
1420.11	1571.33
1422.31	1600
1424.51	1622.44
1426.71	1612.67
1428.9	1595.11
1431.1	1623.33
1433.29	1626.67
1435.49	1626.89
1437.68	1620.89
1439.87	1635.56
1442.06	1645.33
1444.25	1635.33
1446.45	1658.44
1448.64	1684
1450.82	1670.67
1453.01	1671.11
1455.2	1675.56
1457.39	1698.67
1459.57	1693.56
1461.76	1721.11
1463.94	1717.33
1466.13	1731.78
1468.31	1745.78
1470.5	1760.44
1472.68	1770.89
1474.86	1768.67
1477.04	1756.67
1479.22	1763.33
1481.4	1765.11
1483.58	1762.67
1485.76	1783.78
1487.94	1790.44
1490.11	1792.89
1492.29	1770
1494.46	1796.89
1496.64	1833.11
1498.81	1862.67
1500.99	1857.33
1503.16	1874.67
1505.33	1882.22
1507.5	1905.11
1509.67	1896.44
1511.84	1917.56
1514.01	1930.89
1516.18	1956
1518.35	1977.78
1520.52	1976
1522.68	1988.89
1524.85	2003.78
1527.02	2030
1529.18	2026.89
1531.35	2029.33
1533.51	2051.11
1535.67	2067.33
1537.83	2037.11
1539.99	2043.33
1542.16	2057.33
1544.31	2046.22
1546.47	2033.11
1548.63	2054.67
1550.79	2059.78
1552.95	2074
1555.11	2083.56
1557.26	2090.67
1559.42	2133.56
1561.57	2148.67
1563.73	2165.33
1565.88	2211.56
1568.03	2272.44
1570.18	2340
1572.34	2397.56
1574.49	2315.33
1576.64	2278.44
1578.79	2216
1580.93	2173.56
1583.08	2159.11
1585.23	2143.33
1587.38	2117.78
1589.52	2136.22
1591.67	2062.89
1593.81	2072
1595.96	2066.67
1598.1	2059.33
1600.24	2024
1602.38	1974.89
1604.53	1938.44
1606.67	1896.44
1608.81	1867.78
1610.95	1849.78
1613.09	1810.22
1615.22	1786.44
1617.36	1746
1619.5	1699.78
1621.63	1679.78
1623.77	1632.67
1625.9	1622.89
1628.04	1559.33
1630.17	1560
1632.3	1506.67
1634.44	1476.67
1636.57	1461.56
1638.7	1430
1640.83	1396
1642.96	1355.56
1645.09	1361.56
1647.22	1325.56
1649.34	1322.67
1651.47	1304
1653.6	1264.44
1655.72	1253.78
1657.85	1248.44
1659.97	1234.22
1662.1	1210
1664.22	1203.78
1666.34	1203.33
1668.46	1176.44
1670.58	1169.33
1672.7	1165.56
1674.82	1164.89
1676.94	1140.44
1679.06	1136.89
1681.18	1126.44
1683.3	1109.56
1685.41	1120.44
1687.53	1107.78
1689.64	1101.78
1691.76	1082.22
1693.87	1075.33
1695.99	1097.56
1698.1	1090.44
1700.21	1072.44
1702.32	1059.78
1704.43	1062.44
1706.54	1061.11
1708.65	1056.22
1710.76	1070.44
1712.87	1057.78
1714.98	1053.56
1717.08	1040.22
1719.19	1047.78
1721.29	1046.67
1723.4	1036.22
1725.5	1029.78
1727.61	1013.33
1729.71	1020.44
1731.81	1024.67
1733.91	1027.33
1736.02	1009.78
1738.12	1000.22
1740.22	997.556
1742.31	996
1744.41	980.444
1746.51	989.333
1748.61	984.667
1750.7	985.111
1752.8	986.444
1754.9	974
1756.99	962.667
1759.08	974.222
1761.18	968
1763.27	979.556
1765.36	974.445
1767.45	945.333
1769.54	952.222
1771.63	957.111
1773.72	956.222
1775.81	950.444
1777.9	955.778
1779.99	945.111
1782.08	944.444
1784.16	934
1786.25	939.333
1788.33	937.556
1790.42	925.778
1792.5	920.222
1794.58	925.778
1796.67	936
1798.75	932.444
1800.83	926.889
1802.91	916.222
1804.99	921.556
1807.07	928.222
1809.15	923.778
1811.23	931.333
1813.3	921.333
1815.38	918.444
1817.46	907.778
1819.53	910.667
1821.61	906.889
1823.68	904.444
1825.75	911.333
1827.83	892.667
1829.9	897.556
1831.97	900.222
1834.04	893.111
1836.11	896.222
1838.18	882.889
1840.25	892.889
1842.32	891.556
1844.39	872.889
1846.46	887.556
1848.52	877.111
1850.59	888
1852.65	869.778
1854.72	877.111
1856.78	876
1858.85	878.667
1860.91	869.111
1862.97	853.111
1865.03	862
1867.09	856.667
1869.16	855.556
1871.22	859.333
1873.27	853.333
1875.33	864.445
1877.39	862.222
1879.45	859.556
1881.51	850.222
1883.56	859.556
1885.62	872.222
1887.67	852.889
1889.73	860.889
1891.78	861.556
1893.83	848.667
1895.89	845.111
1897.94	859.778
1899.99	855.778
1902.04	835.111
1904.09	854
1906.14	850.222
1908.19	830.444
1910.23	832
1912.28	847.556
1914.33	845.556
1916.37	840.667
1918.42	846
1920.46	846.444
1922.51	836.889
1924.55	836.889
1926.6	837.778
1928.64	820.444
1930.68	834.444
1932.72	832.222
1934.76	835.111
1936.8	837.778
1938.84	824.222
1940.88	823.555
1942.92	814.222
1944.96	824.444
1946.99	827.778
1949.03	823.556
1951.06	820.222
1953.1	818.667
1955.13	815.333
1957.17	815.556
1959.2	805.111
1961.23	817.556
1963.27	814.222
1965.3	804.889
1967.33	802.889
1969.36	805.556
1971.39	799.555
1973.42	817.556
1975.44	812.889
1977.47	794.889
1979.5	790.222
1981.53	808.444
1983.55	784
1985.58	792.444
1987.6	794
1989.63	792
1991.65	797.111
1993.67	801.111
1995.69	794.667
1997.72	789.778
1999.74	800.667
2001.76	812.222
2003.78	791.778
2005.8	785.333
2007.82	805.111
2009.83	787.111
2011.85	786
2013.87	784.222
2015.88	786
2017.9	783.556
2019.91	786.889
2021.93	780.889
2023.94	784.444
2025.96	796.667
2027.97	788.222
2029.98	785.778
2031.99	780.444
2034	788
2036.01	786.222
2038.02	778
2040.03	770.889
2042.04	783.778
2044.05	780.222
2046.05	782
2048.06	789.778
2050.07	784.444
2052.07	787.333
2054.08	770
2056.08	766.667
2058.08	768.889
2060.09	773.555
2062.09	762
2064.09	774.444
2066.09	769.333
2068.09	752.222
2070.09	775.333
2072.09	768.444
2074.09	762
2076.09	785.556
2078.09	764
2080.08	765.778
2082.08	766.889
2084.08	767.333
2086.07	758.222
2088.07	760.667
2090.06	757.556
2092.05	740.667
2094.05	769.111
2096.04	768
2098.03	764.667
2100.02	762.889
2102.01	764.222
2104	775.333
2105.99	768.444
2107.98	764.889
2109.97	765.111
2111.95	769.556
2113.94	779.778
2115.93	808
2117.91	795.778
2119.9	801.778
2121.88	808.667
2123.87	804.222
2125.85	799.556
2127.83	819.556
2129.81	805.111
2131.8	822.444
2133.78	804
2135.76	808
2137.74	807.778
2139.72	806.222
2141.69	790.889
2143.67	798.445
2145.65	793.778
2147.63	777.333
2149.6	780.889
2151.58	776.444
2153.55	774
2155.53	785.555
2157.5	766.222
2159.48	773.111
2161.45	771.778
2163.42	761.778
2165.39	766.889
2167.36	762.445
2169.33	763.333
2171.3	763.333
2173.27	760.222
2175.24	761.333
2177.21	760.889
2179.18	753.778
2181.14	755.111
2183.11	756
2185.07	747.333
2187.04	757.778
2189	754.444
2190.97	738.444
2192.93	727.556
2194.89	735.333
2196.86	733.333
2198.82	729.556
2200.78	727.556
2202.74	733.333
2204.7	713.111
2206.66	724.667
2208.62	721.556
2210.57	711.778
2212.53	719.556
2214.49	704
2216.45	700
2218.4	702.889
2220.36	704.444
2222.31	698.667
2224.27	706.667
2226.22	708.444
2228.17	706.889
2230.12	701.111
2232.08	701.778
2234.03	697.333
2235.98	686
2237.93	696.889
2239.88	687.333
2241.83	696.667
2243.78	686.667
2245.72	684.889
2247.67	689.333
2249.62	685.333
2251.56	682.667
2253.51	667.778
2255.45	674.667
2257.4	671.556
2259.34	677.111
2261.28	678.667
2263.23	667.111
2265.17	671.556
2267.11	667.556
2269.05	655.778
2270.99	660
2272.93	654.222
2274.87	664.444
2276.81	672.889
2278.75	658.889
2280.68	662.444
2282.62	655.556
2284.56	647.333
2286.49	657.333
2288.43	652
2290.36	643.111
2292.3	644.667
2294.23	647.111
2296.16	653.111
2298.09	660.667
2300.03	647.778
2301.96	653.111
2303.89	642.444
2305.82	655.111
2307.75	631.778
2309.68	646
2311.6	647.333
2313.53	636.667
2315.46	647.556
2317.39	640.889
2319.31	646
2321.24	641.778
2323.16	634.444
2325.09	641.333
2327.01	648.222
2328.93	630
2330.86	639.111
2332.78	635.333
2334.7	632.222
2336.62	624.889
2338.54	641.556
2340.46	631.778
2342.38	621.111
2344.3	635.556
2346.22	633.778
2348.14	631.111
2350.05	628.889
2351.97	630.667
2353.89	633.333
2355.8	620
2357.71	615.111
2359.63	620.667
2361.54	613.556
2363.46	626.222
2365.37	620
2367.28	610.444
2369.19	622.444
2371.1	620
2373.01	610.222
2374.92	616.889
2376.83	621.111
2378.74	610.889
2380.65	597.778
2382.56	617.556
2384.46	590.222
2386.37	613.111
2388.27	607.556
2390.18	606.667
2392.08	611.556
2393.99	598.667
2395.89	606.889
2397.8	603.778
2399.7	599.778
2401.6	608.444
2403.5	607.111
2405.4	598.444
2407.3	598.667
2409.2	602.222
2411.1	602.889
2413	605.778
2414.9	588.667
2416.8	589.333
2418.69	605.111
2420.59	593.556
2422.48	599.556
2424.38	588.667
2426.28	602
2428.17	594.889
2430.06	583.556
2431.96	600.222
2433.85	593.111
2435.74	595.111
2437.63	580.222
2439.52	592.889
2441.41	594
2443.3	600
2445.19	581.333
2447.08	595.778
