178.677	76.6667
181.278	79.3333
183.879	78.6667
186.48	80
189.078	78.4444
191.677	79.5556
194.275	79.3333
196.871	79.3333
199.467	78.4444
202.061	81.1111
204.656	76.8889
207.248	78.2222
209.841	77.7778
212.431	77.1111
215.022	79.1111
217.613	80.2222
220.201	81.7778
222.789	79.1111
225.375	77.5556
227.962	76.2222
230.547	80.4444
233.13	81.7778
235.714	81.7778
238.296	80.2222
240.879	78.2222
243.459	79.5556
246.04	83.1111
248.618	82.2222
251.196	79.1111
253.774	82.2222
256.35	81.3333
258.927	81.7778
261.501	84
264.074	81.5555
266.648	81.1111
269.22	84.4444
271.791	80.2222
274.362	83.7778
276.931	82
279.5	76.8889
282.069	79.5556
284.635	80
287.201	79.7778
289.766	78
292.331	76.4444
294.894	75.5556
297.457	73.5556
300.018	75.3333
302.58	76
305.14	72
307.699	74
310.257	72
312.814	74.8889
315.372	72.4444
317.928	72.2222
320.482	73.3333
323.036	67.7778
325.589	73.5556
328.142	74
330.693	72.4445
333.243	71.7778
335.795	72.8889
338.343	71.7778
340.891	73.3333
343.439	72.6667
345.985	72.8889
348.53	73.3333
351.075	73.3333
353.619	73.1111
356.162	71.3333
358.704	71.3333
361.245	73.1111
363.786	74.2222
366.325	74.6667
368.864	70
371.402	76.2222
373.939	75.3333
376.475	74
379.011	74.8889
381.545	73.1111
384.079	72
386.612	75.1111
389.144	73.7778
391.674	73.7778
394.204	72.2222
396.734	74.2222
399.263	72.8889
401.791	71.7778
404.318	73.7778
406.844	73.5556
409.368	74
411.893	74.4444
414.417	74.4444
416.94	81.5556
419.462	77.1111
421.982	75.1111
424.502	70
427.022	72.4444
429.541	72.4444
432.057	69.7778
434.574	73.7778
437.091	72.4444
439.606	68.4444
442.12	73.5555
444.634	69.1111
447.147	70.4444
449.657	72.6667
452.169	74.4444
454.68	73.1111
457.188	73.7778
459.697	72.6667
462.205	71.5556
464.711	71.5555
467.217	69.3333
469.722	72.4444
472.227	67.1111
474.731	73.5556
477.232	68.6667
479.735	71.7778
482.235	73.5556
484.736	72.2222
487.234	75.1111
489.734	72.6667
492.23	72.6667
494.728	73.3333
497.223	74.4444
499.719	71.5556
502.213	71.1111
504.707	74.2222
507.199	69.5556
509.692	74.2222
512.182	71.5556
514.673	71.1111
517.162	74
519.65	74.2222
522.139	74.4444
524.625	74.4444
527.112	73.1111
529.597	70.2222
532.081	70.8889
534.565	73.7778
537.047	68.2222
539.529	73.1111
542.011	70.8889
544.491	71.1111
546.97	74.4444
549.45	72.2222
551.927	72.4444
554.404	70.8889
556.88	69.3333
559.356	70
561.831	72.8889
564.304	72.2222
566.777	72.6667
569.25	73.7778
571.721	68.4444
574.191	72.4444
576.661	69.5556
579.129	72
581.599	72.6667
584.066	70.6667
586.532	71.5556
588.997	72.4444
591.462	73.1111
593.926	69.7778
596.389	71.7778
598.851	73.1111
601.314	67.1111
603.775	73.5556
606.235	73.3333
608.694	69.7778
611.152	71.7778
613.609	73.5556
616.066	70.8889
618.522	73.7778
620.977	74.2222
623.431	76
625.885	72.4444
628.338	73.1111
630.79	70.6667
633.241	72
635.691	72.6667
638.141	76.6667
640.589	70.4444
643.036	73.3333
645.483	73.5556
647.929	74.2222
650.375	74.8889
652.82	75.1111
655.264	77.5556
657.707	72
660.149	74.4444
662.59	76.8889
665.031	74
667.471	74.6667
669.91	78.8889
672.349	77.3333
674.786	75.3333
677.222	77.1111
679.658	78.4444
682.093	77.3333
684.528	81.5556
686.96	77.3333
689.393	73.5556
691.826	76.4444
694.256	77.3333
696.686	73.7778
699.116	80.8889
701.545	76.4444
703.972	77.5556
706.4	78.6667
708.826	76.8889
711.251	80.4444
713.676	78
716.099	80.2222
718.523	77.7778
720.946	77.1111
723.366	76.2222
725.788	75.3333
728.207	80.4444
730.627	80.4444
733.044	75.3333
735.462	80.4444
737.88	78.4444
740.295	76
742.711	78.6667
745.125	75.1111
747.539	78.4444
749.951	76.2222
752.363	80
754.775	77.5555
757.185	78.4444
759.595	79.1111
762.003	78.8889
764.412	80.6667
766.819	82
769.225	81.1111
771.632	83.3333
774.036	79.7778
776.441	80.4444
778.844	80.8889
781.246	80.6667
783.649	80.2222
786.05	79.5556
788.449	79.1111
790.85	83.3333
793.248	78.8889
795.646	83.1111
798.042	80.2222
800.44	84.6667
802.835	80.4444
805.23	84
807.623	82.8889
810.018	80
812.41	81.7778
814.801	82.2222
817.192	81.1111
819.582	81.7778
821.972	76.8889
824.361	79.7778
826.748	80.6667
829.135	82.2222
831.521	84.4444
833.907	85.7778
836.291	83.5556
838.675	83.3333
841.059	84.2222
843.442	84.2222
845.823	86.2222
848.204	81.1111
850.584	84.8889
852.963	84.2222
855.342	78.4444
857.72	85.1111
860.097	84
862.473	84.4444
864.848	81.1111
867.223	84.4444
869.597	82
871.97	81.7778
874.343	80.8889
876.714	84
879.084	81.7778
881.454	86.6667
883.824	85.5556
886.192	82.2222
888.56	77.7778
890.927	80.2222
893.294	79.3333
895.66	80
898.023	81.3333
900.387	81.5556
902.751	77.5555
905.114	81.5556
907.476	78.4444
909.835	79.1111
912.196	80.6667
914.555	82.4444
916.914	81.7778
919.271	77.5556
921.629	78.8889
923.985	79.5556
926.341	83.3333
928.695	81.1111
931.05	80.2222
933.404	83.5556
935.755	78.8889
938.107	80.2222
940.459	80
942.808	79.3333
945.158	80
947.508	79.1111
949.855	82
952.202	78.2222
954.548	83.3333
956.894	77.1111
959.239	83.5556
961.583	84.6667
963.928	83.1111
966.27	82.4444
968.612	81.1111
970.953	78.8889
973.294	80.8889
975.633	79.7778
977.972	80.8889
980.31	82.2222
982.647	79.5556
984.984	81.3333
987.32	85.3333
989.656	83.5555
991.989	81.7778
994.324	84.8889
996.656	86.2222
998.988	88
1001.32	83.1111
1003.65	84.6667
1005.98	84.6667
1008.31	85.1111
1010.64	86
1012.97	90.2222
1015.29	92
1017.62	83.5555
1019.94	87.1111
1022.27	88.4444
1024.59	86.2222
1026.92	81.1111
1029.24	80
1031.56	82.4444
1033.88	80.4444
1036.2	83.5556
1038.52	86.8889
1040.84	86.8889
1043.16	87.3333
1045.48	81.5556
1047.79	86
1050.11	83.5555
1052.42	83.1111
1054.74	82.6667
1057.05	82.8889
1059.36	82.2222
1061.67	85.1111
1063.99	82
1066.3	84.2222
1068.61	84.4444
1070.92	90.6667
1073.22	83.1111
1075.53	86.2222
1077.84	88.6667
1080.15	82
1082.45	81.3333
1084.76	80.6667
1087.06	80.4444
1089.36	80
1091.66	78.8889
1093.97	80.8889
1096.27	79.1111
1098.57	81.3333
1100.87	77.1111
1103.17	79.1111
1105.46	78.4444
1107.76	82.2222
1110.06	79.5556
1112.35	82.4444
1114.65	81.3333
1116.94	80
1119.24	84.8889
1121.53	84.6667
1123.82	80.2222
1126.11	80.8889
1128.4	78
1130.7	82
1132.98	82.2222
1135.27	78.2222
1137.56	80.4444
1139.85	81.1111
1142.13	81.5556
1144.42	80
1146.71	83.3333
1148.99	82.6667
1151.27	81.7778
1153.56	78.8889
1155.84	79.1111
1158.12	79.3333
1160.4	82.6667
1162.68	78
1164.96	81.3333
1167.24	84.8889
1169.51	84.6667
1171.79	80.6667
1174.07	81.1111
1176.34	83.7778
1178.62	80.8889
1180.89	82.6667
1183.17	85.3333
1185.44	83.5556
1187.71	85.5556
1189.98	82.8889
1192.25	82.4444
1194.52	83.3333
1196.79	85.3333
1199.06	84
1201.33	84.4444
1203.59	82.6667
1205.86	85.7778
1208.12	83.3333
1210.39	84.4444
1212.65	82.8889
1214.92	85.3333
1217.18	82.6667
1219.44	84.6667
1221.7	81.5555
1223.96	87.1111
1226.22	84.6667
1228.48	80.2222
1230.74	87.1111
1233	83.1111
1235.25	86
1237.51	84.8889
1239.77	87.3333
1242.02	80.4444
1244.27	86.2222
1246.53	84
1248.78	87.5556
1251.03	81.7778
1253.28	83.7778
1255.53	86.8889
1257.78	83.3333
1260.03	83.1111
1262.28	82
1264.53	87.1111
1266.78	87.5556
1269.02	87.1111
1271.27	83.7778
1273.51	88
1275.76	85.1111
1278	86.2222
1280.24	88.8889
1282.48	88
1284.72	89.3333
1286.97	86
1289.21	87.7778
1291.44	92
1293.68	88.6667
1295.92	87.7778
1298.16	87.7778
1300.39	86.4444
1302.63	88.2222
1304.86	90
1307.1	89.1111
1309.33	92.6667
1311.56	87.1111
1313.8	86.6667
1316.03	85.3333
1318.26	87.7778
1320.49	84.2222
1322.72	88
1324.95	90
1327.17	86.8889
1329.4	90.4444
1331.63	85.7778
1333.85	90.4444
1336.08	86.8889
1338.3	84.2222
1340.53	88.6667
1342.75	94
1344.97	90.2222
1347.19	90.6667
1349.41	94.8889
1351.63	91.1111
1353.85	89.3333
1356.07	92
1358.29	90.8889
1360.51	91.1111
1362.72	90
1364.94	92
1367.16	89.7778
1369.37	92.4445
1371.58	92.4444
1373.8	94.4444
1376.01	95.5556
1378.22	94.6667
1380.43	94
1382.64	94.8889
1384.85	96.4444
1387.06	93.5556
1389.27	99.3333
1391.48	91.1111
1393.68	88.2222
1395.89	89.1111
1398.1	91.1111
1400.3	88.8889
1402.51	94.2222
1404.71	90.6667
1406.91	91.7778
1409.11	88.8889
1411.32	88.4444
1413.52	88.2222
1415.72	92.2222
1417.92	91.7778
1420.11	94.2222
1422.31	86.2222
1424.51	87.1111
1426.71	90.2222
1428.9	91.1111
1431.1	88.6667
1433.29	92.6667
1435.49	93.7778
1437.68	90.2222
1439.87	93.5556
1442.06	90.4444
1444.25	91.7778
1446.45	90.4444
1448.64	89.3333
1450.82	90.6667
1453.01	90.8889
1455.2	89.1111
1457.39	93.5556
1459.57	90
1461.76	96.2222
1463.94	89.1111
1466.13	92
1468.31	92.2222
1470.5	92.2222
1472.68	92
1474.86	92.2222
1477.04	94.2222
1479.22	90
1481.4	93.7778
1483.58	92.8889
1485.76	90.8889
1487.94	91.7778
1490.11	89.5555
1492.29	92.4444
1494.46	90.8889
1496.64	91.3333
1498.81	91.3333
1500.99	94.8889
1503.16	91.5556
1505.33	88.4444
1507.5	88.6667
1509.67	90.6667
1511.84	90.2222
1514.01	95.5556
1516.18	92.2222
1518.35	94.4444
1520.52	91.3333
1522.68	90.6667
1524.85	93.3333
1527.02	92.4444
1529.18	92.4444
1531.35	96.6667
1533.51	98.2222
1535.67	90.8889
1537.83	95.3333
1539.99	96.6667
1542.16	94.8889
1544.31	95.7778
1546.47	95.7778
1548.63	95.3333
1550.79	92.2222
1552.95	95.1111
1555.11	94.2222
1557.26	96.8889
1559.42	92.4444
1561.57	94.4444
1563.73	96.2222
1565.88	94.8889
1568.03	98.4444
1570.18	100.444
1572.34	102.444
1574.49	98
1576.64	93.7778
1578.79	96.4444
1580.93	95.7778
1583.08	94.4444
1585.23	96
1587.38	94.4444
1589.52	96.2222
1591.67	95.5555
1593.81	97.1111
1595.96	98.8889
1598.1	93.7778
1600.24	96.8889
1602.38	94.8889
1604.53	96.2222
1606.67	96.4444
1608.81	98.6667
1610.95	90.8889
1613.09	92.4444
1615.22	92.6667
1617.36	97.5556
1619.5	95.3333
1621.63	96
1623.77	93.5555
1625.9	95.5556
1628.04	95.7778
1630.17	90.4444
1632.3	94.6667
1634.44	96.4444
1636.57	95.3333
1638.7	93.5556
1640.83	92
1642.96	93.1111
1645.09	99.1111
1647.22	87.3333
1649.34	88.2222
1651.47	91.5556
1653.6	95.1111
1655.72	90.2222
1657.85	97.1111
1659.97	92.2222
1662.1	90.4444
1664.22	96.4444
1666.34	93.5556
1668.46	93.5555
1670.58	95.7778
1672.7	95.1111
1674.82	89.7778
1676.94	92.6667
1679.06	96.4444
1681.18	92.6667
1683.3	93.5556
1685.41	94.6667
1687.53	92.2222
1689.64	94.4444
1691.76	92.6667
1693.87	93.5556
1695.99	94.6667
1698.1	91.1111
1700.21	90
1702.32	90.8889
1704.43	90.2222
1706.54	92.6667
1708.65	90.4444
1710.76	90.8889
1712.87	92.6667
1714.98	94.6667
1717.08	94.4444
1719.19	96
1721.29	92.2222
1723.4	94.6667
1725.5	93.1111
1727.61	95.7778
1729.71	89.5556
1731.81	92.6667
1733.91	90.2222
1736.02	94.2222
1738.12	89.3333
1740.22	94.4444
1742.31	93.7778
1744.41	95.3333
1746.51	92.4444
1748.61	91.1111
1750.7	97.1111
1752.8	90
1754.9	90.6667
1756.99	94.4444
1759.08	88.8889
1761.18	93.7778
1763.27	92.6667
1765.36	97.1111
1767.45	93.3333
1769.54	95.1111
1771.63	98.2222
1773.72	90.8889
1775.81	93.5556
1777.9	93.5556
1779.99	93.3333
1782.08	96.6667
1784.16	96
1786.25	94.6667
1788.33	93.3333
1790.42	91.3333
1792.5	92.8889
1794.58	93.5556
1796.67	87.5556
1798.75	94
1800.83	93.7778
1802.91	96
1804.99	94
1807.07	92
1809.15	92.8889
1811.23	94
1813.3	93.7778
1815.38	91.1111
1817.46	93.1111
1819.53	95.1111
1821.61	92.4444
1823.68	93.1111
1825.75	93.3333
1827.83	93.3333
1829.9	91.3333
1831.97	94
1834.04	92.6667
1836.11	88.4444
1838.18	91.7778
1840.25	96.2222
1842.32	91.5556
1844.39	92.4445
1846.46	93.7778
1848.52	94.2222
1850.59	92.2222
1852.65	93.3333
1854.72	95.5556
1856.78	90.6667
1858.85	93.3333
1860.91	93.5556
1862.97	93.7778
1865.03	93.3333
1867.09	94.4444
1869.16	92.4444
1871.22	92
1873.27	93.5556
1875.33	94
1877.39	94.2222
1879.45	94.2222
1881.51	94.2222
1883.56	92.2222
1885.62	92
1887.67	91.7778
1889.73	91.1111
1891.78	99.1111
1893.83	92.6667
1895.89	91.1111
1897.94	96.2222
1899.99	94.4444
1902.04	95.7778
1904.09	93.1111
1906.14	94.4444
1908.19	92
1910.23	94.2222
1912.28	93.3333
1914.33	95.3333
1916.37	90.4444
1918.42	95.3333
1920.46	96
1922.51	92.8889
1924.55	94.8889
1926.6	95.3333
1928.64	95.5556
1930.68	96.2222
1932.72	89.5556
1934.76	94
1936.8	95.5556
1938.84	94.6667
1940.88	97.5556
1942.92	94.6667
1944.96	93.7778
1946.99	96.6667
1949.03	97.5555
1951.06	95.3333
1953.1	95.5556
1955.13	92.4444
1957.17	96.8889
1959.2	91.7778
1961.23	94.2222
1963.27	93.3333
1965.3	93.7778
1967.33	94.6667
1969.36	96.6667
1971.39	95.5556
1973.42	89.5556
1975.44	93.1111
1977.47	95.3333
1979.5	94.2222
1981.53	92.8889
1983.55	96
1985.58	95.1111
1987.6	98.4444
1989.63	94.4444
1991.65	94
1993.67	93.7778
1995.69	94
1997.72	95.1111
1999.74	98.2222
2001.76	96.4444
2003.78	96.6667
2005.8	96
2007.82	93.7778
2009.83	94.2222
2011.85	94
2013.87	91.7778
2015.88	99.1111
2017.9	95.3333
2019.91	97.5556
2021.93	92.8889
2023.94	94.4444
2025.96	96.4444
2027.97	96.4444
2029.98	94.4444
2031.99	98.4444
2034	93.3333
2036.01	98
2038.02	97.7778
2040.03	94.4444
2042.04	93.7778
2044.05	96.4444
2046.05	99.5555
2048.06	96.2222
2050.07	100.444
2052.07	98.4444
2054.08	97.5556
2056.08	97.1111
2058.08	98
2060.09	96.2222
2062.09	96.4444
2064.09	95.7778
2066.09	97.3333
2068.09	99.3333
2070.09	98
2072.09	95.5556
2074.09	97.3333
2076.09	94.8889
2078.09	96
2080.08	97.3333
2082.08	99.1111
2084.08	99.7778
2086.07	96.6667
2088.07	96.8889
2090.06	98.6667
2092.05	96.8889
2094.05	98.4444
2096.04	95.5556
2098.03	99.1111
2100.02	99.1111
2102.01	96.6667
2104	94
2105.99	95.5556
2107.98	97.5555
2109.97	95.7778
2111.95	95.3333
2113.94	96.8889
2115.93	96.2222
2117.91	100.889
2119.9	100.444
2121.88	97.5556
2123.87	101.333
2125.85	98.2222
2127.83	102
2129.81	96.6667
2131.8	100.667
2133.78	95.3333
2135.76	100.667
2137.74	102.889
2139.72	96.8889
2141.69	96
2143.67	98.2222
2145.65	100.222
2147.63	96.4444
2149.6	99.3333
2151.58	98
2153.55	97.7778
2155.53	95.1111
2157.5	96
2159.48	103.778
2161.45	97.3333
2163.42	99.5556
2165.39	93.5556
2167.36	99.3333
2169.33	98.4445
2171.3	102.667
2173.27	94.2222
2175.24	96.6667
2177.21	99.7778
2179.18	96.6667
2181.14	98.8889
2183.11	97.1111
2185.07	97.5556
2187.04	95.7778
2189	103.333
2190.97	98.6667
2192.93	97.3333
2194.89	99.1111
2196.86	102
2198.82	97.1111
2200.78	99.5556
2202.74	98.4445
2204.7	99.7778
2206.66	101.333
2208.62	101.556
2210.57	101.556
2212.53	96.6667
2214.49	98.6667
2216.45	101.111
2218.4	98.6667
2220.36	100
2222.31	100.889
2224.27	99.1111
2226.22	98.8889
2228.17	99.3333
2230.12	94.8889
2232.08	99.5556
2234.03	100.667
2235.98	98.4444
2237.93	99.1111
2239.88	100.222
2241.83	97.5555
2243.78	98.2222
2245.72	96.2222
2247.67	96.4444
2249.62	98.6667
2251.56	98.6667
2253.51	101.778
2255.45	101.333
2257.4	96
2259.34	99.5556
2261.28	103.111
2263.23	94.6667
2265.17	98.2222
2267.11	100.222
2269.05	99.7778
2270.99	99.1111
2272.93	102.667
2274.87	99.7778
2276.81	95.7778
2278.75	100.889
2280.68	95.1111
2282.62	103.111
2284.56	94.4444
2286.49	102.667
2288.43	94.8889
2290.36	104.667
2292.3	98.6667
2294.23	100
2296.16	97.7778
2298.09	98.4444
2300.03	99.7778
2301.96	98.6667
2303.89	97.7778
2305.82	97.7778
2307.75	101.333
2309.68	99.3333
2311.6	105.778
2313.53	98.6667
2315.46	102.667
2317.39	105.778
2319.31	100
2321.24	99.3333
2323.16	99.5556
2325.09	98.2222
2327.01	103.556
2328.93	101.556
2330.86	101.778
2332.78	103.111
2334.7	100.667
2336.62	96.8889
2338.54	101.556
2340.46	103.111
2342.38	101.111
2344.3	102.889
2346.22	102
2348.14	101.556
2350.05	101.333
2351.97	102.667
2353.89	97.3333
2355.8	96.4444
2357.71	100.444
2359.63	102
2361.54	101.556
2363.46	98.4444
2365.37	99.7778
2367.28	102.222
2369.19	100.222
2371.1	97.3333
2373.01	98.2222
2374.92	105.111
2376.83	95.7778
2378.74	98.6667
2380.65	101.778
2382.56	96.2222
2384.46	97.1111
2386.37	101.778
2388.27	103.778
2390.18	96.8889
2392.08	100
2393.99	98.8889
2395.89	98.4444
2397.8	104
2399.7	100.889
2401.6	101.333
2403.5	103.111
2405.4	102.889
2407.3	99.7778
2409.2	100.667
2411.1	101.333
2413	105.556
2414.9	100.444
2416.8	98.8889
2418.69	101.333
2420.59	97.1111
2422.48	98
2424.38	101.111
2426.28	102
2428.17	102.889
2430.06	101.556
2431.96	98.2222
2433.85	101.333
2435.74	102.222
2437.63	100
2439.52	105.778
2441.41	102
2443.3	100.667
2445.19	103.556
2447.08	99.7778
