178.677	495.333
181.278	506.222
183.879	504.889
186.48	498.222
189.078	503.556
191.677	497.778
194.275	502.444
196.871	511.778
199.467	506.889
202.061	518.889
204.656	503.333
207.248	511.333
209.841	512.222
212.431	514
215.022	515.333
217.613	514.222
220.201	523.111
222.789	520.222
225.375	536.889
227.962	521.556
230.547	518.444
233.13	525.778
235.714	529.778
238.296	535.111
240.879	534.667
243.459	538.444
246.04	525.111
248.618	541.778
251.196	535.333
253.774	542.889
256.35	538.889
258.927	537.556
261.501	549.778
264.074	535.333
266.648	542.444
269.22	540.889
271.791	541.556
274.362	537.778
276.931	537.778
279.5	535.111
282.069	546.444
284.635	544.222
287.201	542.444
289.766	540.444
292.331	540.444
294.894	537.111
297.457	541.556
300.018	553.778
302.58	554.444
305.14	548.889
307.699	545.556
310.257	558.444
312.814	558.444
315.372	550.667
317.928	558.222
320.482	555.556
323.036	552.444
325.589	563.778
328.142	565.111
330.693	566.889
333.243	570.889
335.795	566
338.343	579.333
340.891	574.444
343.439	571.111
345.985	582.889
348.53	587.111
351.075	589.111
353.619	582.444
356.162	569.778
358.704	582.889
361.245	581.556
363.786	576.889
366.325	584.889
368.864	578.889
371.402	584
373.939	597.111
376.475	605.778
379.011	623.556
381.545	623.111
384.079	611.556
386.612	596.667
389.144	582.222
391.674	591.111
394.204	591.333
396.734	563.111
399.263	582
401.791	580
404.318	582.222
406.844	576.444
409.368	584.444
411.893	576.667
414.417	586.444
416.94	582.222
419.462	602.889
421.982	585.778
424.502	600.889
427.022	603.333
429.541	602.222
432.057	594.889
434.574	613.333
437.091	613.778
439.606	613.333
442.12	609.333
444.634	609.111
447.147	593.111
449.657	591.778
452.169	595.778
454.68	606.444
457.188	606.667
459.697	607.333
462.205	605.556
464.711	609.333
467.217	589.556
469.722	588
472.227	584.667
474.731	604
477.232	593.333
479.735	596.444
482.235	602.667
484.736	596.889
487.234	594.889
489.734	610.444
492.23	586.889
494.728	598.889
497.223	590.889
499.719	604.222
502.213	610.667
504.707	601.333
507.199	592.444
509.692	591.111
512.182	588.889
514.673	608.667
517.162	611.778
519.65	624
522.139	609.556
524.625	593.778
527.112	597.333
529.597	591.111
532.081	587.333
534.565	593.778
537.047	600.444
539.529	585.111
542.011	602.889
544.491	598
546.97	590.889
549.45	602.444
551.927	604.889
554.404	593.333
556.88	595.333
559.356	596
561.831	604.444
564.304	604
566.777	603.111
569.25	603.778
571.721	594
574.191	605.111
576.661	600.667
579.129	596.889
581.599	594
584.066	613.556
586.532	595.555
588.997	588.667
591.462	594
593.926	610
596.389	602.444
598.851	604.667
601.314	592.667
603.775	615.333
606.235	602.667
608.694	608.889
611.152	600.667
613.609	611.333
616.066	602.889
618.522	614.667
620.977	604.222
623.431	601.111
625.885	604.222
628.338	601.333
630.79	600.222
633.241	604.889
635.691	610.444
638.141	599.111
640.589	612.444
643.036	612.445
645.483	598.222
647.929	604.444
650.375	609.778
652.82	607.333
655.264	600.889
657.707	599.333
660.149	604.444
662.59	602.222
665.031	599.556
667.471	602.889
669.91	592
672.349	599.111
674.786	594.444
677.222	591.111
679.658	602.222
682.093	590.889
684.528	600.667
686.96	601.333
689.393	598.889
691.826	598.667
694.256	603.333
696.686	605.111
699.116	589.556
701.545	604
703.972	599.556
706.4	597.778
708.826	592.667
711.251	616.889
713.676	618.222
716.099	608.222
718.523	599.778
720.946	602.889
723.366	602
725.788	597.333
728.207	605.555
730.627	605.556
733.044	586.889
735.462	588.444
737.88	600.222
740.295	595.333
742.711	590.667
745.125	589.555
747.539	601.111
749.951	601.778
752.363	595.333
754.775	589.556
757.185	596.889
759.595	587.333
762.003	588.444
764.412	588.445
766.819	590.222
769.225	595.778
771.632	594
774.036	597.111
776.441	606.667
778.844	590.222
781.246	595.778
783.649	597.778
786.05	586.667
788.449	612.889
790.85	594.222
793.248	602
795.646	596.222
798.042	595.778
800.44	596
802.835	581.333
805.23	593.778
807.623	595.111
810.018	582.889
812.41	588.444
814.801	592.222
817.192	588.667
819.582	588.444
821.972	589.333
824.361	595.778
826.748	594.222
829.135	589.111
831.521	586.667
833.907	585.556
836.291	576.667
838.675	602.222
841.059	589.778
843.442	587.111
845.823	583.111
848.204	581.778
850.584	590.222
852.963	585.333
855.342	584.444
857.72	589.111
860.097	596.222
862.473	581.778
864.848	584
867.223	581.111
869.597	586.222
871.97	577.556
874.343	589.111
876.714	580
879.084	589.111
881.454	587.111
883.824	592.222
886.192	590.889
888.56	601.778
890.927	599.555
893.294	594.889
895.66	594.889
898.023	593.556
900.387	590.222
902.751	590.222
905.114	595.778
907.476	582.222
909.835	594
912.196	588.889
914.555	589.778
916.914	593.333
919.271	583.778
921.629	581.778
923.985	583.111
926.341	582.444
928.695	588.444
931.05	574.889
933.404	579.333
935.755	576.222
938.107	581.111
940.459	582.222
942.808	574.889
945.158	580.222
947.508	569.778
949.855	576
952.202	574.444
954.548	574.667
956.894	574
959.239	586.222
961.583	586.444
963.928	578
966.27	580.667
968.612	591.778
970.953	587.333
973.294	584.222
975.633	592.222
977.972	582.222
980.31	588.222
982.647	578.444
984.984	575.333
987.32	588.444
989.656	580
991.989	587.111
994.324	598.222
996.656	592.667
998.988	615.111
1001.32	611.333
1003.65	589.111
1005.98	575.111
1008.31	571.111
1010.64	575.556
1012.97	579.778
1015.29	579.555
1017.62	587.111
1019.94	585.111
1022.27	596.667
1024.59	596.889
1026.92	591.778
1029.24	582.444
1031.56	585.111
1033.88	584.667
1036.2	585.778
1038.52	593.333
1040.84	581.778
1043.16	575.333
1045.48	587.333
1047.79	590
1050.11	591.111
1052.42	592
1054.74	598.667
1057.05	593.333
1059.36	595.778
1061.67	600.889
1063.99	586.667
1066.3	590.667
1068.61	599.333
1070.92	601.111
1073.22	614
1075.53	607.556
1077.84	607.556
1080.15	604.667
1082.45	616
1084.76	618.222
1087.06	600
1089.36	617.111
1091.66	622.667
1093.97	642.889
1096.27	666.667
1098.57	650.444
1100.87	630.667
1103.17	624.222
1105.46	616.222
1107.76	625.333
1110.06	614.222
1112.35	620.444
1114.65	615.333
1116.94	624.889
1119.24	634
1121.53	633.333
1123.82	630.889
1126.11	626
1128.4	618.222
1130.7	613.778
1132.98	598.667
1135.27	597.111
1137.56	598.444
1139.85	580.889
1142.13	587.556
1144.42	587.778
1146.71	585.778
1148.99	602
1151.27	587.333
1153.56	599.778
1155.84	594.444
1158.12	594.889
1160.4	586
1162.68	574.222
1164.96	580.667
1167.24	568.667
1169.51	569.778
1171.79	567.111
1174.07	560.444
1176.34	570.222
1178.62	564.889
1180.89	561.111
1183.17	560.667
1185.44	565.333
1187.71	554.444
1189.98	557.111
1192.25	566.444
1194.52	545.778
1196.79	554.889
1199.06	557.556
1201.33	560.444
1203.59	551.556
1205.86	550.889
1208.12	557.333
1210.39	552.889
1212.65	544.444
1214.92	549.778
1217.18	560.889
1219.44	549.778
1221.7	554.222
1223.96	544
1226.22	558
1228.48	550.667
1230.74	562
1233	551.556
1235.25	557.111
1237.51	554.445
1239.77	559.778
1242.02	562.222
1244.27	556.222
1246.53	562.222
1248.78	569.111
1251.03	560.667
1253.28	552.444
1255.53	554.667
1257.78	547.111
1260.03	560.222
1262.28	554.667
1264.53	558.222
1266.78	552.444
1269.02	568.667
1271.27	553.556
1273.51	554.667
1275.76	558.222
1278	558.889
1280.24	561.778
1282.48	561.111
1284.72	555.333
1286.97	555.333
1289.21	552.889
1291.44	570.444
1293.68	566
1295.92	566.889
1298.16	556.444
1300.39	554.667
1302.63	559.333
1304.86	558.889
1307.1	555.778
1309.33	566.445
1311.56	562.667
1313.8	557.333
1316.03	559.556
1318.26	561.333
1320.49	557.556
1322.72	556.444
1324.95	558.667
1327.17	570.444
1329.4	560
1331.63	554.444
1333.85	571.333
1336.08	574
1338.3	575.333
1340.53	566.667
1342.75	558.667
1344.97	564.667
1347.19	552.222
1349.41	563.778
1351.63	558.889
1353.85	558.222
1356.07	559.333
1358.29	559.111
1360.51	559.556
1362.72	564.667
1364.94	570.444
1367.16	561.111
1369.37	562.667
1371.58	586
1373.8	576.889
1376.01	572.222
1378.22	579.556
1380.43	582
1382.64	581.556
1384.85	563.778
1387.06	556.444
1389.27	572.444
1391.48	574.667
1393.68	554.667
1395.89	550
1398.1	561.333
1400.3	553.333
1402.51	550.444
1404.71	555.111
1406.91	546.889
1409.11	553.556
1411.32	556.667
1413.52	545.778
1415.72	546.667
1417.92	547.778
1420.11	539.333
1422.31	543.333
1424.51	546.222
1426.71	538.444
1428.9	546.667
1431.1	528.667
1433.29	542.889
1435.49	543.111
1437.68	543.778
1439.87	532.889
1442.06	547.111
1444.25	539.556
1446.45	540.889
1448.64	538
1450.82	540.667
1453.01	531.333
1455.2	542.667
1457.39	528.444
1459.57	531.333
1461.76	535.556
1463.94	536
1466.13	543.778
1468.31	541.111
1470.5	540.667
1472.68	541.333
1474.86	541.333
1477.04	534
1479.22	552.667
1481.4	544.889
1483.58	529.111
1485.76	536.444
1487.94	527.111
1490.11	521.333
1492.29	516
1494.46	525.778
1496.64	523.778
1498.81	512.667
1500.99	525.778
1503.16	518.222
1505.33	510
1507.5	517.111
1509.67	502.667
1511.84	520.667
1514.01	510.222
1516.18	514.222
1518.35	511.778
1520.52	512.889
1522.68	518
1524.85	513.778
1527.02	513.111
1529.18	513.333
1531.35	511.556
1533.51	511.778
1535.67	517.778
1537.83	509.333
1539.99	526.667
1542.16	500.444
1544.31	511.556
1546.47	508.222
1548.63	515.778
1550.79	502.222
1552.95	511.111
1555.11	500
1557.26	508
1559.42	510.667
1561.57	512.444
1563.73	512.889
1565.88	514.667
1568.03	508.667
1570.18	516.222
1572.34	516
1574.49	531.556
1576.64	531.333
1578.79	536.667
1580.93	527.111
1583.08	530.889
1585.23	516.222
1587.38	518.444
1589.52	516.889
1591.67	510
1593.81	509.111
1595.96	508.667
1598.1	496.667
1600.24	505.778
1602.38	506.222
1604.53	506
1606.67	518.889
1608.81	503.556
1610.95	502.222
1613.09	518.444
1615.22	500
1617.36	495.333
1619.5	495.333
1621.63	501.778
1623.77	498.444
1625.9	497.556
1628.04	503.333
1630.17	494.444
1632.3	494.444
1634.44	490.667
1636.57	501.556
1638.7	494.444
1640.83	502.222
1642.96	494.222
1645.09	490.889
1647.22	494.222
1649.34	494.667
1651.47	485.556
1653.6	496.667
1655.72	498.889
1657.85	487.556
1659.97	500.667
1662.1	487.333
1664.22	489.556
1666.34	495.556
1668.46	498.667
1670.58	482.444
1672.7	490
1674.82	488.667
1676.94	498.444
1679.06	494.222
1681.18	490.444
1683.3	493.556
1685.41	498.889
1687.53	494.889
1689.64	493.111
1691.76	488.444
1693.87	491.556
1695.99	487.778
1698.1	487.778
1700.21	481.333
1702.32	491.778
1704.43	483.333
1706.54	483.333
1708.65	482.667
1710.76	491.778
1712.87	477.333
1714.98	484.222
1717.08	480.889
1719.19	466.889
1721.29	481.333
1723.4	473.778
1725.5	481.556
1727.61	484.444
1729.71	473.556
1731.81	482.889
1733.91	479.778
1736.02	479.111
1738.12	480.667
1740.22	468.444
1742.31	472.889
1744.41	466.667
1746.51	468.444
1748.61	469.111
1750.7	472.222
1752.8	461.778
1754.9	472.889
1756.99	460.444
1759.08	476.222
1761.18	471.333
1763.27	469.111
1765.36	471.111
1767.45	461.778
1769.54	462.667
1771.63	461.333
1773.72	465.111
1775.81	462.889
1777.9	472
1779.99	468.222
1782.08	468
1784.16	473.333
1786.25	461.333
1788.33	463.556
1790.42	463.333
1792.5	470
1794.58	466.222
1796.67	465.778
1798.75	461.778
1800.83	459.556
1802.91	452.667
1804.99	467.778
1807.07	450.444
1809.15	456
1811.23	458.889
1813.3	460.444
1815.38	461.333
1817.46	467.778
1819.53	462.444
1821.61	458.889
1823.68	461.111
1825.75	467.111
1827.83	458
1829.9	456.444
1831.97	460.889
1834.04	449.778
1836.11	445.111
1838.18	453.333
1840.25	455.333
1842.32	457.111
1844.39	454.222
1846.46	447.333
1848.52	455.556
1850.59	446.889
1852.65	441.333
1854.72	444.222
1856.78	457.778
1858.85	439.556
1860.91	444
1862.97	444.222
1865.03	443.111
1867.09	444.222
1869.16	445.778
1871.22	442.222
1873.27	440.667
1875.33	440.889
1877.39	448
1879.45	451.111
1881.51	439.333
1883.56	432.889
1885.62	444.222
1887.67	431.778
1889.73	433.556
1891.78	430.667
1893.83	439.111
1895.89	444
1897.94	441.111
1899.99	440.444
1902.04	435.111
1904.09	430.444
1906.14	439.778
1908.19	435.333
1910.23	436.444
1912.28	440.444
1914.33	432.889
1916.37	438.444
1918.42	430
1920.46	431.556
1922.51	427.778
1924.55	444.222
1926.6	444.667
1928.64	424.667
1930.68	425.111
1932.72	440
1934.76	434.222
1936.8	428
1938.84	423.556
1940.88	421.333
1942.92	431.333
1944.96	419.778
1946.99	426.222
1949.03	435.333
1951.06	426.667
1953.1	422.667
1955.13	422.889
1957.17	424.667
1959.2	415.778
1961.23	423.778
1963.27	420.889
1965.3	425.556
1967.33	411.333
1969.36	416.222
1971.39	412.667
1973.42	406.444
1975.44	420.444
1977.47	416.667
1979.5	414.667
1981.53	419.556
1983.55	410.222
1985.58	420.444
1987.6	408.444
1989.63	410
1991.65	405.111
1993.67	410
1995.69	411.111
1997.72	400.889
1999.74	415.556
2001.76	405.111
2003.78	396.222
2005.8	412.444
2007.82	412
2009.83	417.333
2011.85	407.778
2013.87	408.667
2015.88	399.778
2017.9	413.111
2019.91	405.333
2021.93	408.889
2023.94	405.333
2025.96	407.778
2027.97	412.667
2029.98	404.667
2031.99	413.333
2034	406
2036.01	395.778
2038.02	414.667
2040.03	411.778
2042.04	405.778
2044.05	407.111
2046.05	395.556
2048.06	412.222
2050.07	404.889
2052.07	401.556
2054.08	399.333
2056.08	404
2058.08	399.111
2060.09	398
2062.09	397.111
2064.09	390.889
2066.09	400.667
2068.09	397.556
2070.09	398.444
2072.09	397.111
2074.09	388.444
2076.09	398.667
2078.09	393.333
2080.08	389.556
2082.08	388.444
2084.08	386.444
2086.07	394.667
2088.07	384.667
2090.06	385.556
2092.05	394.444
2094.05	387.778
2096.04	386.222
2098.03	388
2100.02	388.889
2102.01	381.111
2104	385.556
2105.99	386.667
2107.98	377.778
2109.97	390.444
2111.95	385.333
2113.94	377.778
2115.93	379.778
2117.91	386.222
2119.9	378.889
2121.88	380.444
2123.87	370.889
2125.85	383.333
2127.83	375.111
2129.81	375.556
2131.8	377.556
2133.78	373.778
2135.76	376.667
2137.74	375.333
2139.72	376.222
2141.69	375.333
2143.67	369.778
2145.65	375.556
2147.63	385.778
2149.6	368
2151.58	370.444
2153.55	376
2155.53	371.778
2157.5	367.111
2159.48	362.444
2161.45	361.333
2163.42	367.111
2165.39	370.667
2167.36	367.111
2169.33	368.222
2171.3	366.889
2173.27	362.444
2175.24	366
2177.21	365.111
2179.18	369.556
2181.14	359.556
2183.11	368
2185.07	360.222
2187.04	346.444
2189	363.778
2190.97	360
2192.93	365.333
2194.89	352.444
2196.86	352.889
2198.82	355.111
2200.78	357.556
2202.74	354.444
2204.7	349.111
2206.66	354.667
2208.62	357.778
2210.57	350
2212.53	347.333
2214.49	350.444
2216.45	351.778
2218.4	351.778
2220.36	345.556
2222.31	344.222
2224.27	353.556
2226.22	357.333
2228.17	359.778
2230.12	351.778
2232.08	346
2234.03	345.778
2235.98	349.333
2237.93	341.778
2239.88	348.889
2241.83	345.111
2243.78	349.333
2245.72	348.444
2247.67	340.222
2249.62	344.667
2251.56	340.667
2253.51	341.556
2255.45	343.778
2257.4	340.667
2259.34	342.889
2261.28	341.111
2263.23	326.444
2265.17	343.556
2267.11	341.778
2269.05	339.556
2270.99	334.222
2272.93	341.111
2274.87	339.556
2276.81	336.889
2278.75	339.556
2280.68	317.556
2282.62	329.111
2284.56	331.333
2286.49	337.556
2288.43	331.333
2290.36	330.889
2292.3	323.778
2294.23	326.667
2296.16	323.111
2298.09	329.111
2300.03	332.667
2301.96	324
2303.89	323.778
2305.82	324
2307.75	325.333
2309.68	326.667
2311.6	331.333
2313.53	323.333
2315.46	335.778
2317.39	328.222
2319.31	323.333
2321.24	325.333
2323.16	328.444
2325.09	317.111
2327.01	326.222
2328.93	325.111
2330.86	321.111
2332.78	324.444
2334.7	319.778
2336.62	323.333
2338.54	314.889
2340.46	310.222
2342.38	318.667
2344.3	316.222
2346.22	315.556
2348.14	311.556
2350.05	320.667
2351.97	310.222
2353.89	309.778
2355.8	319.111
2357.71	313.333
2359.63	311.556
2361.54	300.222
2363.46	315.556
2365.37	312.889
2367.28	304.222
2369.19	313.333
2371.1	312
2373.01	310.444
2374.92	306.444
2376.83	310.222
2378.74	299.111
2380.65	310.667
2382.56	306.889
2384.46	314.667
2386.37	302.222
2388.27	307.111
2390.18	302.222
2392.08	303.778
2393.99	303.333
2395.89	300.444
2397.8	296.889
2399.7	300.667
2401.6	295.778
2403.5	300
2405.4	297.333
2407.3	298.667
2409.2	296.222
2411.1	298.222
2413	297.333
2414.9	296.444
2416.8	286.444
2418.69	301.556
2420.59	299.111
2422.48	299.556
2424.38	294
2426.28	289.333
2428.17	296.889
2430.06	296.667
2431.96	292.444
2433.85	291.556
2435.74	292.889
2437.63	297.556
2439.52	296
2441.41	283.778
2443.3	289.778
2445.19	287.333
2447.08	292
