176.817	585.556
179.42	579.333
182.022	578.222
184.622	570.667
187.223	565.556
189.821	572.222
192.419	566.889
195.017	563.333
197.612	557.111
200.208	575.333
202.802	566.444
205.397	580.444
207.99	581.778
210.581	580
213.173	582
215.762	581.111
218.352	588.667
220.94	589.556
223.528	600.667
226.114	594
228.701	590.444
231.285	618.667
233.87	618.889
236.452	628.444
239.034	628.222
241.616	620.222
244.196	633.778
246.777	647.556
249.355	642.889
251.933	638.667
254.511	648.889
257.086	640.444
259.663	625.111
262.237	638
264.81	655.778
267.383	632
269.955	643.778
272.525	627.111
275.097	623.111
277.665	627.333
280.234	617.333
282.802	613.778
285.368	615.333
287.934	611.111
290.499	598.222
293.064	613.778
295.627	610.444
298.189	609.333
300.75	620.667
303.312	603.333
305.871	600.444
308.43	605.111
310.988	600.444
313.545	591.333
316.101	577.111
318.658	577.778
321.212	574
323.766	572.222
326.319	565.111
328.871	574.889
331.422	567.778
333.972	580.222
336.522	580.889
339.072	563.778
341.619	562.222
344.166	573.556
346.712	584.444
349.258	569.556
351.802	577.778
354.346	582.889
356.888	562.222
359.43	575.333
361.971	566.444
364.511	576.444
367.051	577.555
369.589	564.444
372.127	568.222
374.664	599.111
377.2	596.222
379.735	612.222
382.27	616.889
384.802	612
387.334	582.222
389.866	565.778
392.397	568.444
394.927	555.333
397.457	563.556
399.985	570
402.513	568.445
405.038	574.444
407.565	576.889
410.09	573.556
412.614	575.778
415.138	571.778
417.66	576.889
420.181	569.778
422.702	564.667
425.222	582.889
427.742	580
430.259	586.222
432.777	587.111
435.294	600.444
437.81	602
440.324	600.444
442.838	594.222
445.352	580.667
447.863	588.667
450.375	575.778
452.887	583.111
455.395	581.333
457.905	594
460.414	600
462.92	588.444
465.427	582
467.932	580.222
470.438	571.778
472.942	565.556
475.445	583.778
477.948	591.111
480.448	584.222
482.95	580.444
485.449	584.222
487.949	576.889
490.446	584.889
492.944	575.778
495.44	581.555
497.937	576.889
500.431	570.222
502.926	571.556
505.418	578.444
507.912	576.444
510.403	577.111
512.894	577.333
515.384	588.889
517.874	587.556
520.361	593.556
522.848	596.889
525.336	588.667
527.821	600
530.306	587.111
532.791	585.111
535.274	580.444
537.756	567.333
540.238	586
542.719	569.333
545.199	587.556
547.679	573.778
550.157	579.333
552.634	588.667
555.112	582.222
557.588	582.444
560.063	585.111
562.537	589.111
565.011	580.222
567.484	586.889
569.955	598.667
572.426	583.778
574.896	587.778
577.367	580
579.835	591.778
582.303	592.222
584.77	587.778
587.236	585.778
589.701	583.778
592.165	592.222
594.629	598
597.093	589.556
599.555	604.222
602.016	602.444
604.477	593.778
606.936	594
609.395	603.333
611.853	607.111
614.311	610.222
616.767	606.445
619.223	611.111
621.678	607.111
624.132	604.667
626.585	599.111
629.037	609.555
631.489	597.778
633.94	604.444
636.39	607.556
638.839	601.111
641.288	603.778
643.736	590.444
646.183	593.778
648.627	609.111
651.073	612.444
653.517	597.111
655.961	592.444
658.404	593.333
660.846	588.889
663.288	599.333
665.727	595.556
668.167	590.444
670.606	603.333
673.044	600.889
675.482	584.222
677.917	599.556
680.353	583.778
682.788	602
685.222	593.333
687.655	596.444
690.087	604.889
692.519	594.667
694.951	603.111
697.38	597.778
699.809	604.222
702.238	602.667
704.665	598
707.092	613.556
709.519	615.778
711.943	612.889
714.368	599.556
716.791	601.556
719.214	609.333
721.637	598.222
724.058	598.222
726.479	603.556
728.898	592.667
731.317	601.111
733.734	590.222
736.152	600.444
738.568	596
740.985	594.222
743.399	596.222
745.814	600.667
748.227	596.444
750.64	590.444
753.051	584.889
755.463	589.111
757.872	575.778
760.283	591.111
762.691	591.111
765.098	586.889
767.506	597.333
769.912	588.889
772.318	593.111
774.722	590.444
777.126	589.778
779.53	601.778
781.932	598.667
784.333	588
786.735	590.222
789.135	603.333
791.533	590.444
793.933	594.667
796.33	595.333
798.727	595.111
801.123	606.667
803.519	597.333
805.913	599.556
808.307	607.556
810.699	604.444
813.093	604.444
815.484	613.556
817.874	606
820.264	611.111
822.653	614
825.041	615.333
827.43	604.222
829.817	592.889
832.203	604.889
834.588	597.778
836.972	608
839.356	607.778
841.738	603.778
844.12	598.222
846.502	604
848.882	608
851.262	604.889
853.641	618.889
856.02	622.667
858.397	627.778
860.774	641.333
863.15	639.556
865.525	628.667
867.9	627.778
870.273	620.889
872.646	619.333
875.019	632.222
877.39	625.556
879.761	631.778
882.131	615.778
884.5	623.333
886.869	613.333
889.236	620.889
891.602	606.444
893.968	610
896.334	613.111
898.698	618.667
901.062	623.333
903.426	615.778
905.787	603.556
908.148	606.222
910.509	603.778
912.87	607.111
915.228	601.556
917.587	610.444
919.945	594.889
922.302	605.333
924.657	617.778
927.013	606.444
929.368	612.667
931.721	606.667
934.074	589.778
936.427	596
938.778	599.556
941.129	610.444
943.479	601.778
945.828	595.556
948.177	602.444
950.524	602
952.871	604.222
955.218	604
957.563	604.444
959.908	606
962.252	606.667
964.595	614.667
966.937	603.333
969.28	598.667
971.62	617.111
973.961	606.444
976.3	611.111
978.639	614.889
980.976	609.111
983.314	604
985.65	599.111
987.987	607.111
990.321	606.889
992.655	613.333
994.989	610.444
997.321	607.333
999.653	609.556
1001.98	621.556
1004.31	608.667
1006.65	602.222
1008.97	596.444
1011.3	608.444
1013.63	596.667
1015.96	611.333
1018.28	612.222
1020.61	614
1022.93	605.111
1025.26	617.556
1027.58	609.556
1029.9	616.667
1032.22	610.667
1034.54	622.222
1036.86	614.889
1039.18	606.222
1041.5	612
1043.82	625.555
1046.14	621.556
1048.45	621.556
1050.77	638
1053.08	624.222
1055.4	640.889
1057.71	629.556
1060.02	639.333
1062.33	639.333
1064.64	629.556
1066.96	641.556
1069.27	636.889
1071.57	634.444
1073.88	640.667
1076.19	645.333
1078.5	638
1080.8	644.445
1083.11	645.111
1085.41	646.889
1087.72	664.444
1090.02	678.889
1092.32	691.333
1094.62	715.556
1096.92	737.111
1099.22	730.444
1101.52	709.111
1103.82	698
1106.12	678.889
1108.42	673.778
1110.71	682.889
1113.01	673.111
1115.3	681.778
1117.6	688
1119.89	699.111
1122.18	703.556
1124.48	698.667
1126.77	697.778
1129.06	688
1131.35	679.556
1133.64	677.778
1135.93	667.778
1138.21	666.222
1140.5	661.333
1142.79	666.222
1145.07	673.778
1147.36	672.444
1149.64	682.222
1151.92	693.111
1154.21	711.111
1156.49	713.333
1158.77	704.889
1161.05	710.444
1163.33	698
1165.61	685.555
1167.89	671.333
1170.16	665.778
1172.44	664.889
1174.72	670.889
1176.99	671.333
1179.27	672.444
1181.54	657.556
1183.81	658.667
1186.09	662.889
1188.36	654
1190.63	666.889
1192.9	666.667
1195.17	678.889
1197.44	685.333
1199.71	674
1201.97	673.333
1204.24	678
1206.5	676.667
1208.77	674.667
1211.03	678.444
1213.3	682.222
1215.56	681.556
1217.82	696.444
1220.09	699.111
1222.35	689.778
1224.61	704
1226.87	710
1229.12	703.778
1231.38	700.222
1233.64	722.222
1235.9	704.667
1238.15	724.667
1240.41	720.667
1242.66	729.778
1244.92	719.778
1247.17	729.556
1249.42	742.222
1251.67	747.556
1253.92	742.444
1256.17	748.222
1258.42	762.889
1260.67	768.667
1262.92	787.778
1265.17	778.889
1267.42	780.444
1269.66	771.333
1271.91	769.333
1274.15	773.556
1276.39	748.889
1278.64	755.556
1280.88	738.667
1283.12	738
1285.36	744
1287.6	722.222
1289.84	724.444
1292.08	744
1294.32	743.556
1296.56	738
1298.79	735.333
1301.03	741.333
1303.26	731.111
1305.5	733.333
1307.73	734.889
1309.97	723.111
1312.2	739.111
1314.43	750.667
1316.66	736.222
1318.89	741.111
1321.12	735.333
1323.35	749.556
1325.58	754.667
1327.81	756.222
1330.03	763.333
1332.26	766.444
1334.49	785.333
1336.71	788
1338.94	798.222
1341.16	787.556
1343.38	796
1345.6	780.444
1347.83	792.222
1350.05	793.333
1352.27	817.556
1354.49	805.111
1356.7	809.333
1358.92	852
1361.14	905.111
1363.36	952.889
1365.57	1028.67
1367.79	1079.33
1370	1108.22
1372.21	1090.44
1374.43	1072.44
1376.64	1021.11
1378.85	988.667
1381.06	953.111
1383.27	917.333
1385.48	906
1387.69	872.444
1389.9	852.222
1392.11	845.556
1394.31	820.444
1396.52	795.111
1398.73	787.111
1400.93	777.333
1403.13	769.111
1405.34	757.333
1407.54	771.111
1409.74	771.778
1411.94	761.556
1414.14	765.111
1416.34	766.222
1418.54	762.667
1420.74	758
1422.94	771.333
1425.14	751.778
1427.33	748
1429.53	745.111
1431.72	748.889
1433.92	744
1436.11	755.556
1438.3	759.778
1440.5	755.556
1442.69	770.667
1444.88	770.444
1447.07	798.222
1449.26	816.667
1451.45	836
1453.64	834.222
1455.82	839.556
1458.01	838.889
1460.2	814.222
1462.38	794.889
1464.57	778
1466.75	772.667
1468.93	756.667
1471.12	752.667
1473.3	756.889
1475.48	750
1477.66	752.222
1479.84	751.111
1482.02	749.556
1484.2	749.778
1486.38	731.111
1488.55	738.889
1490.73	738.667
1492.91	732.667
1495.08	728.667
1497.26	730.222
1499.43	723.333
1501.61	714.667
1503.78	732.222
1505.95	723.333
1508.12	722.667
1510.29	718
1512.46	733.111
1514.63	726.222
1516.8	733.111
1518.97	741.556
1521.14	732.889
1523.3	748
1525.47	728.222
1527.63	736
1529.8	742.444
1531.96	742.444
1534.12	762.889
1536.29	756.444
1538.45	752
1540.61	754.222
1542.77	767.556
1544.93	766
1547.09	774.222
1549.25	776.444
1551.41	780.889
1553.56	796.889
1555.72	795.556
1557.88	787.333
1560.03	793.778
1562.18	797.778
1564.34	816.889
1566.49	807.111
1568.64	812
1570.8	806.222
1572.95	788.444
1575.1	799.556
1577.25	797.333
1579.4	805.778
1581.55	804.889
1583.69	816.445
1585.84	822.889
1587.99	814.444
1590.13	811.556
1592.28	814
1594.42	792.667
1596.57	787.333
1598.71	792.667
1600.85	795.778
1602.99	781.333
1605.14	774.889
1607.28	771.556
1609.42	756.222
1611.56	762
1613.69	762
1615.83	753.111
1617.97	735.333
1620.11	713.556
1622.24	722.889
1624.38	713.111
1626.51	687.333
1628.65	683.778
1630.78	683.333
1632.91	677.111
1635.04	663.778
1637.17	663.111
1639.31	640.444
1641.44	644.667
1643.57	643.111
1645.69	632.889
1647.82	621.333
1649.95	630.444
1652.08	626.222
1654.2	611.111
1656.33	613.555
1658.45	612
1660.58	596.889
1662.7	593.778
1664.82	592.222
1666.94	596.222
1669.07	586.222
1671.19	578
1673.31	562
1675.43	574.889
1677.55	562.444
1679.66	570.889
1681.78	565.333
1683.9	563.778
1686.01	563.778
1688.13	554.667
1690.25	554
1692.36	564.667
1694.47	560.222
1696.59	546.444
1698.7	546.222
1700.81	555.556
1702.92	540.444
1705.03	551.556
1707.14	537.778
1709.25	547.333
1711.36	548.222
1713.47	544
1715.58	530.222
1717.68	546.222
1719.79	548
1721.89	540.444
1724	528.889
1726.1	521.556
1728.21	522
1730.31	526
1732.41	521.333
1734.51	520.445
1736.61	526.667
1738.71	530.444
1740.81	514.444
1742.91	518.667
1745.01	510.889
1747.11	520.222
1749.2	508
1751.3	518.222
1753.4	511.333
1755.49	509.556
1757.59	509.111
1759.68	515.556
1761.77	518.222
1763.86	513.111
1765.96	498.889
1768.05	508.444
1770.14	505.556
1772.23	494.889
1774.32	502.889
1776.41	492
1778.49	503.333
1780.58	493.333
1782.67	495.778
1784.76	489.333
1786.84	495.778
1788.92	495.556
1791.01	500.444
1793.09	496.222
1795.18	495.333
1797.26	490.667
1799.34	490.889
1801.42	496.222
1803.5	498
1805.58	489.556
1807.66	490.222
1809.74	486.222
1811.82	492
1813.89	484.667
1815.97	489.333
1818.05	486.222
1820.12	491.111
1822.2	491.556
1824.27	484.889
1826.34	476.667
1828.42	477.333
1830.49	473.778
1832.56	478.667
1834.63	483.556
1836.7	483.333
1838.77	479.778
1840.84	472.222
1842.91	468.444
1844.98	470
1847.04	481.333
1849.11	489.556
1851.18	472
1853.24	476
1855.31	462.667
1857.37	465.111
1859.43	471.778
1861.5	475.778
1863.56	460.889
1865.62	464.222
1867.68	462.889
1869.74	467.333
1871.8	463.333
1873.86	471.778
1875.92	466.222
1877.98	470.667
1880.03	453.111
1882.09	469.111
1884.15	464.222
1886.2	476.889
1888.26	461.333
1890.31	467.778
1892.36	460.889
1894.42	461.111
1896.47	463.778
1898.52	460.889
1900.57	453.556
1902.62	464.222
1904.67	467.556
1906.72	461.778
1908.77	460.889
1910.82	461.333
1912.86	462.667
1914.91	453.111
1916.96	461.778
1919	457.333
1921.04	460.444
1923.09	466.889
1925.13	459.556
1927.18	457.333
1929.22	459.778
1931.26	451.111
1933.3	469.333
1935.34	456.222
1937.38	454.667
1939.42	453.111
1941.46	442.667
1943.5	444.889
1945.53	452.667
1947.57	450
1949.61	447.556
1951.64	441.778
1953.68	438.444
1955.71	441.333
1957.75	448
1959.78	450.444
1961.81	444.889
1963.84	444.222
1965.87	442
1967.9	446.667
1969.93	435.556
1971.96	433.111
1973.99	438.889
1976.02	438.667
1978.05	441.556
1980.07	443.556
1982.1	439.778
1984.13	440
1986.15	434.222
1988.18	444.667
1990.2	439.111
1992.22	441.778
1994.25	437.333
1996.27	437.111
1998.29	436.444
2000.31	437.778
2002.33	435.556
2004.35	436.667
2006.37	432.444
2008.39	438.222
2010.41	429.111
2012.42	429.556
2014.44	436.889
2016.46	432.444
2018.47	437.556
2020.49	430.889
2022.5	439.556
2024.51	427.333
2026.53	437.111
2028.54	436.889
2030.55	438.667
2032.56	429.556
2034.57	427.333
2036.58	424.889
2038.59	431.556
2040.6	426.222
2042.61	433.111
2044.62	437.778
2046.62	432.889
2048.63	420
2050.64	423.556
2052.64	423.111
2054.65	426
2056.65	429.111
2058.65	424.889
2060.66	426.222
2062.66	427.778
2064.66	425.556
2066.66	422.222
2068.66	425.556
2070.66	423.556
2072.66	427.778
2074.66	419.556
2076.66	424.222
2078.65	418.667
2080.65	416.222
2082.65	423.778
2084.64	410.889
2086.64	417.778
2088.63	415.778
2090.63	412.667
2092.62	418.889
2094.61	422.889
2096.6	412
2098.59	417.556
2100.59	411.778
2102.58	424.889
2104.56	422.222
2106.55	420.222
2108.54	417.111
2110.53	418
2112.52	412.667
2114.5	418
2116.49	421.778
2118.48	429.333
2120.46	424.222
2122.44	437.778
2124.43	445.333
2126.41	429.556
2128.39	444.667
2130.38	447.111
2132.36	446.444
2134.34	441.556
2136.32	450.444
2138.3	447.556
2140.28	444.889
2142.26	453.778
2144.23	444
2146.21	448.889
2148.19	441.333
2150.16	440.889
2152.14	434.222
2154.11	430.444
2156.09	427.111
2158.06	439.111
2160.04	433.778
2162.01	431.778
2163.98	424.222
2165.95	412
2167.92	416.667
2169.89	421.333
2171.86	417.333
2173.83	409.111
2175.8	418.444
2177.77	404.222
2179.73	406.667
2181.7	406.667
2183.67	410.889
2185.63	399.333
2187.6	398.222
2189.56	400.889
2191.53	388.444
2193.49	394
2195.45	399.111
2197.41	388
2199.37	393.556
2201.34	389.333
2203.29	389.111
2205.26	392.889
2207.21	389.556
2209.17	386.222
2211.13	386.889
2213.09	381.778
2215.05	396.667
2217	380.889
2218.96	386
2220.91	387.111
2222.87	390.222
2224.82	391.111
2226.77	384.222
2228.73	385.778
2230.68	379.111
2232.63	377.778
2234.58	386.667
2236.53	383.111
2238.48	378
2240.43	376.667
2242.38	376
2244.33	380.667
2246.27	377.333
2248.22	384.889
2250.17	378.667
2252.11	372.222
2254.06	365.111
2256	372.889
2257.95	375.778
2259.89	371.556
2261.84	359.333
2263.78	367.111
2265.72	367.556
2267.66	362.444
2269.6	364.889
2271.54	360.889
2273.48	359.556
2275.42	361.778
2277.36	367.778
2279.3	365.778
2281.23	351.778
2283.17	356.667
2285.11	356.667
2287.04	356.222
2288.98	357.333
2290.91	348.667
2292.84	356.444
2294.78	358.222
2296.71	362.444
2298.64	363.778
2300.57	358.889
2302.51	356.444
2304.44	353.778
2306.37	346.667
2308.29	361.111
2310.22	354.222
2312.15	348.222
2314.08	354.444
2316.01	347.778
2317.93	355.333
2319.86	346.889
2321.78	344.444
2323.71	348.889
2325.63	347.778
2327.56	344
2329.48	348.444
2331.4	338.222
2333.32	352.222
2335.25	345.111
2337.17	350.444
2339.09	342.667
2341.01	336.667
2342.92	347.111
2344.84	345.111
2346.76	348.889
2348.68	334.667
2350.6	338.222
2352.51	341.556
2354.43	342.667
2356.34	336
2358.26	330.889
2360.17	340.889
2362.09	341.778
2364	332.444
2365.91	338.222
2367.82	327.778
2369.73	331.556
2371.64	332.444
2373.55	335.333
2375.46	336.444
2377.37	334.667
2379.28	334.222
2381.19	328.444
2383.1	330.444
2385	330.444
2386.91	331.556
2388.82	332
2390.72	326.444
2392.62	335.333
2394.53	335.333
2396.43	322.667
2398.33	320.889
2400.24	337.556
2402.14	327.778
2404.04	326.889
2405.94	322.667
2407.84	323.556
2409.74	333.111
2411.64	323.556
2413.54	330.667
2415.44	325.111
2417.33	324.667
2419.23	318.444
2421.13	323.778
2423.02	330
2424.92	321.778
2426.81	324.222
2428.71	319.333
2430.6	320.444
2432.49	315.556
2434.38	319.778
2436.28	324
2438.17	319.333
2440.06	315.111
2441.95	311.556
2443.84	320.889
2445.73	322.444
