176.817	542.889
179.42	533.778
182.022	530.222
184.622	544.444
187.223	527.333
189.821	529.555
192.419	522.889
195.017	525.556
197.612	532.222
200.208	544.667
202.802	540.222
205.397	542.222
207.99	538.444
210.581	542.889
213.173	521.556
215.762	539.556
218.352	552.444
220.94	540.222
223.528	546.889
226.114	559.333
228.701	557.111
231.285	541.333
233.87	566.444
236.452	558
239.034	566
241.616	570
244.196	578.222
246.777	572
249.355	582.444
251.933	583.333
254.511	585.778
257.086	590
259.663	587.111
262.237	584
264.81	594.222
267.383	592
269.955	586.444
272.525	577.556
275.097	565.555
277.665	574.889
280.234	577.778
282.802	566.222
285.368	564.667
287.934	560
290.499	562
293.064	571.111
295.627	572
298.189	563.778
300.75	566.667
303.312	556.889
305.871	567.111
308.43	569.556
310.988	563.778
313.545	555.778
316.101	555.556
318.658	558.889
321.212	554.444
323.766	544.222
326.319	558
328.871	560
331.422	559.778
333.972	567.333
336.522	559.333
339.072	558.667
341.619	555.333
344.166	565.778
346.712	548.889
349.258	563.556
351.802	561.778
354.346	564.889
356.888	574.444
359.43	561.556
361.971	558.889
364.511	559.778
367.051	559.111
369.589	568
372.127	573.111
374.664	570.444
377.2	581.556
379.735	595.111
382.27	596.444
384.802	597.111
387.334	581.333
389.866	562.889
392.397	557.111
394.927	558.889
397.457	547.556
399.985	553.111
402.513	552.889
405.038	561.555
407.565	557.556
410.09	554.889
412.614	558.444
415.138	557.333
417.66	568.667
420.181	568.889
422.702	570.222
425.222	565.778
427.742	570.667
430.259	579.111
432.777	574.222
435.294	592.667
437.81	601.778
440.324	584.222
442.838	586
445.352	576.444
447.863	576.889
450.375	572
452.887	573.111
455.395	576.667
457.905	576.667
460.414	583.111
462.92	578.667
465.427	559.111
467.932	573.556
470.438	559.778
472.942	554.222
475.445	572.889
477.948	565.778
480.448	563.778
482.95	571.111
485.449	570
487.949	571.778
490.446	580
492.944	574
495.44	581.556
497.937	576.222
500.431	570.667
502.926	569.556
505.418	582.667
507.912	579.556
510.403	576.222
512.894	569.111
515.384	578.444
517.874	590.889
520.361	586
522.848	577.111
525.336	580
527.821	573.111
530.306	588.444
532.791	574.889
535.274	576.889
537.756	582.889
540.238	561.556
542.719	566.222
545.199	575.556
547.679	572.889
550.157	572.667
552.634	578.222
555.112	568
557.588	576.889
560.063	580.889
562.537	586
565.011	577.778
567.484	569.556
569.955	577.555
572.426	586.444
574.896	576.667
577.367	587.556
579.835	585.556
582.303	569.556
584.77	571.556
587.236	563.778
589.701	573.333
592.165	571.778
594.629	576.667
597.093	581.556
599.555	578.667
602.016	578.444
604.477	580.222
606.936	576.222
609.395	581.111
611.853	587.111
614.311	592.889
616.767	589.556
619.223	594.444
621.678	595.556
624.132	589.111
626.585	575.111
629.037	569.333
631.489	580.445
633.94	581.556
636.39	581.778
638.839	590
641.288	586.889
643.736	580.889
646.183	585.778
648.627	592.667
651.073	588.222
653.517	592.889
655.961	582.222
658.404	578.667
660.846	567.333
663.288	580
665.727	579.778
668.167	584.889
670.606	577.778
673.044	580.667
675.482	576.444
677.917	567.778
680.353	577.778
682.788	572.222
685.222	573.111
687.655	570.667
690.087	588.222
692.519	573.778
694.951	574.889
697.38	577.556
699.809	581.778
702.238	581.778
704.665	596.445
707.092	579.111
709.519	595.778
711.943	589.778
714.368	589.333
716.791	590.667
719.214	587.778
721.637	587.778
724.058	588.889
726.479	580.889
728.898	574.222
731.317	579.556
733.734	575.556
736.152	577.111
738.568	576
740.985	586.444
743.399	562
745.814	572.222
748.227	573.111
750.64	575.111
753.051	573.111
755.463	591.333
757.872	575.556
760.283	584.444
762.691	568.222
765.098	582
767.506	580.667
769.912	580.444
772.318	574.222
774.722	580.889
777.126	586.889
779.53	570.667
781.932	575.333
784.333	593.111
786.735	591.111
789.135	577.333
791.533	591.556
793.933	582.445
796.33	583.556
798.727	578.889
801.123	584.444
803.519	594.222
805.913	582.444
808.307	587.333
810.699	598.444
813.093	587.111
815.484	590
817.874	589.333
820.264	587.333
822.653	573.111
825.041	589.111
827.43	591.333
829.817	578.667
832.203	578.444
834.588	573.556
836.972	590.222
839.356	584.889
841.738	582.444
844.12	586
846.502	589.111
848.882	593.556
851.262	590
853.641	594.222
856.02	595.111
858.397	596
860.774	596.222
863.15	593.333
865.525	602.667
867.9	604
870.273	608.889
872.646	606.667
875.019	582.889
877.39	591.556
879.761	592.667
882.131	598.444
884.5	587.556
886.869	595.556
889.236	599.333
891.602	598
893.968	599.111
896.334	597.111
898.698	595.111
901.062	591.556
903.426	590.444
905.787	590.222
908.148	587.556
910.509	579.556
912.87	589.111
915.228	580.889
917.587	583.111
919.945	585.556
922.302	578.667
924.657	584.889
927.013	579.333
929.368	575.778
931.721	582.667
934.074	588.444
936.427	580
938.778	592.444
941.129	588.444
943.479	591.333
945.828	586
948.177	594.667
950.524	584.667
952.871	582
955.218	589.111
957.563	578.222
959.908	580
962.252	581.333
964.595	583.778
966.937	594.889
969.28	584.889
971.62	582
973.961	576.444
976.3	586.889
978.639	575.333
980.976	577.333
983.314	588.444
985.65	583.111
987.987	589.778
990.321	594.222
992.655	591.111
994.989	583.111
997.321	592
999.653	592.667
1001.98	587.778
1004.31	591.556
1006.65	584.444
1008.97	584
1011.3	586.222
1013.63	583.556
1015.96	575.556
1018.28	592.444
1020.61	595.333
1022.93	586.222
1025.26	592.889
1027.58	589.778
1029.9	587.556
1032.22	587.778
1034.54	593.333
1036.86	586
1039.18	584.222
1041.5	598.667
1043.82	583.778
1046.14	586.667
1048.45	607.556
1050.77	602.667
1053.08	627.111
1055.4	606.222
1057.71	611.778
1060.02	605.778
1062.33	622
1064.64	604
1066.96	609.556
1069.27	617.111
1071.57	616.889
1073.88	616.222
1076.19	614.667
1078.5	614.222
1080.8	626.667
1083.11	624.667
1085.41	632
1087.72	628.667
1090.02	650.222
1092.32	662.444
1094.62	669.111
1096.92	696.889
1099.22	680.222
1101.52	688.667
1103.82	651.111
1106.12	662
1108.42	642.444
1110.71	639.333
1113.01	650.667
1115.3	656.222
1117.6	653.556
1119.89	662.444
1122.18	670
1124.48	675.556
1126.77	672.444
1129.06	664.444
1131.35	647.778
1133.64	650.444
1135.93	648.445
1138.21	636.444
1140.5	646.889
1142.79	641.556
1145.07	653.778
1147.36	659.111
1149.64	652.889
1151.92	649.778
1154.21	652.667
1156.49	654.444
1158.77	678.222
1161.05	657.111
1163.33	658.222
1165.61	636.889
1167.89	624.889
1170.16	628.444
1172.44	622.444
1174.72	615.778
1176.99	627.556
1179.27	624.222
1181.54	635.111
1183.81	624.444
1186.09	626.889
1188.36	636.444
1190.63	625.556
1192.9	630.444
1195.17	618
1197.44	629.333
1199.71	628
1201.97	628.222
1204.24	625.333
1206.5	635.333
1208.77	622
1211.03	625.111
1213.3	632
1215.56	625.111
1217.82	639.111
1220.09	637.111
1222.35	645.333
1224.61	631.778
1226.87	640.667
1229.12	647.333
1231.38	647.111
1233.64	658
1235.9	652.444
1238.15	658.444
1240.41	661.778
1242.66	661.111
1244.92	659.778
1247.17	664
1249.42	657.778
1251.67	654.889
1253.92	654.444
1256.17	675.778
1258.42	676.222
1260.67	693.333
1262.92	688
1265.17	678.444
1267.42	683.333
1269.66	675.778
1271.91	680.667
1274.15	674.444
1276.39	674.889
1278.64	665.556
1280.88	657.778
1283.12	652.667
1285.36	664.667
1287.6	652
1289.84	667.333
1292.08	654.889
1294.32	660.889
1296.56	650.222
1298.79	645.333
1301.03	660.667
1303.26	637.556
1305.5	649.556
1307.73	647.556
1309.97	656.222
1312.2	661.333
1314.43	649.333
1316.66	654.444
1318.89	656.667
1321.12	658.444
1323.35	675.778
1325.58	667.111
1327.81	661.333
1330.03	668.445
1332.26	680.667
1334.49	667.111
1336.71	694.667
1338.94	690
1341.16	710
1343.38	697.111
1345.6	700
1347.83	694.222
1350.05	698.667
1352.27	698.444
1354.49	686.667
1356.7	709.333
1358.92	707.111
1361.14	736.222
1363.36	753.778
1365.57	784
1367.79	810.444
1370	833.556
1372.21	835.111
1374.43	820.667
1376.64	809.333
1378.85	796.667
1381.06	777.556
1383.27	777.333
1385.48	756.444
1387.69	739.333
1389.9	726.667
1392.11	717.111
1394.31	693.333
1396.52	686.222
1398.73	681.333
1400.93	677.333
1403.13	671.556
1405.34	662.889
1407.54	672.889
1409.74	682.222
1411.94	672.444
1414.14	680
1416.34	667.333
1418.54	665.556
1420.74	657.111
1422.94	657.333
1425.14	646
1427.33	653.556
1429.53	639.556
1431.72	650.667
1433.92	649.778
1436.11	650
1438.3	646.667
1440.5	653.333
1442.69	660.222
1444.88	655.111
1447.07	683.556
1449.26	684.445
1451.45	683.111
1453.64	694.444
1455.82	692.889
1458.01	682.889
1460.2	701.333
1462.38	690
1464.57	678.667
1466.75	677.778
1468.93	664.222
1471.12	658
1473.3	660
1475.48	656.889
1477.66	655.111
1479.84	667.333
1482.02	659.556
1484.2	654.444
1486.38	646.889
1488.55	635.333
1490.73	645.111
1492.91	639.333
1495.08	647.333
1497.26	647.778
1499.43	657.556
1501.61	663.333
1503.78	651.333
1505.95	661.333
1508.12	653.556
1510.29	666.222
1512.46	652.889
1514.63	645.556
1516.8	658.222
1518.97	662
1521.14	660.444
1523.3	651.333
1525.47	653.556
1527.63	649.333
1529.8	651.111
1531.96	644.444
1534.12	648.444
1536.29	660.222
1538.45	656.222
1540.61	656.889
1542.77	663.778
1544.93	671.555
1547.09	670
1549.25	675.111
1551.41	667.111
1553.56	662.444
1555.72	659.556
1557.88	678.222
1560.03	673.556
1562.18	672.444
1564.34	682
1566.49	690.667
1568.64	689.778
1570.8	682.222
1572.95	689.111
1575.1	688.444
1577.25	676.889
1579.4	684
1581.55	683.556
1583.69	699.778
1585.84	689.111
1587.99	690.889
1590.13	683.333
1592.28	684.445
1594.42	686
1596.57	672.889
1598.71	670.889
1600.85	665.778
1602.99	669.778
1605.14	668.445
1607.28	658
1609.42	661.111
1611.56	650
1613.69	641.333
1615.83	645.111
1617.97	638.444
1620.11	627.556
1622.24	630.444
1624.38	621.111
1626.51	607.555
1628.65	604.444
1630.78	598.889
1632.91	599.333
1635.04	582.889
1637.17	575.333
1639.31	580.667
1641.44	580.889
1643.57	572
1645.69	573.111
1647.82	564.222
1649.95	561.556
1652.08	563.333
1654.2	570.444
1656.33	540.222
1658.45	555.778
1660.58	552.889
1662.7	540.222
1664.82	539.778
1666.94	540.889
1669.07	541.556
1671.19	529.333
1673.31	529.333
1675.43	532
1677.55	525.111
1679.66	522.222
1681.78	528
1683.9	526.444
1686.01	524.667
1688.13	520
1690.25	526.444
1692.36	525.111
1694.47	516
1696.59	518
1698.7	513.333
1700.81	504.667
1702.92	507.556
1705.03	518.889
1707.14	515.111
1709.25	521.333
1711.36	514.667
1713.47	509.111
1715.58	507.333
1717.68	512.222
1719.79	505.556
1721.89	513.111
1724	503.556
1726.1	506.889
1728.21	495.333
1730.31	503.556
1732.41	505.111
1734.51	502.667
1736.61	505.333
1738.71	511.556
1740.81	491.111
1742.91	491.778
1745.01	494.222
1747.11	486.222
1749.2	489.111
1751.3	488
1753.4	499.556
1755.49	489.556
1757.59	486
1759.68	496.444
1761.77	485.556
1763.86	480.889
1765.96	483.111
1768.05	491.556
1770.14	488.444
1772.23	489.778
1774.32	475.556
1776.41	485.333
1778.49	485.111
1780.58	486.667
1782.67	493.333
1784.76	482.222
1786.84	480.889
1788.92	478.444
1791.01	480.889
1793.09	481.556
1795.18	470.667
1797.26	477.556
1799.34	482.889
1801.42	466.222
1803.5	467.333
1805.58	470.667
1807.66	478
1809.74	475.778
1811.82	474
1813.89	467.556
1815.97	467.556
1818.05	470.889
1820.12	471.778
1822.2	472.222
1824.27	466
1826.34	467.111
1828.42	464.444
1830.49	469.333
1832.56	464.889
1834.63	470.222
1836.7	479.111
1838.77	466.667
1840.84	458
1842.91	463.333
1844.98	466.889
1847.04	461.556
1849.11	461.111
1851.18	460
1853.24	456.444
1855.31	448
1857.37	468.889
1859.43	459.778
1861.5	463.778
1863.56	451.778
1865.62	462
1867.68	463.556
1869.74	454.222
1871.8	453.333
1873.86	459.333
1875.92	463.333
1877.98	457.111
1880.03	457.333
1882.09	460.444
1884.15	446.889
1886.2	451.556
1888.26	450.444
1890.31	448.889
1892.36	453.333
1894.42	450.889
1896.47	456.667
1898.52	457.778
1900.57	448.444
1902.62	458.444
1904.67	449.778
1906.72	452.222
1908.77	446.222
1910.82	447.111
1912.86	448.889
1914.91	445.778
1916.96	446.667
1919	452.667
1921.04	444.222
1923.09	451.333
1925.13	443.778
1927.18	438.667
1929.22	446.222
1931.26	453.333
1933.3	434.889
1935.34	449.556
1937.38	450.444
1939.42	438.444
1941.46	446.667
1943.5	443.778
1945.53	440.667
1947.57	439.111
1949.61	434.889
1951.64	443.111
1953.68	436.222
1955.71	436
1957.75	439.778
1959.78	435.333
1961.81	439.111
1963.84	435.778
1965.87	435.556
1967.9	437.111
1969.93	432.889
1971.96	435.778
1973.99	438
1976.02	432
1978.05	429.778
1980.07	432
1982.1	435.556
1984.13	428.667
1986.15	426.444
1988.18	432
1990.2	430.889
1992.22	430.444
1994.25	430.667
1996.27	434.444
1998.29	421.111
2000.31	428
2002.33	433.778
2004.35	424.667
2006.37	424.444
2008.39	423.333
2010.41	424.667
2012.42	422.444
2014.44	428.667
2016.46	422.667
2018.47	432.667
2020.49	416.222
2022.5	432
2024.51	421.778
2026.53	419.111
2028.54	423.556
2030.55	424.222
2032.56	424.444
2034.57	420.222
2036.58	424.889
2038.59	412.889
2040.6	422.444
2042.61	422.667
2044.62	420.444
2046.62	421.556
2048.63	423.778
2050.64	418
2052.64	412.667
2054.65	426.667
2056.65	413.556
2058.65	422.667
2060.66	418.889
2062.66	416.667
2064.66	404.444
2066.66	399.111
2068.66	410.889
2070.66	418.222
2072.66	409.556
2074.66	419.556
2076.66	414.889
2078.65	403.111
2080.65	411.778
2082.65	407.333
2084.64	403.333
2086.64	402.889
2088.63	418
2090.63	400.444
2092.62	409.556
2094.61	417.333
2096.6	406.444
2098.59	402.889
2100.59	402
2102.58	411.111
2104.56	413.333
2106.55	404.667
2108.54	404.889
2110.53	407.778
2112.52	398
2114.5	406.222
2116.49	410.222
2118.48	404.889
2120.46	410.222
2122.44	412.444
2124.43	409.556
2126.41	400.222
2128.39	418
2130.38	410.889
2132.36	415.778
2134.34	416
2136.32	409.556
2138.3	414.889
2140.28	406.667
2142.26	413.556
2144.23	408
2146.21	406.667
2148.19	404
2150.16	404.667
2152.14	406.889
2154.11	406
2156.09	406
2158.06	408.889
2160.04	403.111
2162.01	386.667
2163.98	400.444
2165.95	395.333
2167.92	390.889
2169.89	398.444
2171.86	382.222
2173.83	388.444
2175.8	393.333
2177.77	391.556
2179.73	389.778
2181.7	399.556
2183.67	379.778
2185.63	382.667
2187.6	376.222
2189.56	378.444
2191.53	384.889
2193.49	376.667
2195.45	370.444
2197.41	378.667
2199.37	375.556
2201.34	377.556
2203.29	389.556
2205.26	367.778
2207.21	366.444
2209.17	372.889
2211.13	380.444
2213.09	376
2215.05	377.111
2217	370.222
2218.96	376.667
2220.91	382.444
2222.87	380.889
2224.82	376.667
2226.77	380
2228.73	381.333
2230.68	381.778
2232.63	374.222
2234.58	375.556
2236.53	373.333
2238.48	370.222
2240.43	368.889
2242.38	368
2244.33	376.222
2246.27	368.222
2248.22	358
2250.17	370.444
2252.11	362
2254.06	366.222
2256	352.667
2257.95	359.556
2259.89	364.667
2261.84	361.778
2263.78	350.222
2265.72	358
2267.66	362.444
2269.6	353.556
2271.54	362
2273.48	354.889
2275.42	353.333
2277.36	345.556
2279.3	354.889
2281.23	350.444
2283.17	354.444
2285.11	354.667
2287.04	356.667
2288.98	349.333
2290.91	352.444
2292.84	343.333
2294.78	349.556
2296.71	350.222
2298.64	346.444
2300.57	347.556
2302.51	351.333
2304.44	347.333
2306.37	344
2308.29	335.556
2310.22	346.444
2312.15	349.111
2314.08	344.444
2316.01	335.333
2317.93	344
2319.86	340.444
2321.78	335.111
2323.71	341.111
2325.63	339.111
2327.56	338.222
2329.48	332.889
2331.4	335.778
2333.32	335.556
2335.25	340.667
2337.17	331.556
2339.09	334.444
2341.01	329.111
2342.92	339.556
2344.84	339.556
2346.76	340
2348.68	328.222
2350.6	330
2352.51	329.778
2354.43	326.667
2356.34	325.556
2358.26	330.444
2360.17	335.556
2362.09	338.889
2364	328
2365.91	320.667
2367.82	321.778
2369.73	322.667
2371.64	324.222
2373.55	324
2375.46	326.222
2377.37	331.111
2379.28	317.778
2381.19	329.111
2383.1	324
2385	326.889
2386.91	322.444
2388.82	331.778
2390.72	329.111
2392.62	322.667
2394.53	315.556
2396.43	320
2398.33	312.444
2400.24	324.667
2402.14	314.667
2404.04	317.111
2405.94	314.889
2407.84	313.556
2409.74	323.333
2411.64	320.222
2413.54	318
2415.44	313.556
2417.33	317.111
2419.23	310.444
2421.13	320.889
2423.02	315.556
2424.92	312
2426.81	314
2428.71	312
2430.6	311.778
2432.49	317.333
2434.38	306.889
2436.28	311.778
2438.17	309.778
2440.06	305.778
2441.95	303.778
2443.84	312.444
2445.73	308.889
