176.817	470.222
179.42	471.556
182.022	463.556
184.622	458.667
187.223	462.444
189.821	450.444
192.419	447.556
195.017	452
197.612	461.333
200.208	455.778
202.802	459.111
205.397	448.222
207.99	451.556
210.581	451.556
213.173	475.556
215.762	465.111
218.352	471.778
220.94	474.889
223.528	475.333
226.114	485.111
228.701	476.667
231.285	482.667
233.87	500.889
236.452	485.333
239.034	509.111
241.616	504.667
244.196	505.111
246.777	513.556
249.355	506
251.933	517.556
254.511	518.667
257.086	524.222
259.663	516.445
262.237	521.111
264.81	519.778
267.383	523.111
269.955	521.111
272.525	505.111
275.097	510
277.665	495.778
280.234	491.778
282.802	495.778
285.368	501.111
287.934	492.444
290.499	488.444
293.064	484.444
295.627	479.333
298.189	485.556
300.75	481.111
303.312	488
305.871	478.444
308.43	468
310.988	476.444
313.545	469.556
316.101	459.556
318.658	453.111
321.212	448.222
323.766	445.111
326.319	449.111
328.871	457.556
331.422	462.889
333.972	454.444
336.522	463.111
339.072	451.333
341.619	446
344.166	453.556
346.712	457.778
349.258	440
351.802	456
354.346	444.889
356.888	456
359.43	446.667
361.971	451.556
364.511	465.778
367.051	457.556
369.589	452.444
372.127	459.778
374.664	466.889
377.2	473.111
379.735	488
382.27	485.333
384.802	474.222
387.334	464.667
389.866	463.778
392.397	456.889
394.927	458.222
397.457	441.111
399.985	443.333
402.513	454.222
405.038	451.556
407.565	450.444
410.09	456.222
412.614	462.444
415.138	450.222
417.66	451.556
420.181	450.444
422.702	450.444
425.222	452.667
427.742	460.222
430.259	462.667
432.777	461.556
435.294	477.333
437.81	479.556
440.324	471.778
442.838	466.667
445.352	457.556
447.863	460
450.375	456.444
452.887	454.444
455.395	456.889
457.905	467.111
460.414	469.556
462.92	468.667
465.427	459.778
467.932	447.111
470.438	461.111
472.942	463.778
475.445	462.889
477.948	452.889
480.448	453.778
482.95	454
485.449	461.333
487.949	454.222
490.446	461.778
492.944	448.222
495.44	457.778
497.937	456.667
500.431	449.111
502.926	459.556
505.418	455.111
507.912	456.444
510.403	461.778
512.894	464
515.384	453.778
517.874	460.667
520.361	462.667
522.848	465.778
525.336	460
527.821	464.889
530.306	458.222
532.791	463.778
535.274	466.444
537.756	460.889
540.238	458
542.719	450.889
545.199	454.889
547.679	454.444
550.157	448.444
552.634	454.222
555.112	459.778
557.588	463.778
560.063	465.111
562.537	464.444
565.011	463.778
567.484	472.222
569.955	456.444
572.426	460.444
574.896	463.778
577.367	458.667
579.835	473.111
582.303	462.222
584.77	457.778
587.236	449.333
589.701	459.778
592.165	467.556
594.629	450.444
597.093	458.889
599.555	466.222
602.016	450.444
604.477	462.444
606.936	467.556
609.395	471.778
611.853	478.889
614.311	476.444
616.767	476.222
619.223	470.667
621.678	474
624.132	480
626.585	466.889
629.037	460
631.489	472.889
633.94	477.556
636.39	471.778
638.839	474.444
641.288	470.222
643.736	482
646.183	480
648.627	476.667
651.073	473.333
653.517	463.556
655.961	471.556
658.404	454.222
660.846	469.333
663.288	472.889
665.727	464.222
668.167	475.778
670.606	465.556
673.044	468.889
675.482	467.556
677.917	458.889
680.353	454.667
682.788	450.889
685.222	457.556
687.655	465.556
690.087	467.778
692.519	460.222
694.951	470.444
697.38	463.556
699.809	456.667
702.238	470.444
704.665	468
707.092	463.778
709.519	472.667
711.943	466.444
714.368	465.333
716.791	475.333
719.214	474.889
721.637	473.333
724.058	472
726.479	464.667
728.898	472.222
731.317	463.333
733.734	461.333
736.152	471.556
738.568	452.667
740.985	462.667
743.399	454.889
745.814	466.444
748.227	462
750.64	463.556
753.051	458
755.463	462.889
757.872	455.556
760.283	469.778
762.691	464.444
765.098	448.667
767.506	466.222
769.912	452.444
772.318	464
774.722	455.778
777.126	466.444
779.53	467.333
781.932	459.556
784.333	466.889
786.735	454.667
789.135	464.444
791.533	468
793.933	461.778
796.33	463.333
798.727	476.889
801.123	462.444
803.519	467.333
805.913	478.889
808.307	472.889
810.699	465.111
813.093	466
815.484	484.222
817.874	470
820.264	474.889
822.653	480.444
825.041	473.333
827.43	472.444
829.817	477.778
832.203	478.889
834.588	477.778
836.972	476.889
839.356	479.111
841.738	476.889
844.12	471.333
846.502	474
848.882	471.556
851.262	466.889
853.641	481.778
856.02	492.889
858.397	496.444
860.774	493.333
863.15	493.778
865.525	507.778
867.9	500
870.273	496.222
872.646	505.333
875.019	496.222
877.39	490.667
879.761	485.556
882.131	477.556
884.5	491.333
886.869	488.889
889.236	484.222
891.602	487.556
893.968	494
896.334	497.778
898.698	483.333
901.062	493.778
903.426	488.889
905.787	493.111
908.148	476.889
910.509	484.222
912.87	475.778
915.228	473.111
917.587	470.222
919.945	469.778
922.302	478.444
924.657	471.111
927.013	477.333
929.368	483.556
931.721	487.111
934.074	477.556
936.427	476.889
938.778	478.667
941.129	475.556
943.479	472.444
945.828	480.667
948.177	471.778
950.524	475.333
952.871	470.667
955.218	477.556
957.563	473.556
959.908	471.556
962.252	469.111
964.595	481.333
966.937	482.667
969.28	482.222
971.62	481.111
973.961	482.667
976.3	471.556
978.639	483.778
980.976	484.667
983.314	472.444
985.65	472.444
987.987	477.556
990.321	467.333
992.655	482.889
994.989	477.556
997.321	481.778
999.653	482.889
1001.98	481.111
1004.31	489.556
1006.65	479.333
1008.97	474.667
1011.3	473.778
1013.63	480.444
1015.96	480.222
1018.28	473.333
1020.61	472.222
1022.93	475.333
1025.26	473.111
1027.58	476.889
1029.9	475.333
1032.22	495.556
1034.54	485.111
1036.86	495.778
1039.18	486.444
1041.5	485.778
1043.82	477.778
1046.14	465.111
1048.45	498.444
1050.77	490.444
1053.08	490.444
1055.4	500
1057.71	495.111
1060.02	506.889
1062.33	496.667
1064.64	499.111
1066.96	494.222
1069.27	487.778
1071.57	490.889
1073.88	502.889
1076.19	495.778
1078.5	508.667
1080.8	504
1083.11	499.556
1085.41	514.667
1087.72	521.333
1090.02	532.222
1092.32	555.333
1094.62	560.222
1096.92	578.667
1099.22	570.667
1101.52	563.111
1103.82	549.333
1106.12	538.444
1108.42	541.111
1110.71	534.222
1113.01	545.778
1115.3	547.778
1117.6	557.111
1119.89	558.667
1122.18	550.444
1124.48	568.889
1126.77	556
1129.06	552
1131.35	540.667
1133.64	540.667
1135.93	537.333
1138.21	531.111
1140.5	540.222
1142.79	542.889
1145.07	543.556
1147.36	537.333
1149.64	561.556
1151.92	558
1154.21	558.667
1156.49	574
1158.77	568.222
1161.05	563.778
1163.33	557.778
1165.61	553.333
1167.89	544
1170.16	539.111
1172.44	538.222
1174.72	536
1176.99	536.222
1179.27	532.667
1181.54	545.111
1183.81	536.222
1186.09	534
1188.36	531.333
1190.63	534.667
1192.9	536.667
1195.17	543.111
1197.44	545.333
1199.71	550.444
1201.97	548.667
1204.24	539.556
1206.5	544.889
1208.77	544.667
1211.03	534.667
1213.3	559.111
1215.56	564.667
1217.82	571.111
1220.09	562.222
1222.35	583.778
1224.61	564.444
1226.87	567.333
1229.12	570.444
1231.38	562.667
1233.64	574.667
1235.9	577.111
1238.15	576.222
1240.41	588.222
1242.66	595.333
1244.92	596
1247.17	608.444
1249.42	604.667
1251.67	611.778
1253.92	599.111
1256.17	601.111
1258.42	607.555
1260.67	617.333
1262.92	626.889
1265.17	626.444
1267.42	626
1269.66	619.333
1271.91	618.667
1274.15	601.333
1276.39	606.444
1278.64	605.333
1280.88	591.778
1283.12	604.667
1285.36	596.222
1287.6	582.889
1289.84	574.222
1292.08	594.222
1294.32	592.889
1296.56	599.111
1298.79	589.556
1301.03	597.778
1303.26	599.111
1305.5	584
1307.73	583.333
1309.97	582
1312.2	595.778
1314.43	590
1316.66	590.444
1318.89	598.444
1321.12	602.667
1323.35	600.222
1325.58	605.111
1327.81	616.444
1330.03	626.444
1332.26	620.889
1334.49	620.667
1336.71	639.333
1338.94	650.445
1341.16	652.222
1343.38	635.333
1345.6	637.556
1347.83	636
1350.05	650.222
1352.27	651.333
1354.49	678.889
1356.7	690.667
1358.92	729.111
1361.14	750.889
1363.36	773.778
1365.57	800.667
1367.79	817.111
1370	826.445
1372.21	810.222
1374.43	782.222
1376.64	766.222
1378.85	767.556
1381.06	744.889
1383.27	726.667
1385.48	713.111
1387.69	717.111
1389.9	693.778
1392.11	688.444
1394.31	683.556
1396.52	664
1398.73	660.889
1400.93	652.444
1403.13	642
1405.34	638.667
1407.54	641.333
1409.74	641.111
1411.94	653.556
1414.14	645.333
1416.34	647.333
1418.54	643.556
1420.74	625.111
1422.94	618.222
1425.14	625.778
1427.33	616
1429.53	616.222
1431.72	612
1433.92	614.667
1436.11	616
1438.3	626.889
1440.5	640.222
1442.69	624
1444.88	632.444
1447.07	647.111
1449.26	641.778
1451.45	641.333
1453.64	641.333
1455.82	646.667
1458.01	643.333
1460.2	633.333
1462.38	626.222
1464.57	631.333
1466.75	621.333
1468.93	632.667
1471.12	618.667
1473.3	616.667
1475.48	618.444
1477.66	632.444
1479.84	627.778
1482.02	627.333
1484.2	621.555
1486.38	622.222
1488.55	620
1490.73	612.445
1492.91	601.333
1495.08	623.555
1497.26	604.667
1499.43	598
1501.61	587.778
1503.78	609.333
1505.95	604
1508.12	611.111
1510.29	618.667
1512.46	627.778
1514.63	612.889
1516.8	627.555
1518.97	611.333
1521.14	623.555
1523.3	624.889
1525.47	625.333
1527.63	624.889
1529.8	632
1531.96	636.222
1534.12	644.667
1536.29	650.889
1538.45	638.222
1540.61	632
1542.77	649.778
1544.93	636.222
1547.09	639.111
1549.25	629.556
1551.41	636.222
1553.56	633.111
1555.72	641.111
1557.88	646
1560.03	651.333
1562.18	643.778
1564.34	660.222
1566.49	658
1568.64	652.667
1570.8	659.555
1572.95	652.889
1575.1	667.556
1577.25	655.333
1579.4	661.333
1581.55	653.111
1583.69	662.667
1585.84	667.111
1587.99	657.778
1590.13	664.889
1592.28	661.111
1594.42	656
1596.57	655.111
1598.71	641.778
1600.85	645.333
1602.99	642.889
1605.14	636.889
1607.28	620.222
1609.42	615.333
1611.56	606.444
1613.69	604.889
1615.83	598.222
1617.97	598.444
1620.11	586
1622.24	570.889
1624.38	566.444
1626.51	558.222
1628.65	548
1630.78	551.333
1632.91	536.667
1635.04	538.667
1637.17	516.667
1639.31	525.333
1641.44	524.889
1643.57	518.222
1645.69	516
1647.82	501.778
1649.95	504
1652.08	499.333
1654.2	495.333
1656.33	484.222
1658.45	476.222
1660.58	487.111
1662.7	482.444
1664.82	474.444
1666.94	471.333
1669.07	477.556
1671.19	478.444
1673.31	465.111
1675.43	457.333
1677.55	458.222
1679.66	468.889
1681.78	459.556
1683.9	451.556
1686.01	451.778
1688.13	453.111
1690.25	449.333
1692.36	448
1694.47	443.556
1696.59	429.778
1698.7	447.556
1700.81	443.556
1702.92	439.778
1705.03	431.111
1707.14	429.778
1709.25	429.333
1711.36	431.778
1713.47	436.444
1715.58	426.444
1717.68	436.889
1719.79	435.556
1721.89	434
1724	421.333
1726.1	430.667
1728.21	431.556
1730.31	428.222
1732.41	424.889
1734.51	420.667
1736.61	427.556
1738.71	424.444
1740.81	419.556
1742.91	418
1745.01	421.556
1747.11	418.889
1749.2	412.444
1751.3	413.778
1753.4	417.111
1755.49	415.333
1757.59	413.333
1759.68	409.778
1761.77	405.556
1763.86	408
1765.96	414
1768.05	402.667
1770.14	415.778
1772.23	409.333
1774.32	405.111
1776.41	412.667
1778.49	408.444
1780.58	404.667
1782.67	402.889
1784.76	395.556
1786.84	395.333
1788.92	394.889
1791.01	389.778
1793.09	395.111
1795.18	396.444
1797.26	394
1799.34	397.333
1801.42	399.556
1803.5	392.889
1805.58	393.778
1807.66	394.222
1809.74	400.444
1811.82	394.222
1813.89	395.778
1815.97	395.333
1818.05	396.444
1820.12	399.778
1822.2	395.333
1824.27	392.222
1826.34	398.444
1828.42	387.111
1830.49	391.333
1832.56	394
1834.63	385.778
1836.7	391.556
1838.77	388.889
1840.84	383.333
1842.91	387.333
1844.98	379.556
1847.04	384.222
1849.11	384.667
1851.18	381.556
1853.24	387.111
1855.31	391.556
1857.37	380.667
1859.43	380.444
1861.5	383.333
1863.56	374
1865.62	376.889
1867.68	383.111
1869.74	378
1871.8	377.333
1873.86	386.222
1875.92	376.444
1877.98	386.222
1880.03	376.222
1882.09	376.889
1884.15	379.556
1886.2	370
1888.26	384.222
1890.31	379.333
1892.36	377.333
1894.42	376.889
1896.47	377.333
1898.52	381.111
1900.57	380.667
1902.62	377.111
1904.67	378.667
1906.72	378.667
1908.77	375.556
1910.82	376.667
1912.86	370.889
1914.91	374.444
1916.96	373.333
1919	374.889
1921.04	373.111
1923.09	370
1925.13	378.889
1927.18	370.889
1929.22	365.333
1931.26	370.667
1933.3	369.778
1935.34	371.556
1937.38	375.333
1939.42	368.667
1941.46	367.778
1943.5	369.556
1945.53	369.778
1947.57	363.778
1949.61	370.222
1951.64	366.889
1953.68	358.222
1955.71	368.889
1957.75	366.444
1959.78	357.111
1961.81	359.333
1963.84	364
1965.87	363.111
1967.9	354.889
1969.93	360.889
1971.96	358.667
1973.99	351.111
1976.02	358.222
1978.05	358
1980.07	359.556
1982.1	366.444
1984.13	349.333
1986.15	356.222
1988.18	355.556
1990.2	358.444
1992.22	356
1994.25	349.556
1996.27	356.222
1998.29	354.222
2000.31	351.111
2002.33	361.111
2004.35	357.778
2006.37	362
2008.39	355.556
2010.41	359.778
2012.42	353.111
2014.44	353.556
2016.46	353.556
2018.47	358
2020.49	356.222
2022.5	349.778
2024.51	355.556
2026.53	356.889
2028.54	351.111
2030.55	359.333
2032.56	355.333
2034.57	346.222
2036.58	350.889
2038.59	345.111
2040.6	355.556
2042.61	351.111
2044.62	344
2046.62	350.444
2048.63	341.111
2050.64	350
2052.64	351.556
2054.65	342.889
2056.65	344
2058.65	342
2060.66	345.111
2062.66	350
2064.66	346.222
2066.66	345.556
2068.66	351.556
2070.66	348.667
2072.66	360.444
2074.66	344.222
2076.66	344.889
2078.65	341.333
2080.65	340.222
2082.65	344.889
2084.64	336.667
2086.64	344.889
2088.63	347.778
2090.63	343.556
2092.62	345.556
2094.61	347.333
2096.6	344.444
2098.59	341.778
2100.59	340.667
2102.58	348.222
2104.56	341.556
2106.55	350.222
2108.54	348
2110.53	345.778
2112.52	347.778
2114.5	355.556
2116.49	347.111
2118.48	358.444
2120.46	353.111
2122.44	360
2124.43	366.444
2126.41	358.444
2128.39	366.444
2130.38	375.556
2132.36	376.889
2134.34	365.111
2136.32	368
2138.3	367.778
2140.28	378.444
2142.26	372.667
2144.23	364.889
2146.21	361.778
2148.19	359.333
2150.16	367.333
2152.14	359.556
2154.11	360
2156.09	363.111
2158.06	359.111
2160.04	368.667
2162.01	351.778
2163.98	347.556
2165.95	347.111
2167.92	344.889
2169.89	342.667
2171.86	338.889
2173.83	346.889
2175.8	335.556
2177.77	341.778
2179.73	334.222
2181.7	332.444
2183.67	332.889
2185.63	332.889
2187.6	333.111
2189.56	331.778
2191.53	322
2193.49	328.222
2195.45	328.889
2197.41	340
2199.37	332.889
2201.34	326
2203.29	327.111
2205.26	327.778
2207.21	326.889
2209.17	326
2211.13	328.889
2213.09	330
2215.05	327.333
2217	319.556
2218.96	327.111
2220.91	317.111
2222.87	316.889
2224.82	320.889
2226.77	321.333
2228.73	319.778
2230.68	327.556
2232.63	320
2234.58	318.667
2236.53	322.444
2238.48	318.889
2240.43	316.889
2242.38	316.222
2244.33	313.778
2246.27	315.333
2248.22	316.667
2250.17	311.111
2252.11	314
2254.06	315.556
2256	313.111
2257.95	310
2259.89	308.444
2261.84	312
2263.78	306
2265.72	314.667
2267.66	308.222
2269.6	309.556
2271.54	304.222
2273.48	303.778
2275.42	303.333
2277.36	310.889
2279.3	298
2281.23	296.667
2283.17	294.889
2285.11	303.556
2287.04	304
2288.98	294.222
2290.91	295.556
2292.84	299.778
2294.78	299.556
2296.71	290.667
2298.64	294.222
2300.57	297.333
2302.51	297.778
2304.44	296.222
2306.37	300.667
2308.29	289.556
2310.22	299.333
2312.15	305.111
2314.08	292.444
2316.01	295.111
2317.93	291.111
2319.86	294.222
2321.78	295.333
2323.71	288.444
2325.63	288.222
2327.56	292.889
2329.48	290.444
2331.4	287.778
2333.32	294.222
2335.25	289.778
2337.17	290.444
2339.09	290
2341.01	282.667
2342.92	286.222
2344.84	291.778
2346.76	291.333
2348.68	294.222
2350.6	289.778
2352.51	290.222
2354.43	291.778
2356.34	287.111
2358.26	290
2360.17	277.778
2362.09	285.333
2364	290.222
2365.91	289.778
2367.82	284
2369.73	282
2371.64	286
2373.55	280.444
2375.46	283.111
2377.37	272
2379.28	284.889
2381.19	277.333
2383.1	281.778
2385	288
2386.91	281.333
2388.82	284.889
2390.72	277.778
2392.62	276.222
2394.53	290.222
2396.43	284.222
2398.33	273.333
2400.24	281.111
2402.14	282
2404.04	275.111
2405.94	279.778
2407.84	277.778
2409.74	284.667
2411.64	279.333
2413.54	282.444
2415.44	273.778
2417.33	278.667
2419.23	272.667
2421.13	276.444
2423.02	278.444
2424.92	272.444
2426.81	278.667
2428.71	274.667
2430.6	278.222
2432.49	277.556
2434.38	272.667
2436.28	273.778
2438.17	266.222
2440.06	280
2441.95	278.667
2443.84	279.111
2445.73	270.667
