176.817	534
179.42	518.222
182.022	516.889
184.622	522.444
187.223	528.222
189.821	519.333
192.419	520.444
195.017	529.111
197.612	519.556
200.208	532.444
202.802	518.222
205.397	532.667
207.99	530.667
210.581	530.667
213.173	520.889
215.762	525.778
218.352	528.445
220.94	531.778
223.528	539.111
226.114	537.778
228.701	538.222
231.285	552
233.87	558
236.452	562.667
239.034	551.111
241.616	553.556
244.196	555.111
246.777	576.222
249.355	574.222
251.933	570.667
254.511	584
257.086	573.778
259.663	566.889
262.237	562
264.81	562.889
267.383	566.889
269.955	576.889
272.525	568.222
275.097	565.333
277.665	564
280.234	565.778
282.802	551.556
285.368	566
287.934	561.778
290.499	563.333
293.064	554.222
295.627	570.889
298.189	567.555
300.75	567.111
303.312	563.111
305.871	556.444
308.43	562.222
310.988	558.667
313.545	553.556
316.101	544.667
318.658	542
321.212	544.222
323.766	545.556
326.319	533.556
328.871	534
331.422	548.222
333.972	542.889
336.522	537.111
339.072	536.667
341.619	542.667
344.166	558.222
346.712	557.111
349.258	544.667
351.802	553.111
354.346	559.778
356.888	546.445
359.43	559.333
361.971	552.667
364.511	565.333
367.051	549.111
369.589	550
372.127	558.667
374.664	553.111
377.2	563.556
379.735	586
382.27	586.222
384.802	576.667
387.334	562.889
389.866	570
392.397	548.222
394.927	558.222
397.457	544.667
399.985	549.556
402.513	563.111
405.038	570.889
407.565	560.444
410.09	568.222
412.614	545.556
415.138	569.556
417.66	560.444
420.181	564.222
422.702	553.333
425.222	556.444
427.742	562.444
430.259	558.222
432.777	568.889
435.294	571.778
437.81	564.667
440.324	578.222
442.838	561.111
445.352	574.222
447.863	566
450.375	570.667
452.887	566
455.395	577.111
457.905	577.333
460.414	581.111
462.92	570.444
465.427	566.222
467.932	561.778
470.438	574.667
472.942	556.889
475.445	567.556
477.948	569.556
480.448	569.111
482.95	566.444
485.449	562.222
487.949	572.222
490.446	570.444
492.944	568.667
495.44	569.778
497.937	579.556
500.431	577.333
502.926	567.556
505.418	568
507.912	562.444
510.403	570.889
512.894	563.556
515.384	566
517.874	569.556
520.361	582.889
522.848	574.444
525.336	582
527.821	574.667
530.306	579.111
532.791	582.444
535.274	568.667
537.756	557.333
540.238	565.111
542.719	568
545.199	577.333
547.679	562.667
550.157	572.667
552.634	557.111
555.112	575.556
557.588	569.333
560.063	575.778
562.537	564.444
565.011	576.667
567.484	579.556
569.955	563.111
572.426	577.333
574.896	572.222
577.367	568.444
579.835	577.556
582.303	565.555
584.77	568.444
587.236	569.778
589.701	576.667
592.165	563.111
594.629	577.111
597.093	582.667
599.555	572.667
602.016	585.556
604.477	582.444
606.936	576.444
609.395	585.778
611.853	594.222
614.311	578.889
616.767	596.445
619.223	593.778
621.678	598.222
624.132	590.222
626.585	580.444
629.037	583.556
631.489	574.444
633.94	576.222
636.39	580.889
638.839	587.778
641.288	581.333
643.736	574
646.183	586.667
648.627	586.222
651.073	576.222
653.517	576.444
655.961	572.444
658.404	589.111
660.846	572.667
663.288	581.111
665.727	575.778
668.167	575.111
670.606	587.778
673.044	564.889
675.482	569.778
677.917	568.889
680.353	566.667
682.788	570.444
685.222	559.111
687.655	572.445
690.087	573.556
692.519	578.222
694.951	578.444
697.38	575.556
699.809	578.889
702.238	585.556
704.665	576.889
707.092	590
709.519	578.667
711.943	582.667
714.368	589.556
716.791	582.222
719.214	582
721.637	587.111
724.058	575.778
726.479	580.444
728.898	571.778
731.317	579.111
733.734	579.111
736.152	571.778
738.568	582.889
740.985	581.111
743.399	582
745.814	568.667
748.227	568.889
750.64	567.111
753.051	573.111
755.463	572.222
757.872	572.667
760.283	569.778
762.691	574.222
765.098	570.444
767.506	575.778
769.912	568.667
772.318	563.778
774.722	572.889
777.126	572.444
779.53	571.333
781.932	580.444
784.333	581.111
786.735	578.222
789.135	582
791.533	577.111
793.933	560.889
796.33	581.333
798.727	585.778
801.123	576.667
803.519	586.222
805.913	587.333
808.307	589.111
810.699	584
813.093	589.778
815.484	584.667
817.874	583.556
820.264	591.111
822.653	569.778
825.041	579.556
827.43	575.333
829.817	585.111
832.203	568
834.588	569.778
836.972	579.778
839.356	578.667
841.738	589.556
844.12	581.778
846.502	579.556
848.882	574.222
851.262	576
853.641	581.778
856.02	593.556
858.397	590.222
860.774	581.556
863.15	590.222
865.525	601.556
867.9	599.111
870.273	608.667
872.646	597.111
875.019	590
877.39	583.333
879.761	596.444
882.131	584
884.5	582.222
886.869	578
889.236	584
891.602	588.222
893.968	579.111
896.334	580.667
898.698	593.556
901.062	592.889
903.426	581.111
905.787	586
908.148	586.667
910.509	592.667
912.87	582
915.228	577.333
917.587	583.556
919.945	579.111
922.302	573.111
924.657	570.222
927.013	582.444
929.368	562.222
931.721	575.333
934.074	573.556
936.427	578.444
938.778	564
941.129	575.333
943.479	569.111
945.828	570.444
948.177	568.667
950.524	570.222
952.871	574.444
955.218	567.333
957.563	576
959.908	577.778
962.252	579.111
964.595	570
966.937	581.111
969.28	570.667
971.62	578.222
973.961	573.333
976.3	573.111
978.639	567.556
980.976	576.222
983.314	564
985.65	575.111
987.987	584.222
990.321	578.444
992.655	584
994.989	582.222
997.321	572.222
999.653	581.333
1001.98	576
1004.31	564.667
1006.65	579.556
1008.97	566.667
1011.3	568.222
1013.63	580
1015.96	572.444
1018.28	570.667
1020.61	577.111
1022.93	566.444
1025.26	568.889
1027.58	574.667
1029.9	577.556
1032.22	574.222
1034.54	582
1036.86	575.111
1039.18	577.778
1041.5	574.222
1043.82	573.778
1046.14	577.556
1048.45	583.333
1050.77	583.111
1053.08	582.889
1055.4	588.667
1057.71	585.556
1060.02	583.111
1062.33	590
1064.64	579.778
1066.96	585.333
1069.27	578
1071.57	590.222
1073.88	589.556
1076.19	593.333
1078.5	581.556
1080.8	605.333
1083.11	608
1085.41	608.444
1087.72	611.111
1090.02	626.222
1092.32	627.556
1094.62	643.556
1096.92	660.444
1099.22	654.444
1101.52	643.556
1103.82	635.333
1106.12	627.111
1108.42	617.111
1110.71	619.333
1113.01	617.333
1115.3	644.444
1117.6	627.556
1119.89	636
1122.18	624.667
1124.48	636.889
1126.77	628.444
1129.06	630.444
1131.35	626.222
1133.64	622.222
1135.93	624.222
1138.21	618.444
1140.5	623.778
1142.79	620.445
1145.07	614.444
1147.36	616
1149.64	615.556
1151.92	625.778
1154.21	630.444
1156.49	622.444
1158.77	631.778
1161.05	630.667
1163.33	623.556
1165.61	614
1167.89	620.889
1170.16	606.222
1172.44	607.556
1174.72	614.444
1176.99	601.556
1179.27	597.556
1181.54	605.778
1183.81	602.222
1186.09	599.778
1188.36	601.556
1190.63	593.778
1192.9	588.889
1195.17	589.111
1197.44	614
1199.71	613.111
1201.97	598.889
1204.24	612.889
1206.5	616.222
1208.77	611.556
1211.03	606.444
1213.3	607.778
1215.56	597.556
1217.82	624.667
1220.09	617.111
1222.35	626.222
1224.61	619.333
1226.87	621.111
1229.12	631.111
1231.38	626.222
1233.64	637.556
1235.9	632.222
1238.15	622.444
1240.41	636.889
1242.66	631.778
1244.92	624.667
1247.17	631.556
1249.42	628.889
1251.67	636.667
1253.92	642.222
1256.17	640.889
1258.42	639.333
1260.67	643.556
1262.92	645.111
1265.17	650.889
1267.42	650.222
1269.66	652.667
1271.91	661.556
1274.15	645.778
1276.39	646
1278.64	637.778
1280.88	640.889
1283.12	643.556
1285.36	643.333
1287.6	636.889
1289.84	627.556
1292.08	639.333
1294.32	629.778
1296.56	631.778
1298.79	629.778
1301.03	636.222
1303.26	626.667
1305.5	620.222
1307.73	626.222
1309.97	616
1312.2	623.556
1314.43	628.444
1316.66	626.889
1318.89	633.333
1321.12	630.222
1323.35	639.333
1325.58	632.444
1327.81	632.444
1330.03	645.333
1332.26	636.222
1334.49	651.111
1336.71	649.556
1338.94	662.222
1341.16	654.889
1343.38	661.556
1345.6	663.778
1347.83	664.889
1350.05	660.667
1352.27	665.111
1354.49	671.111
1356.7	671.333
1358.92	685.111
1361.14	697.778
1363.36	737.778
1365.57	752.222
1367.79	782.889
1370	790.889
1372.21	796
1374.43	777.556
1376.64	770.889
1378.85	745.778
1381.06	730.444
1383.27	713.778
1385.48	695.111
1387.69	692
1389.9	679.556
1392.11	671.333
1394.31	672.222
1396.52	651.555
1398.73	658.889
1400.93	649.556
1403.13	656.444
1405.34	648.222
1407.54	645.778
1409.74	653.111
1411.94	650.444
1414.14	658.444
1416.34	653.333
1418.54	648.889
1420.74	629.111
1422.94	628.667
1425.14	634.667
1427.33	616.889
1429.53	617.778
1431.72	626.889
1433.92	631.111
1436.11	637.111
1438.3	625.556
1440.5	632.444
1442.69	634.667
1444.88	630.889
1447.07	648.444
1449.26	645.556
1451.45	667.556
1453.64	669.778
1455.82	656.889
1458.01	665.111
1460.2	659.333
1462.38	633.555
1464.57	653.333
1466.75	647.778
1468.93	628
1471.12	636.444
1473.3	640.889
1475.48	634.889
1477.66	639.333
1479.84	646
1482.02	637.778
1484.2	631.333
1486.38	618.667
1488.55	619.333
1490.73	624.222
1492.91	618.889
1495.08	620.222
1497.26	615.111
1499.43	618
1501.61	627.111
1503.78	625.111
1505.95	624.222
1508.12	624.889
1510.29	626.889
1512.46	623.778
1514.63	619.333
1516.8	609.556
1518.97	617.778
1521.14	618
1523.3	621.333
1525.47	625.556
1527.63	623.333
1529.8	633.556
1531.96	623.333
1534.12	624.889
1536.29	625.333
1538.45	640.444
1540.61	644
1542.77	642.222
1544.93	638.444
1547.09	624.222
1549.25	631.556
1551.41	650
1553.56	627.333
1555.72	639.333
1557.88	634.222
1560.03	629.778
1562.18	641.778
1564.34	626
1566.49	652.444
1568.64	648.889
1570.8	645.778
1572.95	649.333
1575.1	648.444
1577.25	643.111
1579.4	656.667
1581.55	643.333
1583.69	651.778
1585.84	648.222
1587.99	650.222
1590.13	657.778
1592.28	653.333
1594.42	643.778
1596.57	640.667
1598.71	645.778
1600.85	650.667
1602.99	632.444
1605.14	614.889
1607.28	619.333
1609.42	624.889
1611.56	616
1613.69	603.111
1615.83	601.333
1617.97	607.778
1620.11	604.889
1622.24	591.333
1624.38	584.444
1626.51	592
1628.65	566.889
1630.78	566.444
1632.91	563.778
1635.04	557.333
1637.17	559.778
1639.31	547.333
1641.44	538
1643.57	544.889
1645.69	532.222
1647.82	524
1649.95	532.667
1652.08	534.889
1654.2	535.111
1656.33	521.111
1658.45	526.889
1660.58	517.111
1662.7	508.444
1664.82	519.556
1666.94	512.667
1669.07	518.444
1671.19	521.111
1673.31	510.667
1675.43	508.889
1677.55	504.667
1679.66	506.444
1681.78	507.556
1683.9	495.111
1686.01	498.667
1688.13	502.889
1690.25	492.444
1692.36	490
1694.47	480.222
1696.59	490.444
1698.7	483.111
1700.81	484.889
1702.92	490.889
1705.03	486.667
1707.14	488.667
1709.25	495.556
1711.36	483.111
1713.47	478.889
1715.58	476.444
1717.68	485.556
1719.79	479.556
1721.89	466.889
1724	475.111
1726.1	483.111
1728.21	477.778
1730.31	474.889
1732.41	471.333
1734.51	462.222
1736.61	464.444
1738.71	474.667
1740.81	466.889
1742.91	477.111
1745.01	479.778
1747.11	467.333
1749.2	464.667
1751.3	463.778
1753.4	456.444
1755.49	461.778
1757.59	460.444
1759.68	455.778
1761.77	459.778
1763.86	459.778
1765.96	458.889
1768.05	461.333
1770.14	449.556
1772.23	451.333
1774.32	452.222
1776.41	452.667
1778.49	450.444
1780.58	450.222
1782.67	446.444
1784.76	449.111
1786.84	453.333
1788.92	458.667
1791.01	448.444
1793.09	453.333
1795.18	452
1797.26	446.889
1799.34	452.444
1801.42	450.222
1803.5	448.667
1805.58	449.778
1807.66	449.111
1809.74	450.444
1811.82	446
1813.89	449.778
1815.97	441.556
1818.05	443.333
1820.12	439.556
1822.2	445.333
1824.27	447.111
1826.34	448.889
1828.42	436.444
1830.49	439.111
1832.56	436
1834.63	443.778
1836.7	442.889
1838.77	439.556
1840.84	440.222
1842.91	444.889
1844.98	437.778
1847.04	431.778
1849.11	434.444
1851.18	438.222
1853.24	430.667
1855.31	433.778
1857.37	438.222
1859.43	429.111
1861.5	425.333
1863.56	427.556
1865.62	426.667
1867.68	438.889
1869.74	423.111
1871.8	433.556
1873.86	425.778
1875.92	418.222
1877.98	428.222
1880.03	428.889
1882.09	418.222
1884.15	430.222
1886.2	431.333
1888.26	421.111
1890.31	421.333
1892.36	428.222
1894.42	428.667
1896.47	424.667
1898.52	419.111
1900.57	418.444
1902.62	428.222
1904.67	432
1906.72	420.889
1908.77	425.778
1910.82	421.333
1912.86	417.111
1914.91	417.556
1916.96	421.556
1919	419.333
1921.04	432.444
1923.09	417.778
1925.13	429.778
1927.18	420
1929.22	419.111
1931.26	411.778
1933.3	417.111
1935.34	415.778
1937.38	415.333
1939.42	410.667
1941.46	410.667
1943.5	414.667
1945.53	406
1947.57	401.556
1949.61	404.889
1951.64	415.111
1953.68	411.111
1955.71	396.444
1957.75	411.333
1959.78	402.889
1961.81	406.222
1963.84	411.778
1965.87	410.444
1967.9	405.111
1969.93	396.667
1971.96	394.444
1973.99	402.444
1976.02	396.889
1978.05	407.111
1980.07	400.667
1982.1	403.111
1984.13	398.889
1986.15	410.667
1988.18	398.444
1990.2	391.778
1992.22	404
1994.25	387.778
1996.27	397.556
1998.29	396.444
2000.31	404.667
2002.33	403.111
2004.35	391.556
2006.37	395.778
2008.39	402.222
2010.41	394.222
2012.42	395.778
2014.44	384
2016.46	392.889
2018.47	396.222
2020.49	396.889
2022.5	389.778
2024.51	400.444
2026.53	390.444
2028.54	390.444
2030.55	388.889
2032.56	388.222
2034.57	395.111
2036.58	396.222
2038.59	394
2040.6	386.667
2042.61	387.556
2044.62	390.667
2046.62	386
2048.63	386.444
2050.64	380
2052.64	382.667
2054.65	392.444
2056.65	382.889
2058.65	389.111
2060.66	387.111
2062.66	371.111
2064.66	381.111
2066.66	377.778
2068.66	388.444
2070.66	385.556
2072.66	383.556
2074.66	378.889
2076.66	379.111
2078.65	375.111
2080.65	384
2082.65	375.333
2084.64	375.556
2086.64	377.778
2088.63	381.778
2090.63	378.889
2092.62	387.778
2094.61	366.444
2096.6	374
2098.59	372
2100.59	371.111
2102.58	371.778
2104.56	376.222
2106.55	376
2108.54	369.111
2110.53	374.667
2112.52	382
2114.5	379.556
2116.49	373.778
2118.48	375.778
2120.46	375.333
2122.44	375.333
2124.43	382.889
2126.41	380.667
2128.39	384.667
2130.38	396.444
2132.36	384
2134.34	378.444
2136.32	373.778
2138.3	385.556
2140.28	385.556
2142.26	382.444
2144.23	385.778
2146.21	372.667
2148.19	377.333
2150.16	382
2152.14	372.222
2154.11	379.556
2156.09	376.222
2158.06	362.667
2160.04	376.444
2162.01	368.889
2163.98	362.889
2165.95	367.111
2167.92	363.333
2169.89	362
2171.86	358.222
2173.83	358.444
2175.8	349.333
2177.77	354.444
2179.73	361.333
2181.7	362.222
2183.67	349.556
2185.63	356.889
2187.6	355.333
2189.56	347.778
2191.53	350.667
2193.49	350.222
2195.45	351.778
2197.41	352.889
2199.37	350.222
2201.34	346
2203.29	350.889
2205.26	343.111
2207.21	354.222
2209.17	342.222
2211.13	338.667
2213.09	343.556
2215.05	343.111
2217	338.889
2218.96	341.778
2220.91	343.333
2222.87	346.667
2224.82	336.222
2226.77	344.444
2228.73	341.556
2230.68	344.889
2232.63	342.667
2234.58	337.778
2236.53	340
2238.48	337.333
2240.43	338.889
2242.38	337.333
2244.33	345.333
2246.27	338.889
2248.22	339.111
2250.17	335.111
2252.11	325.556
2254.06	328
2256	341.556
2257.95	320.222
2259.89	332.444
2261.84	336.222
2263.78	334.889
2265.72	330.222
2267.66	328.222
2269.6	332
2271.54	325.778
2273.48	335.333
2275.42	329.556
2277.36	324.222
2279.3	330.222
2281.23	330.667
2283.17	324
2285.11	327.333
2287.04	315.111
2288.98	324.889
2290.91	324.889
2292.84	326
2294.78	318.667
2296.71	313.778
2298.64	319.111
2300.57	311.111
2302.51	319.111
2304.44	308.889
2306.37	320.889
2308.29	314
2310.22	318.222
2312.15	322.444
2314.08	313.333
2316.01	318.444
2317.93	318.222
2319.86	319.111
2321.78	315.556
2323.71	312.667
2325.63	317.778
2327.56	314.222
2329.48	319.333
2331.4	317.333
2333.32	306
2335.25	312
2337.17	313.556
2339.09	311.778
2341.01	303.556
2342.92	312.667
2344.84	314.444
2346.76	307.111
2348.68	305.778
2350.6	312.889
2352.51	306.889
2354.43	312.444
2356.34	306.889
2358.26	302.667
2360.17	305.111
2362.09	307.333
2364	294.222
2365.91	310.222
2367.82	300.222
2369.73	303.333
2371.64	302.889
2373.55	302
2375.46	302.444
2377.37	298.889
2379.28	300
2381.19	308.444
2383.1	296.889
2385	293.778
2386.91	298.889
2388.82	296.444
2390.72	300.667
2392.62	302
2394.53	297.333
2396.43	292.889
2398.33	291.778
2400.24	300.222
2402.14	297.111
2404.04	297.556
2405.94	293.556
2407.84	295.333
2409.74	299.333
2411.64	291.111
2413.54	292.667
2415.44	291.111
2417.33	297.556
2419.23	296
2421.13	289.778
2423.02	293.556
2424.92	289.778
2426.81	301.778
2428.71	294.444
2430.6	294
2432.49	293.556
2434.38	291.556
2436.28	289.111
2438.17	285.556
2440.06	283.778
2441.95	286.889
2443.84	286.889
2445.73	295.333
