176.817	558
179.42	543.555
182.022	553.111
184.622	544
187.223	544.889
189.821	534.222
192.419	533.333
195.017	549.111
197.612	545.333
200.208	541.333
202.802	542
205.397	547.333
207.99	548.889
210.581	558.222
213.173	546
215.762	560.889
218.352	549.333
220.94	553.111
223.528	571.333
226.114	563.778
228.701	568.667
231.285	578.667
233.87	579.778
236.452	594.222
239.034	592.889
241.616	591.333
244.196	588
246.777	596.889
249.355	601.333
251.933	605.333
254.511	603.111
257.086	598.222
259.663	603.111
262.237	611.333
264.81	606.444
267.383	602.667
269.955	598.889
272.525	597.333
275.097	594.667
277.665	587.556
280.234	574.667
282.802	568
285.368	575.333
287.934	574.667
290.499	559.333
293.064	566.222
295.627	564
298.189	566.222
300.75	552.667
303.312	557.333
305.871	559.778
308.43	549.333
310.988	538.889
313.545	532.444
316.101	528
318.658	517.556
321.212	517.111
323.766	511.111
326.319	514.667
328.871	506
331.422	508.667
333.972	513.556
336.522	502.222
339.072	513.333
341.619	507.778
344.166	501.333
346.712	506.444
349.258	518.222
351.802	514
354.346	513.778
356.888	512.889
359.43	513.111
361.971	519.556
364.511	515.778
367.051	512.222
369.589	508.667
372.127	506.222
374.664	517.778
377.2	525.333
379.735	528
382.27	529.111
384.802	521.778
387.334	509.556
389.866	506.889
392.397	512.889
394.927	504.667
397.457	497.778
399.985	504.222
402.513	502.222
405.038	500.667
407.565	512.222
410.09	510.667
412.614	512.889
415.138	513.556
417.66	504.889
420.181	508.889
422.702	510.444
425.222	514.222
427.742	512.444
430.259	502.889
432.777	526.444
435.294	517.333
437.81	510.222
440.324	502.222
442.838	498.667
445.352	510.444
447.863	510
450.375	507.778
452.887	510
455.395	520.222
457.905	515.333
460.414	515.333
462.92	514.889
465.427	523.333
467.932	510.444
470.438	518.667
472.942	514.667
475.445	517.778
477.948	512.444
480.448	526.445
482.95	516.667
485.449	509.556
487.949	520.889
490.446	517.778
492.944	514.667
495.44	511.333
497.937	515.333
500.431	524.667
502.926	529.111
505.418	518.222
507.912	519.778
510.403	514.222
512.894	513.778
515.384	505.111
517.874	528.222
520.361	521.333
522.848	523.778
525.336	527.556
527.821	528.444
530.306	536.889
532.791	521.778
535.274	522.889
537.756	522.889
540.238	523.556
542.719	531.333
545.199	529.333
547.679	519.111
550.157	529.333
552.634	527.778
555.112	532.444
557.588	524
560.063	522.667
562.537	524.889
565.011	527.778
567.484	535.778
569.955	524.222
572.426	514.222
574.896	517.333
577.367	528.889
579.835	526.444
582.303	517.333
584.77	521.778
587.236	514.444
589.701	525.778
592.165	532.889
594.629	523.556
597.093	531.556
599.555	531.556
602.016	520.222
604.477	532.667
606.936	537.111
609.395	555.333
611.853	555.556
614.311	564.222
616.767	552.222
619.223	555.333
621.678	552.444
624.132	545.333
626.585	544.444
629.037	548.444
631.489	543.111
633.94	542.889
636.39	543.778
638.839	547.555
641.288	550.667
643.736	542
646.183	551.556
648.627	553.333
651.073	555.556
653.517	544.667
655.961	543.778
658.404	536
660.846	542.444
663.288	542.444
665.727	543.778
668.167	531.778
670.606	529.111
673.044	538
675.482	539.333
677.917	536.889
680.353	534.667
682.788	545.111
685.222	537.111
687.655	540.222
690.087	540.667
692.519	547.778
694.951	538
697.38	538.222
699.809	547.778
702.238	545.111
704.665	546.667
707.092	536.667
709.519	526.667
711.943	538.222
714.368	543.333
716.791	551.556
719.214	559.556
721.637	527.555
724.058	543.333
726.479	542.889
728.898	549.333
731.317	538.889
733.734	541.556
736.152	539.778
738.568	541.556
740.985	540.444
743.399	537.556
745.814	533.556
748.227	531.556
750.64	538.667
753.051	541.556
755.463	535.111
757.872	543.778
760.283	542.889
762.691	531.333
765.098	540
767.506	536.667
769.912	533.556
772.318	540.667
774.722	536.889
777.126	536.222
779.53	532.222
781.932	545.333
784.333	533.778
786.735	542.889
789.135	546
791.533	554.667
793.933	562
796.33	558.222
798.727	564.444
801.123	553.778
803.519	552.889
805.913	564.444
808.307	564.222
810.699	565.111
813.093	566.667
815.484	564.667
817.874	569.778
820.264	564.444
822.653	567.111
825.041	569.556
827.43	557.111
829.817	560.444
832.203	566.445
834.588	575.778
836.972	561.333
839.356	574
841.738	568
844.12	564.889
846.502	568
848.882	570.222
851.262	578.444
853.641	576
856.02	585.778
858.397	578.222
860.774	594.667
863.15	601.111
865.525	595.111
867.9	596.889
870.273	591.555
872.646	578.444
875.019	587.111
877.39	589.111
879.761	571.333
882.131	570.222
884.5	578
886.869	588.222
889.236	581.333
891.602	577.111
893.968	575.556
896.334	577.333
898.698	573.111
901.062	570.444
903.426	564.444
905.787	555.111
908.148	568.444
910.509	569.556
912.87	560.222
915.228	556.667
917.587	561.333
919.945	559.333
922.302	575.556
924.657	565.333
927.013	566.222
929.368	559.333
931.721	552
934.074	558.667
936.427	559.556
938.778	564.222
941.129	560.667
943.479	567.111
945.828	560
948.177	556.667
950.524	554.667
952.871	562.667
955.218	566.667
957.563	549.556
959.908	564.889
962.252	554
964.595	566
966.937	563.556
969.28	560
971.62	564.667
973.961	564.222
976.3	561.778
978.639	563.111
980.976	562.889
983.314	558.444
985.65	561.778
987.987	565.556
990.321	565.778
992.655	575.556
994.989	566.222
997.321	572
999.653	571.556
1001.98	576.222
1004.31	568.889
1006.65	575.333
1008.97	576.222
1011.3	558.667
1013.63	563.111
1015.96	559.333
1018.28	555.556
1020.61	553.556
1022.93	575.111
1025.26	570
1027.58	565.778
1029.9	570.889
1032.22	562.667
1034.54	569.333
1036.86	571.556
1039.18	567.333
1041.5	555.778
1043.82	568.667
1046.14	569.778
1048.45	582.667
1050.77	568.889
1053.08	572.222
1055.4	581.556
1057.71	578
1060.02	577.778
1062.33	586.222
1064.64	574.889
1066.96	584.222
1069.27	584.222
1071.57	595.556
1073.88	587.556
1076.19	592.222
1078.5	582.889
1080.8	588.889
1083.11	587.556
1085.41	604.222
1087.72	607.111
1090.02	604.667
1092.32	618
1094.62	630.889
1096.92	644
1099.22	625.778
1101.52	629.111
1103.82	634
1106.12	621.111
1108.42	628.444
1110.71	629.333
1113.01	624.889
1115.3	627.556
1117.6	643.333
1119.89	655.778
1122.18	648
1124.48	644.889
1126.77	659.556
1129.06	651.111
1131.35	642
1133.64	638
1135.93	635.333
1138.21	644.889
1140.5	646.444
1142.79	641.333
1145.07	656
1147.36	662.222
1149.64	660.667
1151.92	680.667
1154.21	688.222
1156.49	694
1158.77	675.333
1161.05	675.778
1163.33	675.556
1165.61	666.667
1167.89	656.444
1170.16	656
1172.44	653.111
1174.72	656
1176.99	654.889
1179.27	657.111
1181.54	657.556
1183.81	659.556
1186.09	654.667
1188.36	659.555
1190.63	662.222
1192.9	664.222
1195.17	662
1197.44	666.222
1199.71	678.222
1201.97	661.111
1204.24	681.333
1206.5	666
1208.77	678.667
1211.03	679.778
1213.3	680.445
1215.56	686.889
1217.82	699.556
1220.09	700.889
1222.35	708.444
1224.61	707.333
1226.87	713.556
1229.12	714.667
1231.38	712
1233.64	708
1235.9	721.111
1238.15	735.333
1240.41	748
1242.66	747.333
1244.92	751.556
1247.17	749.333
1249.42	737.778
1251.67	741.333
1253.92	735.778
1256.17	741.333
1258.42	754.444
1260.67	783.333
1262.92	766.667
1265.17	780
1267.42	778.889
1269.66	772.667
1271.91	763.778
1274.15	756.222
1276.39	756.444
1278.64	739.556
1280.88	738.667
1283.12	737.333
1285.36	734.889
1287.6	731.555
1289.84	728
1292.08	738
1294.32	728.444
1296.56	734.889
1298.79	732.667
1301.03	726.889
1303.26	724.889
1305.5	726
1307.73	720.889
1309.97	730.444
1312.2	733.556
1314.43	726.889
1316.66	733.111
1318.89	748.889
1321.12	727.778
1323.35	739.778
1325.58	718
1327.81	749.111
1330.03	755.778
1332.26	751.556
1334.49	757.778
1336.71	775.556
1338.94	788.889
1341.16	790.222
1343.38	800.222
1345.6	796
1347.83	816.889
1350.05	833.111
1352.27	830.444
1354.49	855.556
1356.7	853.556
1358.92	893.111
1361.14	917.333
1363.36	980.222
1365.57	1034.89
1367.79	1063.11
1370	1086.89
1372.21	1094.67
1374.43	1064.44
1376.64	1023.33
1378.85	986
1381.06	960.222
1383.27	908.222
1385.48	886.889
1387.69	870
1389.9	854.222
1392.11	848.889
1394.31	827.333
1396.52	820
1398.73	812.667
1400.93	783.111
1403.13	791.778
1405.34	787.333
1407.54	783.778
1409.74	776.889
1411.94	783.333
1414.14	791.333
1416.34	791.333
1418.54	774.889
1420.74	783.555
1422.94	771.778
1425.14	776.889
1427.33	764
1429.53	751.556
1431.72	748.667
1433.92	760.667
1436.11	765.111
1438.3	772
1440.5	774.222
1442.69	780
1444.88	775.556
1447.07	789.111
1449.26	801.778
1451.45	817.778
1453.64	820.222
1455.82	827.333
1458.01	813.556
1460.2	821.778
1462.38	816.444
1464.57	798.444
1466.75	788.222
1468.93	781.333
1471.12	770.444
1473.3	784.444
1475.48	764.222
1477.66	793.778
1479.84	769.111
1482.02	786.444
1484.2	794.667
1486.38	775.111
1488.55	769.556
1490.73	787.556
1492.91	779.333
1495.08	778.444
1497.26	777.111
1499.43	770.889
1501.61	781.333
1503.78	790.889
1505.95	786.445
1508.12	792
1510.29	773.778
1512.46	798
1514.63	792.889
1516.8	808.222
1518.97	788.889
1521.14	799.778
1523.3	778.444
1525.47	794.889
1527.63	789.778
1529.8	802.667
1531.96	790.445
1534.12	798.667
1536.29	803.778
1538.45	808
1540.61	804.889
1542.77	798.222
1544.93	813.556
1547.09	817.333
1549.25	812.222
1551.41	815.333
1553.56	840.667
1555.72	826.444
1557.88	844.222
1560.03	858
1562.18	859.333
1564.34	886.889
1566.49	881.778
1568.64	869.111
1570.8	880.667
1572.95	881.556
1575.1	881.778
1577.25	886
1579.4	877.111
1581.55	874.444
1583.69	869.111
1585.84	871.333
1587.99	861.556
1590.13	848
1592.28	862.889
1594.42	834.445
1596.57	832.667
1598.71	820.222
1600.85	819.556
1602.99	823.111
1605.14	797.111
1607.28	795.555
1609.42	773.778
1611.56	762.889
1613.69	747.333
1615.83	748.222
1617.97	739.556
1620.11	732
1622.24	719.333
1624.38	707.333
1626.51	705.333
1628.65	686.222
1630.78	671.556
1632.91	672
1635.04	662.445
1637.17	644
1639.31	622.444
1641.44	633.333
1643.57	625.111
1645.69	610.667
1647.82	590.667
1649.95	587.111
1652.08	581.333
1654.2	575.111
1656.33	576
1658.45	573.111
1660.58	574.444
1662.7	569.111
1664.82	553.111
1666.94	557.556
1669.07	554.889
1671.19	542.667
1673.31	540.444
1675.43	540
1677.55	540.444
1679.66	533.111
1681.78	543.111
1683.9	528.222
1686.01	523.556
1688.13	535.111
1690.25	524.889
1692.36	523.333
1694.47	519.556
1696.59	520.889
1698.7	520.889
1700.81	510.667
1702.92	502.667
1705.03	508.444
1707.14	519.778
1709.25	515.333
1711.36	510
1713.47	502.889
1715.58	504.889
1717.68	504.222
1719.79	516.889
1721.89	502
1724	503.111
1726.1	499.111
1728.21	500.667
1730.31	501.556
1732.41	495.778
1734.51	502.222
1736.61	492.889
1738.71	492.444
1740.81	495.333
1742.91	487.556
1745.01	484.667
1747.11	478.444
1749.2	481.778
1751.3	484.667
1753.4	485.778
1755.49	471.556
1757.59	474.444
1759.68	478
1761.77	468
1763.86	472.222
1765.96	468.667
1768.05	480
1770.14	468
1772.23	472.889
1774.32	464.222
1776.41	473.556
1778.49	465.556
1780.58	470.889
1782.67	449.778
1784.76	473.333
1786.84	470.222
1788.92	469.111
1791.01	462.444
1793.09	463.333
1795.18	452.222
1797.26	461.778
1799.34	465.778
1801.42	464
1803.5	461.111
1805.58	449.556
1807.66	446.444
1809.74	448
1811.82	449.556
1813.89	463.333
1815.97	457.556
1818.05	443.778
1820.12	451.556
1822.2	456.667
1824.27	447.333
1826.34	445.778
1828.42	440.889
1830.49	447.333
1832.56	444.444
1834.63	438.667
1836.7	439.333
1838.77	432.889
1840.84	438.667
1842.91	432.667
1844.98	439.778
1847.04	442.444
1849.11	443.556
1851.18	429.556
1853.24	431.556
1855.31	432
1857.37	438
1859.43	443.556
1861.5	433.556
1863.56	431.333
1865.62	436.222
1867.68	442.222
1869.74	424.444
1871.8	428.222
1873.86	426.667
1875.92	431.556
1877.98	433.778
1880.03	428.444
1882.09	427.556
1884.15	430.889
1886.2	428.889
1888.26	438
1890.31	432
1892.36	424.889
1894.42	432
1896.47	422.444
1898.52	433.333
1900.57	422.444
1902.62	426.889
1904.67	421.111
1906.72	428.222
1908.77	418.667
1910.82	421.111
1912.86	429.556
1914.91	423.556
1916.96	430
1919	416.667
1921.04	430.444
1923.09	427.111
1925.13	419.333
1927.18	421.111
1929.22	425.778
1931.26	419.111
1933.3	419.556
1935.34	412.889
1937.38	422
1939.42	421.111
1941.46	419.111
1943.5	417.111
1945.53	415.778
1947.57	417.333
1949.61	421.111
1951.64	413.778
1953.68	414.222
1955.71	409.778
1957.75	420.667
1959.78	411.333
1961.81	406.222
1963.84	410
1965.87	404.222
1967.9	404.889
1969.93	410.222
1971.96	407.333
1973.99	410.889
1976.02	416.889
1978.05	406.444
1980.07	408.889
1982.1	406.889
1984.13	408.444
1986.15	403.778
1988.18	407.778
1990.2	404.889
1992.22	400
1994.25	402
1996.27	410.222
1998.29	412.444
2000.31	408.667
2002.33	400.222
2004.35	400.889
2006.37	402.222
2008.39	397.778
2010.41	402.889
2012.42	407.556
2014.44	409.778
2016.46	405.556
2018.47	403.333
2020.49	408
2022.5	403.556
2024.51	404.222
2026.53	394
2028.54	401.556
2030.55	400
2032.56	394.444
2034.57	394.667
2036.58	404.667
2038.59	404.444
2040.6	395.333
2042.61	401.111
2044.62	395.111
2046.62	400.667
2048.63	388.889
2050.64	392.222
2052.64	394.222
2054.65	391.778
2056.65	398.222
2058.65	395.333
2060.66	388.222
2062.66	405.111
2064.66	387.333
2066.66	393.333
2068.66	394.667
2070.66	380.222
2072.66	384.889
2074.66	387.111
2076.66	392.889
2078.65	381.778
2080.65	396
2082.65	386.222
2084.64	392
2086.64	389.333
2088.63	380.667
2090.63	376.444
2092.62	381.333
2094.61	385.556
2096.6	387.111
2098.59	387.111
2100.59	391.556
2102.58	390.222
2104.56	382.444
2106.55	390
2108.54	385.556
2110.53	382.667
2112.52	391.556
2114.5	388.667
2116.49	387.111
2118.48	395.556
2120.46	393.556
2122.44	403.556
2124.43	412.222
2126.41	399.333
2128.39	403.778
2130.38	404.444
2132.36	412.667
2134.34	411.111
2136.32	407.333
2138.3	408
2140.28	401.778
2142.26	406
2144.23	408.889
2146.21	401.778
2148.19	404
2150.16	409.111
2152.14	395.333
2154.11	394.889
2156.09	393.778
2158.06	390.889
2160.04	387.333
2162.01	388.889
2163.98	382.667
2165.95	379.333
2167.92	369.333
2169.89	370.444
2171.86	379.111
2173.83	378.667
2175.8	381.778
2177.77	374.889
2179.73	368.889
2181.7	384.222
2183.67	377.556
2185.63	369.111
2187.6	365.556
2189.56	358.667
2191.53	373.333
2193.49	360.222
2195.45	364.889
2197.41	354.889
2199.37	358.222
2201.34	364.889
2203.29	370.667
2205.26	358.667
2207.21	360.444
2209.17	356.444
2211.13	366.667
2213.09	362.222
2215.05	362.889
2217	357.556
2218.96	353.778
2220.91	362.667
2222.87	357.556
2224.82	354.889
2226.77	354.667
2228.73	356.889
2230.68	354.444
2232.63	348
2234.58	354.889
2236.53	356
2238.48	353.778
2240.43	342.667
2242.38	352.667
2244.33	338
2246.27	354.444
2248.22	354.222
2250.17	342
2252.11	349.556
2254.06	352.889
2256	346.222
2257.95	345.778
2259.89	346
2261.84	338
2263.78	333.111
2265.72	346.889
2267.66	338.222
2269.6	340.667
2271.54	340.444
2273.48	334.667
2275.42	336.889
2277.36	334.667
2279.3	334.222
2281.23	333.333
2283.17	328.444
2285.11	323.111
2287.04	342
2288.98	330.889
2290.91	320.222
2292.84	331.778
2294.78	324.667
2296.71	332.444
2298.64	329.333
2300.57	330
2302.51	335.778
2304.44	326.222
2306.37	325.556
2308.29	319.778
2310.22	319.333
2312.15	332
2314.08	324.222
2316.01	322.222
2317.93	326.889
2319.86	328.444
2321.78	330.889
2323.71	317.556
2325.63	325.333
2327.56	327.556
2329.48	310
2331.4	320.667
2333.32	322
2335.25	324
2337.17	325.556
2339.09	322
2341.01	319.111
2342.92	326.222
2344.84	326
2346.76	310.889
2348.68	313.556
2350.6	315.111
2352.51	321.111
2354.43	312.889
2356.34	321.556
2358.26	316.222
2360.17	313.556
2362.09	315.556
2364	314.222
2365.91	327.778
2367.82	311.333
2369.73	312.889
2371.64	316.222
2373.55	304
2375.46	312
2377.37	309.333
2379.28	312.444
2381.19	306.667
2383.1	314
2385	314.667
2386.91	305.556
2388.82	320
2390.72	305.333
2392.62	302.667
2394.53	310.667
2396.43	309.556
2398.33	308.667
2400.24	305.111
2402.14	315.111
2404.04	303.556
2405.94	303.333
2407.84	300.444
2409.74	303.333
2411.64	301.556
2413.54	310
2415.44	301.333
2417.33	302.889
2419.23	296.889
2421.13	300.889
2423.02	303.556
2424.92	304.444
2426.81	307.556
2428.71	301.778
2430.6	303.111
2432.49	300
2434.38	305.333
2436.28	299.111
2438.17	303.778
2440.06	299.111
2441.95	300.222
2443.84	300.444
2445.73	303.111
