176.817	546.889
179.42	535.111
182.022	550.222
184.622	544.667
187.223	550.889
189.821	537.333
192.419	548
195.017	558.667
197.612	543.111
200.208	538.222
202.802	542.667
205.397	555.111
207.99	549.556
210.581	554
213.173	549.111
215.762	548.667
218.352	562.889
220.94	560
223.528	557.111
226.114	566
228.701	568.222
231.285	575.333
233.87	570.667
236.452	577.556
239.034	582.667
241.616	576.889
244.196	578.444
246.777	588.444
249.355	582.444
251.933	585.778
254.511	586.889
257.086	590
259.663	590.889
262.237	594.444
264.81	588.222
267.383	591.778
269.955	590.222
272.525	594.667
275.097	589.333
277.665	585.555
280.234	595.111
282.802	591.111
285.368	590
287.934	590.222
290.499	581.333
293.064	593.556
295.627	592.444
298.189	607.333
300.75	601.556
303.312	606.444
305.871	597.555
308.43	599.333
310.988	601.778
313.545	607.778
316.101	606.667
318.658	595.778
321.212	601.333
323.766	603.555
326.319	598.222
328.871	608.222
331.422	621.556
333.972	621.556
336.522	601.333
339.072	615.111
341.619	610.667
344.166	622
346.712	620.444
349.258	608
351.802	623.111
354.346	619.333
356.888	620.889
359.43	615.333
361.971	626.889
364.511	626.444
367.051	620.889
369.589	618.667
372.127	627.778
374.664	644.444
377.2	663.556
379.735	665.778
382.27	679.333
384.802	646
387.334	632.445
389.866	623.778
392.397	620.667
394.927	599.333
397.457	614
399.985	609.111
402.513	627.333
405.038	612.667
407.565	617.333
410.09	627.778
412.614	622.444
415.138	614.222
417.66	626
420.181	626.444
422.702	627.778
425.222	625.556
427.742	637.555
430.259	642
432.777	651.556
435.294	655.333
437.81	662.667
440.324	669.778
442.838	643.111
445.352	649.333
447.863	645.111
450.375	635.778
452.887	637.111
455.395	645.333
457.905	660.889
460.414	654.222
462.92	656.445
465.427	638.222
467.932	633.333
470.438	632.444
472.942	638.889
475.445	625.556
477.948	643.778
480.448	628.889
482.95	631.111
485.449	638.667
487.949	633.333
490.446	640.889
492.944	644.445
495.44	642.444
497.937	638
500.431	643.556
502.926	639.111
505.418	630
507.912	633.111
510.403	633.333
512.894	641.556
515.384	641.556
517.874	646
520.361	650.444
522.848	659.333
525.336	647.556
527.821	642.444
530.306	643.333
532.791	631.111
535.274	631.333
537.756	622
540.238	636.444
542.719	630.889
545.199	634.444
547.679	644.444
550.157	641.778
552.634	653.556
555.112	643.111
557.588	637.333
560.063	644
562.537	646.444
565.011	646.444
567.484	649.556
569.955	637.333
572.426	638.444
574.896	634.889
577.367	628.889
579.835	626.444
582.303	650.889
584.77	636
587.236	636.222
589.701	650.222
592.165	624.889
594.629	635.778
597.093	639.111
599.555	635.111
602.016	635.778
604.477	634.444
606.936	651.556
609.395	646
611.853	639.111
614.311	641.778
616.767	646.667
619.223	653.111
621.678	654
624.132	652.889
626.585	641.333
629.037	650
631.489	650.444
633.94	655.111
636.39	650.889
638.839	652
641.288	645.778
643.736	646.889
646.183	654.889
648.627	640
651.073	643.778
653.517	640.667
655.961	640.667
658.404	648.889
660.846	644.222
663.288	654.667
665.727	646.222
668.167	647.778
670.606	632.445
673.044	630.444
675.482	628.222
677.917	639.556
680.353	637.778
682.788	634
685.222	626.444
687.655	631.111
690.087	628.222
692.519	643.111
694.951	645.111
697.38	638.667
699.809	643.333
702.238	646
704.665	632.222
707.092	641.111
709.519	642.222
711.943	642.667
714.368	648.222
716.791	646.667
719.214	640.444
721.637	634.222
724.058	649.778
726.479	637.111
728.898	626.222
731.317	642.444
733.734	634.667
736.152	635.111
738.568	641.778
740.985	635.556
743.399	627.778
745.814	633.111
748.227	635.555
750.64	639.333
753.051	621.333
755.463	622.222
757.872	633.111
760.283	615.333
762.691	621.111
765.098	627.333
767.506	628
769.912	636.444
772.318	626.889
774.722	631.333
777.126	631.333
779.53	627.555
781.932	632
784.333	631.333
786.735	630.889
789.135	627.556
791.533	623.778
793.933	629.556
796.33	634.222
798.727	643.111
801.123	636
803.519	623.111
805.913	636.444
808.307	634.667
810.699	630.889
813.093	630
815.484	630.889
817.874	625.556
820.264	635.333
822.653	631.778
825.041	632.444
827.43	625.556
829.817	625.556
832.203	627.111
834.588	621.111
836.972	615.333
839.356	636.222
841.738	633.111
844.12	628.667
846.502	631.556
848.882	625.333
851.262	624.889
853.641	625.556
856.02	628.889
858.397	630.889
860.774	626.444
863.15	641.778
865.525	644.889
867.9	633.778
870.273	638.889
872.646	649.778
875.019	637.111
877.39	630
879.761	640.889
882.131	639.778
884.5	636.889
886.869	638.667
889.236	638.889
891.602	637.778
893.968	648.889
896.334	641.333
898.698	630.889
901.062	645.556
903.426	637.778
905.787	627.111
908.148	616.222
910.509	630.889
912.87	625.778
915.228	620.667
917.587	638.222
919.945	622
922.302	623.111
924.657	624.667
927.013	625.556
929.368	626.667
931.721	620.889
934.074	620.889
936.427	618.222
938.778	614.889
941.129	620
943.479	612.222
945.828	623.333
948.177	611.333
950.524	624.444
952.871	618.667
955.218	616
957.563	609.111
959.908	624.444
962.252	630.222
964.595	629.111
966.937	624.222
969.28	627.333
971.62	627.778
973.961	630
976.3	626.222
978.639	630
980.976	624.222
983.314	618.667
985.65	630.667
987.987	636.889
990.321	626
992.655	624
994.989	624.889
997.321	636.889
999.653	629.111
1001.98	629.556
1004.31	632.889
1006.65	636.222
1008.97	625.111
1011.3	622.889
1013.63	607.111
1015.96	614
1018.28	621.111
1020.61	621.778
1022.93	614
1025.26	625.778
1027.58	635.333
1029.9	629.556
1032.22	632
1034.54	635.111
1036.86	626.444
1039.18	642.667
1041.5	635.556
1043.82	625.111
1046.14	630.222
1048.45	637.556
1050.77	638.889
1053.08	634.889
1055.4	648.222
1057.71	637.111
1060.02	655.111
1062.33	647.333
1064.64	635.556
1066.96	642
1069.27	646.222
1071.57	648
1073.88	641.778
1076.19	653.556
1078.5	649.111
1080.8	645.556
1083.11	655.778
1085.41	669.778
1087.72	667.111
1090.02	678.667
1092.32	711.333
1094.62	727.111
1096.92	738.444
1099.22	731.111
1101.52	701.111
1103.82	688
1106.12	686
1108.42	681.778
1110.71	667.111
1113.01	695.111
1115.3	697.778
1117.6	695.111
1119.89	696.889
1122.18	697.111
1124.48	730.667
1126.77	696
1129.06	682.667
1131.35	686.444
1133.64	672
1135.93	663.333
1138.21	653.778
1140.5	650.444
1142.79	659.333
1145.07	666.889
1147.36	662.222
1149.64	657.333
1151.92	664.445
1154.21	679.333
1156.49	688.444
1158.77	679.556
1161.05	669.333
1163.33	647.111
1165.61	652
1167.89	639.556
1170.16	642.222
1172.44	647.556
1174.72	637.111
1176.99	648.444
1179.27	642
1181.54	640.889
1183.81	626.222
1186.09	631.778
1188.36	637.111
1190.63	636.889
1192.9	626
1195.17	621.556
1197.44	629.333
1199.71	620.889
1201.97	634.222
1204.24	632.667
1206.5	633.556
1208.77	621.333
1211.03	623.333
1213.3	619.778
1215.56	631.333
1217.82	637.333
1220.09	630.444
1222.35	628
1224.61	632.889
1226.87	629.778
1229.12	628.444
1231.38	632
1233.64	632.444
1235.9	642.222
1238.15	641.778
1240.41	637.333
1242.66	642
1244.92	646.222
1247.17	633.111
1249.42	648.222
1251.67	642.222
1253.92	653.778
1256.17	652.222
1258.42	650.444
1260.67	658.444
1262.92	661.556
1265.17	665.111
1267.42	668.444
1269.66	662.667
1271.91	660.667
1274.15	664.667
1276.39	651.333
1278.64	655.778
1280.88	639.778
1283.12	656
1285.36	643.778
1287.6	631.333
1289.84	644.444
1292.08	644.889
1294.32	662.222
1296.56	639.111
1298.79	644
1301.03	638.444
1303.26	632.889
1305.5	636.889
1307.73	634.667
1309.97	636
1312.2	638.667
1314.43	640.444
1316.66	639.111
1318.89	638
1321.12	646.889
1323.35	644.222
1325.58	646
1327.81	646
1330.03	646
1332.26	646.889
1334.49	658.222
1336.71	662.889
1338.94	660.222
1341.16	664.889
1343.38	655.111
1345.6	669.778
1347.83	648.222
1350.05	646
1352.27	646.444
1354.49	648.889
1356.7	668.444
1358.92	663.778
1361.14	677.778
1363.36	684.889
1365.57	713.556
1367.79	731.333
1370	745.111
1372.21	747.556
1374.43	738.444
1376.64	755.111
1378.85	754
1381.06	734
1383.27	725.778
1385.48	703.333
1387.69	689.556
1389.9	666.222
1392.11	691.111
1394.31	663.556
1396.52	662.667
1398.73	658.667
1400.93	661.333
1403.13	662.444
1405.34	653.778
1407.54	651.111
1409.74	645.556
1411.94	646.222
1414.14	640.444
1416.34	646.667
1418.54	645.333
1420.74	645.555
1422.94	641.333
1425.14	632
1427.33	629.778
1429.53	632
1431.72	634.222
1433.92	621.111
1436.11	623.778
1438.3	629.556
1440.5	638.222
1442.69	633.556
1444.88	631.778
1447.07	642.222
1449.26	629.556
1451.45	638.889
1453.64	641.111
1455.82	646.444
1458.01	641.111
1460.2	648.889
1462.38	641.556
1464.57	649.556
1466.75	635.556
1468.93	624.444
1471.12	644
1473.3	622
1475.48	643.556
1477.66	632
1479.84	624
1482.02	629.556
1484.2	633.556
1486.38	619.556
1488.55	616.667
1490.73	618.889
1492.91	615.111
1495.08	614.889
1497.26	620.222
1499.43	603.333
1501.61	601.111
1503.78	613.556
1505.95	608
1508.12	613.556
1510.29	612.667
1512.46	607.778
1514.63	613.333
1516.8	614.667
1518.97	608.222
1521.14	608.444
1523.3	616.444
1525.47	612.667
1527.63	610.444
1529.8	619.333
1531.96	622.445
1534.12	610
1536.29	613.778
1538.45	620.444
1540.61	616
1542.77	622.667
1544.93	622
1547.09	610.889
1549.25	636.444
1551.41	634.444
1553.56	619.778
1555.72	624.222
1557.88	643.556
1560.03	622.222
1562.18	632.889
1564.34	634.444
1566.49	638
1568.64	630.445
1570.8	636.667
1572.95	637.111
1575.1	631.555
1577.25	635.111
1579.4	626.667
1581.55	621.111
1583.69	619.556
1585.84	603.778
1587.99	620.889
1590.13	610
1592.28	623.111
1594.42	621.111
1596.57	622.222
1598.71	621.333
1600.85	606.222
1602.99	615.333
1605.14	601.111
1607.28	600.667
1609.42	601.333
1611.56	604.222
1613.69	596.667
1615.83	594
1617.97	592.222
1620.11	595.111
1622.24	589.111
1624.38	589.556
1626.51	569.333
1628.65	577.111
1630.78	576.889
1632.91	571.556
1635.04	559.556
1637.17	563.111
1639.31	560.444
1641.44	556.222
1643.57	554.444
1645.69	563.111
1647.82	545.778
1649.95	538
1652.08	542.667
1654.2	558.222
1656.33	551.111
1658.45	541.778
1660.58	546
1662.7	543.333
1664.82	548.444
1666.94	528.222
1669.07	535.556
1671.19	538.889
1673.31	518.889
1675.43	533.333
1677.55	527.778
1679.66	523.333
1681.78	522.889
1683.9	531.333
1686.01	534.444
1688.13	521.778
1690.25	524.889
1692.36	520.444
1694.47	523.333
1696.59	525.333
1698.7	522.444
1700.81	527.111
1702.92	523.778
1705.03	520.444
1707.14	516.444
1709.25	503.778
1711.36	515.778
1713.47	509.333
1715.58	513.778
1717.68	511.778
1719.79	521.333
1721.89	511.333
1724	510.222
1726.1	504.889
1728.21	500
1730.31	512
1732.41	501.778
1734.51	499.333
1736.61	496.222
1738.71	505.333
1740.81	504.889
1742.91	495.778
1745.01	507.333
1747.11	496
1749.2	512
1751.3	496.222
1753.4	497.556
1755.49	490.889
1757.59	491.556
1759.68	496.444
1761.77	498.222
1763.86	492.889
1765.96	488.444
1768.05	493.556
1770.14	490.889
1772.23	486.222
1774.32	486
1776.41	483.333
1778.49	484.444
1780.58	489.111
1782.67	496.222
1784.76	494.667
1786.84	483.111
1788.92	493.556
1791.01	484.222
1793.09	484.667
1795.18	482
1797.26	480.889
1799.34	474.667
1801.42	481.333
1803.5	485.333
1805.58	483.333
1807.66	484.444
1809.74	486.222
1811.82	479.556
1813.89	478
1815.97	485.111
1818.05	475.333
1820.12	480.444
1822.2	484.889
1824.27	485.556
1826.34	482.222
1828.42	480.667
1830.49	482.667
1832.56	473.556
1834.63	476.889
1836.7	475.333
1838.77	459.111
1840.84	472.667
1842.91	467.556
1844.98	477.556
1847.04	465.111
1849.11	461.778
1851.18	467.778
1853.24	470
1855.31	478.889
1857.37	464.889
1859.43	461.778
1861.5	467.333
1863.56	458.889
1865.62	457.556
1867.68	459.111
1869.74	464.222
1871.8	472
1873.86	470.667
1875.92	468.667
1877.98	463.556
1880.03	460
1882.09	465.333
1884.15	469.778
1886.2	464.444
1888.26	460
1890.31	458.222
1892.36	459.778
1894.42	462.667
1896.47	455.778
1898.52	464.222
1900.57	456.222
1902.62	462
1904.67	444.889
1906.72	461.111
1908.77	457.333
1910.82	455.111
1912.86	460.444
1914.91	454.889
1916.96	456.444
1919	452.889
1921.04	460
1923.09	456.667
1925.13	453.778
1927.18	456.444
1929.22	450.667
1931.26	458.444
1933.3	446.667
1935.34	456.889
1937.38	440.889
1939.42	434
1941.46	452.667
1943.5	452.667
1945.53	438.222
1947.57	448.444
1949.61	435.556
1951.64	433.778
1953.68	444
1955.71	442.889
1957.75	444
1959.78	428.444
1961.81	432.667
1963.84	431.333
1965.87	436.667
1967.9	422
1969.93	432.222
1971.96	431.556
1973.99	427.111
1976.02	428.444
1978.05	433.778
1980.07	438.444
1982.1	438.222
1984.13	426.222
1986.15	428.222
1988.18	428.222
1990.2	432.222
1992.22	431.111
1994.25	438.667
1996.27	433.111
1998.29	424.222
2000.31	431.778
2002.33	440
2004.35	417.778
2006.37	428
2008.39	426.222
2010.41	436.444
2012.42	423.111
2014.44	427.111
2016.46	420.667
2018.47	428.667
2020.49	419.333
2022.5	427.556
2024.51	430.667
2026.53	422
2028.54	434.889
2030.55	424.667
2032.56	428.667
2034.57	420.444
2036.58	421.111
2038.59	422.222
2040.6	429.778
2042.61	422.222
2044.62	422
2046.62	417.333
2048.63	419.111
2050.64	416.667
2052.64	417.333
2054.65	413.778
2056.65	429.333
2058.65	424.444
2060.66	415.778
2062.66	414.889
2064.66	413.556
2066.66	416.889
2068.66	408.667
2070.66	417.556
2072.66	407.111
2074.66	407.778
2076.66	405.111
2078.65	406.222
2080.65	403.111
2082.65	409.778
2084.64	413.556
2086.64	411.556
2088.63	406.222
2090.63	406.444
2092.62	409.556
2094.61	396
2096.6	413.111
2098.59	400.444
2100.59	405.778
2102.58	405.111
2104.56	400.222
2106.55	398.667
2108.54	400.444
2110.53	402
2112.52	400
2114.5	405.556
2116.49	397.556
2118.48	401.111
2120.46	398.889
2122.44	402
2124.43	399.333
2126.41	402.667
2128.39	404.444
2130.38	400.222
2132.36	401.111
2134.34	400.889
2136.32	402
2138.3	400
2140.28	396.444
2142.26	405.111
2144.23	406.667
2146.21	399.333
2148.19	401.778
2150.16	406.222
2152.14	392.667
2154.11	388.222
2156.09	393.333
2158.06	392.444
2160.04	398
2162.01	380.667
2163.98	394.667
2165.95	382.444
2167.92	387.778
2169.89	386.444
2171.86	385.111
2173.83	383.556
2175.8	388.889
2177.77	385.333
2179.73	380
2181.7	377.333
2183.67	383.333
2185.63	387.333
2187.6	378
2189.56	372.222
2191.53	374
2193.49	374.222
2195.45	375.556
2197.41	365.778
2199.37	380.667
2201.34	372.889
2203.29	384.222
2205.26	377.333
2207.21	366.889
2209.17	365.111
2211.13	367.111
2213.09	372.889
2215.05	364.444
2217	358.444
2218.96	364.889
2220.91	360.667
2222.87	363.333
2224.82	364.222
2226.77	356.889
2228.73	369.778
2230.68	370.889
2232.63	366.889
2234.58	365.111
2236.53	364.889
2238.48	361.111
2240.43	361.778
2242.38	356.444
2244.33	357.333
2246.27	359.556
2248.22	362.889
2250.17	363.556
2252.11	356
2254.06	356.222
2256	362.667
2257.95	351.556
2259.89	361.556
2261.84	353.333
2263.78	349.778
2265.72	356.444
2267.66	354.444
2269.6	354.667
2271.54	345.556
2273.48	347.111
2275.42	347.556
2277.36	345.111
2279.3	338.444
2281.23	338
2283.17	341.333
2285.11	352.444
2287.04	344
2288.98	345.556
2290.91	346.444
2292.84	344
2294.78	335.333
2296.71	343.556
2298.64	343.333
2300.57	352.667
2302.51	346.667
2304.44	334.444
2306.37	346.667
2308.29	339.556
2310.22	343.556
2312.15	332.667
2314.08	334.889
2316.01	337.778
2317.93	334.444
2319.86	339.778
2321.78	339.333
2323.71	339.111
2325.63	336.444
2327.56	340.667
2329.48	332.889
2331.4	332.889
2333.32	337.333
2335.25	326.222
2337.17	338.444
2339.09	337.111
2341.01	332.444
2342.92	323.111
2344.84	327.333
2346.76	331.333
2348.68	323.778
2350.6	326
2352.51	324.889
2354.43	328.889
2356.34	310.667
2358.26	326
2360.17	330.889
2362.09	326.889
2364	326.222
2365.91	318.889
2367.82	325.333
2369.73	331.333
2371.64	321.778
2373.55	320.667
2375.46	328.222
2377.37	320.889
2379.28	316.889
2381.19	326.222
2383.1	315.556
2385	320.222
2386.91	314.667
2388.82	311.778
2390.72	321.556
2392.62	317.333
2394.53	318.667
2396.43	314
2398.33	314.667
2400.24	311.556
2402.14	313.333
2404.04	311.778
2405.94	310
2407.84	314
2409.74	310.667
2411.64	317.778
2413.54	307.556
2415.44	310
2417.33	310.889
2419.23	308.444
2421.13	310
2423.02	313.556
2424.92	300.444
2426.81	305.778
2428.71	310.222
2430.6	304.667
2432.49	307.556
2434.38	312
2436.28	303.111
2438.17	302.444
2440.06	306.889
2441.95	303.556
2443.84	312.222
2445.73	301.778
