176.817	662.889
179.42	658.667
182.022	668.222
184.622	657.556
187.223	664.222
189.821	659.778
192.419	656.222
195.017	651.111
197.612	672.222
200.208	665.778
202.802	658
205.397	657.556
207.99	664.444
210.581	665.778
213.173	660.889
215.762	676
218.352	659.333
220.94	660.444
223.528	662.889
226.114	679.556
228.701	673.111
231.285	670.667
233.87	681.556
236.452	694.222
239.034	678.445
241.616	689.778
244.196	690.444
246.777	686.222
249.355	689.333
251.933	686.667
254.511	689.778
257.086	688.222
259.663	698.667
262.237	692.444
264.81	697.333
267.383	697.333
269.955	698
272.525	689.778
275.097	691.333
277.665	700
280.234	687.333
282.802	688.667
285.368	693.111
287.934	688.444
290.499	688.444
293.064	692.222
295.627	710
298.189	706
300.75	688.444
303.312	696
305.871	692.667
308.43	681.333
310.988	687.778
313.545	675.111
316.101	673.333
318.658	671.556
321.212	675.778
323.766	670.222
326.319	666.222
328.871	676.222
331.422	672.222
333.972	670.444
336.522	662
339.072	677.333
341.619	664.667
344.166	679.555
346.712	682.667
349.258	680.667
351.802	678.222
354.346	684
356.888	672.444
359.43	666
361.971	683.778
364.511	669.111
367.051	682.222
369.589	670.889
372.127	686
374.664	685.333
377.2	698.222
379.735	713.778
382.27	711.778
384.802	700.667
387.334	669.778
389.866	664.222
392.397	668.889
394.927	673.556
397.457	676
399.985	683.111
402.513	675.333
405.038	671.333
407.565	669.778
410.09	681.333
412.614	672.667
415.138	682.667
417.66	679.333
420.181	692.667
422.702	686
425.222	683.555
427.742	687.556
430.259	694.222
432.777	682.444
435.294	694
437.81	700.889
440.324	688
442.838	681.556
445.352	684.444
447.863	675.111
450.375	680.667
452.887	684.444
455.395	679.333
457.905	693.111
460.414	689.333
462.92	683.111
465.427	680.889
467.932	682.222
470.438	675.111
472.942	668.889
475.445	684
477.948	674.444
480.448	677.111
482.95	688.444
485.449	683.333
487.949	679.556
490.446	675.333
492.944	689.778
495.44	677.556
497.937	682.444
500.431	684.889
502.926	688.889
505.418	674.667
507.912	676.444
510.403	677.111
512.894	680
515.384	680.889
517.874	680.222
520.361	704.222
522.848	685.111
525.336	691.778
527.821	688.889
530.306	689.556
532.791	686.222
535.274	686.444
537.756	681.778
540.238	688.222
542.719	689.333
545.199	694.222
547.679	674
550.157	689.333
552.634	674.667
555.112	683.111
557.588	686.222
560.063	680.889
562.537	692.445
565.011	693.556
567.484	688.667
569.955	682.667
572.426	696.222
574.896	698
577.367	698
579.835	690
582.303	687.556
584.77	691.556
587.236	693.778
589.701	681.778
592.165	689.778
594.629	688.667
597.093	682.667
599.555	694
602.016	696.667
604.477	700
606.936	691.333
609.395	702
611.853	686.222
614.311	694.889
616.767	688
619.223	706.667
621.678	694.667
624.132	694.889
626.585	687.333
629.037	700.444
631.489	694.889
633.94	688
636.39	698.444
638.839	691.111
641.288	694
643.736	702.667
646.183	700.889
648.627	690.444
651.073	706.444
653.517	688.444
655.961	690.222
658.404	676.667
660.846	696.222
663.288	679.778
665.727	698.667
668.167	688.222
670.606	677.556
673.044	689.556
675.482	686.889
677.917	691.556
680.353	693.778
682.788	686.444
685.222	663.556
687.655	695.111
690.087	686.222
692.519	674.222
694.951	681.778
697.38	691.778
699.809	701.333
702.238	684.889
704.665	689.111
707.092	691.111
709.519	693.556
711.943	695.333
714.368	692.667
716.791	690.222
719.214	706.444
721.637	687.556
724.058	686.444
726.479	680.222
728.898	683.778
731.317	680.444
733.734	677.778
736.152	672.667
738.568	676.667
740.985	690.444
743.399	673.778
745.814	662
748.227	664.444
750.64	675.111
753.051	680
755.463	672
757.872	676.667
760.283	668.667
762.691	672.889
765.098	672.222
767.506	674.889
769.912	674.444
772.318	673.111
774.722	689.778
777.126	672.667
779.53	688.444
781.932	668
784.333	685.333
786.735	693.778
789.135	681.778
791.533	682
793.933	700.667
796.33	678.444
798.727	689.111
801.123	691.778
803.519	685.111
805.913	684.222
808.307	683.111
810.699	690.222
813.093	692.222
815.484	696
817.874	686.222
820.264	686.889
822.653	684
825.041	681.333
827.43	687.111
829.817	687.333
832.203	686.444
834.588	687.333
836.972	683.333
839.356	680.444
841.738	668.667
844.12	690.222
846.502	695.556
848.882	688.667
851.262	693.111
853.641	691.111
856.02	695.333
858.397	691.555
860.774	695.778
863.15	698.667
865.525	697.111
867.9	701.333
870.273	704
872.646	686.889
875.019	687.111
877.39	685.333
879.761	680.222
882.131	686.667
884.5	689.111
886.869	687.333
889.236	693.111
891.602	687.333
893.968	686.889
896.334	690.889
898.698	686.889
901.062	687.333
903.426	678.667
905.787	682.444
908.148	677.111
910.509	680.889
912.87	662.444
915.228	660.444
917.587	669.333
919.945	678.667
922.302	674.667
924.657	674.445
927.013	676.222
929.368	667.556
931.721	670.445
934.074	683.111
936.427	675.778
938.778	658.444
941.129	676.667
943.479	679.778
945.828	664.444
948.177	675.111
950.524	670
952.871	669.111
955.218	670.667
957.563	690
959.908	678
962.252	686.444
964.595	666.889
966.937	686
969.28	676.889
971.62	679.556
973.961	682.889
976.3	685.556
978.639	672.444
980.976	683.111
983.314	674.889
985.65	665.111
987.987	672.444
990.321	675.556
992.655	668.667
994.989	671.778
997.321	685.333
999.653	687.333
1001.98	668.222
1004.31	676.445
1006.65	673.333
1008.97	683.111
1011.3	677.778
1013.63	673.111
1015.96	665.778
1018.28	686.222
1020.61	671.556
1022.93	676.667
1025.26	674
1027.58	671.778
1029.9	670.889
1032.22	686.889
1034.54	679.111
1036.86	682
1039.18	676.222
1041.5	668.222
1043.82	677.111
1046.14	689.111
1048.45	674.667
1050.77	688
1053.08	687.778
1055.4	689.333
1057.71	684.667
1060.02	692.667
1062.33	682
1064.64	688
1066.96	684.667
1069.27	680.667
1071.57	692
1073.88	693.111
1076.19	682.444
1078.5	692
1080.8	702.444
1083.11	706.444
1085.41	706.222
1087.72	707.778
1090.02	719.556
1092.32	729.333
1094.62	746.667
1096.92	728.444
1099.22	739.111
1101.52	744
1103.82	730.667
1106.12	715.111
1108.42	722.667
1110.71	738.444
1113.01	725.556
1115.3	744.444
1117.6	733.556
1119.89	744.222
1122.18	743.111
1124.48	744.889
1126.77	743.556
1129.06	723.333
1131.35	735.556
1133.64	723.333
1135.93	730.667
1138.21	723.778
1140.5	730
1142.79	730.667
1145.07	728.667
1147.36	746.667
1149.64	736.667
1151.92	759.111
1154.21	744.667
1156.49	755.556
1158.77	741.556
1161.05	751.556
1163.33	754
1165.61	736
1167.89	729.111
1170.16	726
1172.44	739.111
1174.72	728
1176.99	717.556
1179.27	707.333
1181.54	719.556
1183.81	719.111
1186.09	727.778
1188.36	716.222
1190.63	717.556
1192.9	726.222
1195.17	738.889
1197.44	714.889
1199.71	713.778
1201.97	727.333
1204.24	734.445
1206.5	733.333
1208.77	734
1211.03	713.778
1213.3	716.667
1215.56	732.889
1217.82	747.556
1220.09	721.333
1222.35	723.333
1224.61	750.444
1226.87	746.889
1229.12	756.889
1231.38	752.889
1233.64	744.444
1235.9	759.556
1238.15	764.222
1240.41	757.111
1242.66	759.778
1244.92	762.889
1247.17	781.556
1249.42	757.778
1251.67	761.778
1253.92	769.778
1256.17	766.667
1258.42	768.222
1260.67	775.556
1262.92	785.556
1265.17	788.222
1267.42	792
1269.66	775.556
1271.91	766.667
1274.15	766.667
1276.39	758.445
1278.64	769.111
1280.88	750.889
1283.12	766
1285.36	760
1287.6	752.889
1289.84	752.667
1292.08	749.111
1294.32	767.333
1296.56	746.222
1298.79	750
1301.03	747.333
1303.26	750
1305.5	752.222
1307.73	755.111
1309.97	756.667
1312.2	744.667
1314.43	771.333
1316.66	768.889
1318.89	755.778
1321.12	770.667
1323.35	765.333
1325.58	777.333
1327.81	776.889
1330.03	782.667
1332.26	775.556
1334.49	795.111
1336.71	797.778
1338.94	789.111
1341.16	785.333
1343.38	796.222
1345.6	791.333
1347.83	798
1350.05	790.444
1352.27	794.444
1354.49	803.111
1356.7	796
1358.92	812
1361.14	816.667
1363.36	836.667
1365.57	875.111
1367.79	891.778
1370	904.667
1372.21	892
1374.43	886.222
1376.64	874
1378.85	857.111
1381.06	850.667
1383.27	844.444
1385.48	809.333
1387.69	800.222
1389.9	787.333
1392.11	791.778
1394.31	788.889
1396.52	784.667
1398.73	773.111
1400.93	779.778
1403.13	772.222
1405.34	760.667
1407.54	778.222
1409.74	780.222
1411.94	770.444
1414.14	777.333
1416.34	772.889
1418.54	763.333
1420.74	774.889
1422.94	774.889
1425.14	771.556
1427.33	766.889
1429.53	768.889
1431.72	766.889
1433.92	767.333
1436.11	770.222
1438.3	772
1440.5	780.889
1442.69	763.556
1444.88	785.111
1447.07	794
1449.26	789.556
1451.45	796.667
1453.64	802.222
1455.82	803.778
1458.01	813.111
1460.2	800.444
1462.38	804.667
1464.57	786.222
1466.75	785.778
1468.93	782.222
1471.12	798.667
1473.3	783.333
1475.48	798.222
1477.66	797.111
1479.84	808.222
1482.02	795.778
1484.2	792.222
1486.38	800.222
1488.55	801.556
1490.73	808
1492.91	797.556
1495.08	809.556
1497.26	804.667
1499.43	808.667
1501.61	800.667
1503.78	812.444
1505.95	800.222
1508.12	804.444
1510.29	807.556
1512.46	799.333
1514.63	812.444
1516.8	810.667
1518.97	826.222
1521.14	840.667
1523.3	825.333
1525.47	829.556
1527.63	831.111
1529.8	832
1531.96	838.444
1534.12	850.889
1536.29	843.333
1538.45	837.556
1540.61	839.778
1542.77	838.889
1544.93	841.778
1547.09	825.778
1549.25	834.222
1551.41	828.222
1553.56	842.444
1555.72	828.889
1557.88	834
1560.03	838.445
1562.18	847.111
1564.34	843.333
1566.49	827.556
1568.64	820.667
1570.8	838.444
1572.95	839.778
1575.1	841.778
1577.25	836.667
1579.4	839.556
1581.55	846.444
1583.69	840
1585.84	836.667
1587.99	819.556
1590.13	825.111
1592.28	836.889
1594.42	819.111
1596.57	814
1598.71	795.778
1600.85	797.333
1602.99	796.222
1605.14	792.444
1607.28	797.556
1609.42	779.556
1611.56	774
1613.69	760.667
1615.83	754.222
1617.97	755.333
1620.11	743.111
1622.24	736.667
1624.38	725.556
1626.51	728
1628.65	710.222
1630.78	705.333
1632.91	700.222
1635.04	701.111
1637.17	688.445
1639.31	686.222
1641.44	693.333
1643.57	670.889
1645.69	656.889
1647.82	662.889
1649.95	657.333
1652.08	650.667
1654.2	643.111
1656.33	639.111
1658.45	653.778
1660.58	640.667
1662.7	643.111
1664.82	628.222
1666.94	619.333
1669.07	631.111
1671.19	620.222
1673.31	620.222
1675.43	622.222
1677.55	612.667
1679.66	616.222
1681.78	616.667
1683.9	626.222
1686.01	616.222
1688.13	614
1690.25	605.556
1692.36	609.333
1694.47	610
1696.59	602.889
1698.7	603.778
1700.81	608.444
1702.92	598
1705.03	592
1707.14	588.444
1709.25	597.111
1711.36	601.556
1713.47	585.333
1715.58	582.222
1717.68	589.556
1719.79	586.444
1721.89	584
1724	597.333
1726.1	580.667
1728.21	575.111
1730.31	592.889
1732.41	584.444
1734.51	588
1736.61	576
1738.71	574.667
1740.81	573.556
1742.91	561.111
1745.01	567.333
1747.11	575.556
1749.2	562
1751.3	566.667
1753.4	577.111
1755.49	563.778
1757.59	557.778
1759.68	567.556
1761.77	565.556
1763.86	571.333
1765.96	558.222
1768.05	567.556
1770.14	562.667
1772.23	571.556
1774.32	557.333
1776.41	559.333
1778.49	556.667
1780.58	574.444
1782.67	562.222
1784.76	546.889
1786.84	563.111
1788.92	563.333
1791.01	558.667
1793.09	562.222
1795.18	558.667
1797.26	550
1799.34	560.889
1801.42	549.333
1803.5	554.667
1805.58	554.444
1807.66	547.778
1809.74	552.667
1811.82	558
1813.89	553.778
1815.97	559.333
1818.05	560.222
1820.12	561.111
1822.2	558.444
1824.27	548.889
1826.34	549.333
1828.42	545.778
1830.49	534.444
1832.56	555.333
1834.63	543.556
1836.7	546.889
1838.77	541.778
1840.84	540.667
1842.91	545.778
1844.98	542.444
1847.04	539.556
1849.11	546.222
1851.18	540.889
1853.24	544.222
1855.31	539.778
1857.37	531.778
1859.43	532.889
1861.5	542.444
1863.56	534.222
1865.62	528.889
1867.68	525.333
1869.74	530.667
1871.8	535.111
1873.86	536.889
1875.92	532.222
1877.98	544
1880.03	535.333
1882.09	536.667
1884.15	536
1886.2	535.556
1888.26	535.333
1890.31	533.556
1892.36	529.778
1894.42	539.333
1896.47	531.333
1898.52	526.444
1900.57	536.667
1902.62	541.778
1904.67	536.444
1906.72	528.222
1908.77	529.333
1910.82	532.444
1912.86	524.444
1914.91	532.889
1916.96	530.889
1919	527.556
1921.04	521.778
1923.09	519.556
1925.13	524
1927.18	527.556
1929.22	523.333
1931.26	535.111
1933.3	512.889
1935.34	530.222
1937.38	514
1939.42	523.333
1941.46	521.333
1943.5	528.444
1945.53	521.333
1947.57	520.667
1949.61	510.889
1951.64	515.333
1953.68	512.222
1955.71	514.889
1957.75	515.333
1959.78	516.889
1961.81	512.445
1963.84	507.556
1965.87	516
1967.9	508.889
1969.93	511.556
1971.96	509.556
1973.99	507.333
1976.02	515.111
1978.05	516
1980.07	509.333
1982.1	502
1984.13	502.667
1986.15	506.444
1988.18	502.444
1990.2	501.556
1992.22	496
1994.25	504.444
1996.27	504.222
1998.29	505.556
2000.31	509.333
2002.33	510.889
2004.35	496.222
2006.37	512.667
2008.39	505.778
2010.41	510.444
2012.42	509.111
2014.44	512.444
2016.46	516.444
2018.47	513.111
2020.49	508.889
2022.5	512.444
2024.51	496.444
2026.53	517.333
2028.54	508
2030.55	500
2032.56	500.889
2034.57	494.222
2036.58	502.667
2038.59	509.111
2040.6	497.333
2042.61	497.111
2044.62	487.556
2046.62	502.222
2048.63	498.667
2050.64	508
2052.64	502
2054.65	514.222
2056.65	511.556
2058.65	503.778
2060.66	500.667
2062.66	502.444
2064.66	499.333
2066.66	494
2068.66	496.222
2070.66	503.778
2072.66	490.444
2074.66	497.111
2076.66	489.778
2078.65	493.333
2080.65	482
2082.65	494.889
2084.64	500.889
2086.64	496.222
2088.63	490.222
2090.63	492
2092.62	497.778
2094.61	497.556
2096.6	488
2098.59	500.889
2100.59	494.444
2102.58	490.444
2104.56	492
2106.55	490.889
2108.54	494
2110.53	485.333
2112.52	479.111
2114.5	491.778
2116.49	482.667
2118.48	495.778
2120.46	498.667
2122.44	493.333
2124.43	495.778
2126.41	497.111
2128.39	504
2130.38	496.222
2132.36	504
2134.34	495.333
2136.32	496.222
2138.3	506.222
2140.28	505.333
2142.26	500
2144.23	494
2146.21	488
2148.19	496
2150.16	494.444
2152.14	493.556
2154.11	482.444
2156.09	483.111
2158.06	481.111
2160.04	481.556
2162.01	484.222
2163.98	480
2165.95	485.556
2167.92	483.556
2169.89	472.889
2171.86	484.889
2173.83	482
2175.8	477.333
2177.77	478.444
2179.73	471.333
2181.7	466.889
2183.67	474.889
2185.63	463.333
2187.6	476
2189.56	469.778
2191.53	475.333
2193.49	472.889
2195.45	467.111
2197.41	464.667
2199.37	469.333
2201.34	469.333
2203.29	473.111
2205.26	461.111
2207.21	468.889
2209.17	468.444
2211.13	467.333
2213.09	463.556
2215.05	460.667
2217	471.778
2218.96	465.333
2220.91	459.556
2222.87	454.889
2224.82	461.333
2226.77	468
2228.73	456.222
2230.68	464.444
2232.63	463.111
2234.58	457.556
2236.53	455.556
2238.48	467.333
2240.43	446.667
2242.38	455.556
2244.33	446.889
2246.27	453.111
2248.22	459.556
2250.17	452.667
2252.11	452
2254.06	454.889
2256	458
2257.95	448.667
2259.89	457.333
2261.84	454.889
2263.78	449.333
2265.72	442.889
2267.66	445.778
2269.6	445.333
2271.54	439.778
2273.48	441.778
2275.42	436.889
2277.36	454.667
2279.3	433.111
2281.23	440.444
2283.17	436.444
2285.11	444.667
2287.04	436
2288.98	435.556
2290.91	439.778
2292.84	435.333
2294.78	433.778
2296.71	430.889
2298.64	427.556
2300.57	436
2302.51	419.778
2304.44	431.111
2306.37	440.444
2308.29	437.111
2310.22	432
2312.15	430.444
2314.08	427.111
2316.01	428.222
2317.93	433.556
2319.86	431.556
2321.78	424.222
2323.71	427.778
2325.63	425.111
2327.56	427.111
2329.48	420.667
2331.4	435.778
2333.32	417.111
2335.25	425.778
2337.17	420.444
2339.09	423.556
2341.01	422.444
2342.92	423.111
2344.84	421.333
2346.76	431.333
2348.68	429.778
2350.6	426.222
2352.51	425.111
2354.43	421.778
2356.34	422.444
2358.26	424
2360.17	417.111
2362.09	418.889
2364	416.667
2365.91	412.889
2367.82	411.778
2369.73	413.111
2371.64	416
2373.55	408
2375.46	416.889
2377.37	422.222
2379.28	409.778
2381.19	404
2383.1	416.889
2385	413.556
2386.91	411.111
2388.82	402
2390.72	403.111
2392.62	407.333
2394.53	404.889
2396.43	409.778
2398.33	403.778
2400.24	404.222
2402.14	402.667
2404.04	412.667
2405.94	409.556
2407.84	409.333
2409.74	402.444
2411.64	406.889
2413.54	401.111
2415.44	403.333
2417.33	401.111
2419.23	402
2421.13	402.222
2423.02	396.444
2424.92	400.667
2426.81	400
2428.71	406.222
2430.6	399.778
2432.49	398
2434.38	401.556
2436.28	403.778
2438.17	399.333
2440.06	396.667
2441.95	406.222
2443.84	397.333
2445.73	390.444
