176.817	486.222
179.42	487.778
182.022	476.889
184.622	483.556
187.223	476.444
189.821	474.889
192.419	488.222
195.017	478.222
197.612	487.778
200.208	481.778
202.802	487.111
205.397	482.222
207.99	481.333
210.581	496.667
213.173	482
215.762	490.444
218.352	489.333
220.94	496
223.528	494
226.114	505.778
228.701	509.556
231.285	502.667
233.87	510.667
236.452	522.222
239.034	516.444
241.616	518.222
244.196	515.333
246.777	523.111
249.355	524.667
251.933	521.111
254.511	528.889
257.086	530.444
259.663	516.667
262.237	520.889
264.81	521.778
267.383	523.333
269.955	514.222
272.525	529.111
275.097	513.556
277.665	517.111
280.234	518
282.802	520
285.368	519.333
287.934	509.111
290.499	514.667
293.064	521.556
295.627	520.222
298.189	511.556
300.75	511.111
303.312	516.222
305.871	530
308.43	514.222
310.988	508.444
313.545	505.556
316.101	491.111
318.658	489.556
321.212	504
323.766	498.444
326.319	501.778
328.871	502.889
331.422	504
333.972	491.111
336.522	507.111
339.072	492.444
341.619	506.444
344.166	507.111
346.712	512.444
349.258	505.778
351.802	503.333
354.346	507.111
356.888	504.889
359.43	510.222
361.971	514.889
364.511	510.444
367.051	510
369.589	516.889
372.127	508.222
374.664	514.222
377.2	522.889
379.735	539.556
382.27	532.222
384.802	535.111
387.334	524.444
389.866	504.889
392.397	504.667
394.927	509.556
397.457	501.556
399.985	501.111
402.513	502.667
405.038	506.222
407.565	506.667
410.09	512
412.614	505.111
415.138	507.333
417.66	517.778
420.181	514.444
422.702	512
425.222	508
427.742	508.889
430.259	521.333
432.777	525.333
435.294	526.667
437.81	532.444
440.324	531.778
442.838	534.222
445.352	521.333
447.863	515.778
450.375	522.667
452.887	532.222
455.395	518.889
457.905	535.778
460.414	531.333
462.92	520.889
465.427	524.667
467.932	510.444
470.438	516
472.942	508.222
475.445	513.778
477.948	519.778
480.448	512.667
482.95	512.889
485.449	529.333
487.949	514
490.446	516.444
492.944	518.889
495.44	518.667
497.937	513.333
500.431	518.222
502.926	523.333
505.418	524
507.912	512.444
510.403	513.778
512.894	516.444
515.384	521.778
517.874	529.111
520.361	530.889
522.848	531.778
525.336	522.444
527.821	530.889
530.306	519.556
532.791	526.889
535.274	523.333
537.756	525.556
540.238	518.667
542.719	514.444
545.199	512
547.679	520.889
550.157	524.889
552.634	529.778
555.112	522
557.588	526.444
560.063	529.111
562.537	536.222
565.011	536.889
567.484	523.333
569.955	520.222
572.426	523.556
574.896	521.556
577.367	522.222
579.835	527.556
582.303	519.556
584.77	525.333
587.236	515.111
589.701	518.889
592.165	536
594.629	526.222
597.093	523.556
599.555	516.667
602.016	527.556
604.477	518.444
606.936	532.889
609.395	533.778
611.853	548.667
614.311	536.889
616.767	533.778
619.223	534.889
621.678	522
624.132	537.778
626.585	547.778
629.037	530.222
631.489	532.444
633.94	529.333
636.39	537.778
638.839	541.333
641.288	529.778
643.736	527.111
646.183	520.889
648.627	521.333
651.073	536
653.517	529.778
655.961	529.778
658.404	532.889
660.846	536.444
663.288	533.556
665.727	532.222
668.167	528.889
670.606	532.889
673.044	522.222
675.482	525.556
677.917	515.111
680.353	528.889
682.788	532.889
685.222	522.222
687.655	538.444
690.087	524.889
692.519	526
694.951	530.222
697.38	529.333
699.809	536
702.238	540.889
704.665	526.889
707.092	531.111
709.519	532.222
711.943	530
714.368	529.556
716.791	531.333
719.214	534.889
721.637	533.111
724.058	525.111
726.479	530.444
728.898	532.667
731.317	526.444
733.734	516.222
736.152	524.444
738.568	520.889
740.985	529.778
743.399	528.667
745.814	522.667
748.227	525.333
750.64	522.444
753.051	529.778
755.463	522.222
757.872	523.556
760.283	518.444
762.691	515.333
765.098	519.111
767.506	520
769.912	508.222
772.318	519.556
774.722	524
777.126	519.333
779.53	521.111
781.932	521.333
784.333	525.111
786.735	518
789.135	524.667
791.533	531.778
793.933	527.778
796.33	530.667
798.727	518.444
801.123	527.778
803.519	526.667
805.913	532
808.307	522.444
810.699	531.333
813.093	532.222
815.484	526.667
817.874	532.889
820.264	522.444
822.653	516.667
825.041	537.111
827.43	531.333
829.817	526
832.203	520.667
834.588	528
836.972	534.889
839.356	522.222
841.738	522.889
844.12	525.333
846.502	522
848.882	532.222
851.262	536.889
853.641	538.667
856.02	543.111
858.397	547.333
860.774	544.667
863.15	546.889
865.525	547.111
867.9	549.111
870.273	537.333
872.646	552.222
875.019	528.667
877.39	533.333
879.761	536.444
882.131	532.222
884.5	531.111
886.869	530
889.236	531.111
891.602	533.556
893.968	544.667
896.334	531.111
898.698	538.667
901.062	534.889
903.426	534.667
905.787	528.444
908.148	522.445
910.509	521.556
912.87	530.222
915.228	530.667
917.587	518.444
919.945	528.667
922.302	518.444
924.657	520.444
927.013	520.444
929.368	520
931.721	524.889
934.074	511.778
936.427	515.111
938.778	522.444
941.129	519.555
943.479	524
945.828	515.111
948.177	508.889
950.524	511.778
952.871	514
955.218	515.333
957.563	523.111
959.908	518.667
962.252	523.111
964.595	519.333
966.937	521.333
969.28	524.889
971.62	530.667
973.961	522.444
976.3	520.889
978.639	531.111
980.976	524.444
983.314	524.889
985.65	523.333
987.987	521.556
990.321	526.444
992.655	529.111
994.989	527.333
997.321	536.667
999.653	527.333
1001.98	534.889
1004.31	537.778
1006.65	527.556
1008.97	521.333
1011.3	520.222
1013.63	518.667
1015.96	519.556
1018.28	524.889
1020.61	522.222
1022.93	528.444
1025.26	529.556
1027.58	517.778
1029.9	524.222
1032.22	522.667
1034.54	538
1036.86	531.556
1039.18	516.222
1041.5	533.778
1043.82	521.778
1046.14	535.333
1048.45	538
1050.77	535.333
1053.08	536.889
1055.4	542.889
1057.71	536.222
1060.02	538.889
1062.33	541.556
1064.64	541.778
1066.96	541.111
1069.27	547.111
1071.57	536.667
1073.88	544.222
1076.19	544.667
1078.5	548.444
1080.8	548.222
1083.11	557.556
1085.41	557.556
1087.72	565.778
1090.02	571.333
1092.32	577.111
1094.62	586.889
1096.92	614.667
1099.22	601.778
1101.52	582.444
1103.82	588.222
1106.12	566.445
1108.42	562.444
1110.71	568.667
1113.01	577.778
1115.3	578
1117.6	580
1119.89	583.556
1122.18	583.778
1124.48	585.778
1126.77	587.111
1129.06	575.111
1131.35	570.222
1133.64	569.778
1135.93	557.111
1138.21	562.889
1140.5	562
1142.79	551.111
1145.07	563.111
1147.36	561.111
1149.64	577.778
1151.92	575.333
1154.21	579.333
1156.49	569.333
1158.77	570.222
1161.05	574.222
1163.33	560.222
1165.61	552
1167.89	546.889
1170.16	560.667
1172.44	552.222
1174.72	549.778
1176.99	550.222
1179.27	545.111
1181.54	559.333
1183.81	552.444
1186.09	554
1188.36	553.556
1190.63	562.222
1192.9	556.444
1195.17	549.556
1197.44	560.667
1199.71	559.333
1201.97	554.667
1204.24	560
1206.5	554
1208.77	561.778
1211.03	559.333
1213.3	565.556
1215.56	572.667
1217.82	578.889
1220.09	571.111
1222.35	582.667
1224.61	572.667
1226.87	568.222
1229.12	575.333
1231.38	576
1233.64	586.444
1235.9	576
1238.15	584.889
1240.41	583.111
1242.66	591.778
1244.92	595.778
1247.17	595.111
1249.42	591.555
1251.67	605.111
1253.92	604.667
1256.17	610.889
1258.42	612.889
1260.67	611.556
1262.92	616.444
1265.17	605.333
1267.42	622.667
1269.66	621.556
1271.91	614.222
1274.15	615.556
1276.39	605.555
1278.64	601.556
1280.88	597.556
1283.12	593.333
1285.36	587.556
1287.6	600.222
1289.84	591.111
1292.08	591.555
1294.32	600
1296.56	584.667
1298.79	588.444
1301.03	592.889
1303.26	582.444
1305.5	593.111
1307.73	589.556
1309.97	601.333
1312.2	593.556
1314.43	580.444
1316.66	596.667
1318.89	591.778
1321.12	596.444
1323.35	599.111
1325.58	608
1327.81	603.111
1330.03	617.111
1332.26	619.111
1334.49	631.556
1336.71	615.111
1338.94	638.667
1341.16	635.556
1343.38	625.333
1345.6	645.111
1347.83	645.111
1350.05	654
1352.27	660.667
1354.49	651.111
1356.7	651.333
1358.92	669.333
1361.14	682.444
1363.36	716.444
1365.57	737.111
1367.79	774.889
1370	773.333
1372.21	772
1374.43	760
1376.64	742.444
1378.85	733.778
1381.06	708.222
1383.27	690.222
1385.48	688.445
1387.69	668.889
1389.9	671.556
1392.11	656.667
1394.31	644
1396.52	644.222
1398.73	630.444
1400.93	622.444
1403.13	618.444
1405.34	610.444
1407.54	625.556
1409.74	624
1411.94	630.222
1414.14	632.444
1416.34	621.556
1418.54	615.556
1420.74	615.333
1422.94	622
1425.14	604.667
1427.33	605.111
1429.53	608.444
1431.72	588.222
1433.92	587.556
1436.11	611.556
1438.3	610
1440.5	616.444
1442.69	615.778
1444.88	610.445
1447.07	624.222
1449.26	619.111
1451.45	642
1453.64	646.889
1455.82	635.111
1458.01	647.556
1460.2	653.556
1462.38	631.111
1464.57	635.333
1466.75	625.556
1468.93	616
1471.12	606.667
1473.3	604
1475.48	607.778
1477.66	588.667
1479.84	593.778
1482.02	589.111
1484.2	594.445
1486.38	583.333
1488.55	591.556
1490.73	578.667
1492.91	581.556
1495.08	586.667
1497.26	573.111
1499.43	587.556
1501.61	572.667
1503.78	572
1505.95	582.889
1508.12	566.667
1510.29	575.333
1512.46	575.111
1514.63	571.333
1516.8	571.333
1518.97	580
1521.14	568.667
1523.3	564.444
1525.47	566.889
1527.63	569.333
1529.8	567.556
1531.96	573.556
1534.12	582.222
1536.29	582.667
1538.45	592.444
1540.61	576.444
1542.77	598.222
1544.93	599.778
1547.09	596.222
1549.25	595.333
1551.41	584.444
1553.56	594.889
1555.72	600
1557.88	602.444
1560.03	606.889
1562.18	603.333
1564.34	615.111
1566.49	612.667
1568.64	616.222
1570.8	616.889
1572.95	604.222
1575.1	600.444
1577.25	590.444
1579.4	599.333
1581.55	598.444
1583.69	599.556
1585.84	613.556
1587.99	606.222
1590.13	608.444
1592.28	611.333
1594.42	598.222
1596.57	609.333
1598.71	598
1600.85	592.222
1602.99	596.222
1605.14	596.889
1607.28	604
1609.42	581.555
1611.56	577.333
1613.69	583.111
1615.83	584
1617.97	563.556
1620.11	566.667
1622.24	553.333
1624.38	557.555
1626.51	545.778
1628.65	542.667
1630.78	541.111
1632.91	537.556
1635.04	535.111
1637.17	534.889
1639.31	530.444
1641.44	532.222
1643.57	520
1645.69	516
1647.82	512.222
1649.95	505.111
1652.08	503.778
1654.2	511.333
1656.33	505.556
1658.45	500.667
1660.58	491.333
1662.7	498.444
1664.82	490.667
1666.94	497.333
1669.07	489.111
1671.19	490.889
1673.31	479.111
1675.43	488.667
1677.55	484.222
1679.66	480.889
1681.78	477.556
1683.9	481.111
1686.01	480.667
1688.13	482.889
1690.25	479.778
1692.36	473.333
1694.47	465.556
1696.59	472.222
1698.7	473.778
1700.81	467.111
1702.92	464.444
1705.03	469.333
1707.14	472
1709.25	463.556
1711.36	462.222
1713.47	462.667
1715.58	460.889
1717.68	460.222
1719.79	466.889
1721.89	455.556
1724	456.222
1726.1	452
1728.21	456
1730.31	455.556
1732.41	454.444
1734.51	446.667
1736.61	456.667
1738.71	456.222
1740.81	439.556
1742.91	448.222
1745.01	446.889
1747.11	441.333
1749.2	443.333
1751.3	434.222
1753.4	440.444
1755.49	448.222
1757.59	438.222
1759.68	445.111
1761.77	437.333
1763.86	426.222
1765.96	435.556
1768.05	441.556
1770.14	439.778
1772.23	427.556
1774.32	446
1776.41	444.222
1778.49	430.889
1780.58	439.111
1782.67	428.889
1784.76	438.222
1786.84	435.778
1788.92	437.778
1791.01	432
1793.09	428
1795.18	415.556
1797.26	428.667
1799.34	430
1801.42	445.778
1803.5	423.778
1805.58	439.111
1807.66	426.667
1809.74	426.444
1811.82	427.556
1813.89	421.333
1815.97	427.778
1818.05	428.222
1820.12	428.889
1822.2	428
1824.27	425.778
1826.34	416.444
1828.42	416.444
1830.49	419.556
1832.56	414
1834.63	433.778
1836.7	416.667
1838.77	408.667
1840.84	417.111
1842.91	417.778
1844.98	418.444
1847.04	411.778
1849.11	410.222
1851.18	414.222
1853.24	411.778
1855.31	417.778
1857.37	418.667
1859.43	420.889
1861.5	408.667
1863.56	404
1865.62	405.778
1867.68	416.444
1869.74	416.667
1871.8	408.667
1873.86	411.333
1875.92	408
1877.98	410.889
1880.03	398.667
1882.09	410.889
1884.15	412
1886.2	398.667
1888.26	395.556
1890.31	408.444
1892.36	411.778
1894.42	401.778
1896.47	405.333
1898.52	401.556
1900.57	407.333
1902.62	403.333
1904.67	401.111
1906.72	403.333
1908.77	408.444
1910.82	410.222
1912.86	399.556
1914.91	396.667
1916.96	397.111
1919	405.111
1921.04	388.222
1923.09	400.889
1925.13	407.111
1927.18	395.556
1929.22	400.667
1931.26	391.111
1933.3	397.333
1935.34	401.111
1937.38	394.667
1939.42	392.889
1941.46	392.667
1943.5	381.778
1945.53	398.222
1947.57	386.444
1949.61	392.222
1951.64	394.889
1953.68	395.111
1955.71	392.444
1957.75	391.778
1959.78	389.333
1961.81	390
1963.84	389.556
1965.87	382.667
1967.9	381.556
1969.93	389.778
1971.96	379.111
1973.99	387.111
1976.02	379.778
1978.05	384
1980.07	392.222
1982.1	388.889
1984.13	387.778
1986.15	389.778
1988.18	385.333
1990.2	380.444
1992.22	385.556
1994.25	383.333
1996.27	371.556
1998.29	377.111
2000.31	376.222
2002.33	378.222
2004.35	382.222
2006.37	386.889
2008.39	381.556
2010.41	380.222
2012.42	376.889
2014.44	385.111
2016.46	382
2018.47	379.111
2020.49	384.667
2022.5	382.222
2024.51	381.111
2026.53	380.889
2028.54	385.778
2030.55	372.667
2032.56	372.889
2034.57	383.111
2036.58	374.889
2038.59	385.556
2040.6	375.778
2042.61	379.556
2044.62	373.556
2046.62	371.556
2048.63	378.444
2050.64	374
2052.64	368.444
2054.65	376.667
2056.65	376.222
2058.65	373.778
2060.66	374.222
2062.66	366.889
2064.66	369.778
2066.66	372.444
2068.66	365.111
2070.66	370.889
2072.66	363.333
2074.66	362.444
2076.66	361.333
2078.65	370.444
2080.65	357.333
2082.65	359.556
2084.64	359.778
2086.64	364.222
2088.63	363.556
2090.63	368
2092.62	367.111
2094.61	366.667
2096.6	368.667
2098.59	366
2100.59	356.444
2102.58	363.556
2104.56	355.333
2106.55	357.333
2108.54	360.444
2110.53	360.444
2112.52	364.222
2114.5	357.333
2116.49	375.778
2118.48	372.222
2120.46	368.444
2122.44	376.444
2124.43	381.333
2126.41	369.556
2128.39	376.667
2130.38	387.333
2132.36	375.778
2134.34	378
2136.32	370.889
2138.3	371.333
2140.28	377.333
2142.26	359.556
2144.23	372.889
2146.21	359.111
2148.19	363.556
2150.16	361.778
2152.14	361.333
2154.11	366
2156.09	361.111
2158.06	359.333
2160.04	358.889
2162.01	357.556
2163.98	359.778
2165.95	350
2167.92	343.111
2169.89	346.889
2171.86	350.444
2173.83	342.444
2175.8	347.778
2177.77	343.111
2179.73	343.333
2181.7	347.556
2183.67	342.667
2185.63	345.333
2187.6	345.111
2189.56	342.667
2191.53	336
2193.49	341.333
2195.45	339.778
2197.41	326.444
2199.37	344.889
2201.34	342.667
2203.29	333.556
2205.26	335.556
2207.21	337.111
2209.17	336.222
2211.13	330.222
2213.09	328.444
2215.05	337.111
2217	329.778
2218.96	344.444
2220.91	327.111
2222.87	332.444
2224.82	332.444
2226.77	327.778
2228.73	324.444
2230.68	335.111
2232.63	331.556
2234.58	334.667
2236.53	328.222
2238.48	332.889
2240.43	330.222
2242.38	330.444
2244.33	329.111
2246.27	325.111
2248.22	320.889
2250.17	325.333
2252.11	322.444
2254.06	306
2256	315.333
2257.95	328.667
2259.89	315.778
2261.84	321.333
2263.78	323.556
2265.72	324.444
2267.66	317.556
2269.6	313.333
2271.54	314
2273.48	315.556
2275.42	315.333
2277.36	320.667
2279.3	314
2281.23	315.111
2283.17	308.444
2285.11	314.444
2287.04	312.222
2288.98	305.333
2290.91	304.667
2292.84	304.222
2294.78	311.111
2296.71	303.333
2298.64	304.889
2300.57	315.333
2302.51	305.556
2304.44	310.889
2306.37	309.333
2308.29	316.889
2310.22	299.778
2312.15	305.111
2314.08	311.778
2316.01	305.556
2317.93	303.556
2319.86	307.333
2321.78	299.333
2323.71	302
2325.63	300
2327.56	303.333
2329.48	313.778
2331.4	302.222
2333.32	302
2335.25	303.333
2337.17	302.889
2339.09	294.889
2341.01	307.333
2342.92	294.444
2344.84	306.222
2346.76	290.667
2348.68	296
2350.6	296
2352.51	293.333
2354.43	294.889
2356.34	299.556
2358.26	298.667
2360.17	293.778
2362.09	298
2364	286.222
2365.91	294
2367.82	295.111
2369.73	290.444
2371.64	285.556
2373.55	294.444
2375.46	288.222
2377.37	290.222
2379.28	281.556
2381.19	293.333
2383.1	290.444
2385	296.667
2386.91	289.333
2388.82	286.222
2390.72	289.778
2392.62	291.111
2394.53	290.444
2396.43	296.667
2398.33	276.222
2400.24	279.778
2402.14	285.333
2404.04	274.444
2405.94	281.556
2407.84	286.222
2409.74	287.333
2411.64	278.667
2413.54	275.778
2415.44	278.889
2417.33	286
2419.23	280.222
2421.13	290.667
2423.02	275.333
2424.92	282.222
2426.81	281.556
2428.71	279.778
2430.6	272.222
2432.49	284.222
2434.38	279.778
2436.28	284.444
2438.17	282
2440.06	283.556
2441.95	275.333
2443.84	278.222
2445.73	275.778
