176.817	441.778
179.42	447.778
182.022	433.111
184.622	437.111
187.223	434.444
189.821	425.556
192.419	431.556
195.017	433.556
197.612	431.556
200.208	439.778
202.802	435.333
205.397	433.333
207.99	450.889
210.581	445.111
213.173	450.667
215.762	440.222
218.352	450.444
220.94	451.556
223.528	456.889
226.114	458.222
228.701	466.889
231.285	459.556
233.87	477.556
236.452	473.111
239.034	471.778
241.616	480.444
244.196	478.222
246.777	489.778
249.355	485.556
251.933	494
254.511	481.333
257.086	490.444
259.663	488.667
262.237	496.889
264.81	491.778
267.383	479.333
269.955	480.444
272.525	499.778
275.097	474
277.665	475.778
280.234	471.556
282.802	466.444
285.368	467.556
287.934	451.111
290.499	467.778
293.064	460.444
295.627	466.222
298.189	471.556
300.75	471.111
303.312	457.778
305.871	454.444
308.43	445.778
310.988	458.667
313.545	440.889
316.101	436.889
318.658	430.444
321.212	435.111
323.766	432
326.319	442.889
328.871	438.444
331.422	446.222
333.972	432.667
336.522	437.778
339.072	428
341.619	430.222
344.166	439.778
346.712	435.556
349.258	432
351.802	436
354.346	439.556
356.888	431.333
359.43	436.222
361.971	435.778
364.511	443.111
367.051	435.111
369.589	434.889
372.127	443.333
374.664	451.778
377.2	445.556
379.735	459.778
382.27	442.889
384.802	462.444
387.334	441.111
389.866	445.556
392.397	438
394.927	438.667
397.457	441.333
399.985	428.889
402.513	447.111
405.038	438.444
407.565	444.222
410.09	433.333
412.614	442.222
415.138	440.444
417.66	440.444
420.181	446
422.702	440
425.222	446.667
427.742	442.222
430.259	433.778
432.777	445.111
435.294	446.889
437.81	445.778
440.324	446.444
442.838	440.444
445.352	439.556
447.863	433.333
450.375	431.333
452.887	434.444
455.395	449.556
457.905	450.667
460.414	450
462.92	452
465.427	446
467.932	437.111
470.438	445.333
472.942	440
475.445	445.556
477.948	442.889
480.448	450.222
482.95	439.111
485.449	443.333
487.949	442.222
490.446	449.778
492.944	444.889
495.44	447.778
497.937	450.889
500.431	449.333
502.926	438.222
505.418	448.222
507.912	448.222
510.403	453.111
512.894	445.111
515.384	442.222
517.874	446.667
520.361	448.222
522.848	445.333
525.336	440.444
527.821	454.444
530.306	439.556
532.791	452
535.274	436.667
537.756	435.556
540.238	440.889
542.719	446.222
545.199	443.556
547.679	449.778
550.157	440
552.634	447.333
555.112	432.222
557.588	449.556
560.063	455.778
562.537	440.222
565.011	453.111
567.484	448.667
569.955	443.556
572.426	453.111
574.896	446.667
577.367	448.667
579.835	443.333
582.303	445.333
584.77	445.556
587.236	445.333
589.701	445.556
592.165	450.889
594.629	445.556
597.093	441.778
599.555	447.111
602.016	452.667
604.477	458.667
606.936	450.444
609.395	454.222
611.853	458
614.311	454.889
616.767	461.556
619.223	467.556
621.678	448.444
624.132	470
626.585	457.111
629.037	464.889
631.489	461.778
633.94	456.889
636.39	457.111
638.839	461.778
641.288	452
643.736	460
646.183	442
648.627	451.556
651.073	469.333
653.517	467.556
655.961	464.444
658.404	457.333
660.846	455.111
663.288	456.222
665.727	458.444
668.167	450.444
670.606	460.667
673.044	457.111
675.482	463.111
677.917	455.111
680.353	452
682.788	455.111
685.222	457.333
687.655	458.667
690.087	470
692.519	452.222
694.951	459.778
697.38	450.667
699.809	452.222
702.238	454.444
704.665	456
707.092	449.556
709.519	460.667
711.943	459.333
714.368	452.667
716.791	460
719.214	455.111
721.637	454.444
724.058	457.111
726.479	454
728.898	445.333
731.317	454
733.734	457.778
736.152	458.889
738.568	453.556
740.985	454.222
743.399	456.444
745.814	450.667
748.227	447.333
750.64	444
753.051	453.333
755.463	454.889
757.872	445.556
760.283	452
762.691	445.333
765.098	449.333
767.506	456.444
769.912	450.889
772.318	455.111
774.722	448
777.126	453.111
779.53	444.889
781.932	452.889
784.333	444
786.735	451.778
789.135	460
791.533	458.222
793.933	461.111
796.33	459.111
798.727	469.556
801.123	455.778
803.519	459.778
805.913	454.222
808.307	475.778
810.699	466.222
813.093	468.889
815.484	470.889
817.874	470.444
820.264	468.444
822.653	467.778
825.041	472.444
827.43	462
829.817	456.444
832.203	457.778
834.588	466.444
836.972	466
839.356	462
841.738	464.444
844.12	464
846.502	469.111
848.882	476
851.262	454.222
853.641	467.333
856.02	473.111
858.397	473.556
860.774	484.667
863.15	492.889
865.525	492.889
867.9	494
870.273	490.889
872.646	482
875.019	493.111
877.39	489.333
879.761	485.333
882.131	482.667
884.5	484.889
886.869	484
889.236	475.556
891.602	488.222
893.968	481.556
896.334	472
898.698	474.889
901.062	468.222
903.426	472
905.787	466.222
908.148	474
910.509	465.778
912.87	468.444
915.228	478.444
917.587	463.778
919.945	474.444
922.302	467.111
924.657	467.333
927.013	475.111
929.368	476.222
931.721	460.889
934.074	457.333
936.427	472.444
938.778	471.778
941.129	464.889
943.479	470.889
945.828	466
948.177	466.667
950.524	460.889
952.871	468.889
955.218	472.667
957.563	474.444
959.908	466.444
962.252	468
964.595	480.667
966.937	479.556
969.28	478.667
971.62	468.889
973.961	464.222
976.3	463.778
978.639	469.556
980.976	471.111
983.314	469.333
985.65	458.444
987.987	469.778
990.321	468.222
992.655	464
994.989	459.111
997.321	475.111
999.653	467.556
1001.98	472.667
1004.31	464.889
1006.65	459.111
1008.97	472
1011.3	468.444
1013.63	454.444
1015.96	464.889
1018.28	460.889
1020.61	469.556
1022.93	467.111
1025.26	469.556
1027.58	471.111
1029.9	466.444
1032.22	472.444
1034.54	457.778
1036.86	461.333
1039.18	474.889
1041.5	461.333
1043.82	465.111
1046.14	474.889
1048.45	476.889
1050.77	475.778
1053.08	480.222
1055.4	475.111
1057.71	476.222
1060.02	474.222
1062.33	481.333
1064.64	473.556
1066.96	487.111
1069.27	476.889
1071.57	483.333
1073.88	483.778
1076.19	472.222
1078.5	487.556
1080.8	492
1083.11	484.444
1085.41	496
1087.72	489.778
1090.02	504.444
1092.32	520.667
1094.62	511.111
1096.92	529.556
1099.22	528.667
1101.52	527.778
1103.82	517.556
1106.12	533.333
1108.42	509.333
1110.71	511.111
1113.01	512.667
1115.3	518.444
1117.6	520.222
1119.89	536.222
1122.18	528.222
1124.48	535.111
1126.77	537.778
1129.06	523.556
1131.35	530
1133.64	515.111
1135.93	532.889
1138.21	528.444
1140.5	513.556
1142.79	517.778
1145.07	511.778
1147.36	520.444
1149.64	529.556
1151.92	525.778
1154.21	541.111
1156.49	545.778
1158.77	533.556
1161.05	540.222
1163.33	544.222
1165.61	514.222
1167.89	529.333
1170.16	520.667
1172.44	525.111
1174.72	521.778
1176.99	523.556
1179.27	528.889
1181.54	524
1183.81	520.667
1186.09	518.222
1188.36	518.889
1190.63	519.778
1192.9	519.333
1195.17	520.222
1197.44	534.222
1199.71	525.778
1201.97	540
1204.24	537.556
1206.5	539.333
1208.77	539.111
1211.03	542.222
1213.3	533.333
1215.56	530.444
1217.82	533.556
1220.09	530.667
1222.35	546
1224.61	543.111
1226.87	547.111
1229.12	546.667
1231.38	542.444
1233.64	551.778
1235.9	562.222
1238.15	547.778
1240.41	560
1242.66	554
1244.92	570.222
1247.17	560
1249.42	574
1251.67	569.778
1253.92	572.667
1256.17	564.222
1258.42	572.889
1260.67	596.222
1262.92	610.667
1265.17	605.111
1267.42	610.667
1269.66	590
1271.91	578.889
1274.15	577.778
1276.39	571.111
1278.64	565.333
1280.88	578
1283.12	570.667
1285.36	549.556
1287.6	556.222
1289.84	557.778
1292.08	552.667
1294.32	560
1296.56	555.778
1298.79	556.889
1301.03	551.556
1303.26	552.667
1305.5	552
1307.73	561.111
1309.97	557.778
1312.2	558.222
1314.43	558.444
1316.66	560.444
1318.89	559.778
1321.12	565.111
1323.35	576.444
1325.58	577.333
1327.81	577.111
1330.03	577.333
1332.26	583.333
1334.49	579.556
1336.71	586.444
1338.94	581.111
1341.16	595.111
1343.38	582
1345.6	609.111
1347.83	595.111
1350.05	600.667
1352.27	602.444
1354.49	614.889
1356.7	618.667
1358.92	629.111
1361.14	637.333
1363.36	678.222
1365.57	715.555
1367.79	764.444
1370	783.111
1372.21	821.111
1374.43	802.667
1376.64	779.111
1378.85	759.556
1381.06	724
1383.27	710
1385.48	688.889
1387.69	675.333
1389.9	648.222
1392.11	646.667
1394.31	632.444
1396.52	608.667
1398.73	610
1400.93	596.444
1403.13	590.444
1405.34	588.667
1407.54	600
1409.74	602.889
1411.94	580.667
1414.14	597.111
1416.34	597.111
1418.54	593.333
1420.74	593.333
1422.94	599.778
1425.14	593.556
1427.33	584.667
1429.53	587.111
1431.72	583.778
1433.92	570
1436.11	588
1438.3	585.556
1440.5	591.778
1442.69	584.889
1444.88	607.111
1447.07	615.778
1449.26	626.444
1451.45	624.889
1453.64	619.333
1455.82	631.778
1458.01	641.556
1460.2	628
1462.38	631.333
1464.57	630
1466.75	605.556
1468.93	616.222
1471.12	609.111
1473.3	595.111
1475.48	595.556
1477.66	601.111
1479.84	574.889
1482.02	574.889
1484.2	583.778
1486.38	585.778
1488.55	579.556
1490.73	573.556
1492.91	579.778
1495.08	568.889
1497.26	578.445
1499.43	586.667
1501.61	584.222
1503.78	586
1505.95	564.444
1508.12	574.889
1510.29	584.889
1512.46	579.778
1514.63	590
1516.8	594.667
1518.97	601.333
1521.14	602.667
1523.3	599.556
1525.47	613.555
1527.63	612.444
1529.8	608.444
1531.96	613.111
1534.12	608.889
1536.29	615.556
1538.45	627.333
1540.61	633.111
1542.77	636.667
1544.93	625.778
1547.09	617.556
1549.25	598.667
1551.41	604.889
1553.56	604
1555.72	593.333
1557.88	588.444
1560.03	612.667
1562.18	609.778
1564.34	619.778
1566.49	630.444
1568.64	629.556
1570.8	629.333
1572.95	634.667
1575.1	623.556
1577.25	633.111
1579.4	627.111
1581.55	634.444
1583.69	634.667
1585.84	631.556
1587.99	634.889
1590.13	632.445
1592.28	619.556
1594.42	625.556
1596.57	626.222
1598.71	613.333
1600.85	607.333
1602.99	598
1605.14	602
1607.28	583.111
1609.42	586.222
1611.56	588.444
1613.69	584.667
1615.83	580.444
1617.97	567.778
1620.11	568.222
1622.24	565.111
1624.38	548.667
1626.51	542.667
1628.65	538.889
1630.78	517.333
1632.91	513.556
1635.04	518.444
1637.17	498.889
1639.31	502.889
1641.44	489.111
1643.57	484.667
1645.69	479.778
1647.82	471.111
1649.95	466.667
1652.08	465.111
1654.2	465.111
1656.33	470
1658.45	458.889
1660.58	463.333
1662.7	457.778
1664.82	450.444
1666.94	443.333
1669.07	455.333
1671.19	451.111
1673.31	437.333
1675.43	438.222
1677.55	439.778
1679.66	440.889
1681.78	436.444
1683.9	440.444
1686.01	441.556
1688.13	438.889
1690.25	419.778
1692.36	431.333
1694.47	433.778
1696.59	428.667
1698.7	428.889
1700.81	425.556
1702.92	422
1705.03	420.889
1707.14	422
1709.25	423.111
1711.36	417.556
1713.47	419.556
1715.58	420
1717.68	423.111
1719.79	413.778
1721.89	416
1724	424
1726.1	411.556
1728.21	413.556
1730.31	407.556
1732.41	407.111
1734.51	401.556
1736.61	412.667
1738.71	414.222
1740.81	412.444
1742.91	402.222
1745.01	411.111
1747.11	399.556
1749.2	401.778
1751.3	408.444
1753.4	402.889
1755.49	403.333
1757.59	398.889
1759.68	404
1761.77	401.556
1763.86	393.111
1765.96	390.222
1768.05	397.556
1770.14	400
1772.23	393.111
1774.32	403.778
1776.41	392.667
1778.49	386.667
1780.58	390.889
1782.67	397.333
1784.76	401.333
1786.84	390.222
1788.92	389.111
1791.01	379.111
1793.09	381.111
1795.18	385.333
1797.26	387.111
1799.34	383.333
1801.42	380.444
1803.5	378.667
1805.58	386
1807.66	380.222
1809.74	366.889
1811.82	376
1813.89	375.778
1815.97	385.778
1818.05	375.333
1820.12	370.667
1822.2	375.111
1824.27	374
1826.34	369.111
1828.42	380.222
1830.49	380.667
1832.56	380.222
1834.63	374.667
1836.7	374.222
1838.77	379.556
1840.84	365.333
1842.91	368.889
1844.98	365.778
1847.04	366.667
1849.11	378.667
1851.18	365.333
1853.24	360.444
1855.31	365.778
1857.37	363.778
1859.43	369.556
1861.5	370.222
1863.56	358.444
1865.62	366.889
1867.68	368.444
1869.74	362.667
1871.8	365.333
1873.86	363.333
1875.92	363.111
1877.98	362.222
1880.03	355.333
1882.09	358
1884.15	366.444
1886.2	373.333
1888.26	355.778
1890.31	360.667
1892.36	358.222
1894.42	356.444
1896.47	364.667
1898.52	355.778
1900.57	364
1902.62	358.444
1904.67	353.333
1906.72	353.111
1908.77	356.444
1910.82	366.667
1912.86	363.333
1914.91	358.222
1916.96	357.778
1919	353.333
1921.04	355.778
1923.09	356
1925.13	366.667
1927.18	358.889
1929.22	350.667
1931.26	350
1933.3	347.778
1935.34	350.444
1937.38	353.333
1939.42	352.667
1941.46	367.778
1943.5	342.667
1945.53	354.444
1947.57	345.556
1949.61	344
1951.64	338.667
1953.68	354
1955.71	348.889
1957.75	342.667
1959.78	352.444
1961.81	346.444
1963.84	350.889
1965.87	344.889
1967.9	345.333
1969.93	342.444
1971.96	352
1973.99	343.333
1976.02	343.333
1978.05	341.778
1980.07	338.222
1982.1	336
1984.13	339.333
1986.15	341.778
1988.18	333.778
1990.2	338.889
1992.22	340.667
1994.25	333.111
1996.27	341.778
1998.29	337.333
2000.31	336.889
2002.33	342.889
2004.35	336.889
2006.37	343.556
2008.39	341.778
2010.41	336.222
2012.42	334.444
2014.44	340.222
2016.46	337.111
2018.47	345.556
2020.49	335.333
2022.5	329.778
2024.51	333.778
2026.53	336.444
2028.54	335.333
2030.55	335.556
2032.56	338.667
2034.57	341.333
2036.58	338.889
2038.59	330.667
2040.6	333.111
2042.61	330.222
2044.62	335.111
2046.62	332.889
2048.63	325.778
2050.64	325.778
2052.64	327.778
2054.65	330.222
2056.65	326.667
2058.65	326.667
2060.66	323.111
2062.66	325.333
2064.66	326
2066.66	323.556
2068.66	323.778
2070.66	322.222
2072.66	323.556
2074.66	323.111
2076.66	322.444
2078.65	323.556
2080.65	324.889
2082.65	329.556
2084.64	321.556
2086.64	325.111
2088.63	323.778
2090.63	315.778
2092.62	324.222
2094.61	322.667
2096.6	325.111
2098.59	325.333
2100.59	321.333
2102.58	324.889
2104.56	318.667
2106.55	319.778
2108.54	328.889
2110.53	331.111
2112.52	327.556
2114.5	322.444
2116.49	326.889
2118.48	325.111
2120.46	332
2122.44	336.444
2124.43	330
2126.41	333.111
2128.39	328.444
2130.38	331.778
2132.36	337.111
2134.34	338
2136.32	344
2138.3	332
2140.28	332.444
2142.26	330.667
2144.23	330
2146.21	334
2148.19	329.778
2150.16	325.333
2152.14	334
2154.11	338.444
2156.09	331.778
2158.06	329.778
2160.04	323.556
2162.01	318.444
2163.98	320
2165.95	325.778
2167.92	316
2169.89	311.778
2171.86	314
2173.83	318.222
2175.8	318.444
2177.77	318.222
2179.73	315.111
2181.7	318.667
2183.67	311.111
2185.63	308
2187.6	301.333
2189.56	306.889
2191.53	305.556
2193.49	305.111
2195.45	306.667
2197.41	303.333
2199.37	311.333
2201.34	304.889
2203.29	301.111
2205.26	299.778
2207.21	301.111
2209.17	295.111
2211.13	302.222
2213.09	300.444
2215.05	296.444
2217	307.333
2218.96	299.778
2220.91	304
2222.87	302.444
2224.82	303.333
2226.77	298.444
2228.73	298.889
2230.68	295.556
2232.63	298.889
2234.58	292.444
2236.53	300.667
2238.48	304.222
2240.43	299.111
2242.38	292.222
2244.33	293.556
2246.27	301.111
2248.22	298.667
2250.17	292.889
2252.11	294.444
2254.06	293.111
2256	294
2257.95	293.333
2259.89	292.444
2261.84	287.778
2263.78	282.444
2265.72	288.667
2267.66	287.556
2269.6	284.444
2271.54	285.556
2273.48	280.222
2275.42	286
2277.36	282
2279.3	277.333
2281.23	291.556
2283.17	284.444
2285.11	283.778
2287.04	276
2288.98	278.444
2290.91	278.889
2292.84	278.222
2294.78	272.667
2296.71	273.111
2298.64	271.556
2300.57	279.556
2302.51	273.333
2304.44	277.778
2306.37	274
2308.29	282.667
2310.22	278.444
2312.15	279.111
2314.08	278.889
2316.01	273.556
2317.93	271.778
2319.86	269.111
2321.78	273.778
2323.71	276.222
2325.63	281.111
2327.56	272.667
2329.48	267.333
2331.4	274
2333.32	272.667
2335.25	266.444
2337.17	272.889
2339.09	270.222
2341.01	264
2342.92	264.222
2344.84	268.444
2346.76	269.333
2348.68	271.556
2350.6	272
2352.51	267.556
2354.43	262.667
2356.34	260.889
2358.26	264
2360.17	269.778
2362.09	263.778
2364	268.222
2365.91	267.556
2367.82	262
2369.73	270.889
2371.64	266.222
2373.55	265.111
2375.46	261.778
2377.37	269.333
2379.28	260.667
2381.19	257.556
2383.1	271.111
2385	263.778
2386.91	259.111
2388.82	260.222
2390.72	256.889
2392.62	262
2394.53	258.667
2396.43	255.333
2398.33	259.333
2400.24	252.444
2402.14	254
2404.04	263.778
2405.94	262.667
2407.84	250.667
2409.74	264.444
2411.64	254.667
2413.54	258.444
2415.44	254
2417.33	254.889
2419.23	253.333
2421.13	255.333
2423.02	255.556
2424.92	250.667
2426.81	259.778
2428.71	251.556
2430.6	256.889
2432.49	257.333
2434.38	245.556
2436.28	253.556
2438.17	252.667
2440.06	243.556
2441.95	253.556
2443.84	249.333
2445.73	252.444
