176.817	474.889
179.42	467.778
182.022	466.444
184.622	474
187.223	473.111
189.821	472.667
192.419	475.111
195.017	464.667
197.612	476.889
200.208	474.889
202.802	476.444
205.397	474
207.99	475.556
210.581	471.778
213.173	478.667
215.762	480.889
218.352	480.222
220.94	478.667
223.528	488.667
226.114	494
228.701	491.556
231.285	490.444
233.87	498.222
236.452	511.556
239.034	517.333
241.616	509.111
244.196	530.444
246.777	514.222
249.355	526
251.933	528
254.511	519.778
257.086	512.444
259.663	524
262.237	510.222
264.81	523.111
267.383	535.556
269.955	517.333
272.525	510.444
275.097	513.556
277.665	512.889
280.234	509.778
282.802	502.222
285.368	500.667
287.934	504
290.499	495.556
293.064	501.333
295.627	510.889
298.189	514.889
300.75	508.444
303.312	508
305.871	497.556
308.43	508.444
310.988	501.778
313.545	490.889
316.101	482.889
318.658	480.444
321.212	484.222
323.766	477.556
326.319	481.333
328.871	480.889
331.422	479.778
333.972	488.889
336.522	490.444
339.072	486.444
341.619	489.333
344.166	483.778
346.712	490.222
349.258	478
351.802	490.222
354.346	480.444
356.888	500.667
359.43	488.444
361.971	492.889
364.511	492.222
367.051	491.333
369.589	490
372.127	505.778
374.664	497.556
377.2	511.778
379.735	526.889
382.27	515.556
384.802	509.333
387.334	497.556
389.866	492.444
392.397	500.444
394.927	486.889
397.457	484
399.985	486.667
402.513	487.556
405.038	492.222
407.565	495.556
410.09	508.444
412.614	492.667
415.138	502.222
417.66	491.111
420.181	486.444
422.702	500
425.222	495.556
427.742	496
430.259	489.111
432.777	501.333
435.294	510.667
437.81	516.222
440.324	523.556
442.838	503.778
445.352	515.333
447.863	506.667
450.375	506
452.887	494.667
455.395	514.667
457.905	531.556
460.414	512.667
462.92	517.778
465.427	511.111
467.932	496.889
470.438	502.222
472.942	507.111
475.445	505.556
477.948	497.778
480.448	499.333
482.95	502
485.449	494.444
487.949	490.444
490.446	499.111
492.944	509.333
495.44	505.333
497.937	511.333
500.431	503.111
502.926	492.444
505.418	505.333
507.912	503.111
510.403	504.222
512.894	510.889
515.384	500
517.874	509.111
520.361	494.889
522.848	498.444
525.336	514.444
527.821	514.889
530.306	509.111
532.791	502.222
535.274	510.222
537.756	505.778
540.238	504.889
542.719	499.778
545.199	501.556
547.679	505.111
550.157	502.222
552.634	496.889
555.112	500.222
557.588	508.889
560.063	510
562.537	503.556
565.011	521.778
567.484	498.444
569.955	504
572.426	513.333
574.896	517.778
577.367	499.778
579.835	495.778
582.303	508.222
584.77	502.889
587.236	499.111
589.701	494
592.165	507.556
594.629	508.889
597.093	516
599.555	513.111
602.016	516
604.477	513.778
606.936	515.556
609.395	522.889
611.853	523.778
614.311	526.444
616.767	526.444
619.223	518.444
621.678	517.111
624.132	526
626.585	520.222
629.037	512.667
631.489	515.111
633.94	516.889
636.39	509.556
638.839	517.111
641.288	518.667
643.736	521.111
646.183	519.333
648.627	526.222
651.073	523.555
653.517	519.778
655.961	512.222
658.404	508
660.846	508
663.288	518.222
665.727	498.222
668.167	509.778
670.606	504
673.044	517.556
675.482	503.333
677.917	508.444
680.353	500.444
682.788	507.111
685.222	518
687.655	500.889
690.087	511.111
692.519	509.778
694.951	502.444
697.38	521.333
699.809	512
702.238	518.444
704.665	500
707.092	519.778
709.519	516.889
711.943	528.222
714.368	513.556
716.791	512.444
719.214	527.111
721.637	519.778
724.058	513.111
726.479	521.111
728.898	512.889
731.317	520.889
733.734	512.444
736.152	510.667
738.568	509.111
740.985	517.556
743.399	501.111
745.814	507.778
748.227	500.222
750.64	507.556
753.051	510
755.463	502.222
757.872	505.111
760.283	512.667
762.691	504.444
765.098	513.778
767.506	500.667
769.912	507.111
772.318	502.667
774.722	501.333
777.126	505.333
779.53	515.111
781.932	513.556
784.333	505.111
786.735	511.556
789.135	516
791.533	518.889
793.933	518
796.33	508.667
798.727	507.778
801.123	519.556
803.519	518
805.913	508.222
808.307	521.556
810.699	521.111
813.093	507.111
815.484	508.889
817.874	524.667
820.264	520.667
822.653	513.333
825.041	519.778
827.43	511.778
829.817	520.222
832.203	512
834.588	507.333
836.972	514.667
839.356	515.556
841.738	517.333
844.12	528.889
846.502	508
848.882	516.222
851.262	525.778
853.641	518.444
856.02	515.333
858.397	523.556
860.774	521.556
863.15	524.667
865.525	523.111
867.9	527.778
870.273	532.667
872.646	528.889
875.019	529.333
877.39	528
879.761	529.778
882.131	535.333
884.5	521.556
886.869	524.667
889.236	521.333
891.602	532.667
893.968	517.556
896.334	515.111
898.698	522.889
901.062	520.444
903.426	510.444
905.787	514.667
908.148	515.556
910.509	516.889
912.87	516.222
915.228	510.222
917.587	506.889
919.945	515.111
922.302	522.444
924.657	513.333
927.013	509.111
929.368	509.778
931.721	500.222
934.074	500
936.427	505.556
938.778	501.778
941.129	509.778
943.479	503.778
945.828	508.889
948.177	512
950.524	496.222
952.871	509.778
955.218	509.778
957.563	510
959.908	502.667
962.252	508
964.595	518.222
966.937	506.667
969.28	519.111
971.62	503.111
973.961	504.222
976.3	503.778
978.639	517.555
980.976	517.111
983.314	496.667
985.65	499.111
987.987	510.222
990.321	508.667
992.655	509.778
994.989	519.778
997.321	515.778
999.653	513.333
1001.98	522.889
1004.31	513.111
1006.65	508.222
1008.97	517.111
1011.3	501.111
1013.63	505.778
1015.96	502.667
1018.28	511.556
1020.61	512
1022.93	515.111
1025.26	511.111
1027.58	513.111
1029.9	507.778
1032.22	513.111
1034.54	506.222
1036.86	513.111
1039.18	514
1041.5	519.111
1043.82	507.111
1046.14	507.111
1048.45	522.889
1050.77	508.444
1053.08	515.778
1055.4	517.778
1057.71	517.778
1060.02	528.667
1062.33	514.889
1064.64	526.444
1066.96	524.444
1069.27	519.778
1071.57	526.889
1073.88	536.889
1076.19	530
1078.5	529.111
1080.8	532.667
1083.11	536.444
1085.41	527.333
1087.72	541.333
1090.02	545.111
1092.32	566
1094.62	575.778
1096.92	590.889
1099.22	579.556
1101.52	567.556
1103.82	561.556
1106.12	559.333
1108.42	558.444
1110.71	556.222
1113.01	548.222
1115.3	565.333
1117.6	553.333
1119.89	556.667
1122.18	574.222
1124.48	585.778
1126.77	567.333
1129.06	567.556
1131.35	560.667
1133.64	553.556
1135.93	552.667
1138.21	554.444
1140.5	554.444
1142.79	553.111
1145.07	540.889
1147.36	558.667
1149.64	558
1151.92	564
1154.21	574.667
1156.49	580.889
1158.77	561.111
1161.05	557.778
1163.33	550.667
1165.61	555.556
1167.89	546.889
1170.16	547.778
1172.44	544.444
1174.72	540.444
1176.99	534.667
1179.27	537.778
1181.54	552.444
1183.81	552.667
1186.09	543.111
1188.36	540
1190.63	530.667
1192.9	533.556
1195.17	534
1197.44	547.333
1199.71	538
1201.97	549.556
1204.24	538.444
1206.5	548
1208.77	544.222
1211.03	556.222
1213.3	551.556
1215.56	562
1217.82	562.667
1220.09	569.556
1222.35	566.222
1224.61	567.556
1226.87	582
1229.12	576
1231.38	586.444
1233.64	561.111
1235.9	576.889
1238.15	581.111
1240.41	571.778
1242.66	574
1244.92	580.889
1247.17	590.444
1249.42	591.111
1251.67	597.333
1253.92	590
1256.17	614.889
1258.42	611.333
1260.67	604
1262.92	620.667
1265.17	619.333
1267.42	618.667
1269.66	618.444
1271.91	610
1274.15	612.889
1276.39	604
1278.64	597.333
1280.88	588.444
1283.12	586.444
1285.36	585.556
1287.6	588.444
1289.84	589.778
1292.08	580.889
1294.32	588.222
1296.56	587.556
1298.79	582.222
1301.03	584.667
1303.26	594
1305.5	588.667
1307.73	587.333
1309.97	584
1312.2	589.111
1314.43	584.889
1316.66	596.222
1318.89	590.889
1321.12	593.333
1323.35	603.778
1325.58	624.444
1327.81	606
1330.03	627.111
1332.26	640.667
1334.49	652.444
1336.71	633.556
1338.94	636.889
1341.16	629.333
1343.38	628.667
1345.6	637.778
1347.83	609.556
1350.05	623.778
1352.27	630.222
1354.49	624.889
1356.7	628.222
1358.92	643.778
1361.14	670
1363.36	702.444
1365.57	736.445
1367.79	760.889
1370	774
1372.21	780.889
1374.43	782.222
1376.64	777.778
1378.85	790.444
1381.06	754.667
1383.27	735.333
1385.48	709.556
1387.69	692.667
1389.9	672.222
1392.11	667.111
1394.31	634.222
1396.52	623.333
1398.73	620.444
1400.93	606.667
1403.13	603.778
1405.34	598.889
1407.54	604
1409.74	611.556
1411.94	610.889
1414.14	605.778
1416.34	602.222
1418.54	603.778
1420.74	599.556
1422.94	598.222
1425.14	589.556
1427.33	588.667
1429.53	576.667
1431.72	588
1433.92	590.667
1436.11	598
1438.3	588.444
1440.5	595.111
1442.69	606.445
1444.88	611.111
1447.07	611.111
1449.26	630.444
1451.45	636.222
1453.64	627.778
1455.82	622
1458.01	644
1460.2	628
1462.38	618.222
1464.57	621.556
1466.75	608
1468.93	608.222
1471.12	608.222
1473.3	591.111
1475.48	602.222
1477.66	613.333
1479.84	588
1482.02	578.889
1484.2	586.444
1486.38	583.333
1488.55	576
1490.73	586.444
1492.91	572.222
1495.08	567.555
1497.26	565.556
1499.43	578.222
1501.61	570.667
1503.78	571.111
1505.95	568.444
1508.12	565.556
1510.29	578.667
1512.46	579.778
1514.63	581.778
1516.8	568.667
1518.97	573.556
1521.14	573.111
1523.3	584.667
1525.47	577.333
1527.63	575.556
1529.8	575.333
1531.96	584.222
1534.12	572.222
1536.29	573.333
1538.45	581.778
1540.61	588
1542.77	573.556
1544.93	591.556
1547.09	592.889
1549.25	591.778
1551.41	592.667
1553.56	595.556
1555.72	599.333
1557.88	621.111
1560.03	625.778
1562.18	619.111
1564.34	629.778
1566.49	631.111
1568.64	631.778
1570.8	634.444
1572.95	620.889
1575.1	643.778
1577.25	628
1579.4	639.556
1581.55	625.333
1583.69	628.889
1585.84	628
1587.99	630.222
1590.13	624.445
1592.28	623.111
1594.42	625.333
1596.57	630.222
1598.71	626.222
1600.85	619.556
1602.99	624.667
1605.14	614
1607.28	604.889
1609.42	608.222
1611.56	589.333
1613.69	594.667
1615.83	584.445
1617.97	575.556
1620.11	567.111
1622.24	571.111
1624.38	551.333
1626.51	561.333
1628.65	551.556
1630.78	543.111
1632.91	546.222
1635.04	527.333
1637.17	531.111
1639.31	522.667
1641.44	532
1643.57	508.667
1645.69	503.556
1647.82	511.778
1649.95	499.333
1652.08	497.556
1654.2	499.111
1656.33	500.667
1658.45	492.889
1660.58	489.333
1662.7	484.667
1664.82	490.889
1666.94	479.111
1669.07	486.444
1671.19	486.889
1673.31	475.778
1675.43	480
1677.55	473.333
1679.66	468.222
1681.78	474.889
1683.9	471.556
1686.01	470.444
1688.13	475.333
1690.25	465.778
1692.36	462.889
1694.47	463.333
1696.59	457.556
1698.7	460.667
1700.81	463.778
1702.92	450.444
1705.03	461.778
1707.14	455.556
1709.25	447.778
1711.36	451.333
1713.47	461.111
1715.58	461.556
1717.68	445.556
1719.79	453.111
1721.89	445.111
1724	446.444
1726.1	449.778
1728.21	448.222
1730.31	448.222
1732.41	446
1734.51	444.889
1736.61	440.889
1738.71	432.667
1740.81	436.889
1742.91	446.889
1745.01	433.556
1747.11	443.556
1749.2	438.444
1751.3	433.778
1753.4	440.444
1755.49	433.556
1757.59	433.778
1759.68	433.111
1761.77	437.556
1763.86	433.556
1765.96	434
1768.05	424.444
1770.14	420.889
1772.23	430
1774.32	428.667
1776.41	434
1778.49	419.778
1780.58	426.222
1782.67	418.444
1784.76	431.333
1786.84	426.222
1788.92	416.889
1791.01	417.111
1793.09	418
1795.18	424.889
1797.26	419.111
1799.34	410.444
1801.42	412
1803.5	418.667
1805.58	413.556
1807.66	418.667
1809.74	421.111
1811.82	416.222
1813.89	422.444
1815.97	420.667
1818.05	422.444
1820.12	415.111
1822.2	405.333
1824.27	408.444
1826.34	411.778
1828.42	413.333
1830.49	403.556
1832.56	410.444
1834.63	412.222
1836.7	401.111
1838.77	406.889
1840.84	413.556
1842.91	406.444
1844.98	406.889
1847.04	409.778
1849.11	412.667
1851.18	407.111
1853.24	403.778
1855.31	405.333
1857.37	402.222
1859.43	405.778
1861.5	397.333
1863.56	401.556
1865.62	396.444
1867.68	406.222
1869.74	402.889
1871.8	401.778
1873.86	392.889
1875.92	399.111
1877.98	398
1880.03	389.111
1882.09	388.889
1884.15	397.111
1886.2	396
1888.26	391.111
1890.31	388.667
1892.36	396.889
1894.42	398.222
1896.47	403.333
1898.52	401.111
1900.57	392.222
1902.62	384
1904.67	396.889
1906.72	399.778
1908.77	386.667
1910.82	398.444
1912.86	395.778
1914.91	396.222
1916.96	392
1919	393.778
1921.04	389.111
1923.09	396.222
1925.13	389.333
1927.18	392.889
1929.22	392.222
1931.26	391.333
1933.3	390.444
1935.34	396.667
1937.38	389.333
1939.42	392.667
1941.46	379.333
1943.5	388
1945.53	392
1947.57	379.778
1949.61	384.222
1951.64	394.667
1953.68	380.222
1955.71	377.333
1957.75	377.333
1959.78	382.222
1961.81	384.444
1963.84	384.889
1965.87	380.444
1967.9	376.889
1969.93	376.667
1971.96	379.111
1973.99	372.667
1976.02	376
1978.05	380
1980.07	375.778
1982.1	373.111
1984.13	376.444
1986.15	373.111
1988.18	368
1990.2	375.778
1992.22	382.667
1994.25	377.556
1996.27	374
1998.29	375.333
2000.31	374.889
2002.33	364.889
2004.35	370.222
2006.37	376.667
2008.39	371.333
2010.41	370.889
2012.42	377.111
2014.44	377.111
2016.46	370.667
2018.47	375.333
2020.49	363.333
2022.5	371.778
2024.51	374.889
2026.53	367.111
2028.54	374.667
2030.55	372.444
2032.56	373.333
2034.57	362.444
2036.58	369.111
2038.59	370.222
2040.6	374.889
2042.61	364
2044.62	366.667
2046.62	372
2048.63	371.333
2050.64	372.889
2052.64	360.444
2054.65	371.778
2056.65	358.667
2058.65	354.667
2060.66	356.667
2062.66	362
2064.66	361.333
2066.66	362
2068.66	364
2070.66	364.889
2072.66	354.222
2074.66	360.222
2076.66	350.667
2078.65	363.111
2080.65	363.556
2082.65	358.889
2084.64	357.556
2086.64	356.444
2088.63	353.556
2090.63	356
2092.62	351.778
2094.61	344.889
2096.6	360.444
2098.59	355.111
2100.59	359.778
2102.58	343.333
2104.56	351.778
2106.55	352
2108.54	357.333
2110.53	356.889
2112.52	360.222
2114.5	356.444
2116.49	368.444
2118.48	362.444
2120.46	358
2122.44	377.111
2124.43	365.556
2126.41	369.556
2128.39	374.667
2130.38	382
2132.36	378
2134.34	377.556
2136.32	364
2138.3	375.111
2140.28	372.222
2142.26	368.444
2144.23	360.222
2146.21	372.222
2148.19	365.111
2150.16	367.333
2152.14	364
2154.11	354.444
2156.09	359.111
2158.06	349.111
2160.04	358.889
2162.01	356
2163.98	343.333
2165.95	345.778
2167.92	345.333
2169.89	347.556
2171.86	336.889
2173.83	349.778
2175.8	343.556
2177.77	336.444
2179.73	344.444
2181.7	342.222
2183.67	337.778
2185.63	332
2187.6	333.333
2189.56	337.556
2191.53	342
2193.49	331.111
2195.45	334.667
2197.41	330.889
2199.37	343.778
2201.34	325.333
2203.29	337.778
2205.26	324
2207.21	335.111
2209.17	334
2211.13	331.333
2213.09	330
2215.05	329.111
2217	329.556
2218.96	327.333
2220.91	334
2222.87	330
2224.82	321.111
2226.77	324.667
2228.73	325.778
2230.68	333.333
2232.63	327.333
2234.58	325.556
2236.53	320.889
2238.48	312.667
2240.43	315.556
2242.38	326.444
2244.33	324.444
2246.27	320.222
2248.22	322.889
2250.17	323.333
2252.11	310.889
2254.06	323.556
2256	315.556
2257.95	312
2259.89	315.111
2261.84	315.556
2263.78	320
2265.72	311.333
2267.66	314
2269.6	312.222
2271.54	313.778
2273.48	312.667
2275.42	311.111
2277.36	302.444
2279.3	314
2281.23	314.667
2283.17	308
2285.11	305.556
2287.04	309.333
2288.98	311.778
2290.91	301.111
2292.84	304.444
2294.78	305.111
2296.71	303.556
2298.64	300.889
2300.57	306.444
2302.51	296
2304.44	301.556
2306.37	305.111
2308.29	301.556
2310.22	302.889
2312.15	304.667
2314.08	302.444
2316.01	312
2317.93	300.222
2319.86	294.444
2321.78	297.111
2323.71	298
2325.63	299.556
2327.56	301.556
2329.48	297.778
2331.4	302
2333.32	300.889
2335.25	295.778
2337.17	283.778
2339.09	294.667
2341.01	296.667
2342.92	300.444
2344.84	296.222
2346.76	293.111
2348.68	294.667
2350.6	288.667
2352.51	292.667
2354.43	289.111
2356.34	290.222
2358.26	290.889
2360.17	294.889
2362.09	292.889
2364	290
2365.91	298.222
2367.82	290.444
2369.73	286.889
2371.64	285.778
2373.55	286.667
2375.46	282.889
2377.37	286.444
2379.28	280
2381.19	282.222
2383.1	288.667
2385	290.667
2386.91	289.333
2388.82	283.333
2390.72	280.444
2392.62	277.556
2394.53	288.667
2396.43	285.333
2398.33	282
2400.24	282.222
2402.14	278.667
2404.04	288.222
2405.94	278.444
2407.84	282
2409.74	280.889
2411.64	278.444
2413.54	287.333
2415.44	279.333
2417.33	281.333
2419.23	282.444
2421.13	272.667
2423.02	280.222
2424.92	290.444
2426.81	280.889
2428.71	272.667
2430.6	280.222
2432.49	276.444
2434.38	281.778
2436.28	276.889
2438.17	282.222
2440.06	271.556
2441.95	277.111
2443.84	276.444
2445.73	276.444
