176.817	689.778
179.42	674
182.022	664.444
184.622	670
187.223	669.556
189.821	662
192.419	666.222
195.017	668.667
197.612	683.778
200.208	661.111
202.802	676.444
205.397	680.222
207.99	683.333
210.581	689.556
213.173	690.889
215.762	692
218.352	702
220.94	698.667
223.528	704
226.114	728.222
228.701	728.889
231.285	736
233.87	728.889
236.452	733.111
239.034	725.778
241.616	737.556
244.196	749.111
246.777	749.778
249.355	739.333
251.933	758.222
254.511	760.667
257.086	765.555
259.663	762.444
262.237	762.889
264.81	740.667
267.383	757.778
269.955	750.667
272.525	758.667
275.097	738.222
277.665	716
280.234	718
282.802	706.444
285.368	710.222
287.934	695.556
290.499	685.778
293.064	686
295.627	700.444
298.189	696.222
300.75	687.778
303.312	705.778
305.871	681.778
308.43	680.667
310.988	666.222
313.545	679.111
316.101	667.333
318.658	651.556
321.212	654.444
323.766	645.111
326.319	640.889
328.871	646.222
331.422	654
333.972	649.556
336.522	640.889
339.072	637.556
341.619	640.444
344.166	652.444
346.712	655.333
349.258	659.556
351.802	646.444
354.346	637.556
356.888	638.889
359.43	645.111
361.971	635.778
364.511	652.222
367.051	648
369.589	646
372.127	657.111
374.664	656.444
377.2	668
379.735	680.444
382.27	677.333
384.802	659.111
387.334	655.333
389.866	659.111
392.397	642.889
394.927	640.667
397.457	644.667
399.985	630.444
402.513	633.556
405.038	641.778
407.565	642.444
410.09	638.667
412.614	646.222
415.138	649.778
417.66	648.667
420.181	642
422.702	653.111
425.222	655.333
427.742	649.556
430.259	649.111
432.777	648.222
435.294	657.556
437.81	669.111
440.324	660
442.838	655.778
445.352	656.889
447.863	647.111
450.375	637.333
452.887	644.667
455.395	651.778
457.905	660.667
460.414	659.778
462.92	650
465.427	644.444
467.932	643.333
470.438	649.333
472.942	642.444
475.445	659.778
477.948	659.556
480.448	653.333
482.95	640.667
485.449	648.444
487.949	644.444
490.446	632.222
492.944	650.444
495.44	647.778
497.937	660.222
500.431	649.778
502.926	656.222
505.418	638.222
507.912	636.889
510.403	654.667
512.894	652.222
515.384	649.333
517.874	646.222
520.361	650.222
522.848	646.889
525.336	660.889
527.821	646.444
530.306	659.778
532.791	660.889
535.274	651.778
537.756	652.667
540.238	653.333
542.719	649.556
545.199	659.778
547.679	658
550.157	647.111
552.634	650.667
555.112	643.556
557.588	672.667
560.063	655.111
562.537	660.222
565.011	667.111
567.484	682.222
569.955	676.889
572.426	676.444
574.896	661.556
577.367	660.667
579.835	642.222
582.303	660
584.77	659.556
587.236	656
589.701	657.556
592.165	660.222
594.629	653.333
597.093	657.556
599.555	658
602.016	655.556
604.477	668.889
606.936	668.889
609.395	675.778
611.853	671.333
614.311	686
616.767	687.778
619.223	676.667
621.678	667.778
624.132	667.778
626.585	678
629.037	666
631.489	671.333
633.94	683.555
636.39	671.778
638.839	674
641.288	682.444
643.736	677.556
646.183	685.111
648.627	674.667
651.073	677.778
653.517	682
655.961	677.778
658.404	694
660.846	686.667
663.288	685.556
665.727	679.556
668.167	677.778
670.606	678.444
673.044	675.111
675.482	671.778
677.917	676.889
680.353	679.555
682.788	666.667
685.222	675.333
687.655	674.889
690.087	675.333
692.519	664.667
694.951	672.222
697.38	674.444
699.809	673.556
702.238	689.333
704.665	684.889
707.092	676.889
709.519	680
711.943	675.111
714.368	689.111
716.791	688.667
719.214	689.556
721.637	697.111
724.058	690.222
726.479	690.889
728.898	671.111
731.317	680.222
733.734	684
736.152	681.556
738.568	687.111
740.985	657.333
743.399	691.778
745.814	683.778
748.227	673.333
750.64	674
753.051	677.333
755.463	666
757.872	680.444
760.283	670.222
762.691	656.444
765.098	672
767.506	680.444
769.912	676.889
772.318	667.556
774.722	671.111
777.126	673.333
779.53	684.889
781.932	679.556
784.333	672.222
786.735	677.333
789.135	677.111
791.533	673.111
793.933	690.889
796.33	682.222
798.727	697.778
801.123	688
803.519	685.333
805.913	701.111
808.307	691.556
810.699	692.889
813.093	698.667
815.484	702.444
817.874	700.222
820.264	704.222
822.653	707.111
825.041	706.444
827.43	700
829.817	714.667
832.203	710.889
834.588	714.444
836.972	716.444
839.356	714.444
841.738	703.778
844.12	700.444
846.502	707.333
848.882	710.667
851.262	699.778
853.641	702.667
856.02	705.111
858.397	707.333
860.774	716
863.15	727.778
865.525	728.444
867.9	724.444
870.273	735.333
872.646	730.889
875.019	724.667
877.39	708.444
879.761	722.222
882.131	714.667
884.5	717.333
886.869	707.111
889.236	724.667
891.602	726.444
893.968	714.222
896.334	730.444
898.698	718.444
901.062	724
903.426	718.444
905.787	706.889
908.148	711.111
910.509	717.778
912.87	714.667
915.228	712.889
917.587	713.556
919.945	705.111
922.302	710.444
924.657	694
927.013	714.444
929.368	706.667
931.721	707.778
934.074	699.778
936.427	695.778
938.778	709.778
941.129	694.667
943.479	715.778
945.828	708.889
948.177	700.444
950.524	698.667
952.871	705.556
955.218	697.333
957.563	707.333
959.908	704.667
962.252	712.222
964.595	699.778
966.937	721.111
969.28	708.444
971.62	712.444
973.961	708.222
976.3	713.556
978.639	707.556
980.976	706.444
983.314	699.556
985.65	704.667
987.987	704
990.321	695.778
992.655	690.667
994.989	707.111
997.321	702.222
999.653	716.667
1001.98	721.778
1004.31	705.556
1006.65	704
1008.97	707.333
1011.3	708
1013.63	692.667
1015.96	694.667
1018.28	703.333
1020.61	702.667
1022.93	698
1025.26	687.111
1027.58	702
1029.9	694.667
1032.22	713.333
1034.54	701.333
1036.86	713.556
1039.18	702
1041.5	700.667
1043.82	710
1046.14	702.667
1048.45	710.222
1050.77	725.333
1053.08	727.778
1055.4	727.111
1057.71	730
1060.02	738.222
1062.33	724.444
1064.64	723.778
1066.96	726
1069.27	730.444
1071.57	742.889
1073.88	729.111
1076.19	745.778
1078.5	738.889
1080.8	750.889
1083.11	757.556
1085.41	749.556
1087.72	770.444
1090.02	777.333
1092.32	806.222
1094.62	812.889
1096.92	827.111
1099.22	839.111
1101.52	808.889
1103.82	802.222
1106.12	804.889
1108.42	803.333
1110.71	778
1113.01	787.333
1115.3	787.556
1117.6	781.556
1119.89	812.667
1122.18	794.667
1124.48	807.555
1126.77	806.889
1129.06	801.778
1131.35	804
1133.64	783.333
1135.93	793.333
1138.21	786.667
1140.5	786.889
1142.79	780.889
1145.07	784.667
1147.36	797.556
1149.64	814.444
1151.92	812.889
1154.21	810.667
1156.49	814.444
1158.77	813.778
1161.05	808.222
1163.33	801.778
1165.61	788
1167.89	794
1170.16	795.333
1172.44	776.222
1174.72	782.444
1176.99	783.556
1179.27	777.111
1181.54	790.667
1183.81	792.667
1186.09	785.556
1188.36	792.444
1190.63	786.222
1192.9	798.889
1195.17	808.444
1197.44	802.444
1199.71	813.333
1201.97	811.111
1204.24	822.667
1206.5	823.111
1208.77	808.889
1211.03	816.222
1213.3	816.444
1215.56	825.111
1217.82	838.889
1220.09	819.111
1222.35	832.889
1224.61	841.778
1226.87	834.445
1229.12	857.778
1231.38	852.222
1233.64	857.778
1235.9	854.222
1238.15	844.667
1240.41	843.333
1242.66	863.111
1244.92	861.333
1247.17	874.667
1249.42	868.889
1251.67	891.556
1253.92	872.889
1256.17	901.111
1258.42	894.667
1260.67	890.222
1262.92	889.778
1265.17	896.889
1267.42	898.889
1269.66	906.444
1271.91	898.667
1274.15	885.111
1276.39	900.222
1278.64	892.444
1280.88	878.667
1283.12	888
1285.36	879.333
1287.6	877.556
1289.84	886.667
1292.08	880
1294.32	886.444
1296.56	873.556
1298.79	873.778
1301.03	857.111
1303.26	868.889
1305.5	866.889
1307.73	856.222
1309.97	856
1312.2	874
1314.43	864
1316.66	871.333
1318.89	854.889
1321.12	862
1323.35	871.111
1325.58	860.444
1327.81	867.556
1330.03	888.889
1332.26	893.111
1334.49	894.889
1336.71	891.111
1338.94	894.889
1341.16	912.444
1343.38	908.445
1345.6	927.111
1347.83	922.667
1350.05	935.333
1352.27	923.333
1354.49	919.556
1356.7	921.778
1358.92	933.556
1361.14	938.889
1363.36	948.222
1365.57	956.667
1367.79	995.333
1370	1010
1372.21	1007.78
1374.43	993.333
1376.64	973.111
1378.85	988.667
1381.06	961.778
1383.27	969.778
1385.48	955.556
1387.69	932.222
1389.9	924.222
1392.11	925.556
1394.31	909.111
1396.52	906.222
1398.73	906.222
1400.93	878.667
1403.13	897.111
1405.34	892
1407.54	895.333
1409.74	870.444
1411.94	898.445
1414.14	922.667
1416.34	915.333
1418.54	923.111
1420.74	913.778
1422.94	910.222
1425.14	915.556
1427.33	896.889
1429.53	897.111
1431.72	885.333
1433.92	896.889
1436.11	886.889
1438.3	881.333
1440.5	876.444
1442.69	875.111
1444.88	892.889
1447.07	915.333
1449.26	912.445
1451.45	913.111
1453.64	914
1455.82	917.778
1458.01	924.444
1460.2	928.222
1462.38	918
1464.57	919.333
1466.75	900.667
1468.93	910
1471.12	902
1473.3	910.889
1475.48	914.889
1477.66	899.111
1479.84	891.333
1482.02	905.556
1484.2	897.556
1486.38	896.667
1488.55	901.778
1490.73	910.222
1492.91	909.333
1495.08	905.778
1497.26	906.667
1499.43	897.778
1501.61	886.667
1503.78	894.444
1505.95	885.778
1508.12	886.444
1510.29	886
1512.46	902.889
1514.63	910.222
1516.8	913.778
1518.97	926.889
1521.14	913.333
1523.3	940.667
1525.47	942
1527.63	944.222
1529.8	959.556
1531.96	966.667
1534.12	965.333
1536.29	962.889
1538.45	962.444
1540.61	979.778
1542.77	976
1544.93	987.556
1547.09	978
1549.25	986.667
1551.41	990.667
1553.56	982.889
1555.72	1001.33
1557.88	992.222
1560.03	991.333
1562.18	1007.11
1564.34	1016.67
1566.49	1006.44
1568.64	1017.56
1570.8	1019.78
1572.95	1021.11
1575.1	1005.78
1577.25	1005.33
1579.4	1013.78
1581.55	1004
1583.69	1002.67
1585.84	1017.78
1587.99	1002
1590.13	1017.11
1592.28	1018
1594.42	1010
1596.57	1020.67
1598.71	1032.44
1600.85	1025.11
1602.99	1018
1605.14	1012
1607.28	992.667
1609.42	986.889
1611.56	976.222
1613.69	965.111
1615.83	947.333
1617.97	937.778
1620.11	918.444
1622.24	894
1624.38	863.111
1626.51	853.111
1628.65	841.778
1630.78	828.889
1632.91	802
1635.04	813.111
1637.17	774
1639.31	790.222
1641.44	759.778
1643.57	762
1645.69	745.333
1647.82	735.111
1649.95	728.889
1652.08	727.333
1654.2	719.778
1656.33	721.111
1658.45	729.556
1660.58	707.778
1662.7	706
1664.82	713.556
1666.94	705.556
1669.07	680
1671.19	678
1673.31	688.445
1675.43	666.889
1677.55	676.444
1679.66	666.889
1681.78	658.889
1683.9	664.444
1686.01	666
1688.13	658.667
1690.25	661.111
1692.36	653.111
1694.47	649.333
1696.59	667.556
1698.7	653.778
1700.81	649.556
1702.92	648
1705.03	641.111
1707.14	635.111
1709.25	634.667
1711.36	644
1713.47	634.889
1715.58	631.556
1717.68	632.889
1719.79	638.889
1721.89	637.111
1724	632.222
1726.1	629.556
1728.21	620.889
1730.31	615.111
1732.41	618.889
1734.51	615.111
1736.61	617.555
1738.71	611.333
1740.81	612.889
1742.91	610.889
1745.01	606.667
1747.11	606
1749.2	603.556
1751.3	608.222
1753.4	608.222
1755.49	591.111
1757.59	590.889
1759.68	599.555
1761.77	595.333
1763.86	590.889
1765.96	580.667
1768.05	596.444
1770.14	590.222
1772.23	588
1774.32	586.667
1776.41	588.444
1778.49	579.111
1780.58	578
1782.67	584.667
1784.76	584.444
1786.84	585.556
1788.92	561.111
1791.01	577.111
1793.09	572.667
1795.18	582
1797.26	576.444
1799.34	575.778
1801.42	568.667
1803.5	570.889
1805.58	562.444
1807.66	564.667
1809.74	567.333
1811.82	582.667
1813.89	567.556
1815.97	555.778
1818.05	570.444
1820.12	566.444
1822.2	564.444
1824.27	569.333
1826.34	562.889
1828.42	558.667
1830.49	565.333
1832.56	557.778
1834.63	562
1836.7	561.556
1838.77	558.889
1840.84	554
1842.91	558.889
1844.98	545.111
1847.04	555.778
1849.11	551.778
1851.18	551.111
1853.24	553.333
1855.31	544.445
1857.37	547.556
1859.43	550.444
1861.5	550.444
1863.56	539.333
1865.62	551.111
1867.68	537.111
1869.74	541.555
1871.8	540.222
1873.86	540.889
1875.92	538.444
1877.98	533.556
1880.03	531.778
1882.09	536.222
1884.15	539.111
1886.2	530.222
1888.26	532.889
1890.31	533.111
1892.36	539.556
1894.42	532.222
1896.47	540.222
1898.52	543.111
1900.57	535.333
1902.62	544.222
1904.67	530.222
1906.72	540.222
1908.77	532.667
1910.82	533.111
1912.86	541.556
1914.91	530
1916.96	538.444
1919	546
1921.04	526.222
1923.09	532.222
1925.13	539.111
1927.18	522
1929.22	538.444
1931.26	524.222
1933.3	524.889
1935.34	529.556
1937.38	532.889
1939.42	523.778
1941.46	526.667
1943.5	527.333
1945.53	520.444
1947.57	516.667
1949.61	508.222
1951.64	520.667
1953.68	510.667
1955.71	520.889
1957.75	522
1959.78	523.778
1961.81	519.333
1963.84	519.111
1965.87	518.889
1967.9	512
1969.93	508.444
1971.96	514.222
1973.99	517.111
1976.02	519.778
1978.05	503.778
1980.07	508.222
1982.1	506.444
1984.13	502
1986.15	517.556
1988.18	502.667
1990.2	513.111
1992.22	506.889
1994.25	508.889
1996.27	504.889
1998.29	502.222
2000.31	504.444
2002.33	508
2004.35	518.889
2006.37	508
2008.39	509.333
2010.41	511.111
2012.42	516.667
2014.44	504.889
2016.46	511.556
2018.47	498.222
2020.49	501.111
2022.5	510.222
2024.51	512.222
2026.53	513.778
2028.54	506.889
2030.55	502.889
2032.56	502
2034.57	504
2036.58	507.556
2038.59	499.111
2040.6	506.222
2042.61	504.667
2044.62	503.111
2046.62	495.556
2048.63	491.333
2050.64	498.667
2052.64	500.222
2054.65	501.111
2056.65	498.889
2058.65	503.778
2060.66	493.778
2062.66	497.556
2064.66	502.222
2066.66	496.444
2068.66	494.444
2070.66	507.778
2072.66	485.556
2074.66	505.111
2076.66	493.111
2078.65	484.222
2080.65	494
2082.65	491.556
2084.64	492
2086.64	489.556
2088.63	496.444
2090.63	486.222
2092.62	493.111
2094.61	488.889
2096.6	504.667
2098.59	496.222
2100.59	502.444
2102.58	503.111
2104.56	495.556
2106.55	485.111
2108.54	504.444
2110.53	497.111
2112.52	511.111
2114.5	504.444
2116.49	522.667
2118.48	520.444
2120.46	530.889
2122.44	546.889
2124.43	542.444
2126.41	553.333
2128.39	560.667
2130.38	565.778
2132.36	575.333
2134.34	579.333
2136.32	563.778
2138.3	563.111
2140.28	553.333
2142.26	559.333
2144.23	557.556
2146.21	547.556
2148.19	552.889
2150.16	542
2152.14	535.111
2154.11	523.778
2156.09	513.778
2158.06	512.667
2160.04	515.333
2162.01	505.778
2163.98	502.889
2165.95	499.111
2167.92	496.889
2169.89	485.778
2171.86	489.778
2173.83	480.889
2175.8	471.333
2177.77	470
2179.73	470.444
2181.7	467.111
2183.67	468.444
2185.63	457.778
2187.6	462.222
2189.56	464.444
2191.53	459.556
2193.49	463.333
2195.45	469.111
2197.41	474
2199.37	468
2201.34	468.889
2203.29	475.111
2205.26	458.667
2207.21	455.778
2209.17	460.667
2211.13	464
2213.09	455.333
2215.05	459.778
2217	454.889
2218.96	453.333
2220.91	465.333
2222.87	458.889
2224.82	460.667
2226.77	463.556
2228.73	461.556
2230.68	466.889
2232.63	466.222
2234.58	467.111
2236.53	458
2238.48	459.778
2240.43	447.111
2242.38	447.778
2244.33	434.667
2246.27	445.556
2248.22	445.778
2250.17	441.333
2252.11	440.667
2254.06	440.444
2256	441.778
2257.95	426.667
2259.89	433.778
2261.84	430.444
2263.78	432.667
2265.72	424.667
2267.66	433.333
2269.6	424.222
2271.54	428
2273.48	424
2275.42	419.333
2277.36	419.111
2279.3	420
2281.23	420
2283.17	410.889
2285.11	419.778
2287.04	416.889
2288.98	420.222
2290.91	420.444
2292.84	418.222
2294.78	426
2296.71	410.667
2298.64	412.667
2300.57	412.222
2302.51	412.667
2304.44	408.222
2306.37	411.333
2308.29	415.111
2310.22	403.111
2312.15	406.889
2314.08	414.222
2316.01	416.444
2317.93	403.111
2319.86	406.889
2321.78	412.667
2323.71	412.889
2325.63	399.556
2327.56	417.778
2329.48	408.444
2331.4	402.222
2333.32	413.778
2335.25	402.222
2337.17	410.444
2339.09	414.667
2341.01	392
2342.92	401.111
2344.84	409.111
2346.76	405.556
2348.68	402.667
2350.6	399.333
2352.51	406
2354.43	395.556
2356.34	401.778
2358.26	392.222
2360.17	405.111
2362.09	401.556
2364	395.333
2365.91	399.333
2367.82	395.111
2369.73	392.889
2371.64	396
2373.55	396.222
2375.46	390
2377.37	392.222
2379.28	396.222
2381.19	397.111
2383.1	386.222
2385	390
2386.91	398.889
2388.82	387.111
2390.72	386.444
2392.62	391.333
2394.53	388
2396.43	378.222
2398.33	391.111
2400.24	384.889
2402.14	397.556
2404.04	377.778
2405.94	383.111
2407.84	391.778
2409.74	391.111
2411.64	389.333
2413.54	378.667
2415.44	385.778
2417.33	384.889
2419.23	383.333
2421.13	393.111
2423.02	393.111
2424.92	383.556
2426.81	384.444
2428.71	385.778
2430.6	381.556
2432.49	367.333
2434.38	374
2436.28	376.444
2438.17	385.333
2440.06	378.444
2441.95	377.111
2443.84	380.667
2445.73	387.778
