176.817	514.444
179.42	512.222
182.022	518.444
184.622	518
187.223	509.778
189.821	518.667
192.419	504.222
195.017	514.222
197.612	512.444
200.208	522
202.802	522.444
205.397	514.222
207.99	518
210.581	526.222
213.173	524.222
215.762	525.556
218.352	527.333
220.94	533.556
223.528	540.444
226.114	536.667
228.701	540.889
231.285	547.333
233.87	555.111
236.452	560
239.034	567.111
241.616	550
244.196	570.444
246.777	567.111
249.355	582
251.933	572
254.511	573.333
257.086	573.556
259.663	581.333
262.237	567.111
264.81	573.111
267.383	565.333
269.955	572.444
272.525	563.556
275.097	572.222
277.665	563.556
280.234	549.333
282.802	562.667
285.368	544
287.934	548.444
290.499	540.889
293.064	550
295.627	553.333
298.189	549.556
300.75	554.667
303.312	550
305.871	558.889
308.43	544.667
310.988	542.444
313.545	535.778
316.101	531.111
318.658	529.111
321.212	524
323.766	534
326.319	535.333
328.871	532.444
331.422	533.556
333.972	526.222
336.522	529.778
339.072	533.333
341.619	532.667
344.166	527.333
346.712	538
349.258	542.889
351.802	525.333
354.346	534
356.888	542.889
359.43	543.111
361.971	534
364.511	547.111
367.051	544.222
369.589	538.889
372.127	540.667
374.664	556.889
377.2	558.444
379.735	566.667
382.27	571.333
384.802	558.222
387.334	544.667
389.866	541.778
392.397	524.667
394.927	528.444
397.457	529.778
399.985	531.111
402.513	526.667
405.038	536.667
407.565	540
410.09	529.778
412.614	534.889
415.138	545.555
417.66	540.667
420.181	540.444
422.702	540
425.222	536.444
427.742	533.778
430.259	542
432.777	560.667
435.294	560
437.81	558.444
440.324	560.667
442.838	560
445.352	548.889
447.863	539.111
450.375	546.222
452.887	549.778
455.395	550.222
457.905	559.333
460.414	558.667
462.92	551.556
465.427	552.667
467.932	538.222
470.438	549.556
472.942	546.222
475.445	545.333
477.948	539.778
480.448	546.222
482.95	559.556
485.449	548.444
487.949	549.111
490.446	545.111
492.944	553.556
495.44	551.778
497.937	540.667
500.431	545.778
502.926	537.333
505.418	548
507.912	538.889
510.403	547.556
512.894	535.111
515.384	551.778
517.874	552.444
520.361	552.222
522.848	547.556
525.336	556.444
527.821	556.444
530.306	548
532.791	554.667
535.274	554.667
537.756	544.222
540.238	541.111
542.719	548.222
545.199	548.222
547.679	540
550.157	550.889
552.634	553.111
555.112	544.667
557.588	559.333
560.063	561.111
562.537	558
565.011	553.333
567.484	556.667
569.955	563.556
572.426	544.444
574.896	553.111
577.367	542.667
579.835	542.889
582.303	544.667
584.77	544
587.236	560.444
589.701	549.556
592.165	555.778
594.629	557.556
597.093	549.778
599.555	552.667
602.016	538
604.477	560.445
606.936	553.111
609.395	558.444
611.853	572.889
614.311	570
616.767	570.222
619.223	573.333
621.678	569.778
624.132	561.778
626.585	563.778
629.037	557.333
631.489	567.333
633.94	564.667
636.39	566.444
638.839	558.667
641.288	559.556
643.736	561.333
646.183	564.889
648.627	576.667
651.073	558.444
653.517	551.111
655.961	549.556
658.404	561.333
660.846	569.111
663.288	557.556
665.727	564
668.167	563.333
670.606	554.667
673.044	556.889
675.482	564
677.917	554.667
680.353	555.333
682.788	559.778
685.222	560.889
687.655	541.556
690.087	549.333
692.519	557.556
694.951	568.889
697.38	562.667
699.809	551.556
702.238	545.556
704.665	564.222
707.092	567.556
709.519	563.556
711.943	551.111
714.368	568.444
716.791	558.889
719.214	571.333
721.637	575.556
724.058	562.222
726.479	568.222
728.898	567.111
731.317	564.889
733.734	555.778
736.152	559.556
738.568	554.222
740.985	555.556
743.399	548.667
745.814	557.556
748.227	565.778
750.64	546.667
753.051	562.889
755.463	550.444
757.872	550.445
760.283	551.556
762.691	557.778
765.098	550.667
767.506	549.111
769.912	566
772.318	555.778
774.722	555.778
777.126	542.889
779.53	559.333
781.932	552.445
784.333	554.222
786.735	561.778
789.135	552
791.533	550.889
793.933	571.333
796.33	557.111
798.727	563.333
801.123	567.111
803.519	574.444
805.913	554.222
808.307	576.222
810.699	559.333
813.093	558.667
815.484	567.333
817.874	564.889
820.264	564.444
822.653	576
825.041	564.889
827.43	567.778
829.817	557.556
832.203	562.667
834.588	566.222
836.972	573.556
839.356	568.667
841.738	563.333
844.12	577.333
846.502	564
848.882	566.889
851.262	562
853.641	562.889
856.02	571.111
858.397	574
860.774	582
863.15	578
865.525	585.778
867.9	574
870.273	585.333
872.646	577.778
875.019	571.111
877.39	581.111
879.761	573.333
882.131	567.778
884.5	574
886.869	568.222
889.236	575.778
891.602	571.333
893.968	576.444
896.334	570.667
898.698	555.111
901.062	565.778
903.426	569.111
905.787	567.111
908.148	562.667
910.509	554
912.87	555.778
915.228	562.222
917.587	552
919.945	553.111
922.302	560.889
924.657	567.778
927.013	558.222
929.368	554.667
931.721	552.889
934.074	559.556
936.427	549.556
938.778	553.556
941.129	550.444
943.479	553.778
945.828	559.111
948.177	558.667
950.524	549.333
952.871	550.889
955.218	556
957.563	557.333
959.908	558
962.252	554.222
964.595	560.667
966.937	561.333
969.28	550.889
971.62	554.222
973.961	568.889
976.3	557.111
978.639	556.444
980.976	552.222
983.314	550.889
985.65	559.111
987.987	554.222
990.321	560.889
992.655	564.889
994.989	574.222
997.321	580.444
999.653	567.111
1001.98	567.333
1004.31	564.222
1006.65	561.555
1008.97	560.222
1011.3	563.111
1013.63	563.333
1015.96	564.667
1018.28	551.778
1020.61	566
1022.93	558.222
1025.26	576
1027.58	552.889
1029.9	564.667
1032.22	564.444
1034.54	575.556
1036.86	568.667
1039.18	562.222
1041.5	563.778
1043.82	578.667
1046.14	573.111
1048.45	573.333
1050.77	574.444
1053.08	584.444
1055.4	588.444
1057.71	596.889
1060.02	569.556
1062.33	571.556
1064.64	580
1066.96	577.333
1069.27	587.333
1071.57	592.444
1073.88	583.111
1076.19	580.667
1078.5	578.889
1080.8	584.444
1083.11	599.333
1085.41	598.444
1087.72	606
1090.02	616.222
1092.32	637.333
1094.62	652.444
1096.92	661.778
1099.22	644.667
1101.52	631.556
1103.82	625.556
1106.12	625.778
1108.42	617.778
1110.71	615.778
1113.01	611.111
1115.3	610.667
1117.6	626.667
1119.89	645.556
1122.18	647.111
1124.48	647.778
1126.77	628
1129.06	635.556
1131.35	618.222
1133.64	609.111
1135.93	600.444
1138.21	601.111
1140.5	605.111
1142.79	598.667
1145.07	598.889
1147.36	614.444
1149.64	626.444
1151.92	634.444
1154.21	623.111
1156.49	628.889
1158.77	625.556
1161.05	616.222
1163.33	617.778
1165.61	612.889
1167.89	602.222
1170.16	604.222
1172.44	594.667
1174.72	592.889
1176.99	599.111
1179.27	602
1181.54	597.111
1183.81	595.333
1186.09	593.778
1188.36	605.333
1190.63	595.111
1192.9	599.111
1195.17	600.889
1197.44	606.444
1199.71	600.889
1201.97	616.889
1204.24	603.333
1206.5	593.556
1208.77	599.556
1211.03	612.222
1213.3	610.889
1215.56	610.222
1217.82	633.333
1220.09	629.778
1222.35	627.556
1224.61	631.333
1226.87	620.444
1229.12	634.222
1231.38	636.889
1233.64	637.333
1235.9	635.556
1238.15	632.889
1240.41	638.667
1242.66	646.444
1244.92	640.667
1247.17	640.889
1249.42	641.778
1251.67	645.778
1253.92	654.667
1256.17	650.444
1258.42	670
1260.67	672
1262.92	679.333
1265.17	673.778
1267.42	666.667
1269.66	654.444
1271.91	654.444
1274.15	662.889
1276.39	663.111
1278.64	660.667
1280.88	650.444
1283.12	636
1285.36	636.889
1287.6	643.333
1289.84	648.222
1292.08	636.444
1294.32	637.333
1296.56	652.889
1298.79	632.222
1301.03	625.556
1303.26	624.444
1305.5	644.889
1307.73	642.889
1309.97	623.556
1312.2	632.667
1314.43	637.778
1316.66	641.778
1318.89	639.111
1321.12	637.333
1323.35	642.667
1325.58	650.222
1327.81	657.111
1330.03	651.555
1332.26	665.778
1334.49	668.889
1336.71	665.111
1338.94	677.333
1341.16	667.333
1343.38	676.889
1345.6	686.889
1347.83	703.333
1350.05	685.333
1352.27	688.444
1354.49	704
1356.7	714.222
1358.92	737.111
1361.14	780.889
1363.36	811.333
1365.57	824.667
1367.79	867.333
1370	878.667
1372.21	872.222
1374.43	853.111
1376.64	825.778
1378.85	782.889
1381.06	768
1383.27	736.889
1385.48	726.667
1387.69	705.111
1389.9	701.333
1392.11	700.222
1394.31	696.667
1396.52	692.667
1398.73	678.667
1400.93	663.111
1403.13	657.556
1405.34	658.889
1407.54	650.889
1409.74	659.556
1411.94	656.444
1414.14	665.556
1416.34	666.889
1418.54	652
1420.74	650.667
1422.94	657.111
1425.14	641.556
1427.33	642.444
1429.53	646.889
1431.72	638.889
1433.92	656.222
1436.11	642.444
1438.3	656.667
1440.5	649.111
1442.69	656.444
1444.88	670.889
1447.07	660.444
1449.26	662.444
1451.45	684.889
1453.64	680.222
1455.82	684.889
1458.01	679.778
1460.2	676.444
1462.38	664.667
1464.57	668.889
1466.75	674.222
1468.93	663.111
1471.12	664
1473.3	654
1475.48	657.778
1477.66	661.111
1479.84	664.889
1482.02	653.778
1484.2	640.667
1486.38	643.778
1488.55	629.778
1490.73	634.222
1492.91	641.555
1495.08	642.889
1497.26	622.889
1499.43	639.556
1501.61	638.889
1503.78	637.333
1505.95	631.111
1508.12	631.333
1510.29	620.667
1512.46	626.889
1514.63	618.889
1516.8	635.333
1518.97	638.222
1521.14	644
1523.3	627.333
1525.47	621.333
1527.63	639.333
1529.8	631.556
1531.96	642.667
1534.12	625.778
1536.29	641.111
1538.45	635.556
1540.61	648.889
1542.77	639.778
1544.93	651.111
1547.09	642.444
1549.25	655.333
1551.41	667.556
1553.56	662.444
1555.72	659.778
1557.88	662
1560.03	672.222
1562.18	686.667
1564.34	686.889
1566.49	675.333
1568.64	694.222
1570.8	687.778
1572.95	691.778
1575.1	690
1577.25	686
1579.4	690
1581.55	700
1583.69	693.556
1585.84	684.889
1587.99	703.555
1590.13	690.444
1592.28	685.556
1594.42	683.111
1596.57	676.222
1598.71	672.889
1600.85	680.222
1602.99	676
1605.14	666.889
1607.28	649.333
1609.42	659.111
1611.56	659.333
1613.69	639.556
1615.83	630.667
1617.97	619.111
1620.11	618.889
1622.24	610.667
1624.38	598.667
1626.51	614
1628.65	603.778
1630.78	590
1632.91	590
1635.04	592
1637.17	582.444
1639.31	576.889
1641.44	566.222
1643.57	558.889
1645.69	547.556
1647.82	549.111
1649.95	548.444
1652.08	548
1654.2	546
1656.33	548.222
1658.45	536.444
1660.58	531.333
1662.7	529.111
1664.82	525.333
1666.94	534.222
1669.07	519.333
1671.19	521.111
1673.31	518.667
1675.43	508.889
1677.55	511.556
1679.66	507.556
1681.78	513.556
1683.9	511.556
1686.01	506.222
1688.13	505.556
1690.25	506.444
1692.36	510.444
1694.47	500
1696.59	490.889
1698.7	505.556
1700.81	496
1702.92	490
1705.03	493.556
1707.14	485.333
1709.25	501.111
1711.36	503.556
1713.47	495.556
1715.58	490
1717.68	482.667
1719.79	490
1721.89	486.222
1724	483.556
1726.1	477.778
1728.21	490.222
1730.31	480
1732.41	484.667
1734.51	488.444
1736.61	481.778
1738.71	482.667
1740.81	471.556
1742.91	476.222
1745.01	470
1747.11	472.889
1749.2	474.222
1751.3	473.111
1753.4	463.778
1755.49	471.778
1757.59	466.889
1759.68	468.667
1761.77	462.889
1763.86	461.333
1765.96	469.111
1768.05	464.889
1770.14	473.333
1772.23	469.333
1774.32	464
1776.41	455.556
1778.49	465.556
1780.58	452.222
1782.67	441.333
1784.76	457.556
1786.84	454.444
1788.92	458.222
1791.01	453.778
1793.09	452.889
1795.18	455.556
1797.26	447.111
1799.34	456.222
1801.42	463.778
1803.5	448.222
1805.58	457.556
1807.66	453.111
1809.74	441.111
1811.82	460.889
1813.89	449.333
1815.97	457.111
1818.05	454
1820.12	445.333
1822.2	454.222
1824.27	448.889
1826.34	445.333
1828.42	452
1830.49	447.556
1832.56	450.444
1834.63	446.222
1836.7	441.111
1838.77	453.778
1840.84	435.778
1842.91	444.444
1844.98	443.556
1847.04	440
1849.11	437.778
1851.18	432.667
1853.24	440
1855.31	433.556
1857.37	430
1859.43	439.111
1861.5	431.333
1863.56	432.667
1865.62	440
1867.68	438.222
1869.74	425.111
1871.8	424.889
1873.86	430.889
1875.92	424
1877.98	430.444
1880.03	419.778
1882.09	424.444
1884.15	434.667
1886.2	432.222
1888.26	431.778
1890.31	425.778
1892.36	423.778
1894.42	426.889
1896.47	428.222
1898.52	430.667
1900.57	431.778
1902.62	422.889
1904.67	431.333
1906.72	419.556
1908.77	424.889
1910.82	431.111
1912.86	419.333
1914.91	416.444
1916.96	418.889
1919	418.444
1921.04	421.778
1923.09	427.333
1925.13	425.556
1927.18	420.444
1929.22	433.111
1931.26	409.778
1933.3	416.889
1935.34	423.778
1937.38	423.556
1939.42	409.556
1941.46	418.444
1943.5	423.333
1945.53	409.778
1947.57	408
1949.61	420.222
1951.64	408.444
1953.68	410.667
1955.71	412.222
1957.75	409.333
1959.78	406.889
1961.81	406
1963.84	410.889
1965.87	400.889
1967.9	408.667
1969.93	404.222
1971.96	404.444
1973.99	398
1976.02	401.556
1978.05	403.556
1980.07	409.333
1982.1	408.889
1984.13	411.778
1986.15	413.111
1988.18	408
1990.2	401.778
1992.22	402.667
1994.25	394.222
1996.27	405.778
1998.29	407.778
2000.31	405.333
2002.33	401.111
2004.35	409.556
2006.37	402.222
2008.39	410
2010.41	402.667
2012.42	396.667
2014.44	406.889
2016.46	397.111
2018.47	397.556
2020.49	399.556
2022.5	394.222
2024.51	398.889
2026.53	402.889
2028.54	398
2030.55	395.333
2032.56	395.333
2034.57	403.111
2036.58	398.667
2038.59	391.556
2040.6	387.778
2042.61	400.889
2044.62	398.222
2046.62	399.556
2048.63	393.556
2050.64	399.333
2052.64	395.111
2054.65	401.111
2056.65	392
2058.65	385.111
2060.66	400
2062.66	393.333
2064.66	392.667
2066.66	396.889
2068.66	391.556
2070.66	388.667
2072.66	383.778
2074.66	368.444
2076.66	382.222
2078.65	396
2080.65	386.889
2082.65	380.667
2084.64	384.444
2086.64	384.667
2088.63	377.778
2090.63	373.333
2092.62	380.222
2094.61	384.222
2096.6	375.556
2098.59	387.111
2100.59	379.778
2102.58	388
2104.56	376.667
2106.55	385.333
2108.54	382.667
2110.53	391.111
2112.52	386
2114.5	382.222
2116.49	383.333
2118.48	380.444
2120.46	386
2122.44	389.333
2124.43	381.111
2126.41	394
2128.39	398.222
2130.38	403.111
2132.36	391.333
2134.34	409.778
2136.32	396.444
2138.3	397.778
2140.28	398.222
2142.26	398.222
2144.23	403.111
2146.21	388.444
2148.19	387.778
2150.16	388.889
2152.14	380.889
2154.11	385.333
2156.09	380.667
2158.06	395.111
2160.04	384
2162.01	381.111
2163.98	368.889
2165.95	369.778
2167.92	372.222
2169.89	365.778
2171.86	372.222
2173.83	366.222
2175.8	360.667
2177.77	367.556
2179.73	362
2181.7	358.667
2183.67	360.222
2185.63	365.556
2187.6	362.222
2189.56	359.111
2191.53	358.667
2193.49	356.889
2195.45	350.889
2197.41	364.222
2199.37	352.444
2201.34	359.778
2203.29	357.556
2205.26	358.444
2207.21	356.889
2209.17	359.556
2211.13	360.222
2213.09	366.889
2215.05	356.667
2217	356
2218.96	354.667
2220.91	354.667
2222.87	358.222
2224.82	363.556
2226.77	349.333
2228.73	349.778
2230.68	351.111
2232.63	357.111
2234.58	348.222
2236.53	345.111
2238.48	345.333
2240.43	345.556
2242.38	342.444
2244.33	342.889
2246.27	340.667
2248.22	346.222
2250.17	341.333
2252.11	343.333
2254.06	335.333
2256	340.222
2257.95	340.222
2259.89	340.222
2261.84	340.667
2263.78	338.667
2265.72	331.778
2267.66	340.444
2269.6	335.778
2271.54	333.778
2273.48	335.556
2275.42	329.778
2277.36	335.111
2279.3	334.667
2281.23	335.778
2283.17	330.889
2285.11	330.222
2287.04	328.667
2288.98	327.556
2290.91	328.889
2292.84	334
2294.78	327.778
2296.71	326.667
2298.64	331.111
2300.57	316.889
2302.51	319.778
2304.44	321.556
2306.37	320
2308.29	322.444
2310.22	324.889
2312.15	326.667
2314.08	320
2316.01	318.667
2317.93	325.111
2319.86	321.111
2321.78	325.778
2323.71	313.111
2325.63	320
2327.56	315.778
2329.48	323.333
2331.4	321.333
2333.32	319.556
2335.25	315.778
2337.17	320.889
2339.09	310.667
2341.01	318.889
2342.92	321.556
2344.84	315.778
2346.76	314.222
2348.68	319.556
2350.6	315.778
2352.51	314
2354.43	316.222
2356.34	314.889
2358.26	315.111
2360.17	312.889
2362.09	305.556
2364	303.556
2365.91	311.778
2367.82	305.333
2369.73	308.444
2371.64	309.111
2373.55	314
2375.46	310.222
2377.37	311.111
2379.28	306.889
2381.19	308.667
2383.1	305.111
2385	310.889
2386.91	301.333
2388.82	302.444
2390.72	299.111
2392.62	305.778
2394.53	301.556
2396.43	305.556
2398.33	302.667
2400.24	299.111
2402.14	300.444
2404.04	303.333
2405.94	300
2407.84	297.333
2409.74	297.556
2411.64	294.222
2413.54	298.667
2415.44	297.778
2417.33	302.222
2419.23	298.444
2421.13	294.222
2423.02	294.889
2424.92	295.333
2426.81	298.889
2428.71	296.222
2430.6	294.889
2432.49	297.556
2434.38	298.889
2436.28	299.111
2438.17	290.667
2440.06	297.556
2441.95	304.444
2443.84	298.889
2445.73	294
