176.817	495.778
179.42	493.333
182.022	490.444
184.622	490.222
187.223	477.556
189.821	483.778
192.419	491.111
195.017	482.667
197.612	488.222
200.208	494
202.802	482.889
205.397	493.333
207.99	493.111
210.581	494.889
213.173	502.444
215.762	496
218.352	490.222
220.94	512
223.528	500.889
226.114	495.111
228.701	508.667
231.285	507.556
233.87	520.889
236.452	511.778
239.034	538.445
241.616	543.556
244.196	528.222
246.777	532.667
249.355	528
251.933	527.778
254.511	534.444
257.086	532.222
259.663	530.667
262.237	528.667
264.81	524.444
267.383	536.222
269.955	541.778
272.525	525.333
275.097	521.333
277.665	522.444
280.234	528.222
282.802	524
285.368	519.778
287.934	516.222
290.499	510.222
293.064	516.889
295.627	516.889
298.189	516
300.75	523.556
303.312	522
305.871	528
308.43	504.889
310.988	513.111
313.545	510.889
316.101	502
318.658	494
321.212	494.444
323.766	499.778
326.319	498.444
328.871	498.889
331.422	504
333.972	515.556
336.522	497.778
339.072	491.333
341.619	500.444
344.166	511.333
346.712	507.778
349.258	508
351.802	512.444
354.346	506
356.888	512.667
359.43	506
361.971	504.444
364.511	505.556
367.051	500
369.589	508.889
372.127	506.667
374.664	515.111
377.2	518.444
379.735	537.778
382.27	544.889
384.802	526.667
387.334	520.889
389.866	509.556
392.397	497.556
394.927	491.556
397.457	497.333
399.985	502.667
402.513	499.111
405.038	500.444
407.565	506.889
410.09	492.889
412.614	496.667
415.138	507.778
417.66	501.556
420.181	516.667
422.702	509.556
425.222	508.222
427.742	512
430.259	504.889
432.777	525.556
435.294	527.556
437.81	531.333
440.324	526.667
442.838	521.333
445.352	521.111
447.863	506.444
450.375	515.333
452.887	505.556
455.395	512
457.905	523.111
460.414	522.222
462.92	530
465.427	514.889
467.932	514.667
470.438	512.889
472.942	506
475.445	509.556
477.948	511.111
480.448	512.222
482.95	507.333
485.449	520
487.949	505.111
490.446	518.667
492.944	521.333
495.44	518.667
497.937	513.333
500.431	519.333
502.926	512.444
505.418	519.111
507.912	516
510.403	514
512.894	530
515.384	521.111
517.874	522.667
520.361	516.889
522.848	525.333
525.336	521.111
527.821	516.222
530.306	510.889
532.791	513.333
535.274	522.222
537.756	511.778
540.238	502.889
542.719	510.889
545.199	500.667
547.679	523.778
550.157	511.333
552.634	517.333
555.112	510
557.588	524.889
560.063	520.444
562.537	510.889
565.011	530
567.484	514.444
569.955	520
572.426	521.556
574.896	520.444
577.367	517.333
579.835	529.556
582.303	530
584.77	522.445
587.236	518.222
589.701	519.556
592.165	527.778
594.629	511.556
597.093	519.111
599.555	511.556
602.016	514.667
604.477	526.222
606.936	524.889
609.395	526
611.853	524.222
614.311	528
616.767	532.667
619.223	525.111
621.678	520.889
624.132	525.333
626.585	522.667
629.037	536.222
631.489	528.222
633.94	537.556
636.39	520.444
638.839	522.667
641.288	523.556
643.736	527.111
646.183	530.444
648.627	530.889
651.073	530.667
653.517	525.333
655.961	518.889
658.404	523.111
660.846	532.667
663.288	518.444
665.727	522.444
668.167	514.222
670.606	523.556
673.044	530.444
675.482	522.889
677.917	513.333
680.353	518.889
682.788	532.889
685.222	513.333
687.655	515.556
690.087	528
692.519	532
694.951	526.667
697.38	528.222
699.809	521.111
702.238	536.444
704.665	521.111
707.092	524.222
709.519	528.667
711.943	527.556
714.368	538.445
716.791	528.222
719.214	527.556
721.637	526.444
724.058	533.111
726.479	513.333
728.898	512
731.317	523.778
733.734	523.111
736.152	532
738.568	510.444
740.985	534.444
743.399	523.333
745.814	526.889
748.227	516.222
750.64	520.444
753.051	518.222
755.463	518.667
757.872	515.333
760.283	510.667
762.691	520.444
765.098	517.111
767.506	519.333
769.912	516.667
772.318	524.222
774.722	527.778
777.126	522.667
779.53	524.222
781.932	525.111
784.333	529.778
786.735	519.333
789.135	529.556
791.533	532.444
793.933	530.444
796.33	526.667
798.727	542.222
801.123	528
803.519	527.778
805.913	536.444
808.307	532.667
810.699	534.222
813.093	532.444
815.484	540.222
817.874	534.889
820.264	544.667
822.653	532.222
825.041	532.889
827.43	525.778
829.817	526.889
832.203	518.667
834.588	532.444
836.972	525.778
839.356	522.222
841.738	524.667
844.12	534.444
846.502	517.556
848.882	530.444
851.262	537.778
853.641	523.333
856.02	525.778
858.397	534.667
860.774	539.556
863.15	540.444
865.525	539.555
867.9	542.444
870.273	543.111
872.646	538.445
875.019	537.333
877.39	539.556
879.761	532
882.131	532.889
884.5	530.889
886.869	523.111
889.236	533.778
891.602	523.111
893.968	542.889
896.334	531.556
898.698	540.222
901.062	530.889
903.426	532.222
905.787	523.111
908.148	532.667
910.509	533.778
912.87	528
915.228	527.556
917.587	524.889
919.945	528.444
922.302	523.556
924.657	528.444
927.013	517.556
929.368	527.333
931.721	523.556
934.074	523.111
936.427	530.667
938.778	523.778
941.129	523.111
943.479	523.556
945.828	533.778
948.177	522
950.524	526
952.871	522.444
955.218	516.667
957.563	528.889
959.908	513.111
962.252	520.889
964.595	530.444
966.937	526
969.28	526.444
971.62	530
973.961	523.556
976.3	519.333
978.639	525.333
980.976	523.111
983.314	514.889
985.65	518.889
987.987	516.889
990.321	531.333
992.655	531.333
994.989	528.667
997.321	539.556
999.653	532.444
1001.98	528.667
1004.31	539.111
1006.65	529.778
1008.97	525.778
1011.3	518.889
1013.63	514.889
1015.96	525.556
1018.28	524.222
1020.61	514.444
1022.93	525.556
1025.26	522
1027.58	527.556
1029.9	531.333
1032.22	530.444
1034.54	535.778
1036.86	530.222
1039.18	522.889
1041.5	534.222
1043.82	527.778
1046.14	535.778
1048.45	535.778
1050.77	546.222
1053.08	539.333
1055.4	548
1057.71	544.889
1060.02	545.111
1062.33	539.111
1064.64	542
1066.96	545.333
1069.27	550.222
1071.57	544.889
1073.88	552.444
1076.19	548.444
1078.5	541.556
1080.8	552.444
1083.11	563.333
1085.41	568.889
1087.72	573.333
1090.02	578.667
1092.32	589.556
1094.62	600.889
1096.92	616.889
1099.22	610.667
1101.52	600.889
1103.82	598.667
1106.12	583.778
1108.42	579.111
1110.71	587.778
1113.01	586.667
1115.3	592
1117.6	594.667
1119.89	589.556
1122.18	602.222
1124.48	613.556
1126.77	607.111
1129.06	596.667
1131.35	595.778
1133.64	579.778
1135.93	579.333
1138.21	570.444
1140.5	572.444
1142.79	584.889
1145.07	572.889
1147.36	579.333
1149.64	578.889
1151.92	603.778
1154.21	594
1156.49	578
1158.77	587.333
1161.05	571.111
1163.33	571.111
1165.61	565.778
1167.89	570.667
1170.16	566.889
1172.44	563.778
1174.72	558
1176.99	556
1179.27	564.889
1181.54	562.889
1183.81	556.222
1186.09	561.778
1188.36	554.444
1190.63	563.111
1192.9	563.556
1195.17	566.222
1197.44	564.222
1199.71	567.556
1201.97	569.111
1204.24	568
1206.5	576.889
1208.77	562.667
1211.03	566.667
1213.3	560.889
1215.56	569.556
1217.82	572.889
1220.09	578
1222.35	567.111
1224.61	571.556
1226.87	576.667
1229.12	586
1231.38	594
1233.64	588.889
1235.9	576.667
1238.15	597.111
1240.41	587.333
1242.66	580.222
1244.92	591.333
1247.17	603.333
1249.42	594.444
1251.67	605.111
1253.92	607.333
1256.17	609.778
1258.42	611.778
1260.67	614.444
1262.92	597.778
1265.17	623.778
1267.42	633.111
1269.66	630.222
1271.91	615.111
1274.15	613.556
1276.39	612.222
1278.64	603.778
1280.88	614.889
1283.12	619.111
1285.36	601.111
1287.6	614.667
1289.84	609.778
1292.08	604.667
1294.32	607.556
1296.56	608
1298.79	606.222
1301.03	600.889
1303.26	598.222
1305.5	601.333
1307.73	605.556
1309.97	598.667
1312.2	600.889
1314.43	610.444
1316.66	586.444
1318.89	600.889
1321.12	601.778
1323.35	601.111
1325.58	600.444
1327.81	609.556
1330.03	605.333
1332.26	611.111
1334.49	622.222
1336.71	622.889
1338.94	627.111
1341.16	623.778
1343.38	621.556
1345.6	613.111
1347.83	620
1350.05	619.778
1352.27	628.667
1354.49	629.111
1356.7	614
1358.92	634
1361.14	662.667
1363.36	659.556
1365.57	682.667
1367.79	717.556
1370	730.889
1372.21	757.333
1374.43	735.778
1376.64	728
1378.85	714
1381.06	694.667
1383.27	657.778
1385.48	670.222
1387.69	640.889
1389.9	641.556
1392.11	630.444
1394.31	630
1396.52	624.444
1398.73	616.222
1400.93	613.333
1403.13	604.222
1405.34	603.556
1407.54	599.333
1409.74	608.667
1411.94	602
1414.14	608.889
1416.34	605.555
1418.54	607.111
1420.74	603.111
1422.94	605.111
1425.14	603.556
1427.33	597.778
1429.53	596.444
1431.72	604.667
1433.92	588.667
1436.11	590
1438.3	607.778
1440.5	600.667
1442.69	599.778
1444.88	600
1447.07	613.778
1449.26	614.222
1451.45	620.667
1453.64	621.778
1455.82	620.667
1458.01	644
1460.2	634
1462.38	634.444
1464.57	627.556
1466.75	610.444
1468.93	619.111
1471.12	605.556
1473.3	609.778
1475.48	598.889
1477.66	610.667
1479.84	603.111
1482.02	607.333
1484.2	605.333
1486.38	605.111
1488.55	592.667
1490.73	596.889
1492.91	594
1495.08	588.889
1497.26	607.778
1499.43	597.111
1501.61	604
1503.78	599.778
1505.95	610.222
1508.12	607.111
1510.29	607.333
1512.46	603.556
1514.63	614.444
1516.8	610
1518.97	626.444
1521.14	619.333
1523.3	627.333
1525.47	632
1527.63	636.222
1529.8	622.222
1531.96	626.667
1534.12	607.333
1536.29	623.556
1538.45	622.222
1540.61	607.778
1542.77	621.111
1544.93	612.889
1547.09	612.222
1549.25	620.667
1551.41	606.222
1553.56	610.889
1555.72	621.111
1557.88	627.778
1560.03	620
1562.18	620.889
1564.34	626.889
1566.49	635.333
1568.64	639.111
1570.8	642.667
1572.95	641.111
1575.1	643.111
1577.25	639.555
1579.4	643.333
1581.55	644.889
1583.69	645.333
1585.84	646
1587.99	645.111
1590.13	634.222
1592.28	643.111
1594.42	635.556
1596.57	619.333
1598.71	645.556
1600.85	633.556
1602.99	624
1605.14	609.556
1607.28	612.222
1609.42	610
1611.56	607.556
1613.69	605.333
1615.83	608.667
1617.97	591.556
1620.11	587.556
1622.24	586.889
1624.38	580.667
1626.51	570.222
1628.65	569.778
1630.78	559.111
1632.91	555.556
1635.04	543.556
1637.17	543.556
1639.31	533.556
1641.44	536.667
1643.57	532.667
1645.69	525.333
1647.82	514.667
1649.95	512
1652.08	520
1654.2	506.889
1656.33	506.222
1658.45	500.889
1660.58	507.778
1662.7	506.889
1664.82	503.333
1666.94	509.778
1669.07	494.889
1671.19	493.778
1673.31	490.667
1675.43	488.889
1677.55	489.111
1679.66	483.333
1681.78	486
1683.9	476.222
1686.01	473.556
1688.13	476.889
1690.25	468.667
1692.36	462.444
1694.47	468.889
1696.59	470.444
1698.7	470.222
1700.81	455.111
1702.92	466.222
1705.03	465.333
1707.14	467.778
1709.25	468
1711.36	462.444
1713.47	467.111
1715.58	455.556
1717.68	462
1719.79	450.667
1721.89	454.889
1724	455.111
1726.1	461.333
1728.21	458.444
1730.31	450.667
1732.41	455.556
1734.51	451.778
1736.61	456
1738.71	451.111
1740.81	444
1742.91	445.778
1745.01	446.889
1747.11	443.778
1749.2	445.778
1751.3	453.111
1753.4	447.111
1755.49	444.222
1757.59	442.889
1759.68	432.222
1761.77	434.889
1763.86	440.889
1765.96	431.556
1768.05	436.444
1770.14	430.222
1772.23	432
1774.32	430.222
1776.41	432.667
1778.49	427.111
1780.58	432.444
1782.67	442
1784.76	434.889
1786.84	426.444
1788.92	426.667
1791.01	420.444
1793.09	433.333
1795.18	435.778
1797.26	427.778
1799.34	428.667
1801.42	427.333
1803.5	426.889
1805.58	421.111
1807.66	424.667
1809.74	431.333
1811.82	425.778
1813.89	436.667
1815.97	430.889
1818.05	418.889
1820.12	436.222
1822.2	426.222
1824.27	431.778
1826.34	421.333
1828.42	416.222
1830.49	426
1832.56	417.333
1834.63	415.111
1836.7	420.444
1838.77	416.667
1840.84	406.444
1842.91	414.444
1844.98	420.444
1847.04	420.222
1849.11	417.111
1851.18	410
1853.24	414
1855.31	404.889
1857.37	407.556
1859.43	416.667
1861.5	406.889
1863.56	397.111
1865.62	407.111
1867.68	407.111
1869.74	406.667
1871.8	411.111
1873.86	406.889
1875.92	407.778
1877.98	397.111
1880.03	402.889
1882.09	411.111
1884.15	399.778
1886.2	404.222
1888.26	400
1890.31	403.111
1892.36	395.333
1894.42	403.333
1896.47	402.222
1898.52	402.222
1900.57	396
1902.62	404.667
1904.67	398.889
1906.72	402
1908.77	392.889
1910.82	398.889
1912.86	399.111
1914.91	394
1916.96	390.889
1919	392.667
1921.04	399.111
1923.09	401.111
1925.13	409.111
1927.18	390
1929.22	396.889
1931.26	394
1933.3	394
1935.34	389.556
1937.38	389.556
1939.42	387.111
1941.46	389.333
1943.5	390.444
1945.53	388.444
1947.57	393.333
1949.61	393.556
1951.64	382.222
1953.68	389.556
1955.71	384
1957.75	385.778
1959.78	386
1961.81	381.556
1963.84	385.778
1965.87	374.222
1967.9	382.444
1969.93	378.667
1971.96	376.889
1973.99	380.444
1976.02	384.667
1978.05	379.333
1980.07	386.444
1982.1	377.556
1984.13	377.778
1986.15	379.778
1988.18	376.444
1990.2	373.333
1992.22	367.778
1994.25	369.556
1996.27	374.667
1998.29	375.333
2000.31	370.444
2002.33	384.444
2004.35	373.778
2006.37	372.889
2008.39	372.889
2010.41	371.111
2012.42	374
2014.44	374.444
2016.46	376.889
2018.47	373.111
2020.49	383.111
2022.5	373.333
2024.51	370.889
2026.53	378
2028.54	378.889
2030.55	377.111
2032.56	372
2034.57	362.444
2036.58	359.111
2038.59	365.333
2040.6	366.222
2042.61	374
2044.62	374.889
2046.62	371.778
2048.63	371.556
2050.64	370
2052.64	369.556
2054.65	368.222
2056.65	361.111
2058.65	362.444
2060.66	372.222
2062.66	368.222
2064.66	362.444
2066.66	363.111
2068.66	360
2070.66	366.222
2072.66	362.222
2074.66	368.444
2076.66	365.778
2078.65	358
2080.65	364.444
2082.65	364.667
2084.64	361.778
2086.64	356
2088.63	357.111
2090.63	354.889
2092.62	363.111
2094.61	351.333
2096.6	358.222
2098.59	352
2100.59	347.111
2102.58	344.444
2104.56	362.222
2106.55	359.111
2108.54	355.778
2110.53	363.556
2112.52	357.556
2114.5	364.667
2116.49	364.667
2118.48	356
2120.46	362.889
2122.44	370.667
2124.43	369.333
2126.41	376.222
2128.39	360.444
2130.38	370.222
2132.36	374
2134.34	382.889
2136.32	372.222
2138.3	371.333
2140.28	368
2142.26	372
2144.23	376.444
2146.21	367.111
2148.19	376.667
2150.16	364.889
2152.14	357.333
2154.11	363.333
2156.09	366.444
2158.06	357.556
2160.04	351.556
2162.01	350.667
2163.98	351.333
2165.95	357.111
2167.92	344
2169.89	351.333
2171.86	340.222
2173.83	341.556
2175.8	343.333
2177.77	341.333
2179.73	345.333
2181.7	348.667
2183.67	335.778
2185.63	336.889
2187.6	342.889
2189.56	338
2191.53	326.444
2193.49	329.556
2195.45	332.889
2197.41	333.111
2199.37	329.333
2201.34	339.556
2203.29	324
2205.26	326.667
2207.21	329.111
2209.17	326.667
2211.13	323.778
2213.09	325.333
2215.05	333.333
2217	333.333
2218.96	325.333
2220.91	324
2222.87	332.889
2224.82	325.111
2226.77	330.667
2228.73	321.556
2230.68	326.889
2232.63	329.111
2234.58	330.222
2236.53	329.778
2238.48	324
2240.43	326.222
2242.38	321.556
2244.33	328.444
2246.27	320.444
2248.22	314
2250.17	314.889
2252.11	321.778
2254.06	322.667
2256	315.333
2257.95	314
2259.89	314.667
2261.84	311.778
2263.78	320
2265.72	312.444
2267.66	312.444
2269.6	316.667
2271.54	317.556
2273.48	320.667
2275.42	318.444
2277.36	310.222
2279.3	314.667
2281.23	303.333
2283.17	310.889
2285.11	305.333
2287.04	300
2288.98	302.444
2290.91	302
2292.84	310.222
2294.78	305.778
2296.71	299.778
2298.64	300.889
2300.57	306.222
2302.51	302
2304.44	304.889
2306.37	296
2308.29	308
2310.22	308.222
2312.15	307.778
2314.08	296.444
2316.01	292.444
2317.93	303.333
2319.86	301.111
2321.78	304.667
2323.71	294
2325.63	299.111
2327.56	295.778
2329.48	300.222
2331.4	302.444
2333.32	292.667
2335.25	289.778
2337.17	291.778
2339.09	297.556
2341.01	297.556
2342.92	287.556
2344.84	286.667
2346.76	299.778
2348.68	299.778
2350.6	298.444
2352.51	300
2354.43	290
2356.34	289.333
2358.26	295.556
2360.17	290.444
2362.09	287.111
2364	295.333
2365.91	290
2367.82	297.111
2369.73	289.556
2371.64	282
2373.55	289.778
2375.46	290.222
2377.37	285.778
2379.28	288.222
2381.19	281.111
2383.1	290.889
2385	292.889
2386.91	284.667
2388.82	281.556
2390.72	283.556
2392.62	277.778
2394.53	286.889
2396.43	275.333
2398.33	281.778
2400.24	280
2402.14	278.222
2404.04	283.333
2405.94	285.778
2407.84	286.667
2409.74	277.111
2411.64	286.444
2413.54	278.889
2415.44	269.111
2417.33	280.667
2419.23	281.111
2421.13	272.667
2423.02	274.667
2424.92	276.889
2426.81	275.778
2428.71	276.889
2430.6	278
2432.49	278.444
2434.38	278.667
2436.28	275.778
2438.17	280
2440.06	271.778
2441.95	272.444
2443.84	279.778
2445.73	272.667
