176.817	680.444
179.42	683.778
182.022	680.222
184.622	675.778
187.223	674
189.821	665.333
192.419	679.778
195.017	664.889
197.612	666.222
200.208	677.556
202.802	673.778
205.397	679.111
207.99	694.667
210.581	688.222
213.173	687.111
215.762	697.556
218.352	719.778
220.94	714.444
223.528	707.556
226.114	722.667
228.701	724.222
231.285	729.556
233.87	744.889
236.452	743.111
239.034	753.556
241.616	754.667
244.196	763.333
246.777	758.222
249.355	752.222
251.933	772.667
254.511	754
257.086	758.667
259.663	780.222
262.237	758.667
264.81	753.111
267.383	748.889
269.955	743.333
272.525	739.556
275.097	729.778
277.665	728.444
280.234	725.778
282.802	712.889
285.368	684.444
287.934	696
290.499	697.556
293.064	683.778
295.627	682.667
298.189	684
300.75	682.222
303.312	687.778
305.871	680.222
308.43	657.778
310.988	650.667
313.545	645.556
316.101	644
318.658	624
321.212	628
323.766	629.333
326.319	631.111
328.871	626.889
331.422	640.667
333.972	632.889
336.522	628
339.072	615.556
341.619	627.333
344.166	621.778
346.712	631.556
349.258	630.667
351.802	627.333
354.346	626.222
356.888	628.889
359.43	619.333
361.971	624.222
364.511	612.445
367.051	625.333
369.589	625.556
372.127	629.556
374.664	639.556
377.2	655.778
379.735	671.333
382.27	657.555
384.802	648.444
387.334	648
389.866	628.667
392.397	625.556
394.927	608.444
397.457	618.667
399.985	620.444
402.513	618.222
405.038	627.333
407.565	623.556
410.09	628.444
412.614	633.333
415.138	628.889
417.66	630
420.181	631.111
422.702	620
425.222	637.778
427.742	644.445
430.259	625.556
432.777	629.556
435.294	646.889
437.81	641.111
440.324	641.111
442.838	617.556
445.352	626.667
447.863	631.555
450.375	630.444
452.887	635.556
455.395	630.889
457.905	632.667
460.414	647.778
462.92	635.778
465.427	628.222
467.932	636.222
470.438	620.222
472.942	630
475.445	628.444
477.948	624.667
480.448	634.444
482.95	636.222
485.449	641.556
487.949	637.111
490.446	645.555
492.944	640.222
495.44	627.111
497.937	639.778
500.431	640.889
502.926	641.333
505.418	632
507.912	640.667
510.403	640.222
512.894	628
515.384	648.222
517.874	636.889
520.361	658.889
522.848	639.556
525.336	643.111
527.821	627.778
530.306	620.889
532.791	621.111
535.274	622.667
537.756	626.222
540.238	618.444
542.719	623.556
545.199	629.556
547.679	625.333
550.157	620.222
552.634	628.889
555.112	633.778
557.588	633.333
560.063	641.333
562.537	640.222
565.011	621.333
567.484	618.222
569.955	626.667
572.426	641.778
574.896	621.778
577.367	635.778
579.835	632.889
582.303	650.444
584.77	627.556
587.236	643.556
589.701	627.333
592.165	635.111
594.629	645.778
597.093	637.111
599.555	640.667
602.016	639.333
604.477	639.778
606.936	648.667
609.395	646
611.853	662.667
614.311	656
616.767	653.111
619.223	658.667
621.678	652.444
624.132	648.444
626.585	643.556
629.037	652.889
631.489	654.222
633.94	659.111
636.39	658.889
638.839	657.778
641.288	644.667
643.736	653.111
646.183	659.111
648.627	650.889
651.073	653.778
653.517	653.778
655.961	656
658.404	648.667
660.846	653.111
663.288	661.555
665.727	652
668.167	654.667
670.606	648.222
673.044	639.111
675.482	648.444
677.917	644.222
680.353	644.444
682.788	656.667
685.222	662.667
687.655	647.556
690.087	643.556
692.519	651.333
694.951	659.111
697.38	648.889
699.809	664.444
702.238	658.667
704.665	654.667
707.092	653.111
709.519	659.333
711.943	662.667
714.368	662.667
716.791	658.222
719.214	663.778
721.637	651.555
724.058	658.889
726.479	647.556
728.898	650.889
731.317	657.333
733.734	656
736.152	661.333
738.568	656.667
740.985	654.222
743.399	655.111
745.814	650
748.227	638.222
750.64	653.333
753.051	647.778
755.463	654.445
757.872	646.667
760.283	651.555
762.691	643.111
765.098	650.444
767.506	644.444
769.912	633.778
772.318	640.222
774.722	644.444
777.126	655.778
779.53	652.667
781.932	644.222
784.333	652.222
786.735	654.222
789.135	659.333
791.533	677.333
793.933	658.889
796.33	659.333
798.727	657.333
801.123	661.778
803.519	652.667
805.913	659.778
808.307	663.111
810.699	665.556
813.093	660.444
815.484	680.222
817.874	663.556
820.264	683.333
822.653	684.444
825.041	667.778
827.43	666.444
829.817	665.333
832.203	656.667
834.588	652.444
836.972	670.667
839.356	666.444
841.738	678.889
844.12	671.556
846.502	679.778
848.882	685.111
851.262	677.111
853.641	680.889
856.02	689.111
858.397	682
860.774	699.333
863.15	707.778
865.525	700.444
867.9	697.778
870.273	690.444
872.646	709.778
875.019	699.333
877.39	690.444
879.761	693.556
882.131	692.444
884.5	696.667
886.869	690.444
889.236	691.778
891.602	690.222
893.968	685.111
896.334	683.333
898.698	691.333
901.062	687.333
903.426	686
905.787	684.222
908.148	696.222
910.509	689.111
912.87	692.222
915.228	690
917.587	666.889
919.945	684
922.302	689.333
924.657	696.889
927.013	695.111
929.368	684
931.721	685.778
934.074	688
936.427	681.333
938.778	689.111
941.129	677.556
943.479	678.444
945.828	686.222
948.177	673.556
950.524	680.889
952.871	691.111
955.218	698
957.563	684
959.908	693.556
962.252	692.667
964.595	692.222
966.937	704.889
969.28	689.333
971.62	685.111
973.961	687.778
976.3	687.556
978.639	671.111
980.976	670.222
983.314	673.333
985.65	687.111
987.987	689.333
990.321	679.556
992.655	693.333
994.989	692.889
997.321	706
999.653	702
1001.98	697.778
1004.31	682.444
1006.65	666.889
1008.97	673.778
1011.3	674.222
1013.63	682
1015.96	685.333
1018.28	688.222
1020.61	673.556
1022.93	678
1025.26	672.222
1027.58	680
1029.9	695.556
1032.22	681.333
1034.54	683.111
1036.86	699.556
1039.18	679.333
1041.5	682.889
1043.82	681.111
1046.14	688
1048.45	684.667
1050.77	690.444
1053.08	718
1055.4	697.333
1057.71	691.778
1060.02	701.556
1062.33	703.111
1064.64	698.444
1066.96	708
1069.27	708.444
1071.57	705.778
1073.88	713.111
1076.19	720.889
1078.5	720.667
1080.8	712.889
1083.11	723.111
1085.41	728.444
1087.72	734.222
1090.02	742.667
1092.32	759.333
1094.62	792.222
1096.92	800.667
1099.22	792.444
1101.52	785.556
1103.82	768.889
1106.12	767.333
1108.42	773.333
1110.71	741.333
1113.01	764.667
1115.3	781.556
1117.6	780.889
1119.89	790.222
1122.18	798.222
1124.48	804.667
1126.77	785.333
1129.06	791.111
1131.35	771.556
1133.64	772.667
1135.93	768.222
1138.21	750.667
1140.5	755.778
1142.79	763.111
1145.07	770.889
1147.36	779.111
1149.64	782
1151.92	789.333
1154.21	806.889
1156.49	813.778
1158.77	797.111
1161.05	803.333
1163.33	808.889
1165.61	796.889
1167.89	792.444
1170.16	794.222
1172.44	781.333
1174.72	764
1176.99	770.444
1179.27	785.333
1181.54	766.222
1183.81	780
1186.09	775.111
1188.36	777.111
1190.63	771.556
1192.9	784
1195.17	790.889
1197.44	783.111
1199.71	771.778
1201.97	776.222
1204.24	800.222
1206.5	801.556
1208.77	786.889
1211.03	811.778
1213.3	806.444
1215.56	816.444
1217.82	811.333
1220.09	805.111
1222.35	823.778
1224.61	821.333
1226.87	794
1229.12	822.222
1231.38	804.667
1233.64	825.556
1235.9	830.222
1238.15	834
1240.41	835.778
1242.66	834
1244.92	844.444
1247.17	836.667
1249.42	847.778
1251.67	842.667
1253.92	851.556
1256.17	832.222
1258.42	862.889
1260.67	858.667
1262.92	883.556
1265.17	868.889
1267.42	886.222
1269.66	877.111
1271.91	851.333
1274.15	869.333
1276.39	866.444
1278.64	864.889
1280.88	855.556
1283.12	853.778
1285.36	840.889
1287.6	860.444
1289.84	851.111
1292.08	851.333
1294.32	853.111
1296.56	874.222
1298.79	856.444
1301.03	854.222
1303.26	858
1305.5	845.111
1307.73	847.333
1309.97	858.444
1312.2	856
1314.43	847.556
1316.66	846
1318.89	860.444
1321.12	857.111
1323.35	850.444
1325.58	863.111
1327.81	863.333
1330.03	856.889
1332.26	882.445
1334.49	872.667
1336.71	893.556
1338.94	892.444
1341.16	891.778
1343.38	904.889
1345.6	909.333
1347.83	911.556
1350.05	909.556
1352.27	906.222
1354.49	920.222
1356.7	921.111
1358.92	937.778
1361.14	965.333
1363.36	988.667
1365.57	1027.33
1367.79	1053.11
1370	1048.89
1372.21	1034.89
1374.43	1028.22
1376.64	994.222
1378.85	998.667
1381.06	981.778
1383.27	956.889
1385.48	921.333
1387.69	932.444
1389.9	934.444
1392.11	936.667
1394.31	922.889
1396.52	912.444
1398.73	895.111
1400.93	907.111
1403.13	894.222
1405.34	896
1407.54	904.444
1409.74	901.556
1411.94	906.444
1414.14	895.556
1416.34	893.778
1418.54	893.556
1420.74	884
1422.94	892
1425.14	907.111
1427.33	911.333
1429.53	906
1431.72	901.333
1433.92	898
1436.11	906.889
1438.3	908
1440.5	908.222
1442.69	918.444
1444.88	928.889
1447.07	935.111
1449.26	927.111
1451.45	936
1453.64	935.778
1455.82	930.667
1458.01	926.667
1460.2	922
1462.38	938.667
1464.57	929.778
1466.75	925.333
1468.93	909.556
1471.12	919.556
1473.3	912.667
1475.48	924.444
1477.66	917.556
1479.84	930
1482.02	917.111
1484.2	916.667
1486.38	930.667
1488.55	925.333
1490.73	919.111
1492.91	925.333
1495.08	933.556
1497.26	927.778
1499.43	942.444
1501.61	936.444
1503.78	946.444
1505.95	941.333
1508.12	942.444
1510.29	938.667
1512.46	959.556
1514.63	966.889
1516.8	957.778
1518.97	971.111
1521.14	983.556
1523.3	978.667
1525.47	994.444
1527.63	982.444
1529.8	996.222
1531.96	997.556
1534.12	994
1536.29	992.444
1538.45	978
1540.61	995.556
1542.77	988.445
1544.93	1001.78
1547.09	989.333
1549.25	998
1551.41	987.556
1553.56	1000.67
1555.72	1011.78
1557.88	1012.89
1560.03	1021.33
1562.18	1033.56
1564.34	1040.22
1566.49	1030.44
1568.64	1030
1570.8	1042
1572.95	1033.78
1575.1	1033.78
1577.25	1030.67
1579.4	1024.67
1581.55	1040.22
1583.69	1035.33
1585.84	1032.22
1587.99	1040.44
1590.13	1057.33
1592.28	1063.11
1594.42	1033.78
1596.57	1022.89
1598.71	1012.22
1600.85	996.222
1602.99	995.556
1605.14	994.222
1607.28	971.778
1609.42	960.667
1611.56	942.444
1613.69	950.222
1615.83	928.222
1617.97	909.778
1620.11	889.111
1622.24	892.667
1624.38	881.333
1626.51	856.667
1628.65	830.444
1630.78	823.556
1632.91	821.333
1635.04	800.667
1637.17	779.778
1639.31	777.778
1641.44	772.444
1643.57	767.778
1645.69	748.445
1647.82	752
1649.95	738
1652.08	720.222
1654.2	724.889
1656.33	718.222
1658.45	725.333
1660.58	712.444
1662.7	703.778
1664.82	699.111
1666.94	697.111
1669.07	686.222
1671.19	688.222
1673.31	678
1675.43	677.556
1677.55	674.444
1679.66	676.889
1681.78	675.111
1683.9	661.778
1686.01	665.778
1688.13	661.333
1690.25	666
1692.36	660.667
1694.47	660.889
1696.59	646.444
1698.7	646
1700.81	645.111
1702.92	652.222
1705.03	641.778
1707.14	639.556
1709.25	635.111
1711.36	633.778
1713.47	642.222
1715.58	621.111
1717.68	637.778
1719.79	624.444
1721.89	628.444
1724	637.111
1726.1	616.667
1728.21	620.889
1730.31	628.889
1732.41	613.111
1734.51	614.889
1736.61	611.556
1738.71	607.111
1740.81	606.222
1742.91	606.667
1745.01	607.333
1747.11	604
1749.2	601.333
1751.3	605.778
1753.4	592.889
1755.49	582.222
1757.59	600.222
1759.68	598.222
1761.77	593.111
1763.86	585.556
1765.96	592
1768.05	590.222
1770.14	579.556
1772.23	581.556
1774.32	584.889
1776.41	581.555
1778.49	578.222
1780.58	579.555
1782.67	583.778
1784.76	573.333
1786.84	573.111
1788.92	577.333
1791.01	576.222
1793.09	574.667
1795.18	568.444
1797.26	574.444
1799.34	568.667
1801.42	564
1803.5	568.667
1805.58	573.778
1807.66	570.444
1809.74	558.222
1811.82	566.444
1813.89	568
1815.97	564.444
1818.05	562.889
1820.12	563.333
1822.2	556.667
1824.27	566.222
1826.34	560
1828.42	568
1830.49	564.667
1832.56	555.556
1834.63	562
1836.7	552.222
1838.77	556.667
1840.84	549.778
1842.91	561.778
1844.98	555.333
1847.04	551.333
1849.11	551.778
1851.18	549.111
1853.24	542.222
1855.31	554.889
1857.37	540.889
1859.43	555.556
1861.5	552.222
1863.56	552
1865.62	549.556
1867.68	530.667
1869.74	533.111
1871.8	536.889
1873.86	543.333
1875.92	539.333
1877.98	542.889
1880.03	523.778
1882.09	534.444
1884.15	544.667
1886.2	542.889
1888.26	532.222
1890.31	544.444
1892.36	532.444
1894.42	548
1896.47	536.889
1898.52	536.444
1900.57	539.111
1902.62	545.778
1904.67	546.222
1906.72	536.444
1908.77	520.667
1910.82	540
1912.86	537.333
1914.91	539.556
1916.96	532.444
1919	537.556
1921.04	526
1923.09	528.444
1925.13	540.444
1927.18	525.333
1929.22	526.444
1931.26	533.111
1933.3	522
1935.34	526
1937.38	530
1939.42	525.556
1941.46	526.222
1943.5	518.222
1945.53	520.667
1947.57	511.556
1949.61	523.556
1951.64	521.333
1953.68	520.444
1955.71	512.667
1957.75	516.222
1959.78	522.444
1961.81	507.556
1963.84	528.222
1965.87	508.444
1967.9	513.111
1969.93	511.778
1971.96	516.222
1973.99	517.333
1976.02	506.444
1978.05	512.222
1980.07	507.556
1982.1	508.889
1984.13	512.222
1986.15	510.889
1988.18	499.111
1990.2	513.333
1992.22	521.111
1994.25	505.556
1996.27	515.333
1998.29	507.556
2000.31	506.889
2002.33	515.556
2004.35	516.444
2006.37	511.778
2008.39	519.556
2010.41	507.778
2012.42	509.778
2014.44	491.333
2016.46	503.111
2018.47	504.444
2020.49	506
2022.5	508.889
2024.51	508.889
2026.53	505.333
2028.54	509.333
2030.55	511.778
2032.56	497.333
2034.57	491.333
2036.58	508.889
2038.59	507.778
2040.6	492
2042.61	496.222
2044.62	507.556
2046.62	492.889
2048.63	485.556
2050.64	501.556
2052.64	490.889
2054.65	497.778
2056.65	491.556
2058.65	490
2060.66	505.556
2062.66	492.889
2064.66	496
2066.66	500.444
2068.66	498.889
2070.66	488.444
2072.66	494
2074.66	488.667
2076.66	484
2078.65	500.889
2080.65	489.556
2082.65	488.667
2084.64	492.222
2086.64	489.111
2088.63	487.556
2090.63	498.444
2092.62	493.778
2094.61	493.333
2096.6	490.889
2098.59	496.889
2100.59	489.556
2102.58	491.556
2104.56	495.333
2106.55	493.556
2108.54	496.889
2110.53	505.333
2112.52	509.333
2114.5	500.222
2116.49	510.889
2118.48	531.333
2120.46	522.889
2122.44	540.444
2124.43	541.778
2126.41	533.778
2128.39	556.444
2130.38	544.444
2132.36	558.445
2134.34	544.445
2136.32	554.444
2138.3	551.111
2140.28	560.667
2142.26	541.333
2144.23	544.889
2146.21	549.333
2148.19	546
2150.16	538.444
2152.14	536.667
2154.11	530.667
2156.09	529.111
2158.06	529.556
2160.04	512.889
2162.01	513.556
2163.98	512.889
2165.95	507.111
2167.92	496.889
2169.89	503.556
2171.86	495.111
2173.83	499.111
2175.8	491.556
2177.77	474.667
2179.73	480.222
2181.7	486
2183.67	482.444
2185.63	478.889
2187.6	482
2189.56	468.889
2191.53	465.778
2193.49	466
2195.45	475.333
2197.41	476
2199.37	468.444
2201.34	467.333
2203.29	467.778
2205.26	469.111
2207.21	475.111
2209.17	463.333
2211.13	470.222
2213.09	463.556
2215.05	467.111
2217	476.222
2218.96	464.667
2220.91	464.444
2222.87	472
2224.82	463.111
2226.77	463.778
2228.73	466.889
2230.68	453.778
2232.63	443.333
2234.58	459.778
2236.53	443.333
2238.48	457.333
2240.43	454.667
2242.38	454.444
2244.33	453.778
2246.27	451.111
2248.22	450.889
2250.17	450.222
2252.11	445.333
2254.06	451.778
2256	437.556
2257.95	450
2259.89	444.444
2261.84	439.778
2263.78	436.889
2265.72	437.111
2267.66	444
2269.6	442.889
2271.54	445.111
2273.48	441.556
2275.42	443.111
2277.36	433.111
2279.3	432.667
2281.23	431.778
2283.17	436
2285.11	436.222
2287.04	439.556
2288.98	426.889
2290.91	421.111
2292.84	421.778
2294.78	420
2296.71	442
2298.64	422.889
2300.57	430.667
2302.51	426
2304.44	426.889
2306.37	426.667
2308.29	432.667
2310.22	420.889
2312.15	420
2314.08	421.333
2316.01	431.778
2317.93	416.889
2319.86	417.333
2321.78	423.111
2323.71	421.333
2325.63	424.444
2327.56	427.111
2329.48	421.556
2331.4	424.889
2333.32	419.556
2335.25	418
2337.17	415.778
2339.09	413.333
2341.01	417.111
2342.92	425.333
2344.84	412.667
2346.76	420.889
2348.68	420.222
2350.6	415.556
2352.51	409.111
2354.43	402.667
2356.34	407.778
2358.26	415.333
2360.17	412
2362.09	395.556
2364	404.222
2365.91	413.778
2367.82	410.444
2369.73	416
2371.64	397.556
2373.55	405.556
2375.46	404.222
2377.37	394
2379.28	395.333
2381.19	406.222
2383.1	414.444
2385	402.444
2386.91	403.778
2388.82	400
2390.72	404
2392.62	400
2394.53	395.778
2396.43	394.667
2398.33	403.556
2400.24	392.667
2402.14	406.889
2404.04	398
2405.94	390.444
2407.84	404.889
2409.74	395.556
2411.64	394.444
2413.54	399.778
2415.44	400.667
2417.33	394
2419.23	390.889
2421.13	398
2423.02	398
2424.92	395.556
2426.81	398.222
2428.71	397.333
2430.6	401.333
2432.49	398.444
2434.38	394.444
2436.28	399.778
2438.17	392.222
2440.06	387.333
2441.95	383.778
2443.84	388.667
2445.73	383.778
