176.817	544.222
179.42	547.556
182.022	529.333
184.622	534.667
187.223	527.556
189.821	537.556
192.419	537.333
195.017	528
197.612	546.444
200.208	546.889
202.802	544.667
205.397	525.778
207.99	542
210.581	549.111
213.173	557.556
215.762	552.889
218.352	543.778
220.94	549.556
223.528	539.556
226.114	558
228.701	554.444
231.285	565.333
233.87	574.889
236.452	570.667
239.034	572.667
241.616	571.333
244.196	577.778
246.777	583.778
249.355	586.444
251.933	578.667
254.511	580
257.086	596.444
259.663	596.444
262.237	594.444
264.81	587.333
267.383	589.111
269.955	581.333
272.525	596.667
275.097	574.889
277.665	587.778
280.234	562
282.802	566.889
285.368	580.889
287.934	575.778
290.499	569.556
293.064	574.222
295.627	578.222
298.189	559.778
300.75	571.333
303.312	580.667
305.871	575.111
308.43	579.778
310.988	562.222
313.545	563.556
316.101	556
318.658	561.111
321.212	563.111
323.766	558.889
326.319	557.778
328.871	560.667
331.422	561.111
333.972	571.333
336.522	562.667
339.072	570.222
341.619	556.667
344.166	567.111
346.712	576.889
349.258	589.778
351.802	573.778
354.346	569.556
356.888	574
359.43	581.333
361.971	566.667
364.511	580
367.051	578.222
369.589	571.556
372.127	585.111
374.664	590.889
377.2	597.333
379.735	613.778
382.27	618.222
384.802	616
387.334	593.778
389.866	585.333
392.397	578.222
394.927	576.889
397.457	562.889
399.985	581.778
402.513	581.111
405.038	582.889
407.565	585.556
410.09	581.778
412.614	582.667
415.138	583.556
417.66	584.889
420.181	578.667
422.702	580.667
425.222	591.778
427.742	586
430.259	586.667
432.777	592
435.294	602
437.81	628.222
440.324	595.333
442.838	592.222
445.352	591.778
447.863	598
450.375	590.222
452.887	584.222
455.395	596.889
457.905	601.111
460.414	606.222
462.92	590.889
465.427	591.778
467.932	570.222
470.438	577.333
472.942	584.667
475.445	586.222
477.948	579.778
480.448	590
482.95	587.111
485.449	584.222
487.949	585.778
490.446	599.556
492.944	584.444
495.44	589.333
497.937	581.333
500.431	581.556
502.926	592.444
505.418	577.555
507.912	582.444
510.403	586.444
512.894	580.667
515.384	594.667
517.874	593.333
520.361	592.889
522.848	606.444
525.336	596.444
527.821	587.556
530.306	594.222
532.791	578.889
535.274	596.667
537.756	578
540.238	584
542.719	588.667
545.199	587.333
547.679	586.444
550.157	581.778
552.634	586
555.112	599.556
557.588	602.444
560.063	597.333
562.537	592.444
565.011	592.667
567.484	592.222
569.955	600.889
572.426	600.222
574.896	602.889
577.367	595.556
579.835	597.111
582.303	588
584.77	589.111
587.236	589.556
589.701	590.667
592.165	597.333
594.629	595.333
597.093	598.445
599.555	593.778
602.016	582
604.477	589.555
606.936	606.667
609.395	589.778
611.853	603.778
614.311	601.111
616.767	603.778
619.223	601.556
621.678	603.333
624.132	601.333
626.585	596
629.037	599.111
631.489	597.556
633.94	608
636.39	590.667
638.839	607.778
641.288	601.333
643.736	600.667
646.183	608
648.627	617.333
651.073	603.778
653.517	617.333
655.961	610.667
658.404	601.778
660.846	609.111
663.288	602
665.727	606.889
668.167	600
670.606	600
673.044	596.667
675.482	594.444
677.917	589.778
680.353	585.778
682.788	585.111
685.222	596.445
687.655	598.889
690.087	594.889
692.519	608
694.951	598.222
697.38	605.333
699.809	609.556
702.238	605.778
704.665	602.222
707.092	606.667
709.519	606.444
711.943	612
714.368	604.444
716.791	619.111
719.214	604.889
721.637	600.889
724.058	606
726.479	610.444
728.898	591.778
731.317	596.889
733.734	600.667
736.152	593.111
738.568	598.667
740.985	602
743.399	595.556
745.814	596.667
748.227	586.889
750.64	595.556
753.051	595.333
755.463	598.667
757.872	589.111
760.283	590.889
762.691	591.111
765.098	585.556
767.506	588.889
769.912	581.111
772.318	591.778
774.722	594.222
777.126	602
779.53	588.444
781.932	588
784.333	593.778
786.735	596
789.135	592
791.533	603.111
793.933	602.667
796.33	601.333
798.727	587.556
801.123	596.667
803.519	601.556
805.913	606.889
808.307	605.778
810.699	600.222
813.093	609.111
815.484	597.778
817.874	606.222
820.264	598.889
822.653	603.556
825.041	590.222
827.43	600.222
829.817	599.333
832.203	596.889
834.588	597.111
836.972	608.889
839.356	598.889
841.738	597.333
844.12	586.889
846.502	614.889
848.882	604
851.262	607.111
853.641	591.111
856.02	601.333
858.397	602.444
860.774	608.667
863.15	614.222
865.525	614
867.9	608.444
870.273	608.889
872.646	611.333
875.019	617.778
877.39	615.778
879.761	604.222
882.131	605.556
884.5	608.889
886.869	606.444
889.236	597.555
891.602	609.778
893.968	611.556
896.334	601.111
898.698	607.333
901.062	601.111
903.426	603.111
905.787	596
908.148	592.222
910.509	605.556
912.87	595.778
915.228	601.333
917.587	588
919.945	591.778
922.302	595.333
924.657	594.667
927.013	582.667
929.368	585.111
931.721	600.444
934.074	583.778
936.427	588.667
938.778	595.333
941.129	588.667
943.479	581.111
945.828	578.667
948.177	598.667
950.524	590.222
952.871	608.222
955.218	603.333
957.563	596
959.908	595.555
962.252	604.444
964.595	599.556
966.937	600.889
969.28	596.889
971.62	610.889
973.961	595.778
976.3	602.222
978.639	596.222
980.976	585.333
983.314	595.111
985.65	592.444
987.987	594.889
990.321	615.556
992.655	606.222
994.989	610
997.321	613.556
999.653	605.778
1001.98	600.222
1004.31	598.222
1006.65	607.556
1008.97	594.444
1011.3	605.111
1013.63	605.111
1015.96	604.889
1018.28	602
1020.61	597.556
1022.93	591.333
1025.26	605.778
1027.58	603.111
1029.9	599.556
1032.22	592.444
1034.54	591.556
1036.86	594.667
1039.18	601.111
1041.5	591.333
1043.82	585.556
1046.14	599.556
1048.45	584.444
1050.77	605.333
1053.08	608.222
1055.4	616.444
1057.71	609.556
1060.02	617.111
1062.33	604
1064.64	615.333
1066.96	604
1069.27	612.889
1071.57	609.778
1073.88	607.111
1076.19	628.667
1078.5	612.667
1080.8	626.222
1083.11	631.778
1085.41	617.778
1087.72	633.778
1090.02	642.889
1092.32	650.889
1094.62	668
1096.92	692
1099.22	678
1101.52	666.222
1103.82	654.889
1106.12	656.889
1108.42	646.222
1110.71	643.778
1113.01	654.667
1115.3	663.111
1117.6	661.778
1119.89	678.444
1122.18	669.111
1124.48	661.111
1126.77	674.222
1129.06	664.667
1131.35	654.444
1133.64	643.556
1135.93	629.556
1138.21	637.556
1140.5	630.889
1142.79	634.222
1145.07	629.333
1147.36	638
1149.64	644.667
1151.92	631.778
1154.21	641.333
1156.49	647.333
1158.77	634
1161.05	649.556
1163.33	628.222
1165.61	625.333
1167.89	626.222
1170.16	625.556
1172.44	613.778
1174.72	623.111
1176.99	610.667
1179.27	615.333
1181.54	612.222
1183.81	615.333
1186.09	606.667
1188.36	615.778
1190.63	622
1192.9	604
1195.17	612.222
1197.44	614.444
1199.71	626
1201.97	604.889
1204.24	609.556
1206.5	620.667
1208.77	620.667
1211.03	607.556
1213.3	624.889
1215.56	621.778
1217.82	612.444
1220.09	636
1222.35	627.111
1224.61	622.222
1226.87	638.222
1229.12	636.222
1231.38	636.222
1233.64	650
1235.9	648
1238.15	640.444
1240.41	667.556
1242.66	663.555
1244.92	663.778
1247.17	662.889
1249.42	664.222
1251.67	666.889
1253.92	655.556
1256.17	654.667
1258.42	631.333
1260.67	648.667
1262.92	655.111
1265.17	663.111
1267.42	653.556
1269.66	661.778
1271.91	643.556
1274.15	657.111
1276.39	647.778
1278.64	642
1280.88	644.889
1283.12	632.889
1285.36	638.889
1287.6	640
1289.84	639.778
1292.08	633.778
1294.32	651.111
1296.56	654.667
1298.79	647.778
1301.03	641.556
1303.26	635.111
1305.5	637.333
1307.73	645.333
1309.97	641.333
1312.2	647.556
1314.43	643.333
1316.66	641.111
1318.89	642.222
1321.12	649.778
1323.35	636.444
1325.58	640.222
1327.81	649.556
1330.03	650
1332.26	648.222
1334.49	662
1336.71	655.556
1338.94	657.111
1341.16	668.889
1343.38	676.889
1345.6	661.778
1347.83	654.222
1350.05	672.667
1352.27	666.222
1354.49	650.889
1356.7	666.889
1358.92	668.667
1361.14	676.444
1363.36	679.333
1365.57	709.778
1367.79	734.444
1370	753.778
1372.21	767.333
1374.43	762
1376.64	773.556
1378.85	784
1381.06	768.889
1383.27	740.222
1385.48	723.556
1387.69	704.667
1389.9	690.222
1392.11	685.556
1394.31	688.222
1396.52	653.778
1398.73	651.333
1400.93	645.778
1403.13	636
1405.34	637.778
1407.54	641.778
1409.74	637.556
1411.94	644
1414.14	635.333
1416.34	644
1418.54	641.111
1420.74	638.889
1422.94	635.556
1425.14	631.333
1427.33	639.778
1429.53	629.111
1431.72	634
1433.92	642.222
1436.11	632.444
1438.3	632.667
1440.5	640.444
1442.69	636.445
1444.88	638.889
1447.07	641.778
1449.26	643.556
1451.45	646.222
1453.64	650.667
1455.82	651.333
1458.01	669.111
1460.2	662.889
1462.38	656.444
1464.57	642
1466.75	641.333
1468.93	634.667
1471.12	640.667
1473.3	648.444
1475.48	642
1477.66	642.444
1479.84	644.444
1482.02	635.111
1484.2	631.333
1486.38	617.778
1488.55	623.556
1490.73	624.222
1492.91	622.889
1495.08	628
1497.26	625.555
1499.43	633.556
1501.61	627.111
1503.78	628
1505.95	618.889
1508.12	608
1510.29	630
1512.46	626.667
1514.63	627.111
1516.8	630.222
1518.97	619.111
1521.14	625.556
1523.3	631.333
1525.47	637.111
1527.63	644
1529.8	630
1531.96	624.444
1534.12	632.667
1536.29	633.778
1538.45	640
1540.61	632.667
1542.77	641.556
1544.93	641.778
1547.09	647.333
1549.25	646.444
1551.41	644.889
1553.56	632
1555.72	648
1557.88	657.333
1560.03	658.222
1562.18	665.111
1564.34	674.222
1566.49	677.556
1568.64	671.333
1570.8	678
1572.95	680.445
1575.1	673.778
1577.25	673.778
1579.4	680.889
1581.55	674.667
1583.69	679.333
1585.84	679.111
1587.99	676
1590.13	674.889
1592.28	677.333
1594.42	664
1596.57	668.222
1598.71	661.556
1600.85	657.555
1602.99	664.222
1605.14	655.556
1607.28	654.222
1609.42	642.889
1611.56	638.444
1613.69	624.444
1615.83	634.444
1617.97	618.222
1620.11	620.667
1622.24	618
1624.38	618.444
1626.51	605.556
1628.65	592.667
1630.78	599.556
1632.91	582.222
1635.04	587.333
1637.17	578.667
1639.31	574.222
1641.44	578.667
1643.57	566.444
1645.69	573.333
1647.82	572.889
1649.95	565.333
1652.08	557.333
1654.2	566
1656.33	554.889
1658.45	550.444
1660.58	540.667
1662.7	539.333
1664.82	545.778
1666.94	551.333
1669.07	536.222
1671.19	534.444
1673.31	540.667
1675.43	538.889
1677.55	538.667
1679.66	528.222
1681.78	536.444
1683.9	534.445
1686.01	522.889
1688.13	526.444
1690.25	537.111
1692.36	521.111
1694.47	526.667
1696.59	526.667
1698.7	525.778
1700.81	518.889
1702.92	522
1705.03	522.444
1707.14	515.333
1709.25	527.556
1711.36	511.111
1713.47	510.222
1715.58	515.333
1717.68	505.333
1719.79	502.667
1721.89	517.111
1724	499.556
1726.1	508
1728.21	514.667
1730.31	511.556
1732.41	498
1734.51	506.889
1736.61	498
1738.71	508.444
1740.81	499.111
1742.91	497.333
1745.01	495.111
1747.11	497.778
1749.2	496.444
1751.3	496.667
1753.4	498.222
1755.49	496.222
1757.59	492.667
1759.68	491.333
1761.77	474.222
1763.86	491.778
1765.96	490.667
1768.05	490
1770.14	480.667
1772.23	485.111
1774.32	482.889
1776.41	486.667
1778.49	481.556
1780.58	483.333
1782.67	476.889
1784.76	483.111
1786.84	483.778
1788.92	485.778
1791.01	480.889
1793.09	484.667
1795.18	478
1797.26	476.222
1799.34	472.444
1801.42	474.889
1803.5	477.111
1805.58	477.111
1807.66	472.222
1809.74	483.333
1811.82	478
1813.89	468
1815.97	476.444
1818.05	484
1820.12	466.667
1822.2	470.667
1824.27	465.111
1826.34	471.333
1828.42	472.889
1830.49	464.444
1832.56	472.667
1834.63	466
1836.7	467.333
1838.77	462.444
1840.84	461.333
1842.91	472.667
1844.98	463.111
1847.04	457.556
1849.11	469.111
1851.18	456.222
1853.24	466.444
1855.31	461.778
1857.37	456
1859.43	459.333
1861.5	450.667
1863.56	461.556
1865.62	458.889
1867.68	452.222
1869.74	458.667
1871.8	455.778
1873.86	444.222
1875.92	453.111
1877.98	449.111
1880.03	452.889
1882.09	455.778
1884.15	448.667
1886.2	450
1888.26	442.889
1890.31	452.222
1892.36	455.333
1894.42	445.111
1896.47	448.222
1898.52	454.222
1900.57	447.111
1902.62	438.889
1904.67	462.889
1906.72	454
1908.77	446.889
1910.82	442.667
1912.86	444.889
1914.91	446.222
1916.96	448.222
1919	453.556
1921.04	444.667
1923.09	445.778
1925.13	446.667
1927.18	444.444
1929.22	441.556
1931.26	453.778
1933.3	448.222
1935.34	434.222
1937.38	431.111
1939.42	446.667
1941.46	436
1943.5	439.111
1945.53	441.556
1947.57	436.444
1949.61	428.444
1951.64	433.778
1953.68	438.889
1955.71	436.444
1957.75	421.556
1959.78	432.889
1961.81	430.889
1963.84	426.444
1965.87	424.889
1967.9	430.667
1969.93	426.667
1971.96	426.667
1973.99	422.889
1976.02	429.333
1978.05	424
1980.07	420.444
1982.1	419.778
1984.13	429.556
1986.15	437.556
1988.18	426.222
1990.2	417.333
1992.22	425.556
1994.25	416.889
1996.27	421.111
1998.29	433.778
2000.31	430.444
2002.33	423.556
2004.35	419.556
2006.37	427.111
2008.39	416.222
2010.41	419.333
2012.42	418.889
2014.44	427.778
2016.46	418.444
2018.47	424.667
2020.49	424
2022.5	416.889
2024.51	430
2026.53	424.889
2028.54	424
2030.55	418.667
2032.56	424.889
2034.57	413.111
2036.58	415.556
2038.59	417.111
2040.6	430.667
2042.61	418
2044.62	410.444
2046.62	411.111
2048.63	412
2050.64	413.556
2052.64	413.556
2054.65	409.333
2056.65	417.111
2058.65	410.444
2060.66	415.778
2062.66	411.333
2064.66	408.667
2066.66	409.333
2068.66	405.111
2070.66	409.333
2072.66	410
2074.66	397.111
2076.66	410.889
2078.65	402.889
2080.65	410.444
2082.65	406.889
2084.64	404.444
2086.64	398.889
2088.63	410.444
2090.63	407.111
2092.62	406.444
2094.61	396.222
2096.6	391.778
2098.59	397.778
2100.59	405.111
2102.58	405.111
2104.56	398.889
2106.55	400.444
2108.54	398.444
2110.53	398.667
2112.52	409.111
2114.5	404
2116.49	404.667
2118.48	401.778
2120.46	409.333
2122.44	412.222
2124.43	412.889
2126.41	410
2128.39	412.667
2130.38	404.667
2132.36	407.333
2134.34	411.333
2136.32	409.556
2138.3	414
2140.28	405.333
2142.26	412.444
2144.23	409.778
2146.21	398.889
2148.19	410.667
2150.16	399.556
2152.14	406.889
2154.11	407.111
2156.09	407.111
2158.06	400.222
2160.04	394.667
2162.01	406.222
2163.98	396.889
2165.95	388.889
2167.92	388
2169.89	392.889
2171.86	396.222
2173.83	381.111
2175.8	393.556
2177.77	390.222
2179.73	388.222
2181.7	388.222
2183.67	383.556
2185.63	372.889
2187.6	383.778
2189.56	379.333
2191.53	378.222
2193.49	381.333
2195.45	376.889
2197.41	375.778
2199.37	380.889
2201.34	366.889
2203.29	374.889
2205.26	368.222
2207.21	368.222
2209.17	371.778
2211.13	382.444
2213.09	367.333
2215.05	374.889
2217	369.333
2218.96	372.444
2220.91	373.333
2222.87	369.333
2224.82	373.556
2226.77	365.333
2228.73	365.556
2230.68	370.444
2232.63	366.667
2234.58	364.667
2236.53	370
2238.48	363.778
2240.43	360.667
2242.38	355.556
2244.33	378
2246.27	364
2248.22	365.778
2250.17	371.556
2252.11	353.556
2254.06	354
2256	357.111
2257.95	362
2259.89	363.556
2261.84	358.889
2263.78	354
2265.72	354
2267.66	348.889
2269.6	348.444
2271.54	343.111
2273.48	346.444
2275.42	345.778
2277.36	342.667
2279.3	336
2281.23	348.889
2283.17	347.778
2285.11	337.111
2287.04	346
2288.98	340
2290.91	344.889
2292.84	342
2294.78	340.444
2296.71	331.111
2298.64	338.667
2300.57	339.333
2302.51	338.889
2304.44	331.556
2306.37	329.111
2308.29	332
2310.22	334.889
2312.15	342.444
2314.08	334.222
2316.01	334.889
2317.93	332
2319.86	341.778
2321.78	342.222
2323.71	338.667
2325.63	328.222
2327.56	334.667
2329.48	327.111
2331.4	333.778
2333.32	332.889
2335.25	338.222
2337.17	333.556
2339.09	340.222
2341.01	325.556
2342.92	341.556
2344.84	328.889
2346.76	334.222
2348.68	337.778
2350.6	333.333
2352.51	329.778
2354.43	327.111
2356.34	330.889
2358.26	330.222
2360.17	332
2362.09	329.333
2364	316.889
2365.91	322.667
2367.82	324
2369.73	318.889
2371.64	328.667
2373.55	325.778
2375.46	323.111
2377.37	320.444
2379.28	324.444
2381.19	311.111
2383.1	320.222
2385	320.222
2386.91	323.556
2388.82	325.556
2390.72	324.667
2392.62	323.556
2394.53	320.444
2396.43	314
2398.33	317.556
2400.24	314.444
2402.14	318.667
2404.04	312.667
2405.94	314.667
2407.84	317.556
2409.74	313.111
2411.64	321.333
2413.54	316.222
2415.44	315.111
2417.33	311.556
2419.23	306.222
2421.13	307.111
2423.02	312.889
2424.92	307.778
2426.81	315.556
2428.71	307.111
2430.6	308.444
2432.49	301.333
2434.38	312.889
2436.28	302.889
2438.17	318
2440.06	311.333
2441.95	312
2443.84	311.111
2445.73	312
