176.817	514.222
179.42	506.222
182.022	504
184.622	506.444
187.223	506
189.821	509.333
192.419	503.556
195.017	508.667
197.612	514.222
200.208	500
202.802	510.222
205.397	507.333
207.99	518.444
210.581	507.111
213.173	507.778
215.762	520.889
218.352	520.889
220.94	519.111
223.528	515.333
226.114	520.889
228.701	527.556
231.285	522
233.87	534.889
236.452	540
239.034	547.556
241.616	534.667
244.196	546.445
246.777	541.333
249.355	564.444
251.933	549.111
254.511	540.889
257.086	557.333
259.663	556
262.237	551.556
264.81	554
267.383	550.667
269.955	553.333
272.525	538.889
275.097	540.222
277.665	545.333
280.234	534.444
282.802	539.556
285.368	531.778
287.934	528.889
290.499	544
293.064	539.778
295.627	540.889
298.189	536.889
300.75	536
303.312	531.556
305.871	533.778
308.43	538.889
310.988	523.556
313.545	516.222
316.101	498.444
318.658	501.111
321.212	506.222
323.766	503.333
326.319	502
328.871	503.556
331.422	516.889
333.972	509.556
336.522	508.889
339.072	507.111
341.619	504.222
344.166	507.333
346.712	515.111
349.258	509.333
351.802	510
354.346	503.111
356.888	504
359.43	509.333
361.971	516.222
364.511	511.333
367.051	509.111
369.589	511.778
372.127	514.222
374.664	524
377.2	536
379.735	540.667
382.27	534.667
384.802	532
387.334	523.778
389.866	514.445
392.397	510.222
394.927	508.667
397.457	491.333
399.985	501.111
402.513	499.778
405.038	514
407.565	517.111
410.09	509.556
412.614	519.333
415.138	507.333
417.66	503.778
420.181	518.667
422.702	513.778
425.222	514
427.742	505.778
430.259	514.222
432.777	528.889
435.294	538
437.81	536.667
440.324	534.444
442.838	526.667
445.352	531.111
447.863	522.444
450.375	514.444
452.887	523.333
455.395	520.222
457.905	529.333
460.414	525.111
462.92	514.889
465.427	517.111
467.932	507.778
470.438	512.444
472.942	519.111
475.445	511.778
477.948	513.111
480.448	519.778
482.95	517.333
485.449	518.667
487.949	508
490.446	520.444
492.944	526.222
495.44	521.111
497.937	519.111
500.431	514.889
502.926	523.555
505.418	510.889
507.912	517.111
510.403	516.444
512.894	510
515.384	509.556
517.874	519.333
520.361	538.889
522.848	524.667
525.336	523.778
527.821	530.667
530.306	515.556
532.791	517.111
535.274	522.889
537.756	519.556
540.238	520
542.719	522
545.199	523.555
547.679	520.444
550.157	527.333
552.634	527.778
555.112	520
557.588	526.889
560.063	522
562.537	524
565.011	520.667
567.484	523.556
569.955	530.889
572.426	524
574.896	524
577.367	523.778
579.835	522.222
582.303	518.444
584.77	525.333
587.236	523.556
589.701	520
592.165	526.444
594.629	521.111
597.093	522.444
599.555	532.889
602.016	516.667
604.477	522.667
606.936	531.333
609.395	522
611.853	554.222
614.311	552.667
616.767	543.111
619.223	542.889
621.678	551.556
624.132	549.778
626.585	544
629.037	536.222
631.489	542.667
633.94	536.889
636.39	539.778
638.839	546
641.288	538.889
643.736	521.556
646.183	529.333
648.627	535.111
651.073	533.778
653.517	522.222
655.961	531.778
658.404	535.778
660.846	538.222
663.288	527.333
665.727	542
668.167	528.222
670.606	526
673.044	530.222
675.482	534.444
677.917	533.556
680.353	537.333
682.788	534
685.222	528.667
687.655	534.889
690.087	528.667
692.519	528.222
694.951	535.778
697.38	523.778
699.809	534
702.238	539.111
704.665	544.667
707.092	534.445
709.519	540.889
711.943	535.778
714.368	543.556
716.791	541.333
719.214	530.222
721.637	542.667
724.058	534
726.479	534.222
728.898	530.444
731.317	530
733.734	531.778
736.152	544.444
738.568	538
740.985	527.556
743.399	527.778
745.814	525.333
748.227	538
750.64	539.111
753.051	522
755.463	526.667
757.872	527.333
760.283	524
762.691	537.778
765.098	534.667
767.506	532.444
769.912	527.778
772.318	531.778
774.722	528.222
777.126	524
779.53	524.222
781.932	543.333
784.333	529.778
786.735	525.778
789.135	537.778
791.533	533.778
793.933	535.111
796.33	532.667
798.727	543.778
801.123	529.778
803.519	539.111
805.913	545.556
808.307	534.444
810.699	537.778
813.093	541.778
815.484	548.222
817.874	544.667
820.264	540.222
822.653	550.889
825.041	531.333
827.43	543.111
829.817	540.889
832.203	536.444
834.588	538.889
836.972	533.333
839.356	544.444
841.738	541.778
844.12	543.111
846.502	558.889
848.882	539.778
851.262	546
853.641	554.444
856.02	552.889
858.397	546
860.774	561.556
863.15	562.222
865.525	567.111
867.9	568.667
870.273	568.444
872.646	558
875.019	559.111
877.39	561.778
879.761	557.778
882.131	547.333
884.5	550.667
886.869	536.889
889.236	555.556
891.602	550.667
893.968	554.444
896.334	564.444
898.698	549.333
901.062	554
903.426	544.889
905.787	546.889
908.148	541.333
910.509	540.222
912.87	554.444
915.228	539.333
917.587	549.333
919.945	540.889
922.302	532
924.657	556
927.013	534.889
929.368	543.111
931.721	537.333
934.074	539.778
936.427	546.667
938.778	536.667
941.129	548
943.479	540.667
945.828	540.667
948.177	543.333
950.524	539.778
952.871	550.667
955.218	546.889
957.563	533.556
959.908	530.889
962.252	549.556
964.595	553.333
966.937	558.667
969.28	534.222
971.62	544.222
973.961	543.555
976.3	535.111
978.639	535.333
980.976	534.667
983.314	542.667
985.65	538.222
987.987	539.333
990.321	525.333
992.655	546
994.989	547.111
997.321	551.111
999.653	548.889
1001.98	548
1004.31	547.333
1006.65	544.667
1008.97	537.556
1011.3	542.889
1013.63	549.333
1015.96	541.778
1018.28	533.778
1020.61	542.889
1022.93	543.333
1025.26	540.444
1027.58	544.444
1029.9	544
1032.22	545.556
1034.54	544.222
1036.86	549.556
1039.18	553.333
1041.5	549.556
1043.82	552.222
1046.14	552.889
1048.45	550.667
1050.77	565.111
1053.08	550.667
1055.4	574.222
1057.71	560.222
1060.02	582.667
1062.33	568
1064.64	559.778
1066.96	568.667
1069.27	567.333
1071.57	565.111
1073.88	573.111
1076.19	573.778
1078.5	566.889
1080.8	566.667
1083.11	580.222
1085.41	582.222
1087.72	588.444
1090.02	594
1092.32	602
1094.62	626.889
1096.92	630
1099.22	630.445
1101.52	611.778
1103.82	608.667
1106.12	593.778
1108.42	606
1110.71	605.778
1113.01	597.111
1115.3	602.667
1117.6	612.667
1119.89	610.667
1122.18	622
1124.48	628.889
1126.77	623.111
1129.06	617.333
1131.35	614.889
1133.64	601.333
1135.93	600.222
1138.21	604.222
1140.5	595.556
1142.79	603.111
1145.07	614.889
1147.36	605.556
1149.64	600.444
1151.92	616.667
1154.21	616.667
1156.49	619.556
1158.77	609.333
1161.05	624.222
1163.33	611.778
1165.61	608.222
1167.89	614
1170.16	590.889
1172.44	589.333
1174.72	597.333
1176.99	593.333
1179.27	590.444
1181.54	587.333
1183.81	598
1186.09	586.444
1188.36	603.111
1190.63	584
1192.9	594.444
1195.17	595.111
1197.44	600.222
1199.71	600.889
1201.97	606.667
1204.24	598.444
1206.5	600.222
1208.77	605.778
1211.03	608
1213.3	607.111
1215.56	614.889
1217.82	607.333
1220.09	609.111
1222.35	619.111
1224.61	627.111
1226.87	620
1229.12	633.333
1231.38	639.111
1233.64	632.444
1235.9	643.556
1238.15	624.222
1240.41	643.111
1242.66	639.111
1244.92	634
1247.17	650.889
1249.42	632.222
1251.67	634.222
1253.92	648.222
1256.17	641.556
1258.42	648.667
1260.67	669.333
1262.92	672
1265.17	675.333
1267.42	675.111
1269.66	670.889
1271.91	664.222
1274.15	659.556
1276.39	651.333
1278.64	668
1280.88	644.889
1283.12	649.556
1285.36	644
1287.6	637.778
1289.84	640.222
1292.08	639.333
1294.32	629.333
1296.56	638.889
1298.79	634.444
1301.03	632.444
1303.26	647.556
1305.5	646.444
1307.73	650.667
1309.97	651.111
1312.2	661.111
1314.43	651.333
1316.66	660.889
1318.89	654.667
1321.12	648.222
1323.35	678
1325.58	668
1327.81	670.889
1330.03	671.778
1332.26	687.778
1334.49	686.444
1336.71	691.333
1338.94	683.556
1341.16	683.778
1343.38	674.444
1345.6	683.111
1347.83	699.111
1350.05	696.444
1352.27	698.889
1354.49	702.889
1356.7	705.333
1358.92	713.556
1361.14	739.556
1363.36	775.333
1365.57	801.111
1367.79	852.889
1370	858.889
1372.21	848
1374.43	836.667
1376.64	799.111
1378.85	789.778
1381.06	769.333
1383.27	750.222
1385.48	725.556
1387.69	718.667
1389.9	720.889
1392.11	707.778
1394.31	715.333
1396.52	725.111
1398.73	712.889
1400.93	702.889
1403.13	687.111
1405.34	679.556
1407.54	683.778
1409.74	679.556
1411.94	688.889
1414.14	674.444
1416.34	681.778
1418.54	679.778
1420.74	673.778
1422.94	666.889
1425.14	671.111
1427.33	671.778
1429.53	667.556
1431.72	658.222
1433.92	667.556
1436.11	666.889
1438.3	666.222
1440.5	672.445
1442.69	679.556
1444.88	683.111
1447.07	700.889
1449.26	704.222
1451.45	706.667
1453.64	718.889
1455.82	710.222
1458.01	700.444
1460.2	692.889
1462.38	687.778
1464.57	668.444
1466.75	659.556
1468.93	655.556
1471.12	662
1473.3	658.222
1475.48	658.444
1477.66	652.444
1479.84	648.222
1482.02	645.111
1484.2	651.555
1486.38	646.444
1488.55	639.778
1490.73	642.222
1492.91	634.444
1495.08	642.889
1497.26	638.222
1499.43	633.111
1501.61	634
1503.78	637.556
1505.95	629.778
1508.12	633.556
1510.29	646
1512.46	625.778
1514.63	630.667
1516.8	631.333
1518.97	637.111
1521.14	630.444
1523.3	632.889
1525.47	650.222
1527.63	640
1529.8	640.889
1531.96	634.889
1534.12	640.889
1536.29	644
1538.45	649.333
1540.61	653.556
1542.77	648.889
1544.93	657.333
1547.09	658.222
1549.25	661.556
1551.41	658.889
1553.56	664.444
1555.72	681.778
1557.88	682
1560.03	667.556
1562.18	677.556
1564.34	679.556
1566.49	681.333
1568.64	684.889
1570.8	683.556
1572.95	683.333
1575.1	698.667
1577.25	683.111
1579.4	686.444
1581.55	691.556
1583.69	694.444
1585.84	692.444
1587.99	704.889
1590.13	685.333
1592.28	686.444
1594.42	678.889
1596.57	686
1598.71	665.111
1600.85	672.444
1602.99	661.556
1605.14	674
1607.28	646.222
1609.42	641.778
1611.56	646.889
1613.69	651.556
1615.83	643.333
1617.97	638.667
1620.11	629.111
1622.24	628
1624.38	630.444
1626.51	602.667
1628.65	596
1630.78	600.222
1632.91	589.556
1635.04	577.111
1637.17	567.778
1639.31	566.444
1641.44	566
1643.57	550
1645.69	552.444
1647.82	546.444
1649.95	535.778
1652.08	535.111
1654.2	529.333
1656.33	525.111
1658.45	523.778
1660.58	520.444
1662.7	517.111
1664.82	522.889
1666.94	524.444
1669.07	521.111
1671.19	507.778
1673.31	508
1675.43	509.778
1677.55	514
1679.66	510
1681.78	510.222
1683.9	500.667
1686.01	504
1688.13	490.889
1690.25	487.333
1692.36	492.667
1694.47	494
1696.59	496
1698.7	492.889
1700.81	484.444
1702.92	497.556
1705.03	487.111
1707.14	482
1709.25	478
1711.36	482
1713.47	482.444
1715.58	483.111
1717.68	473.333
1719.79	466.889
1721.89	478.667
1724	479.333
1726.1	484.667
1728.21	483.556
1730.31	468.222
1732.41	470.889
1734.51	470.222
1736.61	469.778
1738.71	475.111
1740.81	464
1742.91	467.556
1745.01	466
1747.11	465.556
1749.2	460.222
1751.3	463.556
1753.4	447.111
1755.49	464.889
1757.59	464.222
1759.68	458.889
1761.77	460.889
1763.86	458.889
1765.96	457.333
1768.05	462.222
1770.14	447.333
1772.23	454.444
1774.32	448.222
1776.41	451.556
1778.49	450.444
1780.58	457.556
1782.67	440.889
1784.76	452.444
1786.84	452.889
1788.92	450
1791.01	439.333
1793.09	455.333
1795.18	435.778
1797.26	445.556
1799.34	438.889
1801.42	447.333
1803.5	445.333
1805.58	446
1807.66	451.111
1809.74	449.556
1811.82	443.556
1813.89	444
1815.97	446.444
1818.05	438.222
1820.12	432.667
1822.2	447.778
1824.27	425.556
1826.34	433.556
1828.42	437.556
1830.49	439.111
1832.56	426.889
1834.63	432
1836.7	439.778
1838.77	439.778
1840.84	429.333
1842.91	431.778
1844.98	440.667
1847.04	434.222
1849.11	427.556
1851.18	431.556
1853.24	431.778
1855.31	429.333
1857.37	437.778
1859.43	428.667
1861.5	418
1863.56	420.444
1865.62	422.889
1867.68	425.556
1869.74	423.556
1871.8	423.778
1873.86	419.556
1875.92	423.556
1877.98	428.667
1880.03	422.444
1882.09	434
1884.15	427.778
1886.2	414.667
1888.26	419.778
1890.31	434.889
1892.36	418.222
1894.42	421.556
1896.47	423.778
1898.52	418.667
1900.57	417.778
1902.62	431.333
1904.67	423.111
1906.72	411.111
1908.77	423.778
1910.82	432.222
1912.86	425.778
1914.91	421.111
1916.96	420.444
1919	420.444
1921.04	415.778
1923.09	418.889
1925.13	420
1927.18	412.222
1929.22	421.333
1931.26	409.556
1933.3	412.222
1935.34	413.778
1937.38	416.667
1939.42	409.556
1941.46	403.556
1943.5	414.444
1945.53	406.444
1947.57	416
1949.61	418
1951.64	407.111
1953.68	408.222
1955.71	401.778
1957.75	413.111
1959.78	409.556
1961.81	402.889
1963.84	400.889
1965.87	402
1967.9	405.333
1969.93	393.556
1971.96	406.667
1973.99	398.444
1976.02	402.889
1978.05	399.111
1980.07	403.556
1982.1	399.111
1984.13	403.556
1986.15	400.667
1988.18	389.333
1990.2	405.778
1992.22	396
1994.25	398.889
1996.27	395.111
1998.29	397.333
2000.31	389.111
2002.33	408.222
2004.35	402.444
2006.37	398.889
2008.39	398.222
2010.41	404.444
2012.42	395.778
2014.44	397.111
2016.46	397.333
2018.47	394.667
2020.49	389.111
2022.5	384.889
2024.51	397.111
2026.53	394.222
2028.54	391.333
2030.55	398.889
2032.56	385.778
2034.57	393.333
2036.58	390
2038.59	387.333
2040.6	385.333
2042.61	394
2044.62	395.556
2046.62	383.333
2048.63	388.222
2050.64	388
2052.64	381.111
2054.65	384
2056.65	381.333
2058.65	390.667
2060.66	386.667
2062.66	390.889
2064.66	387.556
2066.66	381.111
2068.66	375.111
2070.66	381.333
2072.66	389.111
2074.66	381.333
2076.66	386
2078.65	380.889
2080.65	382.222
2082.65	382.889
2084.64	382.222
2086.64	384.222
2088.63	372
2090.63	378.889
2092.62	384.889
2094.61	379.111
2096.6	371.778
2098.59	384.667
2100.59	385.333
2102.58	382
2104.56	374.889
2106.55	383.556
2108.54	378.667
2110.53	379.556
2112.52	382.222
2114.5	382.889
2116.49	391.333
2118.48	386.444
2120.46	394.444
2122.44	397.333
2124.43	399.111
2126.41	390.667
2128.39	389.333
2130.38	391.778
2132.36	396.667
2134.34	397.778
2136.32	389.333
2138.3	391.111
2140.28	393.556
2142.26	388.222
2144.23	394
2146.21	387.111
2148.19	387.333
2150.16	378.444
2152.14	383.111
2154.11	386.222
2156.09	384.667
2158.06	382.444
2160.04	378.444
2162.01	372
2163.98	372.889
2165.95	370.222
2167.92	366.222
2169.89	374.222
2171.86	370.444
2173.83	363.778
2175.8	362.889
2177.77	363.333
2179.73	359.111
2181.7	356.667
2183.67	356.444
2185.63	352.667
2187.6	364
2189.56	354.889
2191.53	359.111
2193.49	349.556
2195.45	354.444
2197.41	357.778
2199.37	342.222
2201.34	354
2203.29	350.222
2205.26	350.889
2207.21	348.889
2209.17	352
2211.13	346.889
2213.09	344.889
2215.05	341.556
2217	350
2218.96	345.333
2220.91	345.778
2222.87	344
2224.82	342.889
2226.77	354.222
2228.73	347.778
2230.68	343.556
2232.63	347.333
2234.58	336.889
2236.53	347.111
2238.48	332.667
2240.43	337.778
2242.38	344.667
2244.33	337.778
2246.27	348.222
2248.22	340.889
2250.17	338.444
2252.11	329.556
2254.06	334.222
2256	332.222
2257.95	329.778
2259.89	332
2261.84	332.667
2263.78	344.444
2265.72	317.333
2267.66	326.667
2269.6	326.222
2271.54	324.444
2273.48	328.222
2275.42	332.444
2277.36	328.667
2279.3	321.333
2281.23	329.778
2283.17	331.333
2285.11	321.333
2287.04	331.778
2288.98	320.222
2290.91	319.333
2292.84	320.444
2294.78	325.333
2296.71	326
2298.64	322.889
2300.57	318.222
2302.51	313.778
2304.44	323.111
2306.37	318.667
2308.29	309.333
2310.22	313.778
2312.15	319.333
2314.08	316.889
2316.01	325.778
2317.93	323.111
2319.86	318
2321.78	326.889
2323.71	316.667
2325.63	314.667
2327.56	310.222
2329.48	314.889
2331.4	315.111
2333.32	323.333
2335.25	317.111
2337.17	310.889
2339.09	307.333
2341.01	309.778
2342.92	317.778
2344.84	306.889
2346.76	318.444
2348.68	311.556
2350.6	308.889
2352.51	307.333
2354.43	313.111
2356.34	310.222
2358.26	313.778
2360.17	299.333
2362.09	310
2364	310.889
2365.91	300.222
2367.82	309.778
2369.73	304.889
2371.64	303.333
2373.55	304
2375.46	301.778
2377.37	298.667
2379.28	295.333
2381.19	305.778
2383.1	303.778
2385	294.222
2386.91	299.111
2388.82	310.222
2390.72	299.778
2392.62	305.111
2394.53	302.222
2396.43	290
2398.33	300
2400.24	294.889
2402.14	294.667
2404.04	299.333
2405.94	295.556
2407.84	299.556
2409.74	300
2411.64	298.667
2413.54	286.444
2415.44	297.111
2417.33	300.222
2419.23	300.444
2421.13	298.222
2423.02	290.667
2424.92	298.889
2426.81	298.444
2428.71	296.889
2430.6	298.444
2432.49	296.667
2434.38	289.111
2436.28	291.556
2438.17	292.222
2440.06	296
2441.95	296.222
2443.84	292
2445.73	294.222
