176.817	717.556
179.42	701.556
182.022	697.556
184.622	706
187.223	702
189.821	711.111
192.419	708.889
195.017	700.889
197.612	701.333
200.208	708.222
202.802	708.667
205.397	713.333
207.99	708.889
210.581	704.889
213.173	708.444
215.762	712
218.352	714
220.94	717.556
223.528	727.556
226.114	725.333
228.701	730.222
231.285	737.333
233.87	746.667
236.452	740.889
239.034	757.333
241.616	747.111
244.196	752.889
246.777	757.556
249.355	752.222
251.933	754
254.511	764.222
257.086	774.889
259.663	768.222
262.237	765.556
264.81	762.444
267.383	772.889
269.955	779.556
272.525	757.778
275.097	760.222
277.665	760
280.234	754
282.802	749.556
285.368	751.333
287.934	754.222
290.499	749.556
293.064	765.111
295.627	754.667
298.189	765.778
300.75	764.667
303.312	747.778
305.871	748.222
308.43	741.556
310.988	719.778
313.545	721.556
316.101	712.889
318.658	708.667
321.212	721.333
323.766	704.222
326.319	702.222
328.871	710
331.422	713.333
333.972	713.111
336.522	709.778
339.072	702.889
341.619	689.778
344.166	702.889
346.712	709.333
349.258	712.889
351.802	709.556
354.346	704
356.888	711.333
359.43	703.556
361.971	718.444
364.511	701.556
367.051	721.556
369.589	722.222
372.127	716.222
374.664	719.556
377.2	728.445
379.735	749.556
382.27	747.778
384.802	745.333
387.334	727.111
389.866	716
392.397	714.667
394.927	712
397.457	702.667
399.985	713.333
402.513	692
405.038	714.667
407.565	710.889
410.09	709.111
412.614	710.889
415.138	722.222
417.66	719.778
420.181	708.222
422.702	707.111
425.222	702.667
427.742	720.222
430.259	712.667
432.777	728.445
435.294	744
437.81	732.667
440.324	744.222
442.838	725.778
445.352	722.222
447.863	720.667
450.375	719.778
452.887	723.333
455.395	722.444
457.905	726
460.414	726.222
462.92	733.778
465.427	722.667
467.932	710.889
470.438	714.444
472.942	719.556
475.445	724
477.948	725.556
480.448	728.667
482.95	739.333
485.449	734.222
487.949	726.667
490.446	733.778
492.944	730.222
495.44	728.444
497.937	729.556
500.431	726.889
502.926	733.778
505.418	733.556
507.912	730.667
510.403	742.444
512.894	721.111
515.384	747.778
517.874	732.667
520.361	730.667
522.848	729.556
525.336	736.222
527.821	738.222
530.306	746.667
532.791	754.222
535.274	736.667
537.756	737.111
540.238	724.444
542.719	734.222
545.199	727.778
547.679	729.556
550.157	737.333
552.634	735.556
555.112	729.556
557.588	738.222
560.063	735.111
562.537	729.556
565.011	750.667
567.484	740.889
569.955	731.778
572.426	730
574.896	742.444
577.367	738.889
579.835	733.778
582.303	722.667
584.77	744.889
587.236	735.556
589.701	727.333
592.165	738.444
594.629	731.333
597.093	731.333
599.555	739.111
602.016	743.778
604.477	741.333
606.936	754.444
609.395	744.889
611.853	748.222
614.311	742.222
616.767	751.111
619.223	751.556
621.678	751.111
624.132	745.556
626.585	750.222
629.037	751.555
631.489	748.667
633.94	748.444
636.39	739.333
638.839	743.778
641.288	747.778
643.736	762.889
646.183	769.555
648.627	760.222
651.073	753.556
653.517	753.333
655.961	746.222
658.404	744.889
660.846	744.222
663.288	747.556
665.727	748.889
668.167	746.444
670.606	726.667
673.044	730.222
675.482	739.111
677.917	739.111
680.353	742.889
682.788	732.889
685.222	734.667
687.655	752.667
690.087	748.222
692.519	745.111
694.951	761.778
697.38	744.667
699.809	746.667
702.238	741.333
704.665	746.889
707.092	736.667
709.519	735.556
711.943	763.333
714.368	750.222
716.791	746.889
719.214	749.333
721.637	747.778
724.058	732.444
726.479	760.667
728.898	739.111
731.317	749.778
733.734	748.444
736.152	749.111
738.568	761.333
740.985	739.778
743.399	748.444
745.814	744.889
748.227	764.889
750.64	736
753.051	754.667
755.463	747.111
757.872	759.556
760.283	740
762.691	740
765.098	748.444
767.506	727.778
769.912	752
772.318	741.556
774.722	737.556
777.126	746.667
779.53	742.889
781.932	745.333
784.333	747.556
786.735	747.333
789.135	754.667
791.533	754.222
793.933	751.111
796.33	751.333
798.727	754.667
801.123	750.889
803.519	755.111
805.913	758.889
808.307	758
810.699	758.889
813.093	774
815.484	770
817.874	764.889
820.264	776.222
822.653	775.555
825.041	769.778
827.43	762.444
829.817	778.444
832.203	782.667
834.588	769.778
836.972	765.333
839.356	778.667
841.738	757.333
844.12	767.556
846.502	779.111
848.882	785.778
851.262	768.667
853.641	782.222
856.02	790.222
858.397	808.667
860.774	805.111
863.15	817.111
865.525	808.667
867.9	787.556
870.273	803.111
872.646	804.222
875.019	791.111
877.39	794.667
879.761	797.111
882.131	782.222
884.5	792.667
886.869	777.333
889.236	775.333
891.602	778.667
893.968	783.556
896.334	778.667
898.698	765.778
901.062	777.333
903.426	774.222
905.787	772.889
908.148	766.667
910.509	754.667
912.87	763.556
915.228	757.333
917.587	764.222
919.945	762.667
922.302	763.556
924.657	766
927.013	767.778
929.368	771.778
931.721	767.555
934.074	765.778
936.427	762.222
938.778	774.667
941.129	754.889
943.479	760.667
945.828	750.222
948.177	768.889
950.524	747.111
952.871	762.667
955.218	764.889
957.563	774.222
959.908	773.111
962.252	772.444
964.595	776.222
966.937	781.111
969.28	777.778
971.62	770.889
973.961	774.667
976.3	760.444
978.639	758.222
980.976	767.778
983.314	760.889
985.65	771.333
987.987	767.111
990.321	771.778
992.655	770.667
994.989	770
997.321	771.778
999.653	783.556
1001.98	777.556
1004.31	768.667
1006.65	768.889
1008.97	752.222
1011.3	762.889
1013.63	743.333
1015.96	764.444
1018.28	761.556
1020.61	762.222
1022.93	762
1025.26	763.778
1027.58	767.556
1029.9	772
1032.22	774.667
1034.54	779.778
1036.86	760.445
1039.18	766.889
1041.5	776
1043.82	776.667
1046.14	776.667
1048.45	780.889
1050.77	789.333
1053.08	789.333
1055.4	791.778
1057.71	790
1060.02	780.667
1062.33	790
1064.64	797.778
1066.96	777.556
1069.27	803.111
1071.57	784.889
1073.88	790.667
1076.19	784.667
1078.5	782
1080.8	814.222
1083.11	813.333
1085.41	803.111
1087.72	817.111
1090.02	837.556
1092.32	843.778
1094.62	863.556
1096.92	879.778
1099.22	878.667
1101.52	881.333
1103.82	853.333
1106.12	844.889
1108.42	848.444
1110.71	856.667
1113.01	865.556
1115.3	872
1117.6	880.444
1119.89	886.889
1122.18	897.333
1124.48	903.556
1126.77	906.222
1129.06	895.333
1131.35	900.889
1133.64	881.778
1135.93	875.778
1138.21	889.556
1140.5	877.556
1142.79	891.556
1145.07	882.222
1147.36	906.667
1149.64	913.778
1151.92	918.667
1154.21	946.667
1156.49	925.778
1158.77	934.889
1161.05	906.222
1163.33	912.222
1165.61	905.778
1167.89	905.111
1170.16	895.556
1172.44	863.556
1174.72	895.556
1176.99	882.222
1179.27	894.889
1181.54	890.222
1183.81	874.667
1186.09	888
1188.36	896.444
1190.63	890.222
1192.9	896.444
1195.17	909.555
1197.44	908.444
1199.71	905.111
1201.97	896.889
1204.24	895.111
1206.5	903.333
1208.77	903.111
1211.03	912
1213.3	912.444
1215.56	917.333
1217.82	930.889
1220.09	946.667
1222.35	936.889
1224.61	950.444
1226.87	938.889
1229.12	930.889
1231.38	945.778
1233.64	952.889
1235.9	945.111
1238.15	968.889
1240.41	955.111
1242.66	986.889
1244.92	962.889
1247.17	982.444
1249.42	963.333
1251.67	973.778
1253.92	966.667
1256.17	999.556
1258.42	1029.56
1260.67	1041.56
1262.92	1053.78
1265.17	1044.22
1267.42	1028.44
1269.66	1016.89
1271.91	1002.89
1274.15	968.445
1276.39	966.444
1278.64	964
1280.88	941.333
1283.12	944.444
1285.36	954.222
1287.6	956.667
1289.84	956.222
1292.08	969.111
1294.32	956
1296.56	965.333
1298.79	972.889
1301.03	954.667
1303.26	974.667
1305.5	951.111
1307.73	947.778
1309.97	948.222
1312.2	939.556
1314.43	942.667
1316.66	933.778
1318.89	949.111
1321.12	938.444
1323.35	949.778
1325.58	960.667
1327.81	966
1330.03	970.222
1332.26	988.667
1334.49	995.333
1336.71	1015.78
1338.94	1015.56
1341.16	1022.22
1343.38	1021.11
1345.6	1034.67
1347.83	1064.22
1350.05	1053.78
1352.27	1064
1354.49	1088
1356.7	1117.56
1358.92	1179.11
1361.14	1245.78
1363.36	1326.67
1365.57	1436.22
1367.79	1487.56
1370	1488.44
1372.21	1460.89
1374.43	1402.89
1376.64	1341.56
1378.85	1295.33
1381.06	1237.33
1383.27	1196
1385.48	1173.78
1387.69	1124
1389.9	1095.33
1392.11	1084.44
1394.31	1062.89
1396.52	1046.22
1398.73	1030.67
1400.93	1033.78
1403.13	1015.56
1405.34	1021.33
1407.54	1022.67
1409.74	1029.33
1411.94	1008.89
1414.14	1002.22
1416.34	1016.44
1418.54	998
1420.74	1014.44
1422.94	999.778
1425.14	1000.89
1427.33	989.111
1429.53	971.556
1431.72	999.111
1433.92	1001.33
1436.11	987.333
1438.3	994.444
1440.5	1002.44
1442.69	1005.11
1444.88	1044.22
1447.07	1072.44
1449.26	1060.67
1451.45	1112
1453.64	1122.44
1455.82	1127.56
1458.01	1090.22
1460.2	1073.33
1462.38	1061.56
1464.57	1029.33
1466.75	1030.22
1468.93	1013.11
1471.12	1010.22
1473.3	1012
1475.48	1027.78
1477.66	1010.22
1479.84	1012.67
1482.02	1028.22
1484.2	1020.67
1486.38	1014.89
1488.55	1029.78
1490.73	1027.11
1492.91	1031.33
1495.08	1027.78
1497.26	1015.33
1499.43	1018.67
1501.61	1022
1503.78	1031.11
1505.95	1027.11
1508.12	1015.56
1510.29	1024.67
1512.46	1019.33
1514.63	1008.67
1516.8	1026.67
1518.97	1028.44
1521.14	1036.89
1523.3	1035.33
1525.47	1045.11
1527.63	1046.67
1529.8	1066.44
1531.96	1060
1534.12	1056.89
1536.29	1070.44
1538.45	1055.33
1540.61	1065.11
1542.77	1065.78
1544.93	1060.67
1547.09	1050.22
1549.25	1059.56
1551.41	1066.67
1553.56	1051.11
1555.72	1079.33
1557.88	1077.56
1560.03	1092.22
1562.18	1100.89
1564.34	1093.33
1566.49	1090.89
1568.64	1092.22
1570.8	1080
1572.95	1078
1575.1	1102.44
1577.25	1086
1579.4	1087.33
1581.55	1083.56
1583.69	1098.44
1585.84	1102.22
1587.99	1083.33
1590.13	1084.89
1592.28	1063.56
1594.42	1050.89
1596.57	1053.56
1598.71	1040.44
1600.85	1013.33
1602.99	1012.44
1605.14	1008.67
1607.28	991.111
1609.42	997.556
1611.56	976
1613.69	961.333
1615.83	955.111
1617.97	924.222
1620.11	931.778
1622.24	922.889
1624.38	899.333
1626.51	902.222
1628.65	871.778
1630.78	858.222
1632.91	848
1635.04	850.889
1637.17	833.778
1639.31	826.889
1641.44	817.111
1643.57	797.778
1645.69	798.222
1647.82	786.889
1649.95	786.889
1652.08	766.667
1654.2	761.333
1656.33	774.667
1658.45	754
1660.58	757.111
1662.7	753.333
1664.82	752.222
1666.94	744.667
1669.07	746.444
1671.19	728.889
1673.31	730.889
1675.43	718
1677.55	720.889
1679.66	713.778
1681.78	711.556
1683.9	719.111
1686.01	714.889
1688.13	706.889
1690.25	711.111
1692.36	708.444
1694.47	704.444
1696.59	703.111
1698.7	700
1700.81	699.111
1702.92	680.444
1705.03	692.889
1707.14	700.444
1709.25	696.889
1711.36	685.556
1713.47	691.333
1715.58	675.556
1717.68	674
1719.79	691.333
1721.89	690
1724	667.111
1726.1	672
1728.21	669.111
1730.31	674.667
1732.41	672.889
1734.51	673.111
1736.61	659.333
1738.71	654.889
1740.81	665.111
1742.91	652.222
1745.01	671.333
1747.11	662
1749.2	644.222
1751.3	650.445
1753.4	647.778
1755.49	656.444
1757.59	654.222
1759.68	645.333
1761.77	644.889
1763.86	644.667
1765.96	642
1768.05	642.889
1770.14	634.444
1772.23	640.889
1774.32	644.222
1776.41	641.556
1778.49	633.111
1780.58	642
1782.67	638.889
1784.76	632.222
1786.84	624
1788.92	634.222
1791.01	625.333
1793.09	628.445
1795.18	638.889
1797.26	616.889
1799.34	633.556
1801.42	622.889
1803.5	626.889
1805.58	625.111
1807.66	632.667
1809.74	631.111
1811.82	626
1813.89	618
1815.97	616.667
1818.05	616.222
1820.12	610.444
1822.2	623.778
1824.27	622.889
1826.34	616
1828.42	610.889
1830.49	603.778
1832.56	612.444
1834.63	614.222
1836.7	607.111
1838.77	623.556
1840.84	609.333
1842.91	610
1844.98	603.556
1847.04	609.556
1849.11	600.889
1851.18	601.778
1853.24	605.333
1855.31	595.778
1857.37	601.556
1859.43	597.778
1861.5	604.889
1863.56	598.889
1865.62	605.333
1867.68	597.111
1869.74	590
1871.8	593.333
1873.86	586.889
1875.92	599.556
1877.98	596.667
1880.03	589.111
1882.09	594.667
1884.15	596.667
1886.2	593.111
1888.26	589.333
1890.31	585.556
1892.36	599.556
1894.42	596.444
1896.47	594.222
1898.52	591.333
1900.57	589.778
1902.62	598.444
1904.67	596.222
1906.72	591.778
1908.77	597.778
1910.82	595.111
1912.86	595.333
1914.91	588.444
1916.96	590.667
1919	587.556
1921.04	590.667
1923.09	586.444
1925.13	587.111
1927.18	593.111
1929.22	578
1931.26	578
1933.3	593.556
1935.34	570.444
1937.38	575.333
1939.42	578.444
1941.46	585.111
1943.5	572
1945.53	585.333
1947.57	571.556
1949.61	576.889
1951.64	573.111
1953.68	577.778
1955.71	569.778
1957.75	575.333
1959.78	574
1961.81	567.111
1963.84	578.222
1965.87	563.333
1967.9	568.667
1969.93	562
1971.96	558
1973.99	561.778
1976.02	566.889
1978.05	569.778
1980.07	567.111
1982.1	570.889
1984.13	572.444
1986.15	569.556
1988.18	563.556
1990.2	579.111
1992.22	564.444
1994.25	564.222
1996.27	557.556
1998.29	565.778
2000.31	556.889
2002.33	568.222
2004.35	556.667
2006.37	554.222
2008.39	557.111
2010.41	555.111
2012.42	554
2014.44	550.667
2016.46	560.889
2018.47	555.111
2020.49	547.778
2022.5	558
2024.51	554.444
2026.53	552.667
2028.54	560
2030.55	548.667
2032.56	556.222
2034.57	562.444
2036.58	556
2038.59	556.444
2040.6	552
2042.61	561.778
2044.62	561.556
2046.62	547.333
2048.63	546.667
2050.64	556
2052.64	549.556
2054.65	542
2056.65	546.889
2058.65	547.111
2060.66	538.889
2062.66	540.889
2064.66	539.111
2066.66	543.556
2068.66	552
2070.66	530.667
2072.66	545.333
2074.66	541.333
2076.66	544
2078.65	532.889
2080.65	537.333
2082.65	536
2084.64	531.333
2086.64	538
2088.63	538.222
2090.63	538
2092.62	546.222
2094.61	537.333
2096.6	531.333
2098.59	524.444
2100.59	533.556
2102.58	533.111
2104.56	537.778
2106.55	532.444
2108.54	526.667
2110.53	532
2112.52	538.889
2114.5	544.667
2116.49	546.222
2118.48	536
2120.46	542.889
2122.44	553.556
2124.43	547.111
2126.41	546.667
2128.39	551.333
2130.38	566.889
2132.36	553.111
2134.34	541.556
2136.32	556.889
2138.3	556.667
2140.28	560.889
2142.26	544.444
2144.23	552.222
2146.21	541.778
2148.19	550.667
2150.16	552.889
2152.14	538.667
2154.11	539.556
2156.09	532
2158.06	542.667
2160.04	532.222
2162.01	530.667
2163.98	527.778
2165.95	522.889
2167.92	520.889
2169.89	513.778
2171.86	515.111
2173.83	520.222
2175.8	520.667
2177.77	507.333
2179.73	511.778
2181.7	510.222
2183.67	515.333
2185.63	516
2187.6	502.222
2189.56	503.111
2191.53	505.556
2193.49	504.889
2195.45	507.111
2197.41	510.667
2199.37	509.556
2201.34	491.778
2203.29	506.667
2205.26	505.556
2207.21	495.111
2209.17	502.889
2211.13	500.889
2213.09	495.333
2215.05	499.556
2217	498.667
2218.96	501.556
2220.91	501.556
2222.87	493.111
2224.82	490.222
2226.77	504.444
2228.73	486
2230.68	494.889
2232.63	486
2234.58	496.222
2236.53	496
2238.48	479.333
2240.43	487.333
2242.38	482.444
2244.33	479.778
2246.27	486.667
2248.22	473.111
2250.17	480
2252.11	483.556
2254.06	478
2256	470
2257.95	483.778
2259.89	465.556
2261.84	467.111
2263.78	466.222
2265.72	476.222
2267.66	468.667
2269.6	472.444
2271.54	473.111
2273.48	461.111
2275.42	455.778
2277.36	462.444
2279.3	460.889
2281.23	460.444
2283.17	462.444
2285.11	463.778
2287.04	459.333
2288.98	461.556
2290.91	460.444
2292.84	451.111
2294.78	454
2296.71	456
2298.64	463.111
2300.57	454.444
2302.51	459.111
2304.44	446.444
2306.37	459.333
2308.29	461.778
2310.22	455.111
2312.15	456.222
2314.08	450.444
2316.01	454.222
2317.93	447.556
2319.86	460.444
2321.78	444.667
2323.71	454
2325.63	448
2327.56	457.333
2329.48	455.333
2331.4	453.778
2333.32	443.556
2335.25	445.778
2337.17	454
2339.09	443.778
2341.01	451.333
2342.92	433.111
2344.84	439.778
2346.76	428.667
2348.68	453.556
2350.6	443.111
2352.51	438.889
2354.43	439.778
2356.34	437.333
2358.26	438
2360.17	430.222
2362.09	449.556
2364	445.333
2365.91	443.556
2367.82	437.111
2369.73	439.556
2371.64	429.333
2373.55	431.333
2375.46	435.111
2377.37	422.222
2379.28	434.222
2381.19	436
2383.1	424.667
2385	428
2386.91	425.111
2388.82	425.111
2390.72	430.667
2392.62	425.556
2394.53	416
2396.43	422.889
2398.33	430
2400.24	423.778
2402.14	420.889
2404.04	419.778
2405.94	416.889
2407.84	429.111
2409.74	429.111
2411.64	426.222
2413.54	422.444
2415.44	425.556
2417.33	418.444
2419.23	418.222
2421.13	422
2423.02	434.667
2424.92	421.111
2426.81	417.333
2428.71	420.667
2430.6	438.444
2432.49	426.222
2434.38	415.778
2436.28	412.222
2438.17	420.667
2440.06	422.889
2441.95	419.333
2443.84	411.556
2445.73	410.667
