176.817	602.889
179.42	604.889
182.022	583.111
184.622	589.333
187.223	571.556
189.821	581.111
192.419	574
195.017	573.333
197.612	591.111
200.208	572.444
202.802	592.667
205.397	587.111
207.99	583.111
210.581	595.778
213.173	606.222
215.762	594.889
218.352	605.333
220.94	608.889
223.528	606
226.114	599.778
228.701	621.333
231.285	615.556
233.87	623.111
236.452	632.222
239.034	620.444
241.616	632
244.196	626.444
246.777	637.333
249.355	643.111
251.933	638.667
254.511	646
257.086	636.444
259.663	642
262.237	646.667
264.81	635.111
267.383	639.556
269.955	636
272.525	629.333
275.097	624.222
277.665	622.667
280.234	610
282.802	622.222
285.368	618
287.934	608.222
290.499	616
293.064	601.778
295.627	609.111
298.189	618
300.75	615.333
303.312	612.444
305.871	606.667
308.43	611.111
310.988	593.556
313.545	594.889
316.101	589.111
318.658	587.333
321.212	577.333
323.766	576
326.319	580.222
328.871	578.889
331.422	579.111
333.972	577.333
336.522	578.222
339.072	581.333
341.619	580.667
344.166	586.444
346.712	585.778
349.258	588.222
351.802	587.556
354.346	576.222
356.888	573.778
359.43	578
361.971	588
364.511	598
367.051	586.222
369.589	588.889
372.127	592.889
374.664	600.889
377.2	616.889
379.735	613.111
382.27	610.444
384.802	603.333
387.334	591.556
389.866	594.667
392.397	585.556
394.927	572
397.457	579.555
399.985	570.222
402.513	586.445
405.038	584
407.565	590.667
410.09	579.556
412.614	578.444
415.138	578
417.66	585.778
420.181	592
422.702	584.667
425.222	600
427.742	582
430.259	589.556
432.777	594.222
435.294	600.667
437.81	608.444
440.324	589.556
442.838	595.556
445.352	578
447.863	596.667
450.375	584.667
452.887	593.556
455.395	584.444
457.905	602.667
460.414	605.778
462.92	596
465.427	585.778
467.932	578.667
470.438	584
472.942	585.778
475.445	587.333
477.948	581.333
480.448	579.111
482.95	598
485.449	594.222
487.949	577.778
490.446	575.556
492.944	597.778
495.44	592
497.937	583.556
500.431	603.111
502.926	599.556
505.418	594.667
507.912	582.222
510.403	600.444
512.894	596.444
515.384	593.333
517.874	595.556
520.361	607.111
522.848	606.667
525.336	596.444
527.821	585.333
530.306	586.667
532.791	585.111
535.274	578.667
537.756	582
540.238	590.222
542.719	583.778
545.199	582.667
547.679	583.556
550.157	590.889
552.634	595.778
555.112	587.111
557.588	602.445
560.063	600.889
562.537	592.222
565.011	611.778
567.484	606.222
569.955	598.889
572.426	605.778
574.896	612.889
577.367	598.667
579.835	592.222
582.303	604.222
584.77	604.667
587.236	589.778
589.701	593.333
592.165	594.889
594.629	594.222
597.093	617.111
599.555	596.222
602.016	612.667
604.477	592.889
606.936	602.444
609.395	599.333
611.853	616.222
614.311	613.778
616.767	609.778
619.223	609.111
621.678	620.889
624.132	619.111
626.585	607.778
629.037	611.778
631.489	616.667
633.94	595.778
636.39	614.444
638.839	617.556
641.288	618
643.736	618
646.183	611.111
648.627	626.889
651.073	624
653.517	624.444
655.961	631.778
658.404	615.333
660.846	605.111
663.288	607.556
665.727	609.333
668.167	605.556
670.606	600.667
673.044	613.111
675.482	600.667
677.917	613.556
680.353	623.778
682.788	612
685.222	611.111
687.655	612.889
690.087	616.889
692.519	610.444
694.951	615.333
697.38	612.444
699.809	606.889
702.238	620.889
704.665	621.111
707.092	615.778
709.519	620.889
711.943	622.667
714.368	612.444
716.791	617.111
719.214	614.444
721.637	610.222
724.058	607.778
726.479	628.444
728.898	616.222
731.317	615.778
733.734	622
736.152	616.667
738.568	609.111
740.985	608.889
743.399	610
745.814	619.556
748.227	611.555
750.64	615.333
753.051	610.667
755.463	611.778
757.872	610
760.283	603.333
762.691	611.556
765.098	602.667
767.506	605.333
769.912	604.889
772.318	602.667
774.722	608.444
777.126	614.222
779.53	618.889
781.932	619.778
784.333	620.444
786.735	624.444
789.135	631.111
791.533	612.444
793.933	615.111
796.33	620.889
798.727	627.111
801.123	621.778
803.519	626.889
805.913	616.444
808.307	624.444
810.699	628.222
813.093	627.556
815.484	632.889
817.874	624.667
820.264	639.778
822.653	637.333
825.041	629.778
827.43	615.556
829.817	639.778
832.203	628.889
834.588	624.444
836.972	623.111
839.356	634.222
841.738	628
844.12	628.889
846.502	633.111
848.882	627.778
851.262	626.889
853.641	645.778
856.02	624.444
858.397	636.667
860.774	638
863.15	642.444
865.525	659.778
867.9	649.556
870.273	649.778
872.646	649.778
875.019	634.667
877.39	653.111
879.761	639.111
882.131	638.889
884.5	651.556
886.869	642.444
889.236	639.778
891.602	641.556
893.968	644.667
896.334	644.444
898.698	640.667
901.062	645.333
903.426	641.333
905.787	646.889
908.148	627.556
910.509	636.889
912.87	642.444
915.228	627.556
917.587	638.667
919.945	624.222
922.302	636.444
924.657	619.556
927.013	626
929.368	613.556
931.721	627.111
934.074	626.667
936.427	634.222
938.778	638
941.129	621.556
943.479	627.333
945.828	628.222
948.177	621.778
950.524	610.444
952.871	621.333
955.218	622
957.563	625.333
959.908	624.222
962.252	624.222
964.595	635.333
966.937	633.111
969.28	630.667
971.62	618.222
973.961	637.333
976.3	629.778
978.639	629.333
980.976	629.778
983.314	624
985.65	635.333
987.987	626.889
990.321	636
992.655	627.333
994.989	628.889
997.321	640
999.653	636.444
1001.98	623.556
1004.31	640.222
1006.65	626
1008.97	624
1011.3	627.778
1013.63	629.556
1015.96	627.333
1018.28	636.444
1020.61	621.556
1022.93	632.444
1025.26	622.444
1027.58	622.667
1029.9	614.444
1032.22	626.667
1034.54	627.333
1036.86	637.333
1039.18	624
1041.5	628.889
1043.82	618.667
1046.14	642.667
1048.45	639.778
1050.77	640.889
1053.08	648.889
1055.4	640.667
1057.71	650.222
1060.02	649.333
1062.33	642.444
1064.64	646.222
1066.96	638.445
1069.27	640.889
1071.57	653.556
1073.88	653.111
1076.19	649.333
1078.5	654.889
1080.8	658
1083.11	668.889
1085.41	666
1087.72	675.333
1090.02	695.778
1092.32	690.667
1094.62	718.889
1096.92	718
1099.22	731.778
1101.52	710.444
1103.82	701.111
1106.12	705.111
1108.42	693.333
1110.71	691.333
1113.01	699.333
1115.3	688.667
1117.6	708.222
1119.89	708.222
1122.18	713.333
1124.48	722
1126.77	728.667
1129.06	713.333
1131.35	713.333
1133.64	713.778
1135.93	718.444
1138.21	711.111
1140.5	712.667
1142.79	717.333
1145.07	707.778
1147.36	708.889
1149.64	713.556
1151.92	724.889
1154.21	720.445
1156.49	726.667
1158.77	716
1161.05	720.889
1163.33	714.667
1165.61	711.111
1167.89	703.556
1170.16	702.444
1172.44	693.333
1174.72	691.111
1176.99	687.556
1179.27	688.667
1181.54	683.556
1183.81	690
1186.09	692
1188.36	689.778
1190.63	678.444
1192.9	669.778
1195.17	697.111
1197.44	684.889
1199.71	688
1201.97	699.333
1204.24	689.556
1206.5	697.556
1208.77	694
1211.03	698.444
1213.3	696.667
1215.56	706.889
1217.82	707.333
1220.09	703.778
1222.35	718.222
1224.61	714.222
1226.87	711.111
1229.12	719.111
1231.38	731.778
1233.64	736
1235.9	744.444
1238.15	751.778
1240.41	754.222
1242.66	743.556
1244.92	752
1247.17	740.667
1249.42	726.222
1251.67	724.444
1253.92	734.222
1256.17	725.333
1258.42	728.222
1260.67	727.333
1262.92	742.444
1265.17	740.222
1267.42	748.444
1269.66	756
1271.91	739.333
1274.15	739.333
1276.39	729.111
1278.64	734
1280.88	749.556
1283.12	736
1285.36	735.778
1287.6	736.667
1289.84	738
1292.08	724.889
1294.32	737.111
1296.56	735.556
1298.79	730.445
1301.03	738.444
1303.26	738.667
1305.5	737.333
1307.73	732.222
1309.97	726.444
1312.2	733.556
1314.43	741.333
1316.66	728
1318.89	739.111
1321.12	738.444
1323.35	739.778
1325.58	722.889
1327.81	732.889
1330.03	735.778
1332.26	747.111
1334.49	753.111
1336.71	754.889
1338.94	750.667
1341.16	741.333
1343.38	763.333
1345.6	742.222
1347.83	738.222
1350.05	740
1352.27	731.778
1354.49	749.111
1356.7	749.333
1358.92	750
1361.14	757.333
1363.36	768
1365.57	776.444
1367.79	777.333
1370	805.333
1372.21	805.556
1374.43	796.667
1376.64	802.222
1378.85	800.667
1381.06	780.444
1383.27	773.333
1385.48	758.444
1387.69	762.222
1389.9	746.444
1392.11	754.222
1394.31	741.333
1396.52	755.556
1398.73	745.778
1400.93	740.667
1403.13	750.667
1405.34	748
1407.54	754.667
1409.74	748.889
1411.94	757.778
1414.14	770.444
1416.34	768.889
1418.54	787.111
1420.74	770
1422.94	770.222
1425.14	755.333
1427.33	750.222
1429.53	746.222
1431.72	736.444
1433.92	731.333
1436.11	731.778
1438.3	728
1440.5	737.555
1442.69	748.889
1444.88	742
1447.07	756.444
1449.26	742.444
1451.45	750.444
1453.64	752.222
1455.82	762.222
1458.01	762.444
1460.2	754.444
1462.38	757.333
1464.57	762.667
1466.75	775.111
1468.93	756.444
1471.12	762
1473.3	762.222
1475.48	769.778
1477.66	769.556
1479.84	759.778
1482.02	760.889
1484.2	748.889
1486.38	735.333
1488.55	744.667
1490.73	756
1492.91	750.667
1495.08	767.111
1497.26	758.667
1499.43	756.222
1501.61	757.333
1503.78	762.222
1505.95	773.556
1508.12	765.111
1510.29	773.333
1512.46	764
1514.63	770.222
1516.8	788.889
1518.97	776.889
1521.14	784
1523.3	771.111
1525.47	791.333
1527.63	781.333
1529.8	788
1531.96	782
1534.12	784.889
1536.29	800.444
1538.45	790.444
1540.61	806.444
1542.77	816.222
1544.93	823.778
1547.09	832.889
1549.25	851.778
1551.41	854.667
1553.56	841.778
1555.72	841.556
1557.88	844
1560.03	842
1562.18	826.889
1564.34	836.444
1566.49	839.333
1568.64	841.333
1570.8	845.111
1572.95	836.667
1575.1	846
1577.25	857.111
1579.4	848.445
1581.55	848
1583.69	843.556
1585.84	856
1587.99	858.889
1590.13	839.778
1592.28	857.778
1594.42	856
1596.57	836
1598.71	830.667
1600.85	801.111
1602.99	810.667
1605.14	795.333
1607.28	792.222
1609.42	783.778
1611.56	780.444
1613.69	770.222
1615.83	757.111
1617.97	760.667
1620.11	725.111
1622.24	722.222
1624.38	712.222
1626.51	688.667
1628.65	689.333
1630.78	687.556
1632.91	663.333
1635.04	653.333
1637.17	659.333
1639.31	643.111
1641.44	640.222
1643.57	636
1645.69	632
1647.82	614.445
1649.95	618.889
1652.08	621.556
1654.2	614.889
1656.33	619.333
1658.45	610.667
1660.58	595.333
1662.7	607.778
1664.82	602.444
1666.94	580
1669.07	600
1671.19	595.111
1673.31	598
1675.43	586.222
1677.55	589.111
1679.66	592.222
1681.78	572.889
1683.9	569.333
1686.01	583.778
1688.13	571.556
1690.25	575.556
1692.36	560.222
1694.47	568.222
1696.59	552.444
1698.7	564.889
1700.81	564.222
1702.92	557.111
1705.03	557.556
1707.14	551.778
1709.25	555.555
1711.36	554.222
1713.47	547.778
1715.58	549.111
1717.68	559.333
1719.79	550.667
1721.89	542.444
1724	545.111
1726.1	550
1728.21	547.111
1730.31	536.889
1732.41	532.444
1734.51	522.667
1736.61	531.333
1738.71	532.222
1740.81	530.444
1742.91	519.778
1745.01	533.778
1747.11	527.556
1749.2	535.778
1751.3	529.556
1753.4	516.667
1755.49	517.778
1757.59	506.444
1759.68	522
1761.77	516.889
1763.86	513.333
1765.96	516.889
1768.05	512.889
1770.14	512
1772.23	523.333
1774.32	499.556
1776.41	498.222
1778.49	506.889
1780.58	499.333
1782.67	501.333
1784.76	505.333
1786.84	513.556
1788.92	503.556
1791.01	506.889
1793.09	506.889
1795.18	487.333
1797.26	510
1799.34	498.667
1801.42	509.556
1803.5	508.889
1805.58	508
1807.66	502.667
1809.74	495.333
1811.82	499.111
1813.89	498.667
1815.97	503.111
1818.05	500.444
1820.12	500.222
1822.2	496.444
1824.27	494.222
1826.34	490.889
1828.42	502.222
1830.49	500
1832.56	496.667
1834.63	496
1836.7	485.778
1838.77	494.222
1840.84	491.333
1842.91	496
1844.98	484.889
1847.04	491.778
1849.11	488.667
1851.18	494
1853.24	475.556
1855.31	482.444
1857.37	482.444
1859.43	484
1861.5	479.778
1863.56	476.889
1865.62	489.778
1867.68	482.222
1869.74	477.333
1871.8	480.667
1873.86	480.667
1875.92	477.111
1877.98	466.889
1880.03	479.778
1882.09	472.444
1884.15	470.444
1886.2	483.778
1888.26	470.889
1890.31	475.556
1892.36	474.444
1894.42	477.111
1896.47	475.778
1898.52	469.111
1900.57	474.222
1902.62	464.222
1904.67	478.667
1906.72	473.556
1908.77	473.556
1910.82	481.111
1912.86	480.667
1914.91	474.667
1916.96	474
1919	469.556
1921.04	473.556
1923.09	469.556
1925.13	468
1927.18	465.333
1929.22	460.889
1931.26	480.889
1933.3	472.667
1935.34	465.111
1937.38	464.667
1939.42	476.444
1941.46	456.889
1943.5	460.889
1945.53	459.333
1947.57	466.444
1949.61	466.667
1951.64	468
1953.68	461.111
1955.71	456
1957.75	452.222
1959.78	460.222
1961.81	457.333
1963.84	452.667
1965.87	462
1967.9	455.111
1969.93	458.889
1971.96	453.333
1973.99	452.222
1976.02	451.111
1978.05	459.556
1980.07	449.556
1982.1	443.556
1984.13	449.778
1986.15	452.222
1988.18	453.778
1990.2	452.444
1992.22	456.222
1994.25	458.667
1996.27	445.556
1998.29	458.444
2000.31	445.778
2002.33	447.778
2004.35	458.667
2006.37	443.556
2008.39	446.889
2010.41	447.556
2012.42	443.333
2014.44	451.778
2016.46	450.889
2018.47	444.444
2020.49	448.667
2022.5	446.444
2024.51	450.222
2026.53	455.556
2028.54	449.556
2030.55	453.556
2032.56	448.667
2034.57	452.444
2036.58	446.889
2038.59	447.556
2040.6	442.222
2042.61	441.111
2044.62	444
2046.62	439.778
2048.63	441.333
2050.64	452
2052.64	434.444
2054.65	447.333
2056.65	435.556
2058.65	437.111
2060.66	443.556
2062.66	439.778
2064.66	436.889
2066.66	433.111
2068.66	440.889
2070.66	433.556
2072.66	425.556
2074.66	441.111
2076.66	431.333
2078.65	431.556
2080.65	436
2082.65	432.222
2084.64	434.889
2086.64	430
2088.63	430.222
2090.63	430.444
2092.62	427.778
2094.61	438.444
2096.6	433.556
2098.59	432.667
2100.59	440.444
2102.58	427.556
2104.56	423.778
2106.55	428.222
2108.54	427.778
2110.53	436.889
2112.52	433.778
2114.5	435.778
2116.49	438.667
2118.48	448
2120.46	436.667
2122.44	453.778
2124.43	458.889
2126.41	451.778
2128.39	450.667
2130.38	458.667
2132.36	452.222
2134.34	458.222
2136.32	466.889
2138.3	445.556
2140.28	453.778
2142.26	449.333
2144.23	452
2146.21	452.889
2148.19	454.889
2150.16	451.778
2152.14	450.444
2154.11	439.111
2156.09	438.222
2158.06	428.889
2160.04	435.778
2162.01	429.333
2163.98	420.667
2165.95	437.111
2167.92	423.778
2169.89	422
2171.86	418.667
2173.83	416.222
2175.8	414
2177.77	414.444
2179.73	416.444
2181.7	411.333
2183.67	412.222
2185.63	416.444
2187.6	414
2189.56	405.333
2191.53	416.222
2193.49	409.333
2195.45	411.333
2197.41	411.556
2199.37	395.778
2201.34	406.222
2203.29	390.667
2205.26	397.778
2207.21	393.556
2209.17	393.778
2211.13	403.778
2213.09	398.889
2215.05	409.111
2217	400.444
2218.96	385.556
2220.91	398.889
2222.87	396.444
2224.82	391.556
2226.77	391.111
2228.73	390.444
2230.68	396
2232.63	394
2234.58	385.778
2236.53	393.556
2238.48	397.778
2240.43	391.778
2242.38	385.556
2244.33	384
2246.27	387.778
2248.22	385.556
2250.17	385.111
2252.11	379.778
2254.06	392.889
2256	384.222
2257.95	383.556
2259.89	385.778
2261.84	384
2263.78	378.222
2265.72	375.556
2267.66	381.778
2269.6	377.556
2271.54	382.444
2273.48	379.556
2275.42	369.111
2277.36	368.889
2279.3	374.222
2281.23	375.111
2283.17	373.556
2285.11	359.778
2287.04	376
2288.98	370.889
2290.91	365.778
2292.84	371.778
2294.78	359.111
2296.71	365.556
2298.64	364
2300.57	372.444
2302.51	368.667
2304.44	362
2306.37	365.778
2308.29	368.222
2310.22	366.222
2312.15	363.778
2314.08	370.667
2316.01	365.111
2317.93	367.556
2319.86	360.889
2321.78	364.667
2323.71	356.444
2325.63	358.667
2327.56	367.333
2329.48	364.889
2331.4	363.778
2333.32	367.333
2335.25	362.444
2337.17	359.556
2339.09	359.111
2341.01	367.778
2342.92	356.222
2344.84	361.333
2346.76	349.333
2348.68	359.778
2350.6	355.556
2352.51	356.222
2354.43	354.444
2356.34	356
2358.26	357.111
2360.17	356.667
2362.09	353.778
2364	359.111
2365.91	356
2367.82	350
2369.73	348
2371.64	350.222
2373.55	354
2375.46	342
2377.37	345.778
2379.28	351.333
2381.19	345.556
2383.1	342
2385	348
2386.91	353.111
2388.82	346.444
2390.72	345.111
2392.62	350.444
2394.53	348.222
2396.43	339.778
2398.33	348
2400.24	352.667
2402.14	342.222
2404.04	342.222
2405.94	339.333
2407.84	342.667
2409.74	351.556
2411.64	339.556
2413.54	340.667
2415.44	342.667
2417.33	342.444
2419.23	343.778
2421.13	338.889
2423.02	341.111
2424.92	338.444
2426.81	342.444
2428.71	337.333
2430.6	346.222
2432.49	338.444
2434.38	332.444
2436.28	340.889
2438.17	343.111
2440.06	324
2441.95	337.556
2443.84	338.444
2445.73	328.667
