178.677	259.556
181.278	262.667
183.879	261.111
186.48	256.667
189.078	253.333
191.677	250.889
194.275	249.333
196.871	254
199.467	252
202.061	252.444
204.656	250
207.248	248.889
209.841	258
212.431	254.667
215.022	260.889
217.613	262
220.201	266
222.789	268.889
225.375	270.889
227.962	277.556
230.547	276
233.13	277.111
235.714	281.556
238.296	278.889
240.879	284
243.459	284.667
246.04	278.667
248.618	287.333
251.196	276.889
253.774	284.222
256.35	282.667
258.927	275.556
261.501	274.222
264.074	265.778
266.648	258
269.22	256.222
271.791	253.111
274.362	247.556
276.931	238.889
279.5	233.778
282.069	238.222
284.635	232.222
287.201	226.667
289.766	219.556
292.331	222.444
294.894	217.778
297.457	211.556
300.018	206.222
302.58	215.333
305.14	214.889
307.699	209.333
310.257	209.778
312.814	206
315.372	202.444
317.928	212.222
320.482	206.667
323.036	212
325.589	205.556
328.142	204.889
330.693	210.889
333.243	213.556
335.795	205.556
338.343	216
340.891	212
343.439	215.111
345.985	216.889
348.53	217.556
351.075	214.667
353.619	218
356.162	216
358.704	214
361.245	217.778
363.786	220.222
366.325	218.444
368.864	217.111
371.402	223.556
373.939	220
376.475	227.778
379.011	222.667
381.545	223.556
384.079	224
386.612	214.222
389.144	228.444
391.674	226
394.204	221.111
396.734	223.333
399.263	222.667
401.791	220.444
404.318	223.333
406.844	221.556
409.368	227.778
411.893	230.667
414.417	235.333
416.94	239.556
419.462	231.333
421.982	226.444
424.502	224.889
427.022	233.111
429.541	224.667
432.057	233.111
434.574	228.222
437.091	228.889
439.606	228.889
442.12	229.111
444.634	223.333
447.147	228.222
449.657	233.778
452.169	226.667
454.68	230.889
457.188	227.333
459.697	233.111
462.205	232.667
464.711	229.111
467.217	230.222
469.722	234.667
472.227	234.889
474.731	234
477.232	232
479.735	233.111
482.235	238
484.736	241.111
487.234	238.667
489.734	247.333
492.23	243.111
494.728	239.111
497.223	248.222
499.719	245.111
502.213	244.889
504.707	254.889
507.199	252.444
509.692	254.889
512.182	255.111
514.673	263.333
517.162	258.889
519.65	259.556
522.139	259.778
524.625	259.111
527.112	266
529.597	260.444
532.081	270.222
534.565	269.333
537.047	266
539.529	263.556
542.011	270.667
544.491	275.778
546.97	276
549.45	282.889
551.927	286
554.404	285.556
556.88	288.222
559.356	284.889
561.831	286.889
564.304	292.444
566.777	297.333
569.25	297.333
571.721	286.667
574.191	296.222
576.661	296.667
579.129	303.778
581.599	310.667
584.066	305.111
586.532	293.333
588.997	291.111
591.462	298.444
593.926	290.889
596.389	289.333
598.851	288
601.314	275.556
603.775	279.111
606.235	270.889
608.694	277.778
611.152	282.889
613.609	270.889
616.066	280.222
618.522	278
620.977	272.222
623.431	270.222
625.885	275.111
628.338	274.667
630.79	276.444
633.241	268.889
635.691	276.667
638.141	274
640.589	282.889
643.036	274
645.483	269.778
647.929	287.111
650.375	275.778
652.82	276.889
655.264	266.667
657.707	268.444
660.149	269.111
662.59	267.333
665.031	267.556
667.471	276.222
669.91	268.222
672.349	262.667
674.786	267.111
677.222	264.889
679.658	266.889
682.093	264
684.528	262.222
686.96	268.444
689.393	260.667
691.826	260.222
694.256	259.111
696.686	264
699.116	267.333
701.545	264.222
703.972	262
706.4	263.556
708.826	264.222
711.251	259.778
713.676	263.333
716.099	264.222
718.523	263.556
720.946	262
723.366	257.778
725.788	256.444
728.207	259.556
730.627	262.667
733.044	259.556
735.462	264.444
737.88	258
740.295	263.556
742.711	264.222
745.125	266
747.539	265.333
749.951	271.333
752.363	259.333
754.775	269.333
757.185	264.444
759.595	264
762.003	263.111
764.412	262.222
766.819	274.667
769.225	270.667
771.632	266.222
774.036	270.889
776.441	265.778
778.844	266.667
781.246	268.444
783.649	279.778
786.05	268.667
788.449	276
790.85	266.222
793.248	267.556
795.646	274.444
798.042	280.889
800.44	274.889
802.835	279.556
805.23	281.778
807.623	278
810.018	279.556
812.41	275.778
814.801	280.444
817.192	268.444
819.582	278.222
821.972	268.222
824.361	276.667
826.748	270
829.135	272.222
831.521	284.667
833.907	276.222
836.291	280
838.675	279.556
841.059	272.889
843.442	287.556
845.823	280.889
848.204	290.889
850.584	291.111
852.963	288.889
855.342	300.222
857.72	306.222
860.097	305.556
862.473	303.333
864.848	302.444
867.223	293.333
869.597	293.778
871.97	282.889
874.343	292
876.714	284.222
879.084	287.778
881.454	288.889
883.824	282.222
886.192	292
888.56	275.778
890.927	279.333
893.294	273.778
895.66	280.889
898.023	284.667
900.387	284.444
902.751	284
905.114	278
907.476	277.111
909.835	285.556
912.196	278.444
914.555	282.444
916.914	280.667
919.271	276.889
921.629	286.444
923.985	276.667
926.341	284
928.695	279.778
931.05	282.667
933.404	288.444
935.755	284.444
938.107	287.333
940.459	283.333
942.808	280.667
945.158	289.778
947.508	288
949.855	281.333
952.202	284.222
954.548	279.333
956.894	284.444
959.239	288.444
961.583	282.889
963.928	289.111
966.27	296
968.612	292.222
970.953	291.556
973.294	287.778
975.633	291.333
977.972	288.444
980.31	303.111
982.647	285.111
984.984	302.667
987.32	299.556
989.656	297.778
991.989	305.333
994.324	301.333
996.656	305.333
998.988	315.556
1001.32	325.556
1003.65	342.444
1005.98	371.778
1008.31	426.222
1010.64	510.222
1012.97	594.444
1015.29	586.889
1017.62	520.444
1019.94	460.444
1022.27	422.889
1024.59	394.889
1026.92	359.556
1029.24	338.889
1031.56	336
1033.88	359.556
1036.2	396.222
1038.52	439.111
1040.84	414.444
1043.16	364.222
1045.48	335.111
1047.79	335.556
1050.11	321.778
1052.42	322.444
1054.74	318.667
1057.05	304.222
1059.36	316.444
1061.67	314.667
1063.99	314
1066.3	306
1068.61	309.111
1070.92	314
1073.22	310.444
1075.53	309.556
1077.84	304
1080.15	314.222
1082.45	300.222
1084.76	298.667
1087.06	302.889
1089.36	305.778
1091.66	297.778
1093.97	299.333
1096.27	299.333
1098.57	300.667
1100.87	312
1103.17	309.111
1105.46	307.111
1107.76	310.889
1110.06	314.889
1112.35	311.778
1114.65	308.889
1116.94	306.667
1119.24	315.556
1121.53	306.222
1123.82	302.444
1126.11	296.889
1128.4	306.222
1130.7	301.778
1132.98	300.667
1135.27	306.222
1137.56	298.222
1139.85	306.667
1142.13	308.667
1144.42	311.111
1146.71	309.778
1148.99	319.333
1151.27	323.111
1153.56	317.778
1155.84	322
1158.12	316.667
1160.4	320
1162.68	312.667
1164.96	313.778
1167.24	310.889
1169.51	302
1171.79	310.444
1174.07	316.667
1176.34	312.222
1178.62	316.444
1180.89	317.111
1183.17	320.444
1185.44	312.222
1187.71	312.222
1189.98	318.889
1192.25	316.222
1194.52	319.111
1196.79	319.556
1199.06	309.778
1201.33	325.333
1203.59	317.111
1205.86	321.556
1208.12	325.333
1210.39	323.556
1212.65	320.889
1214.92	323.556
1217.18	323.778
1219.44	326.444
1221.7	320.222
1223.96	319.778
1226.22	318.889
1228.48	321.556
1230.74	328.222
1233	346.889
1235.25	336
1237.51	343.778
1239.77	335.556
1242.02	337.111
1244.27	328.667
1246.53	327.778
1248.78	338
1251.03	328.444
1253.28	323.111
1255.53	329.556
1257.78	333.333
1260.03	337.333
1262.28	331.778
1264.53	345.111
1266.78	336.444
1269.02	343.556
1271.27	340
1273.51	344.222
1275.76	352
1278	347.556
1280.24	342.667
1282.48	335.111
1284.72	340.444
1286.97	333.556
1289.21	336.444
1291.44	323.778
1293.68	330.889
1295.92	336
1298.16	327.556
1300.39	338
1302.63	332.222
1304.86	332.889
1307.1	320
1309.33	333.111
1311.56	328
1313.8	332.667
1316.03	339.111
1318.26	323.333
1320.49	329.778
1322.72	334.889
1324.95	338.889
1327.17	336
1329.4	343.333
1331.63	337.556
1333.85	336
1336.08	334.222
1338.3	344.667
1340.53	336.222
1342.75	344
1344.97	346
1347.19	348.889
1349.41	348.444
1351.63	343.111
1353.85	345.111
1356.07	339.556
1358.29	340.889
1360.51	336.889
1362.72	344.667
1364.94	340.222
1367.16	338.889
1369.37	340
1371.58	340
1373.8	333.333
1376.01	333.111
1378.22	333.111
1380.43	327.556
1382.64	340.222
1384.85	330
1387.06	329.556
1389.27	329.556
1391.48	330
1393.68	328.444
1395.89	328
1398.1	332.222
1400.3	328.444
1402.51	322.222
1404.71	327.111
1406.91	326.667
1409.11	324.667
1411.32	318.889
1413.52	318.667
1415.72	318.889
1417.92	330.444
1420.11	326
1422.31	336
1424.51	338.222
1426.71	331.333
1428.9	333.778
1431.1	331.333
1433.29	340.667
1435.49	334
1437.68	334.444
1439.87	333.778
1442.06	335.778
1444.25	330
1446.45	331.333
1448.64	334.889
1450.82	328.889
1453.01	327.556
1455.2	330.889
1457.39	329.778
1459.57	334.444
1461.76	343.556
1463.94	333.111
1466.13	329.556
1468.31	330
1470.5	329.111
1472.68	320.667
1474.86	326.889
1477.04	325.556
1479.22	336.444
1481.4	341.111
1483.58	332.889
1485.76	328
1487.94	326.222
1490.11	333.333
1492.29	330.444
1494.46	333.778
1496.64	337.778
1498.81	334.222
1500.99	328
1503.16	336
1505.33	330.222
1507.5	334.889
1509.67	336.222
1511.84	331.778
1514.01	339.556
1516.18	341.111
1518.35	327.778
1520.52	331.333
1522.68	332.889
1524.85	333.111
1527.02	329.778
1529.18	339.333
1531.35	339.333
1533.51	343.333
1535.67	344.222
1537.83	344.889
1539.99	334.667
1542.16	342
1544.31	342.444
1546.47	341.333
1548.63	339.556
1550.79	337.556
1552.95	341.556
1555.11	333.333
1557.26	347.111
1559.42	346
1561.57	339.778
1563.73	343.111
1565.88	349.111
1568.03	351.333
1570.18	353.111
1572.34	350.222
1574.49	357.556
1576.64	345.333
1578.79	351.333
1580.93	346.667
1583.08	348.889
1585.23	346.222
1587.38	356.444
1589.52	358.667
1591.67	367.111
1593.81	370.667
1595.96	381.333
1598.1	389.778
1600.24	391.778
1602.38	388.889
1604.53	383.333
1606.67	376.444
1608.81	372.222
1610.95	362.222
1613.09	362.667
1615.22	353.556
1617.36	348.444
1619.5	345.778
1621.63	340.444
1623.77	350.222
1625.9	348
1628.04	335.778
1630.17	339.778
1632.3	339.333
1634.44	346.889
1636.57	334.889
1638.7	337.778
1640.83	332.889
1642.96	328.667
1645.09	328.444
1647.22	329.333
1649.34	321.778
1651.47	330.222
1653.6	316.667
1655.72	322.667
1657.85	321.556
1659.97	320.889
1662.1	311.556
1664.22	316.667
1666.34	322.667
1668.46	314.222
1670.58	312.667
1672.7	309.111
1674.82	310.222
1676.94	315.111
1679.06	308.444
1681.18	307.333
1683.3	308.222
1685.41	312
1687.53	308.222
1689.64	307.111
1691.76	296.667
1693.87	295.111
1695.99	306.667
1698.1	302.667
1700.21	300.444
1702.32	300.222
1704.43	300.889
1706.54	306
1708.65	296.889
1710.76	302.889
1712.87	298.222
1714.98	296.889
1717.08	300
1719.19	297.556
1721.29	295.111
1723.4	299.556
1725.5	296.667
1727.61	297.333
1729.71	297.556
1731.81	300.222
1733.91	302.889
1736.02	290.222
1738.12	295.556
1740.22	287.333
1742.31	298.222
1744.41	285.778
1746.51	296
1748.61	292.222
1750.7	294.667
1752.8	292.444
1754.9	298
1756.99	295.333
1759.08	294
1761.18	288
1763.27	288.667
1765.36	285.111
1767.45	288.222
1769.54	293.556
1771.63	284.222
1773.72	286.222
1775.81	292.222
1777.9	284.889
1779.99	288.222
1782.08	286.667
1784.16	289.111
1786.25	287.333
1788.33	288.889
1790.42	279.333
1792.5	278.667
1794.58	280.889
1796.67	285.556
1798.75	282.667
1800.83	287.333
1802.91	283.556
1804.99	286
1807.07	286.667
1809.15	289.111
1811.23	283.111
1813.3	285.556
1815.38	289.778
1817.46	278.667
1819.53	283.556
1821.61	280
1823.68	283.111
1825.75	281.333
1827.83	281.556
1829.9	282.667
1831.97	281.111
1834.04	277.778
1836.11	277.556
1838.18	274.222
1840.25	279.556
1842.32	282.444
1844.39	284.222
1846.46	276.889
1848.52	277.778
1850.59	285.556
1852.65	282.444
1854.72	275.778
1856.78	281.111
1858.85	274.667
1860.91	274.444
1862.97	282.889
1865.03	273.778
1867.09	272.222
1869.16	274.222
1871.22	279.778
1873.27	272.222
1875.33	265.333
1877.39	278
1879.45	274
1881.51	277.333
1883.56	270.889
1885.62	271.556
1887.67	273.111
1889.73	278.222
1891.78	277.556
1893.83	272.444
1895.89	285.778
1897.94	274.889
1899.99	271.111
1902.04	276.222
1904.09	264
1906.14	269.333
1908.19	273.111
1910.23	278.889
1912.28	278.222
1914.33	275.111
1916.37	277.333
1918.42	270.444
1920.46	272
1922.51	274.444
1924.55	274.444
1926.6	279.333
1928.64	274.222
1930.68	267.778
1932.72	285.333
1934.76	271.333
1936.8	274.667
1938.84	275.333
1940.88	272.444
1942.92	278.889
1944.96	275.778
1946.99	268
1949.03	273.556
1951.06	272.222
1953.1	275.111
1955.13	266
1957.17	266.222
1959.2	268.889
1961.23	262.222
1963.27	269.778
1965.3	272.889
1967.33	271.333
1969.36	271.778
1971.39	278.444
1973.42	261.111
1975.44	269.556
1977.47	265.556
1979.5	265.111
1981.53	265.111
1983.55	271.556
1985.58	270.222
1987.6	263.778
1989.63	264.222
1991.65	261.111
1993.67	268.222
1995.69	269.111
1997.72	267.778
1999.74	266.889
2001.76	259.556
2003.78	260
2005.8	263.778
2007.82	258.667
2009.83	270.889
2011.85	266.222
2013.87	264
2015.88	275.111
2017.9	270.667
2019.91	263.778
2021.93	268.222
2023.94	271.111
2025.96	267.333
2027.97	264
2029.98	275.111
2031.99	265.333
2034	263.111
2036.01	262.444
2038.02	265.111
2040.03	267.556
2042.04	267.111
2044.05	269.333
2046.05	263.778
2048.06	265.778
2050.07	252.444
2052.07	263.778
2054.08	268.667
2056.08	258.222
2058.08	262
2060.09	270.889
2062.09	262.667
2064.09	269.111
2066.09	263.333
2068.09	264.222
2070.09	258.667
2072.09	264.667
2074.09	268.444
2076.09	266.889
2078.09	260.667
2080.08	264.444
2082.08	269.778
2084.08	264
2086.07	262.667
2088.07	263.333
2090.06	265.556
2092.05	258.667
2094.05	259.778
2096.04	266.222
2098.03	265.778
2100.02	262.889
2102.01	263.778
2104	264.444
2105.99	261.556
2107.98	259.556
2109.97	263.556
2111.95	261.556
2113.94	259.778
2115.93	260.222
2117.91	262
2119.9	272.667
2121.88	264.889
2123.87	269.556
2125.85	267.778
2127.83	260.444
2129.81	270.889
2131.8	265.111
2133.78	264.667
2135.76	261.778
2137.74	264
2139.72	264.444
2141.69	269.333
2143.67	264
2145.65	256.889
2147.63	262.444
2149.6	270.667
2151.58	270.667
2153.55	268.889
2155.53	263.333
2157.5	266.667
2159.48	269.778
2161.45	266.889
2163.42	256
2165.39	266.444
2167.36	271.111
2169.33	267.556
2171.3	271.556
2173.27	277.333
2175.24	278.444
2177.21	277.333
2179.18	267.556
2181.14	269.333
2183.11	269.111
2185.07	266.667
2187.04	276.444
2189	272.889
2190.97	269.556
2192.93	267.111
2194.89	271.778
2196.86	267.333
2198.82	270.222
2200.78	260.222
2202.74	262
2204.7	260.667
2206.66	264.222
2208.62	251.556
2210.57	250.889
2212.53	257.333
2214.49	255.111
2216.45	250.222
2218.4	255.333
2220.36	255.778
2222.31	252.889
2224.27	251.333
2226.22	253.111
2228.17	250
2230.12	254.444
2232.08	252.889
2234.03	248.444
2235.98	243.333
2237.93	242.444
2239.88	249.333
2241.83	249.778
2243.78	250.222
2245.72	256
2247.67	255.778
2249.62	258.667
2251.56	241.778
2253.51	250.889
2255.45	249.556
2257.4	248
2259.34	246.444
2261.28	245.333
2263.23	242.222
2265.17	246.222
2267.11	246.667
2269.05	249.111
2270.99	245.556
2272.93	254
2274.87	246.889
2276.81	243.111
2278.75	238.889
2280.68	239.111
2282.62	245.778
2284.56	245.778
2286.49	246
2288.43	244.222
2290.36	242.889
2292.3	245.111
2294.23	243.333
2296.16	240.444
2298.09	241.111
2300.03	239.333
2301.96	240.667
2303.89	239.111
2305.82	236.444
2307.75	244.222
2309.68	244.667
2311.6	239.333
2313.53	244.667
2315.46	233.556
2317.39	241.333
2319.31	245.556
2321.24	242.667
2323.16	243.778
2325.09	242.889
2327.01	245.111
2328.93	244.667
2330.86	243.111
2332.78	238.889
2334.7	239.556
2336.62	238.889
2338.54	241.111
2340.46	235.333
2342.38	232
2344.3	233.111
2346.22	233.333
2348.14	234.889
2350.05	234.889
2351.97	240.667
2353.89	233.333
2355.8	236.667
2357.71	238.444
2359.63	231.333
2361.54	229.778
2363.46	231.111
2365.37	234.444
2367.28	226.667
2369.19	231.556
2371.1	234
2373.01	224.222
2374.92	229.333
2376.83	239.778
2378.74	234.667
2380.65	237.111
2382.56	237.556
2384.46	228.889
2386.37	238.222
2388.27	235.556
2390.18	232
2392.08	228.889
2393.99	234.667
2395.89	240.889
2397.8	233.333
2399.7	232.667
2401.6	226.222
2403.5	239.333
2405.4	232.222
2407.3	227.778
2409.2	229.556
2411.1	234.444
2413	230.444
2414.9	233.556
2416.8	237.556
2418.69	220.222
2420.59	226.667
2422.48	238.667
2424.38	228.444
2426.28	224.889
2428.17	232.222
2430.06	230.667
2431.96	236.667
2433.85	227.333
2435.74	225.778
2437.63	229.556
2439.52	220.667
2441.41	229.778
2443.3	219.556
2445.19	232.222
2447.08	229.556
