178.677	572.222
181.278	570.667
183.879	577.333
186.48	568.667
189.078	574.444
191.677	579.556
194.275	582
196.871	574.222
199.467	593.556
202.061	588
204.656	607.556
207.248	607.111
209.841	595.111
212.431	600.222
215.022	606.667
217.613	608
220.201	600.667
222.789	601.556
225.375	612
227.962	616.222
230.547	604.889
233.13	619.111
235.714	606
238.296	620
240.879	623.778
243.459	618.444
246.04	606.444
248.618	608.889
251.196	619.556
253.774	610
256.35	618
258.927	599.111
261.501	598.667
264.074	592.222
266.648	597.778
269.22	590.222
271.791	585.333
274.362	592
276.931	592.667
279.5	574.889
282.069	564.889
284.635	574.444
287.201	570.667
289.766	573.778
292.331	562.667
294.894	567.111
297.457	555.778
300.018	568
302.58	566
305.14	564.444
307.699	568.667
310.257	564
312.814	569.333
315.372	556.667
317.928	568
320.482	562.889
323.036	548
325.589	569.333
328.142	564.889
330.693	560.444
333.243	570.222
335.795	556
338.343	562.889
340.891	568.444
343.439	564.222
345.985	572.444
348.53	578.222
351.075	583.333
353.619	570.889
356.162	582.667
358.704	579.556
361.245	574.444
363.786	575.333
366.325	583.333
368.864	576.444
371.402	581.778
373.939	594
376.475	582.889
379.011	602.889
381.545	598.222
384.079	586.222
386.612	592.444
389.144	581.111
391.674	580
394.204	573.778
396.734	582
399.263	576.889
401.791	575.556
404.318	570.889
406.844	577.778
409.368	577.333
411.893	580.667
414.417	586.444
416.94	583.333
419.462	572.889
421.982	574.444
424.502	583.111
427.022	583.556
429.541	594.667
432.057	590.444
434.574	597.111
437.091	596
439.606	607.333
442.12	586.889
444.634	590.889
447.147	580.667
449.657	589.333
452.169	589.333
454.68	586.444
457.188	606
459.697	591.111
462.205	601.555
464.711	605.333
467.217	592.889
469.722	588.444
472.227	585.111
474.731	581.111
477.232	587.111
479.735	588.667
482.235	592.444
484.736	609.556
487.234	599.333
489.734	597.556
492.23	601.778
494.728	594.222
497.223	614
499.719	601.333
502.213	604.444
504.707	598
507.199	594.222
509.692	602.667
512.182	595.556
514.673	592
517.162	616
519.65	595.333
522.139	604
524.625	600.889
527.112	595.333
529.597	594.889
532.081	607.333
534.565	590.889
537.047	596.667
539.529	581.778
542.011	610.444
544.491	593.333
546.97	597.111
549.45	607.111
551.927	613.778
554.404	615.111
556.88	609.333
559.356	600.444
561.831	614.667
564.304	596
566.777	602.444
569.25	607.333
571.721	608.444
574.191	603.111
576.661	606.444
579.129	596.889
581.599	612.667
584.066	591.778
586.532	599.111
588.997	606.889
591.462	603.778
593.926	600.444
596.389	604.444
598.851	604.889
601.314	591.333
603.775	604
606.235	612.444
608.694	602
611.152	599.778
613.609	605.778
616.066	611.333
618.522	617.111
620.977	597.111
623.431	601.111
625.885	606
628.338	602.889
630.79	611.333
633.241	604.889
635.691	617.333
638.141	620
640.589	606.667
643.036	611.333
645.483	607.333
647.929	624
650.375	614.444
652.82	609.556
655.264	605.111
657.707	606.445
660.149	610.444
662.59	607.333
665.031	603.111
667.471	612.444
669.91	604.222
672.349	607.111
674.786	610.222
677.222	604.444
679.658	607.111
682.093	601.111
684.528	601.111
686.96	605.778
689.393	608.667
691.826	612.667
694.256	610
696.686	609.778
699.116	609.556
701.545	612
703.972	604
706.4	620
708.826	608.889
711.251	607.333
713.676	610.889
716.099	603.556
718.523	606.889
720.946	616.444
723.366	618.444
725.788	610.222
728.207	613.556
730.627	606.889
733.044	596.889
735.462	598.222
737.88	604.889
740.295	596.222
742.711	606.667
745.125	590.889
747.539	595.778
749.951	595.333
752.363	602
754.775	608.667
757.185	601.778
759.595	601.111
762.003	595.778
764.412	600.444
766.819	610
769.225	598.222
771.632	613.111
774.036	604.444
776.441	592.444
778.844	596.889
781.246	596.667
783.649	600.222
786.05	599.778
788.449	608.444
790.85	605.778
793.248	602.667
795.646	603.111
798.042	596.667
800.44	600.444
802.835	610.222
805.23	615.556
807.623	598.222
810.018	600.222
812.41	598.889
814.801	594.667
817.192	603.778
819.582	618.889
821.972	592.667
824.361	598.889
826.748	592.222
829.135	604
831.521	601.556
833.907	592.222
836.291	600.667
838.675	587.111
841.059	600
843.442	597.778
845.823	604.444
848.204	596.222
850.584	604.667
852.963	599.333
855.342	603.778
857.72	600.444
860.097	596.667
862.473	602.889
864.848	602.222
867.223	592.444
869.597	602.889
871.97	596.444
874.343	596
876.714	589.333
879.084	596
881.454	593.778
883.824	590.667
886.192	605.778
888.56	598.444
890.927	607.333
893.294	604.889
895.66	607.778
898.023	599.778
900.387	591.333
902.751	605.778
905.114	590.222
907.476	592
909.835	595.333
912.196	606.889
914.555	595.333
916.914	593.778
919.271	594.889
921.629	595.556
923.985	600.222
926.341	590.667
928.695	593.111
931.05	590.889
933.404	598.222
935.755	582.667
938.107	592.667
940.459	588
942.808	599.111
945.158	588
947.508	598.667
949.855	582.222
952.202	596.667
954.548	593.556
956.894	599.556
959.239	599.555
961.583	577.556
963.928	592
966.27	577.333
968.612	601.778
970.953	596.444
973.294	604
975.633	592.222
977.972	590.889
980.31	587.778
982.647	594.889
984.984	600
987.32	596
989.656	594.889
991.989	603.556
994.324	592.667
996.656	602.222
998.988	616.222
1001.32	608.222
1003.65	622
1005.98	658.667
1008.31	680
1010.64	679.556
1012.97	666.444
1015.29	634.889
1017.62	627.556
1019.94	610.889
1022.27	606.667
1024.59	599.556
1026.92	592.667
1029.24	604
1031.56	604.667
1033.88	627.111
1036.2	634.667
1038.52	634.667
1040.84	627.333
1043.16	608.889
1045.48	607.111
1047.79	594.889
1050.11	608
1052.42	600.889
1054.74	590.444
1057.05	600.444
1059.36	605.111
1061.67	601.111
1063.99	604.222
1066.3	609.333
1068.61	612.667
1070.92	610.444
1073.22	600.444
1075.53	599.556
1077.84	610.222
1080.15	608
1082.45	598.667
1084.76	598.222
1087.06	615.556
1089.36	615.333
1091.66	626.889
1093.97	644.667
1096.27	647.111
1098.57	652.222
1100.87	638
1103.17	622.889
1105.46	609.778
1107.76	614.445
1110.06	616.889
1112.35	616.444
1114.65	624.222
1116.94	615.333
1119.24	627.778
1121.53	620
1123.82	620.889
1126.11	632.222
1128.4	619.778
1130.7	610.222
1132.98	610.889
1135.27	604.667
1137.56	597.333
1139.85	590.222
1142.13	596.222
1144.42	594.222
1146.71	613.778
1148.99	603.778
1151.27	612
1153.56	606.444
1155.84	607.556
1158.12	598.444
1160.4	598.222
1162.68	580
1164.96	595.111
1167.24	586
1169.51	590.889
1171.79	592.222
1174.07	588.222
1176.34	586.222
1178.62	590.444
1180.89	589.556
1183.17	573.111
1185.44	581.333
1187.71	588
1189.98	582.667
1192.25	584.222
1194.52	582.444
1196.79	579.778
1199.06	578.667
1201.33	583.333
1203.59	573.556
1205.86	581.333
1208.12	580.889
1210.39	582
1212.65	578.667
1214.92	580.889
1217.18	582
1219.44	581.778
1221.7	582.444
1223.96	581.556
1226.22	582
1228.48	585.111
1230.74	579.778
1233	586.222
1235.25	573.333
1237.51	598.222
1239.77	582.889
1242.02	582.222
1244.27	584.667
1246.53	579.333
1248.78	587.556
1251.03	577.778
1253.28	580.667
1255.53	583.333
1257.78	595.778
1260.03	587.111
1262.28	587.333
1264.53	584.889
1266.78	579.111
1269.02	586
1271.27	588.667
1273.51	591.333
1275.76	589.556
1278	589.333
1280.24	592.444
1282.48	580.889
1284.72	587.111
1286.97	585.778
1289.21	593.556
1291.44	584.222
1293.68	592.667
1295.92	593.556
1298.16	578.889
1300.39	588.222
1302.63	597.778
1304.86	598.444
1307.1	602.667
1309.33	602.222
1311.56	596.444
1313.8	590.889
1316.03	594.667
1318.26	582
1320.49	599.778
1322.72	601.333
1324.95	600.444
1327.17	595.556
1329.4	601.556
1331.63	602
1333.85	591.778
1336.08	624
1338.3	618.445
1340.53	606.889
1342.75	602
1344.97	603.111
1347.19	603.333
1349.41	593.333
1351.63	590.444
1353.85	591.111
1356.07	590.444
1358.29	595.111
1360.51	590
1362.72	595.778
1364.94	597.333
1367.16	589.778
1369.37	605.333
1371.58	595.556
1373.8	591.778
1376.01	597.333
1378.22	599.111
1380.43	602.444
1382.64	606.444
1384.85	595.778
1387.06	599.778
1389.27	587.111
1391.48	596.889
1393.68	585.333
1395.89	584.222
1398.1	577.556
1400.3	586.889
1402.51	574.667
1404.71	579.778
1406.91	571.778
1409.11	580.667
1411.32	579.556
1413.52	585.778
1415.72	578.889
1417.92	576.667
1420.11	586.445
1422.31	573.333
1424.51	579.111
1426.71	574.444
1428.9	566
1431.1	571.778
1433.29	576.445
1435.49	559.333
1437.68	574.222
1439.87	562.444
1442.06	579.333
1444.25	576.667
1446.45	573.778
1448.64	568.889
1450.82	564.889
1453.01	571.333
1455.2	569.333
1457.39	568.889
1459.57	568
1461.76	568.889
1463.94	567.111
1466.13	560
1468.31	572
1470.5	567.111
1472.68	566.889
1474.86	568.667
1477.04	560.889
1479.22	571.111
1481.4	575.778
1483.58	574.222
1485.76	580
1487.94	559.111
1490.11	568.889
1492.29	566.222
1494.46	566.222
1496.64	557.333
1498.81	557.111
1500.99	564
1503.16	555.333
1505.33	557.778
1507.5	562
1509.67	551.556
1511.84	558.667
1514.01	564.444
1516.18	553.778
1518.35	551.333
1520.52	562.222
1522.68	561.778
1524.85	538.222
1527.02	553.333
1529.18	546.889
1531.35	565.333
1533.51	549.111
1535.67	558.667
1537.83	557.778
1539.99	566.444
1542.16	555.556
1544.31	558.667
1546.47	556.444
1548.63	548.444
1550.79	554.444
1552.95	545.333
1555.11	554.889
1557.26	559.333
1559.42	550.889
1561.57	548.889
1563.73	561.111
1565.88	550.889
1568.03	548
1570.18	556
1572.34	562.444
1574.49	553.111
1576.64	555.778
1578.79	556.889
1580.93	560.667
1583.08	558.444
1585.23	560.222
1587.38	559.333
1589.52	566
1591.67	569.333
1593.81	575.778
1595.96	563.333
1598.1	570.222
1600.24	564
1602.38	566.889
1604.53	561.778
1606.67	572.222
1608.81	555.778
1610.95	564.889
1613.09	548.667
1615.22	554.667
1617.36	551.111
1619.5	550.667
1621.63	546.444
1623.77	537.778
1625.9	546.444
1628.04	539.111
1630.17	543.778
1632.3	536.667
1634.44	540.667
1636.57	542.222
1638.7	521.778
1640.83	526.889
1642.96	533.111
1645.09	530.667
1647.22	522.667
1649.34	524.222
1651.47	526.222
1653.6	523.333
1655.72	521.111
1657.85	518.222
1659.97	521.111
1662.1	524.222
1664.22	522.222
1666.34	515.333
1668.46	522.222
1670.58	517.111
1672.7	511.111
1674.82	516.667
1676.94	516.889
1679.06	510.667
1681.18	516.222
1683.3	518.444
1685.41	514.889
1687.53	515.333
1689.64	521.333
1691.76	517.333
1693.87	508.222
1695.99	508.444
1698.1	503.333
1700.21	512.222
1702.32	508.222
1704.43	499.556
1706.54	509.556
1708.65	502.667
1710.76	514.444
1712.87	509.333
1714.98	502
1717.08	506.222
1719.19	507.556
1721.29	502.889
1723.4	498.667
1725.5	502.222
1727.61	501.556
1729.71	506
1731.81	507.333
1733.91	493.556
1736.02	494
1738.12	500.889
1740.22	496.889
1742.31	494.889
1744.41	490.889
1746.51	488.889
1748.61	488.889
1750.7	480.444
1752.8	497.111
1754.9	490.667
1756.99	479.111
1759.08	494.444
1761.18	486
1763.27	491.111
1765.36	480
1767.45	483.333
1769.54	476.444
1771.63	477.556
1773.72	473.333
1775.81	483.778
1777.9	483.556
1779.99	492.222
1782.08	480.222
1784.16	484.444
1786.25	493.556
1788.33	479.556
1790.42	492.667
1792.5	481.111
1794.58	484.889
1796.67	476.667
1798.75	471.556
1800.83	473.556
1802.91	476
1804.99	488.444
1807.07	475.111
1809.15	472.667
1811.23	473.556
1813.3	473.778
1815.38	477.111
1817.46	470.444
1819.53	475.778
1821.61	471.556
1823.68	485.556
1825.75	474.889
1827.83	471.778
1829.9	476.222
1831.97	465.556
1834.04	472.667
1836.11	469.111
1838.18	470.889
1840.25	466.667
1842.32	471.333
1844.39	478.889
1846.46	479.778
1848.52	463.556
1850.59	474.889
1852.65	462.222
1854.72	461.556
1856.78	468.222
1858.85	472.444
1860.91	464.222
1862.97	460.667
1865.03	462
1867.09	456.222
1869.16	470.444
1871.22	456.667
1873.27	462.667
1875.33	450.222
1877.39	454.444
1879.45	452.222
1881.51	462
1883.56	456.889
1885.62	455.333
1887.67	460.889
1889.73	462.889
1891.78	452.444
1893.83	462.667
1895.89	457.778
1897.94	465.111
1899.99	455.111
1902.04	450.667
1904.09	451.333
1906.14	466.444
1908.19	450
1910.23	448.667
1912.28	453.333
1914.33	460.222
1916.37	446.444
1918.42	466.667
1920.46	450.444
1922.51	456.889
1924.55	446.889
1926.6	451.778
1928.64	447.333
1930.68	443.111
1932.72	449.333
1934.76	447.111
1936.8	452
1938.84	449.333
1940.88	433.778
1942.92	450.667
1944.96	448.889
1946.99	429.333
1949.03	452.889
1951.06	444
1953.1	436.667
1955.13	434.889
1957.17	435.333
1959.2	436.444
1961.23	438.667
1963.27	440.667
1965.3	439.556
1967.33	440
1969.36	428.222
1971.39	431.333
1973.42	431.111
1975.44	430.667
1977.47	428.667
1979.5	429.778
1981.53	433.333
1983.55	426.222
1985.58	430.889
1987.6	419.778
1989.63	426.667
1991.65	419.556
1993.67	420.222
1995.69	424.889
1997.72	425.556
1999.74	424
2001.76	428.222
2003.78	424.889
2005.8	432.222
2007.82	433.333
2009.83	421.556
2011.85	427.778
2013.87	427.333
2015.88	424.444
2017.9	424
2019.91	423.333
2021.93	429.778
2023.94	415.111
2025.96	415.333
2027.97	423.556
2029.98	420.222
2031.99	425.333
2034	426.222
2036.01	428
2038.02	428.222
2040.03	420
2042.04	419.778
2044.05	418.444
2046.05	422.444
2048.06	413.778
2050.07	418
2052.07	414.667
2054.08	414.889
2056.08	423.111
2058.08	407.333
2060.09	416.444
2062.09	414
2064.09	415.111
2066.09	408.222
2068.09	410.667
2070.09	418.889
2072.09	418.222
2074.09	415.556
2076.09	418.667
2078.09	404.667
2080.08	404.667
2082.08	403.556
2084.08	408.667
2086.07	410.889
2088.07	403.556
2090.06	405.111
2092.05	406
2094.05	413.778
2096.04	402.667
2098.03	400
2100.02	406.444
2102.01	406
2104	400.444
2105.99	402.222
2107.98	405.556
2109.97	399.111
2111.95	399.333
2113.94	408.667
2115.93	399.333
2117.91	403.333
2119.9	396.667
2121.88	399.778
2123.87	390
2125.85	396.667
2127.83	404
2129.81	398.444
2131.8	398.444
2133.78	388
2135.76	393.333
2137.74	392.667
2139.72	386.222
2141.69	395.333
2143.67	390.889
2145.65	399.556
2147.63	394
2149.6	382
2151.58	389.556
2153.55	385.556
2155.53	392
2157.5	379.556
2159.48	381.333
2161.45	388.222
2163.42	376.444
2165.39	383.333
2167.36	388.444
2169.33	379.778
2171.3	372.444
2173.27	386
2175.24	379.333
2177.21	383.333
2179.18	377.778
2181.14	378.222
2183.11	384
2185.07	366.889
2187.04	379.778
2189	372
2190.97	373.778
2192.93	366.222
2194.89	367.111
2196.86	369.111
2198.82	375.778
2200.78	362.667
2202.74	371.778
2204.7	367.778
2206.66	369.333
2208.62	377.333
2210.57	369.778
2212.53	371.778
2214.49	364.889
2216.45	365.333
2218.4	362.444
2220.36	374.222
2222.31	364
2224.27	365.333
2226.22	363.111
2228.17	360.222
2230.12	362.667
2232.08	364.667
2234.03	356.222
2235.98	363.111
2237.93	359.333
2239.88	350.444
2241.83	362.222
2243.78	354.667
2245.72	358.222
2247.67	352.889
2249.62	362.222
2251.56	354
2253.51	356
2255.45	354
2257.4	358.444
2259.34	353.778
2261.28	358.444
2263.23	352.222
2265.17	354.889
2267.11	349.778
2269.05	348.889
2270.99	351.111
2272.93	348.444
2274.87	352
2276.81	350.222
2278.75	350.222
2280.68	353.778
2282.62	344.222
2284.56	350.444
2286.49	348.889
2288.43	345.333
2290.36	340.222
2292.3	343.556
2294.23	349.778
2296.16	346
2298.09	340
2300.03	344
2301.96	338
2303.89	348.667
2305.82	333.333
2307.75	344.444
2309.68	347.111
2311.6	333.333
2313.53	344.222
2315.46	340.444
2317.39	337.111
2319.31	340.222
2321.24	346
2323.16	337.778
2325.09	334.667
2327.01	338.444
2328.93	337.333
2330.86	333.778
2332.78	330
2334.7	336.889
2336.62	336.667
2338.54	331.556
2340.46	336.444
2342.38	331.333
2344.3	322
2346.22	336.222
2348.14	331.778
2350.05	335.778
2351.97	326.444
2353.89	325.333
2355.8	328.444
2357.71	322.889
2359.63	323.333
2361.54	319.556
2363.46	324
2365.37	320.889
2367.28	326.667
2369.19	314.667
2371.1	326
2373.01	328.222
2374.92	321.556
2376.83	322.222
2378.74	322.889
2380.65	316.444
2382.56	323.111
2384.46	318.444
2386.37	321.556
2388.27	318
2390.18	318.222
2392.08	326.667
2393.99	316.444
2395.89	318.667
2397.8	316.444
2399.7	317.556
2401.6	320
2403.5	315.333
2405.4	319.556
2407.3	314.222
2409.2	318.222
2411.1	319.333
2413	307.556
2414.9	313.556
2416.8	312
2418.69	318
2420.59	314.667
2422.48	307.111
2424.38	307.111
2426.28	306.667
2428.17	308.889
2430.06	311.333
2431.96	310.667
2433.85	308.222
2435.74	311.778
2437.63	307.556
2439.52	306.222
2441.41	303.111
2443.3	311.333
2445.19	310
2447.08	305.111
