178.677	624.889
181.278	610.889
183.879	617.111
186.48	624.889
189.078	634.222
191.677	633.333
194.275	633.778
196.871	636.667
199.467	649.333
202.061	652.667
204.656	636.222
207.248	649.778
209.841	655.556
212.431	661.111
215.022	667.555
217.613	660.222
220.201	667.333
222.789	672
225.375	677.333
227.962	677.778
230.547	671.778
233.13	683.778
235.714	680
238.296	678.889
240.879	692.222
243.459	682.889
246.04	685.111
248.618	674.444
251.196	691.778
253.774	683.555
256.35	675.778
258.927	668.889
261.501	660.444
264.074	652.889
266.648	641.778
269.22	638.444
271.791	633.333
274.362	636.667
276.931	612.889
279.5	612.222
282.069	606
284.635	610
287.201	598.889
289.766	607.778
292.331	604.667
294.894	601.778
297.457	579.333
300.018	596.222
302.58	587.556
305.14	590
307.699	596
310.257	590.667
312.814	569.778
315.372	577.333
317.928	573.111
320.482	584
323.036	573.556
325.589	579.333
328.142	573.556
330.693	582.889
333.243	574
335.795	575.111
338.343	575.111
340.891	578
343.439	590.222
345.985	590.667
348.53	592.445
351.075	588.667
353.619	582.222
356.162	592.667
358.704	589.778
361.245	578.444
363.786	584.444
366.325	599.778
368.864	588.889
371.402	595.333
373.939	592.445
376.475	592.889
379.011	609.778
381.545	620.222
384.079	610.222
386.612	604
389.144	592.222
391.674	586
394.204	588
396.734	582
399.263	580.667
401.791	589.111
404.318	592.889
406.844	579.333
409.368	591.111
411.893	600.222
414.417	594.889
416.94	593.778
419.462	600.889
421.982	594.222
424.502	608.222
427.022	606.889
429.541	604.444
432.057	616.444
434.574	613.778
437.091	612.667
439.606	609.111
442.12	607.556
444.634	609.333
447.147	603.556
449.657	603.333
452.169	596
454.68	610
457.188	619.333
459.697	611.778
462.205	614.444
464.711	604
467.217	602
469.722	592.222
472.227	594.667
474.731	606
477.232	596
479.735	601.556
482.235	614.667
484.736	606.444
487.234	613.111
489.734	613.111
492.23	616.222
494.728	614.444
497.223	617.555
499.719	607.778
502.213	615.333
504.707	602.889
507.199	615.556
509.692	620.444
512.182	610.889
514.673	615.111
517.162	634
519.65	617.111
522.139	617.333
524.625	620.667
527.112	608
529.597	616
532.081	616.222
534.565	606
537.047	603.111
539.529	614.889
542.011	606.667
544.491	600.889
546.97	613.778
549.45	612.889
551.927	608.222
554.404	616.667
556.88	609.556
559.356	612.889
561.831	619.111
564.304	608.889
566.777	608.889
569.25	623.111
571.721	618.889
574.191	621.333
576.661	619.111
579.129	618.667
581.599	618.667
584.066	617.556
586.532	613.111
588.997	605.556
591.462	611.333
593.926	602
596.389	606.667
598.851	615.556
601.314	606.222
603.775	606.222
606.235	620
608.694	611.333
611.152	621.333
613.609	609.778
616.066	619.778
618.522	614.889
620.977	617.111
623.431	612.667
625.885	617.111
628.338	614.222
630.79	613.778
633.241	616.889
635.691	614.222
638.141	622.445
640.589	626.667
643.036	626
645.483	622.889
647.929	614.667
650.375	618.222
652.82	621.111
655.264	624.445
657.707	621.111
660.149	626.222
662.59	618.444
665.031	603.111
667.471	610.222
669.91	608.889
672.349	606.222
674.786	608.222
677.222	609.333
679.658	621.778
682.093	616.889
684.528	598.222
686.96	600.444
689.393	609.556
691.826	611.333
694.256	619.778
696.686	606.444
699.116	615.333
701.545	606.667
703.972	613.333
706.4	621.778
708.826	616.889
711.251	629.111
713.676	619.778
716.099	619.111
718.523	616.444
720.946	612.222
723.366	604.667
725.788	616.444
728.207	616.444
730.627	621.778
733.044	611.556
735.462	610
737.88	611.333
740.295	610.222
742.711	616.889
745.125	619.556
747.539	624.222
749.951	605.556
752.363	612.667
754.775	614.444
757.185	608.889
759.595	603.778
762.003	615.778
764.412	621.111
766.819	634.444
769.225	622.889
771.632	624
774.036	617.556
776.441	613.778
778.844	611.556
781.246	619.778
783.649	611.556
786.05	600.222
788.449	608.445
790.85	608.889
793.248	610
795.646	603.111
798.042	607.778
800.44	620.667
802.835	609.333
805.23	609.111
807.623	607.111
810.018	604.222
812.41	612.889
814.801	610.222
817.192	599.111
819.582	598.667
821.972	603.111
824.361	599.556
826.748	593.778
829.135	602.667
831.521	592
833.907	600.222
836.291	592
838.675	600.444
841.059	604
843.442	595.778
845.823	603.111
848.204	600.444
850.584	608.667
852.963	602.889
855.342	607.111
857.72	599.556
860.097	606
862.473	596.889
864.848	612.889
867.223	592
869.597	599.778
871.97	606.222
874.343	593.111
876.714	604.667
879.084	608.444
881.454	609.333
883.824	599.556
886.192	615.333
888.56	595.778
890.927	615.333
893.294	598.889
895.66	609.333
898.023	602.889
900.387	607.111
902.751	609.778
905.114	598.889
907.476	606.889
909.835	594
912.196	591.778
914.555	596.444
916.914	598.667
919.271	603.333
921.629	606.667
923.985	602.444
926.341	597.778
928.695	590.667
931.05	602.667
933.404	598.444
935.755	600.445
938.107	602
940.459	604
942.808	612
945.158	590.444
947.508	595.333
949.855	597.556
952.202	604.222
954.548	595.778
956.894	603.333
959.239	591.111
961.583	604.667
963.928	595.556
966.27	594.667
968.612	597.556
970.953	604
973.294	601.111
975.633	603.555
977.972	596
980.31	600.667
982.647	591.556
984.984	597.778
987.32	594.889
989.656	601.111
991.989	598.889
994.324	599.556
996.656	608.667
998.988	615.778
1001.32	609.778
1003.65	620.222
1005.98	630.889
1008.31	646.222
1010.64	680.222
1012.97	668.222
1015.29	644.667
1017.62	624.667
1019.94	609.778
1022.27	604.667
1024.59	602.444
1026.92	614.222
1029.24	602.444
1031.56	624.222
1033.88	635.333
1036.2	634.444
1038.52	654
1040.84	643.111
1043.16	629.333
1045.48	617.111
1047.79	616.889
1050.11	617.778
1052.42	616.222
1054.74	616.667
1057.05	606.222
1059.36	617.778
1061.67	623.333
1063.99	618.889
1066.3	620.889
1068.61	632.667
1070.92	639.333
1073.22	637.778
1075.53	648.889
1077.84	645.556
1080.15	668.889
1082.45	658.222
1084.76	670.667
1087.06	672.222
1089.36	678.667
1091.66	683.556
1093.97	691.111
1096.27	704.444
1098.57	680.889
1100.87	664.444
1103.17	655.111
1105.46	643.778
1107.76	629.333
1110.06	627.778
1112.35	626.667
1114.65	640.445
1116.94	639.111
1119.24	647.778
1121.53	641.556
1123.82	650.222
1126.11	650.444
1128.4	632.889
1130.7	635.333
1132.98	632.889
1135.27	630.444
1137.56	623.556
1139.85	606.444
1142.13	620
1144.42	617.111
1146.71	616.667
1148.99	626.222
1151.27	612.222
1153.56	621.778
1155.84	624
1158.12	612.889
1160.4	618.889
1162.68	602.444
1164.96	613.556
1167.24	607.556
1169.51	595.111
1171.79	599.556
1174.07	600.889
1176.34	606.222
1178.62	596.222
1180.89	611.778
1183.17	602.667
1185.44	596.667
1187.71	592.222
1189.98	598.444
1192.25	600.222
1194.52	610.889
1196.79	591.778
1199.06	599.333
1201.33	607.556
1203.59	600.889
1205.86	591.333
1208.12	603.778
1210.39	604.889
1212.65	595.778
1214.92	593.778
1217.18	598.667
1219.44	594.889
1221.7	604.444
1223.96	596
1226.22	606.667
1228.48	595.556
1230.74	596.667
1233	594.889
1235.25	601.111
1237.51	599.556
1239.77	607.333
1242.02	608.222
1244.27	597.111
1246.53	601.778
1248.78	607.111
1251.03	604.889
1253.28	592.889
1255.53	604.222
1257.78	611.778
1260.03	607.333
1262.28	604
1264.53	601.111
1266.78	608.222
1269.02	608
1271.27	600.889
1273.51	603.556
1275.76	595.111
1278	605.778
1280.24	612.667
1282.48	598
1284.72	602.889
1286.97	591.778
1289.21	601.778
1291.44	616.667
1293.68	617.333
1295.92	608.222
1298.16	609.333
1300.39	612.222
1302.63	609.555
1304.86	610
1307.1	613.333
1309.33	618.667
1311.56	611.778
1313.8	622.889
1316.03	620.667
1318.26	615.333
1320.49	618
1322.72	618
1324.95	621.778
1327.17	621.111
1329.4	626.444
1331.63	631.333
1333.85	641.333
1336.08	633.111
1338.3	637.333
1340.53	631.556
1342.75	637.333
1344.97	624.667
1347.19	620.444
1349.41	610.444
1351.63	612
1353.85	605.333
1356.07	615.556
1358.29	607.111
1360.51	604.889
1362.72	621.556
1364.94	608
1367.16	618.667
1369.37	614
1371.58	608.667
1373.8	620.667
1376.01	620
1378.22	619.556
1380.43	612.667
1382.64	605.333
1384.85	623.556
1387.06	617.333
1389.27	605.111
1391.48	613.111
1393.68	604.444
1395.89	597.556
1398.1	608.889
1400.3	588.889
1402.51	596
1404.71	603.556
1406.91	601.778
1409.11	594.222
1411.32	597.556
1413.52	610.444
1415.72	598
1417.92	582.667
1420.11	588.222
1422.31	591.333
1424.51	601.111
1426.71	591.111
1428.9	575.333
1431.1	584.444
1433.29	593.333
1435.49	585.778
1437.68	590
1439.87	587.778
1442.06	595.111
1444.25	586.667
1446.45	602
1448.64	590.889
1450.82	592.444
1453.01	597.556
1455.2	602.222
1457.39	599.778
1459.57	593.778
1461.76	586
1463.94	594.889
1466.13	588.222
1468.31	597.778
1470.5	605.778
1472.68	609.556
1474.86	611.556
1477.04	614.222
1479.22	613.556
1481.4	613.556
1483.58	611.111
1485.76	604
1487.94	618.667
1490.11	598
1492.29	608.444
1494.46	605.111
1496.64	596
1498.81	599.111
1500.99	598.889
1503.16	587.111
1505.33	575.111
1507.5	578.667
1509.67	569.111
1511.84	575.111
1514.01	575.778
1516.18	564.667
1518.35	567.333
1520.52	573.778
1522.68	575.111
1524.85	569.556
1527.02	569.778
1529.18	578.222
1531.35	573.556
1533.51	580.667
1535.67	571.556
1537.83	580.444
1539.99	565.333
1542.16	572
1544.31	571.333
1546.47	565.556
1548.63	573.556
1550.79	569.556
1552.95	569.778
1555.11	571.778
1557.26	574.444
1559.42	577.778
1561.57	572.444
1563.73	571.111
1565.88	568.889
1568.03	573.333
1570.18	573.111
1572.34	572.667
1574.49	575.778
1576.64	582.667
1578.79	570.889
1580.93	588.889
1583.08	577.556
1585.23	583.556
1587.38	572.444
1589.52	577.111
1591.67	587.333
1593.81	584.444
1595.96	589.333
1598.1	587.111
1600.24	594.444
1602.38	592.222
1604.53	580.222
1606.67	595.556
1608.81	598
1610.95	601.778
1613.09	594.444
1615.22	614.444
1617.36	601.778
1619.5	596.222
1621.63	602.667
1623.77	608.889
1625.9	612.444
1628.04	593.333
1630.17	599.333
1632.3	589.778
1634.44	582.889
1636.57	569.333
1638.7	562.667
1640.83	562.667
1642.96	544.889
1645.09	550.889
1647.22	550.444
1649.34	534.222
1651.47	538.445
1653.6	540.444
1655.72	538
1657.85	535.556
1659.97	527.111
1662.1	529.778
1664.22	529.111
1666.34	528.444
1668.46	531.333
1670.58	522
1672.7	527.333
1674.82	526.222
1676.94	522.667
1679.06	520.222
1681.18	520.222
1683.3	526.667
1685.41	531.333
1687.53	504.667
1689.64	518.889
1691.76	518.889
1693.87	523.556
1695.99	512.222
1698.1	526
1700.21	510.667
1702.32	526.222
1704.43	514
1706.54	531.111
1708.65	514.667
1710.76	512.444
1712.87	521.556
1714.98	520
1717.08	508.889
1719.19	510.222
1721.29	510.222
1723.4	514
1725.5	511.778
1727.61	499.556
1729.71	514.444
1731.81	510.444
1733.91	510
1736.02	503.778
1738.12	505.333
1740.22	503.111
1742.31	514.667
1744.41	499.778
1746.51	501.111
1748.61	490.889
1750.7	495.778
1752.8	496
1754.9	499.111
1756.99	498.667
1759.08	496
1761.18	499.333
1763.27	493.111
1765.36	492.444
1767.45	490.444
1769.54	492
1771.63	487.778
1773.72	490.444
1775.81	500.222
1777.9	488.444
1779.99	488.889
1782.08	496.667
1784.16	492.667
1786.25	488.444
1788.33	494
1790.42	500.444
1792.5	492
1794.58	489.333
1796.67	494
1798.75	485.333
1800.83	488.444
1802.91	491.111
1804.99	488.444
1807.07	484.667
1809.15	490.889
1811.23	497.111
1813.3	488.667
1815.38	491.111
1817.46	482.667
1819.53	480.889
1821.61	489.333
1823.68	490
1825.75	499.111
1827.83	488.889
1829.9	473.111
1831.97	473.556
1834.04	490
1836.11	475.556
1838.18	480.444
1840.25	482.222
1842.32	480.889
1844.39	479.778
1846.46	478.667
1848.52	470
1850.59	464
1852.65	467.333
1854.72	476
1856.78	470.222
1858.85	476.667
1860.91	473.333
1862.97	467.111
1865.03	463.556
1867.09	469.778
1869.16	465.778
1871.22	460.444
1873.27	466.444
1875.33	471.333
1877.39	464
1879.45	466.444
1881.51	469.778
1883.56	465.778
1885.62	464
1887.67	472
1889.73	473.111
1891.78	462.889
1893.83	473.556
1895.89	457.556
1897.94	466.444
1899.99	462
1902.04	457.333
1904.09	458
1906.14	458.889
1908.19	469.778
1910.23	456.444
1912.28	456.444
1914.33	456.444
1916.37	459.778
1918.42	455.778
1920.46	458.444
1922.51	463.111
1924.55	461.556
1926.6	460.222
1928.64	450.889
1930.68	455.556
1932.72	458.667
1934.76	452
1936.8	458.222
1938.84	454.889
1940.88	444
1942.92	452.667
1944.96	446.222
1946.99	444.889
1949.03	443.333
1951.06	458.222
1953.1	452.889
1955.13	444.444
1957.17	449.556
1959.2	449.333
1961.23	434.222
1963.27	439.333
1965.3	442.889
1967.33	442.667
1969.36	440.889
1971.39	433.111
1973.42	441.556
1975.44	441.333
1977.47	442.444
1979.5	439.333
1981.53	439.111
1983.55	439.111
1985.58	440.889
1987.6	437.556
1989.63	447.111
1991.65	432
1993.67	433.333
1995.69	433.111
1997.72	436.667
1999.74	438.889
2001.76	435.111
2003.78	434
2005.8	427.556
2007.82	440.444
2009.83	433.556
2011.85	430
2013.87	428.667
2015.88	417.333
2017.9	444.222
2019.91	437.333
2021.93	434.222
2023.94	430.222
2025.96	424.889
2027.97	435.778
2029.98	440.222
2031.99	431.556
2034	434.444
2036.01	433.556
2038.02	425.778
2040.03	432.444
2042.04	422
2044.05	428.444
2046.05	422.667
2048.06	428.444
2050.07	435.333
2052.07	429.111
2054.08	424.667
2056.08	424.667
2058.08	434
2060.09	412.889
2062.09	414.667
2064.09	425.556
2066.09	419.556
2068.09	415.556
2070.09	419.111
2072.09	425.111
2074.09	429.556
2076.09	417.778
2078.09	415.111
2080.08	420.444
2082.08	422
2084.08	410
2086.07	419.778
2088.07	413.556
2090.06	419.778
2092.05	414
2094.05	414.222
2096.04	423.333
2098.03	422.444
2100.02	410
2102.01	412.444
2104	409.778
2105.99	408.667
2107.98	407.333
2109.97	415.333
2111.95	410.889
2113.94	405.111
2115.93	411.111
2117.91	406.667
2119.9	412.667
2121.88	406.889
2123.87	403.111
2125.85	402.444
2127.83	419.778
2129.81	412.222
2131.8	407.556
2133.78	416.667
2135.76	413.778
2137.74	399.778
2139.72	399.778
2141.69	406.667
2143.67	406.889
2145.65	410.222
2147.63	400.222
2149.6	404.444
2151.58	394
2153.55	409.556
2155.53	403.111
2157.5	390
2159.48	394.667
2161.45	394
2163.42	400.889
2165.39	396.889
2167.36	383.556
2169.33	398.889
2171.3	392.889
2173.27	388.667
2175.24	395.111
2177.21	396
2179.18	390.667
2181.14	392.889
2183.11	390.444
2185.07	388.444
2187.04	387.111
2189	383.556
2190.97	384.667
2192.93	384.667
2194.89	384.889
2196.86	388.444
2198.82	384.667
2200.78	381.111
2202.74	381.111
2204.7	382.222
2206.66	384.222
2208.62	388.667
2210.57	384.667
2212.53	377.556
2214.49	387.111
2216.45	374.889
2218.4	375.556
2220.36	382
2222.31	386.889
2224.27	375.333
2226.22	372.889
2228.17	380.222
2230.12	383.333
2232.08	370.222
2234.03	372.667
2235.98	378.444
2237.93	375.778
2239.88	368.667
2241.83	376.222
2243.78	373.556
2245.72	376.667
2247.67	362.444
2249.62	367.778
2251.56	369.778
2253.51	369.778
2255.45	363.111
2257.4	356.889
2259.34	369.778
2261.28	372.667
2263.23	371.556
2265.17	361.333
2267.11	356.222
2269.05	363.778
2270.99	356.889
2272.93	365.111
2274.87	350.444
2276.81	365.111
2278.75	359.111
2280.68	359.111
2282.62	356.222
2284.56	356.444
2286.49	354
2288.43	360.222
2290.36	353.778
2292.3	355.778
2294.23	352.222
2296.16	357.556
2298.09	357.556
2300.03	347.778
2301.96	354
2303.89	356.667
2305.82	342.889
2307.75	355.333
2309.68	355.333
2311.6	349.778
2313.53	348
2315.46	345.556
2317.39	346.889
2319.31	356.667
2321.24	350
2323.16	351.778
2325.09	352
2327.01	346
2328.93	352.889
2330.86	332.667
2332.78	341.556
2334.7	349.778
2336.62	346.222
2338.54	340.889
2340.46	345.333
2342.38	348.889
2344.3	346.444
2346.22	342.222
2348.14	334
2350.05	338.889
2351.97	342.667
2353.89	340.889
2355.8	339.111
2357.71	348.444
2359.63	342.889
2361.54	340.889
2363.46	336.667
2365.37	333.111
2367.28	332.667
2369.19	337.111
2371.1	333.333
2373.01	340.444
2374.92	337.778
2376.83	330
2378.74	333.333
2380.65	331.111
2382.56	329.778
2384.46	332
2386.37	329.111
2388.27	326.222
2390.18	330.222
2392.08	324.222
2393.99	322
2395.89	322.889
2397.8	328.667
2399.7	332.889
2401.6	324.444
2403.5	315.556
2405.4	335.778
2407.3	325.556
2409.2	328.222
2411.1	321.556
2413	324.667
2414.9	329.111
2416.8	327.111
2418.69	323.333
2420.59	322.222
2422.48	318
2424.38	326.444
2426.28	324.222
2428.17	330.222
2430.06	322.889
2431.96	314
2433.85	320.222
2435.74	326.222
2437.63	321.333
2439.52	318.889
2441.41	324.222
2443.3	320.222
2445.19	317.778
2447.08	315.778
