178.677	2186.22
181.278	2185.78
183.879	2206.22
186.48	2199.56
189.078	2206.44
191.677	2211.78
194.275	2203.11
196.871	2225.56
199.467	2237.56
202.061	2226.22
204.656	2268.22
207.248	2243.56
209.841	2263.78
212.431	2264.44
215.022	2268
217.613	2275.11
220.201	2265.11
222.789	2296.44
225.375	2316.89
227.962	2310
230.547	2321.33
233.13	2330.22
235.714	2363.11
238.296	2361.11
240.879	2386.44
243.459	2386
246.04	2401.78
248.618	2402.89
251.196	2405.33
253.774	2413.33
256.35	2420.44
258.927	2418.67
261.501	2429.33
264.074	2434.89
266.648	2442.89
269.22	2426.67
271.791	2433.33
274.362	2439.56
276.931	2446.67
279.5	2430.89
282.069	2447.56
284.635	2464.22
287.201	2459.33
289.766	2464.89
292.331	2449.78
294.894	2472.22
297.457	2486
300.018	2472.22
302.58	2497.11
305.14	2515.56
307.699	2517.78
310.257	2510.67
312.814	2518.89
315.372	2511.11
317.928	2493.11
320.482	2518.89
323.036	2491.33
325.589	2493.33
328.142	2509.78
330.693	2501.33
333.243	2518.67
335.795	2516
338.343	2531.56
340.891	2542.67
343.439	2535.11
345.985	2569.78
348.53	2569.11
351.075	2573.11
353.619	2546
356.162	2583.56
358.704	2569.56
361.245	2574.89
363.786	2618.44
366.325	2614
368.864	2606.22
371.402	2619.33
373.939	2618.22
376.475	2605.78
379.011	2632.22
381.545	2611.56
384.079	2627.33
386.612	2637.11
389.144	2609.56
391.674	2621.78
394.204	2638.44
396.734	2625.56
399.263	2630.22
401.791	2645.78
404.318	2640.44
406.844	2624.67
409.368	2670
411.893	2685.33
414.417	2689.56
416.94	2690
419.462	2696.22
421.982	2703.56
424.502	2711.56
427.022	2684.44
429.541	2710.67
432.057	2691.11
434.574	2728.67
437.091	2710.67
439.606	2729.11
442.12	2733.11
444.634	2694.67
447.147	2730
449.657	2710
452.169	2712.22
454.68	2727.78
457.188	2723.11
459.697	2721.11
462.205	2733.33
464.711	2738.89
467.217	2715.11
469.722	2734
472.227	2738.44
474.731	2756.89
477.232	2776.44
479.735	2772.22
482.235	2766.44
484.736	2792.89
487.234	2799.33
489.734	2785.56
492.23	2781.56
494.728	2760.44
497.223	2799.78
499.719	2802.44
502.213	2798
504.707	2780.22
507.199	2796.22
509.692	2766.89
512.182	2796.89
514.673	2779.11
517.162	2803.78
519.65	2791.78
522.139	2787.11
524.625	2799.33
527.112	2797.11
529.597	2798.67
532.081	2765.56
534.565	2787.78
537.047	2784
539.529	2814.67
542.011	2791.56
544.491	2822.44
546.97	2814.89
549.45	2816.22
551.927	2838
554.404	2836.67
556.88	2818.89
559.356	2826.44
561.831	2826.44
564.304	2826.22
566.777	2837.11
569.25	2844
571.721	2850
574.191	2842.89
576.661	2827.56
579.129	2809.78
581.599	2830.44
584.066	2824.89
586.532	2838.67
588.997	2822.89
591.462	2834.44
593.926	2831.78
596.389	2840.44
598.851	2826
601.314	2810.22
603.775	2819.78
606.235	2796.89
608.694	2812.22
611.152	2814.67
613.609	2849.56
616.066	2831.56
618.522	2862.89
620.977	2858.89
623.431	2849.33
625.885	2855.78
628.338	2849.78
630.79	2851.78
633.241	2864
635.691	2860.44
638.141	2839.11
640.589	2888.44
643.036	2866.67
645.483	2872.44
647.929	2852.22
650.375	2887.33
652.82	2844.67
655.264	2836.67
657.707	2824.44
660.149	2839.11
662.59	2826.44
665.031	2828
667.471	2796.67
669.91	2841.78
672.349	2842.44
674.786	2827.78
677.222	2844.44
679.658	2851.33
682.093	2820
684.528	2854
686.96	2814
689.393	2837.33
691.826	2807.11
694.256	2832.67
696.686	2860.22
699.116	2858
701.545	2845.78
703.972	2841.78
706.4	2856
708.826	2835.33
711.251	2870.44
713.676	2818.89
716.099	2840.67
718.523	2844.67
720.946	2842
723.366	2845.56
725.788	2868.22
728.207	2851.56
730.627	2841.56
733.044	2819.78
735.462	2834
737.88	2829.56
740.295	2813.33
742.711	2802.44
745.125	2798.22
747.539	2798.44
749.951	2779.11
752.363	2805.33
754.775	2788.67
757.185	2780.67
759.595	2802.89
762.003	2814.22
764.412	2783.56
766.819	2784.89
769.225	2796.67
771.632	2774.89
774.036	2818.44
776.441	2792.22
778.844	2798.67
781.246	2790.22
783.649	2778.44
786.05	2803.33
788.449	2786.89
790.85	2794.22
793.248	2806.44
795.646	2771.11
798.042	2776.22
800.44	2790.44
802.835	2786.89
805.23	2790.22
807.623	2779.56
810.018	2764.44
812.41	2775.78
814.801	2787.11
817.192	2751.33
819.582	2768.44
821.972	2752
824.361	2770.22
826.748	2744.22
829.135	2761.78
831.521	2753.11
833.907	2733.33
836.291	2738.89
838.675	2735.33
841.059	2725.78
843.442	2748.89
845.823	2746.22
848.204	2729.56
850.584	2738
852.963	2733.33
855.342	2743.11
857.72	2764.44
860.097	2736.22
862.473	2744
864.848	2717.78
867.223	2727.11
869.597	2733.11
871.97	2728.89
874.343	2730.67
876.714	2726.89
879.084	2740
881.454	2720.44
883.824	2701.78
886.192	2716.67
888.56	2724
890.927	2713.78
893.294	2717.33
895.66	2706.89
898.023	2668.22
900.387	2706.67
902.751	2702.44
905.114	2678.89
907.476	2684
909.835	2684
912.196	2668.44
914.555	2679.56
916.914	2666.67
919.271	2664
921.629	2659.78
923.985	2669.56
926.341	2653.33
928.695	2652.22
931.05	2672.44
933.404	2664.44
935.755	2648.67
938.107	2657.56
940.459	2643.78
942.808	2652.89
945.158	2631.78
947.508	2647.11
949.855	2658.89
952.202	2659.78
954.548	2656.89
956.894	2658.22
959.239	2661.56
961.583	2647.78
963.928	2659.78
966.27	2625.56
968.612	2640
970.953	2633.78
973.294	2637.56
975.633	2642.44
977.972	2630
980.31	2654.89
982.647	2624
984.984	2609.56
987.32	2600.67
989.656	2604.44
991.989	2631.78
994.324	2624.22
996.656	2608
998.988	2620
1001.32	2621.11
1003.65	2658.89
1005.98	2689.33
1008.31	2705.78
1010.64	2782
1012.97	2850.67
1015.29	2860
1017.62	2822.67
1019.94	2743.56
1022.27	2686.67
1024.59	2626.89
1026.92	2609.56
1029.24	2605.56
1031.56	2578.22
1033.88	2620
1036.2	2656.89
1038.52	2661.78
1040.84	2670.89
1043.16	2604.22
1045.48	2578.89
1047.79	2562.44
1050.11	2561.56
1052.42	2580.89
1054.74	2582.22
1057.05	2547.11
1059.36	2578.22
1061.67	2568.89
1063.99	2535.11
1066.3	2541.78
1068.61	2562.89
1070.92	2564.44
1073.22	2557.11
1075.53	2524.44
1077.84	2553.78
1080.15	2517.33
1082.45	2540.22
1084.76	2526.22
1087.06	2550
1089.36	2529.78
1091.66	2553.33
1093.97	2555.56
1096.27	2560.22
1098.57	2572
1100.87	2553.11
1103.17	2544.44
1105.46	2542.22
1107.76	2542.44
1110.06	2525.33
1112.35	2547.56
1114.65	2512.67
1116.94	2517.78
1119.24	2509.78
1121.53	2528.44
1123.82	2532.67
1126.11	2529.11
1128.4	2496.67
1130.7	2514.67
1132.98	2500
1135.27	2495.33
1137.56	2500
1139.85	2505.33
1142.13	2515.56
1144.42	2489.56
1146.71	2514.22
1148.99	2502.89
1151.27	2490.22
1153.56	2466.22
1155.84	2479.56
1158.12	2462.89
1160.4	2475.78
1162.68	2476.89
1164.96	2468.89
1167.24	2461.78
1169.51	2464.22
1171.79	2469.33
1174.07	2444.67
1176.34	2443.56
1178.62	2450.67
1180.89	2454.22
1183.17	2433.56
1185.44	2448.89
1187.71	2403.56
1189.98	2430.22
1192.25	2424.22
1194.52	2421.78
1196.79	2419.78
1199.06	2433.33
1201.33	2430.44
1203.59	2429.78
1205.86	2433.11
1208.12	2457.33
1210.39	2452.22
1212.65	2413.33
1214.92	2422.67
1217.18	2412.44
1219.44	2425.33
1221.7	2410.89
1223.96	2406.89
1226.22	2384.67
1228.48	2394
1230.74	2404
1233	2414.44
1235.25	2385.78
1237.51	2387.78
1239.77	2432.67
1242.02	2399.33
1244.27	2394.44
1246.53	2403.11
1248.78	2413.78
1251.03	2380.44
1253.28	2409.78
1255.53	2393.33
1257.78	2394.67
1260.03	2387.11
1262.28	2400.89
1264.53	2403.78
1266.78	2398
1269.02	2385.56
1271.27	2376.44
1273.51	2383.33
1275.76	2381.56
1278	2376.22
1280.24	2362
1282.48	2372.89
1284.72	2369.78
1286.97	2360.44
1289.21	2343.56
1291.44	2364.22
1293.68	2362.89
1295.92	2348.67
1298.16	2352.22
1300.39	2350.44
1302.63	2344
1304.86	2337.11
1307.1	2338
1309.33	2335.78
1311.56	2344
1313.8	2342.67
1316.03	2336.89
1318.26	2340.22
1320.49	2344.67
1322.72	2316.44
1324.95	2337.33
1327.17	2329.78
1329.4	2340.44
1331.63	2330
1333.85	2343.56
1336.08	2363.33
1338.3	2389.56
1340.53	2388.44
1342.75	2393.78
1344.97	2393.33
1347.19	2368.89
1349.41	2357.56
1351.63	2333.56
1353.85	2317.33
1356.07	2304.22
1358.29	2297.56
1360.51	2315.56
1362.72	2311.11
1364.94	2301.11
1367.16	2296.44
1369.37	2295.11
1371.58	2314
1373.8	2301.78
1376.01	2299.78
1378.22	2320.67
1380.43	2315.78
1382.64	2340.67
1384.85	2323.78
1387.06	2316.67
1389.27	2299.56
1391.48	2295.33
1393.68	2313.33
1395.89	2284
1398.1	2265.33
1400.3	2255.56
1402.51	2256.67
1404.71	2239.56
1406.91	2236.44
1409.11	2247.33
1411.32	2238.44
1413.52	2214.44
1415.72	2232.89
1417.92	2238.67
1420.11	2232
1422.31	2244.67
1424.51	2212
1426.71	2239.56
1428.9	2222.44
1431.1	2241.56
1433.29	2258.22
1435.49	2230.22
1437.68	2244.67
1439.87	2265.11
1442.06	2268
1444.25	2250.67
1446.45	2263.78
1448.64	2294.44
1450.82	2283.78
1453.01	2284.22
1455.2	2257.33
1457.39	2224.44
1459.57	2243.56
1461.76	2238
1463.94	2236.67
1466.13	2233.11
1468.31	2223.33
1470.5	2223.11
1472.68	2185.78
1474.86	2215.11
1477.04	2223.11
1479.22	2254.89
1481.4	2213.11
1483.58	2242
1485.76	2218.89
1487.94	2224.89
1490.11	2190.22
1492.29	2201.56
1494.46	2186.44
1496.64	2182.44
1498.81	2200
1500.99	2207.56
1503.16	2198.22
1505.33	2183.78
1507.5	2189.11
1509.67	2180.89
1511.84	2191.33
1514.01	2178
1516.18	2197.78
1518.35	2215.56
1520.52	2212.67
1522.68	2191.56
1524.85	2244.89
1527.02	2273.78
1529.18	2309.11
1531.35	2318
1533.51	2288
1535.67	2254.44
1537.83	2236.22
1539.99	2219.78
1542.16	2186.67
1544.31	2198.89
1546.47	2204.89
1548.63	2177.56
1550.79	2176.67
1552.95	2195.56
1555.11	2203.56
1557.26	2181.78
1559.42	2177.78
1561.57	2190.67
1563.73	2199.11
1565.88	2188.89
1568.03	2176.44
1570.18	2217.33
1572.34	2202.67
1574.49	2197.33
1576.64	2183.78
1578.79	2193.56
1580.93	2217.78
1583.08	2208.89
1585.23	2200.89
1587.38	2199.11
1589.52	2196.22
1591.67	2207.33
1593.81	2197.33
1595.96	2189.78
1598.1	2204
1600.24	2189.78
1602.38	2169.33
1604.53	2162
1606.67	2168.22
1608.81	2150.44
1610.95	2153.11
1613.09	2128
1615.22	2137.78
1617.36	2119.11
1619.5	2116
1621.63	2111.33
1623.77	2094
1625.9	2074
1628.04	2063.11
1630.17	2065.78
1632.3	2056
1634.44	2037.33
1636.57	2021.11
1638.7	2040
1640.83	2015.11
1642.96	2014.22
1645.09	2004.67
1647.22	2014.67
1649.34	2023.56
1651.47	2006.22
1653.6	1987.56
1655.72	1998.44
1657.85	1989.56
1659.97	1966.67
1662.1	2006.44
1664.22	1986.67
1666.34	1994.22
1668.46	1977.78
1670.58	1992.67
1672.7	1969.33
1674.82	1965.11
1676.94	1975.11
1679.06	1964.22
1681.18	1967.33
1683.3	1968
1685.41	1947.11
1687.53	1947.11
1689.64	1933.56
1691.76	1947.56
1693.87	1948.22
1695.99	1950.89
1698.1	1935.78
1700.21	1944.44
1702.32	1946.67
1704.43	1929.33
1706.54	1942.67
1708.65	1945.56
1710.76	1910.67
1712.87	1916
1714.98	1915.11
1717.08	1916.44
1719.19	1909.78
1721.29	1918.22
1723.4	1894.67
1725.5	1871.11
1727.61	1902.22
1729.71	1870.44
1731.81	1900
1733.91	1880.67
1736.02	1881.11
1738.12	1888.67
1740.22	1874.44
1742.31	1871.33
1744.41	1862.44
1746.51	1855.56
1748.61	1858.22
1750.7	1844.22
1752.8	1856.89
1754.9	1843.33
1756.99	1838.67
1759.08	1823.56
1761.18	1836.89
1763.27	1838.22
1765.36	1832.44
1767.45	1842.44
1769.54	1823.33
1771.63	1843.33
1773.72	1827.56
1775.81	1809.56
1777.9	1822.89
1779.99	1826.89
1782.08	1827.56
1784.16	1822.89
1786.25	1827.33
1788.33	1809.56
1790.42	1826.44
1792.5	1815.33
1794.58	1812.89
1796.67	1800
1798.75	1804.89
1800.83	1788
1802.91	1793.56
1804.99	1803.56
1807.07	1770.67
1809.15	1801.56
1811.23	1794.67
1813.3	1774.89
1815.38	1769.11
1817.46	1792.22
1819.53	1782.67
1821.61	1774.67
1823.68	1779.78
1825.75	1776.89
1827.83	1768
1829.9	1757.56
1831.97	1759.11
1834.04	1762
1836.11	1744.67
1838.18	1754.22
1840.25	1734.44
1842.32	1741.11
1844.39	1732.89
1846.46	1743.11
1848.52	1713.11
1850.59	1715.33
1852.65	1724
1854.72	1709.56
1856.78	1696.44
1858.85	1699.11
1860.91	1690.67
1862.97	1719.11
1865.03	1706.22
1867.09	1703.56
1869.16	1691.78
1871.22	1690.67
1873.27	1687.78
1875.33	1700
1877.39	1703.56
1879.45	1690.22
1881.51	1669.11
1883.56	1680.44
1885.62	1683.56
1887.67	1679.56
1889.73	1670.67
1891.78	1676.44
1893.83	1674.22
1895.89	1677.11
1897.94	1676.22
1899.99	1648.44
1902.04	1668.67
1904.09	1659.78
1906.14	1671.11
1908.19	1683.78
1910.23	1659.78
1912.28	1659.56
1914.33	1650
1916.37	1661.11
1918.42	1656.22
1920.46	1658.44
1922.51	1655.11
1924.55	1621.11
1926.6	1638.44
1928.64	1633.56
1930.68	1611.78
1932.72	1635.11
1934.76	1622
1936.8	1618.44
1938.84	1605.11
1940.88	1607.33
1942.92	1608
1944.96	1594.22
1946.99	1576
1949.03	1593.78
1951.06	1580.44
1953.1	1559.11
1955.13	1587.33
1957.17	1570.89
1959.2	1574.89
1961.23	1566.89
1963.27	1560.44
1965.3	1559.56
1967.33	1562.67
1969.36	1544.89
1971.39	1555.56
1973.42	1537.11
1975.44	1558
1977.47	1516.67
1979.5	1543.78
1981.53	1526.44
1983.55	1529.78
1985.58	1540
1987.6	1533.11
1989.63	1520.89
1991.65	1527.11
1993.67	1507.33
1995.69	1527.78
1997.72	1512.22
1999.74	1508.67
2001.76	1505.11
2003.78	1509.33
2005.8	1530.22
2007.82	1517.33
2009.83	1500.22
2011.85	1515.11
2013.87	1501.33
2015.88	1511.33
2017.9	1509.33
2019.91	1492.67
2021.93	1507.33
2023.94	1520.89
2025.96	1505.78
2027.97	1496.44
2029.98	1492.22
2031.99	1471.78
2034	1488.67
2036.01	1472.44
2038.02	1482
2040.03	1484.22
2042.04	1479.56
2044.05	1494.22
2046.05	1455.33
2048.06	1482.67
2050.07	1466.22
2052.07	1472.89
2054.08	1469.33
2056.08	1451.56
2058.08	1455.11
2060.09	1451.33
2062.09	1439.56
2064.09	1435.33
2066.09	1427.33
2068.09	1456.22
2070.09	1457.56
2072.09	1442
2074.09	1422
2076.09	1412.22
2078.09	1406
2080.08	1431.33
2082.08	1415.11
2084.08	1412
2086.07	1406
2088.07	1410.67
2090.06	1414
2092.05	1397.33
2094.05	1410
2096.04	1392.22
2098.03	1401.33
2100.02	1381.11
2102.01	1379.33
2104	1380.67
2105.99	1384.22
2107.98	1368
2109.97	1387.11
2111.95	1373.78
2113.94	1374.22
2115.93	1379.11
2117.91	1364.44
2119.9	1374
2121.88	1353.78
2123.87	1390.44
2125.85	1363.11
2127.83	1366
2129.81	1362.89
2131.8	1361.56
2133.78	1360.44
2135.76	1350.22
2137.74	1345.78
2139.72	1334.22
2141.69	1340
2143.67	1337.33
2145.65	1324.22
2147.63	1334.44
2149.6	1320.89
2151.58	1341.33
2153.55	1331.56
2155.53	1332.89
2157.5	1324.44
2159.48	1319.11
2161.45	1300.67
2163.42	1314.22
2165.39	1306.67
2167.36	1316.22
2169.33	1309.33
2171.3	1287.78
2173.27	1308.44
2175.24	1290.67
2177.21	1307.11
2179.18	1288.67
2181.14	1294.67
2183.11	1270.22
2185.07	1296.67
2187.04	1273.78
2189	1275.33
2190.97	1276.67
2192.93	1261.78
2194.89	1269.11
2196.86	1255.33
2198.82	1242
2200.78	1252.67
2202.74	1238.22
2204.7	1232.22
2206.66	1229.33
2208.62	1236.22
2210.57	1226.67
2212.53	1232
2214.49	1220.67
2216.45	1214.67
2218.4	1218.89
2220.36	1215.56
2222.31	1214
2224.27	1212
2226.22	1208.67
2228.17	1184.44
2230.12	1199.33
2232.08	1197.56
2234.03	1201.33
2235.98	1191.11
2237.93	1184.67
2239.88	1189.78
2241.83	1179.11
2243.78	1181.78
2245.72	1164
2247.67	1183.56
2249.62	1170.22
2251.56	1170.22
2253.51	1151.11
2255.45	1173.78
2257.4	1159.33
2259.34	1163.33
2261.28	1147.78
2263.23	1155.78
2265.17	1153.33
2267.11	1158.44
2269.05	1143.11
2270.99	1126.44
2272.93	1136
2274.87	1151.56
2276.81	1139.11
2278.75	1118.67
2280.68	1125.11
2282.62	1126
2284.56	1118.89
2286.49	1117.33
2288.43	1107.11
2290.36	1108
2292.3	1118.44
2294.23	1086.22
2296.16	1087.56
2298.09	1115.78
2300.03	1085.78
2301.96	1091.78
2303.89	1090.22
2305.82	1080.67
2307.75	1080.89
2309.68	1088.22
2311.6	1084.22
2313.53	1074.67
2315.46	1067.56
2317.39	1068
2319.31	1071.56
2321.24	1068.67
2323.16	1055.56
2325.09	1060
2327.01	1048.89
2328.93	1061.56
2330.86	1057.11
2332.78	1048.44
2334.7	1048.89
2336.62	1036.44
2338.54	1032.22
2340.46	1025.78
2342.38	1047.33
2344.3	1034.22
2346.22	1024.44
2348.14	1018.44
2350.05	1023.56
2351.97	1038.89
2353.89	1021.56
2355.8	1017.11
2357.71	1010.67
2359.63	999.111
2361.54	1008.89
2363.46	1009.78
2365.37	989.333
2367.28	1008.44
2369.19	997.556
2371.1	990.222
2373.01	976.667
2374.92	997.111
2376.83	982.222
2378.74	984
2380.65	979.333
2382.56	984.889
2384.46	980.889
2386.37	970.444
2388.27	982.889
2390.18	965.556
2392.08	968.444
2393.99	967.556
2395.89	964.889
2397.8	961.111
2399.7	963.333
2401.6	953.778
2403.5	955.111
2405.4	964.667
2407.3	945.333
2409.2	962.444
2411.1	946.444
2413	947.778
2414.9	944.444
2416.8	941.333
2418.69	944.222
2420.59	930
2422.48	919.556
2424.38	922.889
2426.28	932.889
2428.17	927.111
2430.06	928.444
2431.96	932
2433.85	936.667
2435.74	919.778
2437.63	918
2439.52	929.111
2441.41	913.778
2443.3	900.222
2445.19	904.667
2447.08	910
