178.677	1683.11
181.278	1673.11
183.879	1693.33
186.48	1685.33
189.078	1694.44
191.677	1690
194.275	1693.11
196.871	1719.56
199.467	1709.33
202.061	1722.89
204.656	1720.44
207.248	1716.67
209.841	1757.56
212.431	1736
215.022	1744.44
217.613	1756.22
220.201	1776.89
222.789	1778.44
225.375	1802.22
227.962	1797.11
230.547	1814.22
233.13	1840.44
235.714	1825.11
238.296	1852.89
240.879	1856
243.459	1872.67
246.04	1885.56
248.618	1871.78
251.196	1882.44
253.774	1892.89
256.35	1878.67
258.927	1896
261.501	1891.56
264.074	1884.44
266.648	1881.56
269.22	1887.11
271.791	1866.22
274.362	1880.89
276.931	1885.56
279.5	1872.67
282.069	1897.56
284.635	1861.33
287.201	1874.22
289.766	1871.56
292.331	1872.44
294.894	1888.67
297.457	1885.78
300.018	1912.67
302.58	1879.11
305.14	1911.33
307.699	1891.11
310.257	1877.78
312.814	1889.56
315.372	1881.11
317.928	1861.33
320.482	1859.78
323.036	1859.11
325.589	1879.11
328.142	1877.78
330.693	1876.22
333.243	1889.33
335.795	1877.78
338.343	1882.89
340.891	1897.78
343.439	1892
345.985	1913.78
348.53	1904.67
351.075	1923.56
353.619	1934
356.162	1940.22
358.704	1915.56
361.245	1934.44
363.786	1945.78
366.325	1944
368.864	1951.33
371.402	1944.44
373.939	1950.44
376.475	1972.67
379.011	1969.11
381.545	1982.22
384.079	1975.56
386.612	1954.67
389.144	1962.22
391.674	1962.89
394.204	1958
396.734	1934
399.263	1972.44
401.791	1960.22
404.318	1970
406.844	1955.78
409.368	1977.78
411.893	1993.78
414.417	1982.67
416.94	1980.89
419.462	2007.33
421.982	2010.67
424.502	2017.56
427.022	2005.78
429.541	2017.33
432.057	2012
434.574	2037.56
437.091	2021.78
439.606	2041.78
442.12	2027.78
444.634	2025.11
447.147	2012.67
449.657	2047.33
452.169	2037.56
454.68	2017.56
457.188	2032
459.697	2031.78
462.205	2024.67
464.711	2042.44
467.217	2033.11
469.722	2042.67
472.227	2034.44
474.731	2037.78
477.232	2060.89
479.735	2054.22
482.235	2065.33
484.736	2074.89
487.234	2072.67
489.734	2063.11
492.23	2058.89
494.728	2064.89
497.223	2072.67
499.719	2076.89
502.213	2076.89
504.707	2072.89
507.199	2067.11
509.692	2072.67
512.182	2064.44
514.673	2074
517.162	2073.56
519.65	2065.33
522.139	2062
524.625	2077.78
527.112	2053.11
529.597	2077.11
532.081	2094.89
534.565	2080.89
537.047	2075.56
539.529	2080.22
542.011	2084
544.491	2082
546.97	2096.89
549.45	2097.78
551.927	2112.67
554.404	2108.67
556.88	2099.56
559.356	2109.56
561.831	2115.11
564.304	2119.56
566.777	2110.22
569.25	2113.78
571.721	2112.44
574.191	2118
576.661	2105.11
579.129	2113.78
581.599	2108.67
584.066	2123.78
586.532	2095.78
588.997	2102.22
591.462	2119.78
593.926	2108.22
596.389	2113.56
598.851	2140.44
601.314	2124.67
603.775	2119.11
606.235	2128.67
608.694	2117.78
611.152	2113.56
613.609	2130.44
616.066	2132.22
618.522	2132.44
620.977	2105.78
623.431	2143.56
625.885	2163.11
628.338	2138.89
630.79	2155.56
633.241	2152.22
635.691	2160.67
638.141	2159.78
640.589	2165.56
643.036	2160
645.483	2143.78
647.929	2154.67
650.375	2156
652.82	2143.78
655.264	2152.67
657.707	2152.22
660.149	2121.33
662.59	2126.89
665.031	2120.89
667.471	2125.56
669.91	2127.56
672.349	2134.89
674.786	2124.44
677.222	2138
679.658	2118.89
682.093	2143.56
684.528	2133.56
686.96	2118.44
689.393	2144.44
691.826	2135.33
694.256	2150
696.686	2151.33
699.116	2151.78
701.545	2142.67
703.972	2152.89
706.4	2162.89
708.826	2152
711.251	2161.33
713.676	2166.67
716.099	2152.89
718.523	2165.33
720.946	2157.11
723.366	2156.67
725.788	2136.67
728.207	2120.89
730.627	2143.78
733.044	2129.56
735.462	2154.89
737.88	2138.67
740.295	2128.22
742.711	2138.22
745.125	2118.44
747.539	2130.22
749.951	2139.11
752.363	2135.56
754.775	2117.78
757.185	2146.44
759.595	2108
762.003	2108.89
764.412	2115.78
766.819	2110.22
769.225	2119.56
771.632	2124
774.036	2114.44
776.441	2110.89
778.844	2124.22
781.246	2151.78
783.649	2139.11
786.05	2137.56
788.449	2144.44
790.85	2122
793.248	2110
795.646	2122.44
798.042	2125.11
800.44	2142
802.835	2124.89
805.23	2110.89
807.623	2134.67
810.018	2118.67
812.41	2126
814.801	2123.33
817.192	2123.78
819.582	2120.67
821.972	2094.89
824.361	2116
826.748	2106.44
829.135	2090.44
831.521	2111.78
833.907	2103.56
836.291	2118.67
838.675	2114
841.059	2102.22
843.442	2106.44
845.823	2103.11
848.204	2098.67
850.584	2108
852.963	2086.89
855.342	2106
857.72	2090.67
860.097	2100
862.473	2100
864.848	2090.67
867.223	2112
869.597	2103.11
871.97	2092.89
874.343	2100.44
876.714	2111.33
879.084	2115.78
881.454	2107.78
883.824	2102.67
886.192	2131.33
888.56	2097.11
890.927	2111.33
893.294	2100.67
895.66	2098
898.023	2086.22
900.387	2091.33
902.751	2100.44
905.114	2071.56
907.476	2059.11
909.835	2074.67
912.196	2066.67
914.555	2075.56
916.914	2060.67
919.271	2070.44
921.629	2061.11
923.985	2058.89
926.341	2067.33
928.695	2048.22
931.05	2067.56
933.404	2049.33
935.755	2067.11
938.107	2075.33
940.459	2071.78
942.808	2061.56
945.158	2052.89
947.508	2038.44
949.855	2060.67
952.202	2070.22
954.548	2051.78
956.894	2067.11
959.239	2039.33
961.583	2048
963.928	2051.33
966.27	2073.56
968.612	2046.67
970.953	2054
973.294	2054
975.633	2062
977.972	2057.78
980.31	2030.44
982.647	2048
984.984	2039.56
987.32	2039.33
989.656	2038.89
991.989	2037.78
994.324	2044.22
996.656	2060.89
998.988	2088.67
1001.32	2062.22
1003.65	2090.22
1005.98	2167.78
1008.31	2204.22
1010.64	2304.22
1012.97	2400.22
1015.29	2402.22
1017.62	2325.56
1019.94	2236.22
1022.27	2158.22
1024.59	2120.22
1026.92	2090.89
1029.24	2057.56
1031.56	2062.44
1033.88	2074.22
1036.2	2158.44
1038.52	2160.67
1040.84	2154
1043.16	2094.44
1045.48	2037.78
1047.79	2015.78
1050.11	2020.44
1052.42	2016.22
1054.74	2030.44
1057.05	2025.56
1059.36	2010.89
1061.67	2020.44
1063.99	2007.78
1066.3	2017.33
1068.61	2018.44
1070.92	2013.56
1073.22	1994.67
1075.53	2018.67
1077.84	1983.11
1080.15	2010.89
1082.45	2014.44
1084.76	2000.89
1087.06	1995.33
1089.36	2025.78
1091.66	2013.33
1093.97	2020
1096.27	2044
1098.57	2036.67
1100.87	2030.44
1103.17	2026.89
1105.46	2021.11
1107.76	2006.44
1110.06	2024.67
1112.35	2029.78
1114.65	2028.89
1116.94	2018
1119.24	2007.33
1121.53	1998.22
1123.82	2032.44
1126.11	2013.11
1128.4	2011.33
1130.7	2026
1132.98	2030
1135.27	2010.67
1137.56	2034.67
1139.85	1986.44
1142.13	2020
1144.42	2024
1146.71	2012.67
1148.99	2016.67
1151.27	2002.44
1153.56	2004.44
1155.84	2018
1158.12	2002.22
1160.4	1991.78
1162.68	1996.22
1164.96	2006.44
1167.24	1964.22
1169.51	1994.67
1171.79	1974
1174.07	2005.11
1176.34	1975.11
1178.62	1994.44
1180.89	2000.89
1183.17	1976.22
1185.44	1959.78
1187.71	1975.11
1189.98	1967.33
1192.25	1968.67
1194.52	1957.33
1196.79	1978.67
1199.06	1969.11
1201.33	1977.11
1203.59	1943.56
1205.86	1977.11
1208.12	1975.78
1210.39	1976.22
1212.65	1976.22
1214.92	1966
1217.18	1980.89
1219.44	1966.89
1221.7	1973.11
1223.96	1969.56
1226.22	1956.22
1228.48	1977.78
1230.74	1962.44
1233	1966
1235.25	1959.56
1237.51	1972.22
1239.77	1950.67
1242.02	1969.11
1244.27	1952.22
1246.53	1953.56
1248.78	1977.33
1251.03	1967.56
1253.28	1972.67
1255.53	1965.78
1257.78	1963.33
1260.03	1966.22
1262.28	1971.11
1264.53	1980.67
1266.78	1931.11
1269.02	1952.89
1271.27	1960.44
1273.51	1954.44
1275.76	1959.11
1278	1950.22
1280.24	1956.44
1282.48	1946.44
1284.72	1936.44
1286.97	1941.33
1289.21	1956.89
1291.44	1958.67
1293.68	1948.44
1295.92	1965.33
1298.16	1953.78
1300.39	1960.89
1302.63	1932.89
1304.86	1956
1307.1	1939.11
1309.33	1936.89
1311.56	1927.56
1313.8	1928.89
1316.03	1928
1318.26	1941.11
1320.49	1929.56
1322.72	1930.67
1324.95	1928.89
1327.17	1928
1329.4	1925.11
1331.63	1932.22
1333.85	1932.22
1336.08	1930
1338.3	1943.56
1340.53	1931.33
1342.75	1935.11
1344.97	1958.67
1347.19	1922.22
1349.41	1903.33
1351.63	1922.67
1353.85	1906.67
1356.07	1900.89
1358.29	1905.56
1360.51	1917.56
1362.72	1906.89
1364.94	1901.78
1367.16	1909.33
1369.37	1911.33
1371.58	1915.11
1373.8	1901.11
1376.01	1911.33
1378.22	1889.11
1380.43	1919.11
1382.64	1900.22
1384.85	1894.44
1387.06	1886.67
1389.27	1891.56
1391.48	1895.11
1393.68	1857.56
1395.89	1850.44
1398.1	1851.11
1400.3	1840.44
1402.51	1838.89
1404.71	1859.33
1406.91	1832.67
1409.11	1846.89
1411.32	1832.89
1413.52	1852.89
1415.72	1823.11
1417.92	1828.22
1420.11	1835.56
1422.31	1841.56
1424.51	1840.44
1426.71	1837.11
1428.9	1840.89
1431.1	1857.56
1433.29	1840
1435.49	1828.44
1437.68	1858.67
1439.87	1857.56
1442.06	1854.67
1444.25	1848.67
1446.45	1866.22
1448.64	1861.78
1450.82	1860.22
1453.01	1893.11
1455.2	1862
1457.39	1876.22
1459.57	1864.67
1461.76	1840.89
1463.94	1860
1466.13	1855.56
1468.31	1863.33
1470.5	1834.44
1472.68	1877.11
1474.86	1851.33
1477.04	1868.22
1479.22	1885.56
1481.4	1889.33
1483.58	1880.67
1485.76	1882.67
1487.94	1876.67
1490.11	1871.33
1492.29	1864.22
1494.46	1848.22
1496.64	1865.11
1498.81	1885.56
1500.99	1882.22
1503.16	1865.56
1505.33	1891.33
1507.5	1883.78
1509.67	1855.56
1511.84	1858
1514.01	1866.89
1516.18	1896.44
1518.35	1868.22
1520.52	1895.56
1522.68	1884.67
1524.85	1895.78
1527.02	1912.89
1529.18	1933.11
1531.35	1930
1533.51	1925.56
1535.67	1913.78
1537.83	1913.33
1539.99	1901.33
1542.16	1883.56
1544.31	1867.33
1546.47	1882.67
1548.63	1890
1550.79	1905.11
1552.95	1884.22
1555.11	1896
1557.26	1901.33
1559.42	1913.11
1561.57	1905.78
1563.73	1902.22
1565.88	1905.33
1568.03	1921.78
1570.18	1895.11
1572.34	1910
1574.49	1901.78
1576.64	1881.11
1578.79	1912.44
1580.93	1904.89
1583.08	1902.67
1585.23	1905.33
1587.38	1905.56
1589.52	1921.11
1591.67	1894
1593.81	1916.67
1595.96	1904.89
1598.1	1902.89
1600.24	1893.78
1602.38	1912.22
1604.53	1896.67
1606.67	1859.33
1608.81	1867.78
1610.95	1838.89
1613.09	1822.67
1615.22	1830.44
1617.36	1812.22
1619.5	1809.78
1621.63	1806.89
1623.77	1775.56
1625.9	1761.33
1628.04	1736.89
1630.17	1733.11
1632.3	1721.11
1634.44	1715.11
1636.57	1723.56
1638.7	1688.22
1640.83	1671.11
1642.96	1667.56
1645.09	1669.78
1647.22	1659.56
1649.34	1660.67
1651.47	1632.22
1653.6	1634.89
1655.72	1648.67
1657.85	1643.33
1659.97	1651.56
1662.1	1624
1664.22	1630.22
1666.34	1613.56
1668.46	1604.44
1670.58	1626.22
1672.7	1601.78
1674.82	1592
1676.94	1599.33
1679.06	1594
1681.18	1590.67
1683.3	1580.44
1685.41	1608.89
1687.53	1598.67
1689.64	1592.22
1691.76	1585.56
1693.87	1549.56
1695.99	1589.11
1698.1	1582.22
1700.21	1560.67
1702.32	1569.56
1704.43	1562.44
1706.54	1563.11
1708.65	1552.89
1710.76	1560.22
1712.87	1553.11
1714.98	1565.33
1717.08	1545.78
1719.19	1552.22
1721.29	1576.67
1723.4	1549.11
1725.5	1539.33
1727.61	1530.67
1729.71	1541.33
1731.81	1543.11
1733.91	1546
1736.02	1512
1738.12	1523.33
1740.22	1523.78
1742.31	1518.89
1744.41	1501.11
1746.51	1504
1748.61	1499.78
1750.7	1503.78
1752.8	1489.56
1754.9	1497.78
1756.99	1498.89
1759.08	1511.78
1761.18	1492.89
1763.27	1497.56
1765.36	1488.67
1767.45	1481.78
1769.54	1485.56
1771.63	1477.33
1773.72	1477.78
1775.81	1480
1777.9	1476.67
1779.99	1461.78
1782.08	1471.11
1784.16	1451.33
1786.25	1458.67
1788.33	1462.89
1790.42	1479.11
1792.5	1452.44
1794.58	1464
1796.67	1446.67
1798.75	1459.33
1800.83	1448.22
1802.91	1450.89
1804.99	1456.22
1807.07	1455.33
1809.15	1461.33
1811.23	1464.44
1813.3	1452.44
1815.38	1446.22
1817.46	1451.56
1819.53	1446.44
1821.61	1439.78
1823.68	1459.56
1825.75	1427.33
1827.83	1432
1829.9	1410.44
1831.97	1406.44
1834.04	1414.67
1836.11	1409.11
1838.18	1405.11
1840.25	1416.67
1842.32	1426.67
1844.39	1421.11
1846.46	1421.33
1848.52	1406
1850.59	1384.67
1852.65	1368
1854.72	1403.78
1856.78	1395.56
1858.85	1386.44
1860.91	1373.78
1862.97	1390.22
1865.03	1388.89
1867.09	1377.56
1869.16	1365.56
1871.22	1370
1873.27	1369.33
1875.33	1359.56
1877.39	1378.67
1879.45	1367.56
1881.51	1348.89
1883.56	1362.67
1885.62	1360.89
1887.67	1378.89
1889.73	1361.56
1891.78	1360.67
1893.83	1372
1895.89	1354.67
1897.94	1358.22
1899.99	1353.33
1902.04	1370
1904.09	1357.33
1906.14	1349.33
1908.19	1342
1910.23	1337.78
1912.28	1352.67
1914.33	1333.56
1916.37	1360.89
1918.42	1343.56
1920.46	1342.67
1922.51	1328.67
1924.55	1319.78
1926.6	1325.11
1928.64	1325.33
1930.68	1327.11
1932.72	1330.44
1934.76	1322.67
1936.8	1321.33
1938.84	1314.67
1940.88	1308.44
1942.92	1299.33
1944.96	1312.89
1946.99	1303.78
1949.03	1287.56
1951.06	1308.44
1953.1	1297.56
1955.13	1300.44
1957.17	1294
1959.2	1295.11
1961.23	1279.11
1963.27	1281.78
1965.3	1271.33
1967.33	1278.67
1969.36	1257.56
1971.39	1270.89
1973.42	1265.56
1975.44	1249.78
1977.47	1270.67
1979.5	1246.89
1981.53	1258.67
1983.55	1284
1985.58	1238.44
1987.6	1250
1989.63	1254.67
1991.65	1250.22
1993.67	1243.33
1995.69	1242
1997.72	1253.78
1999.74	1248.44
2001.76	1254.89
2003.78	1242.89
2005.8	1241.78
2007.82	1225.11
2009.83	1236
2011.85	1233.33
2013.87	1247.78
2015.88	1224.67
2017.9	1249.33
2019.91	1221.78
2021.93	1236.44
2023.94	1233.33
2025.96	1236.44
2027.97	1223.11
2029.98	1222.22
2031.99	1219.56
2034	1214.22
2036.01	1218.67
2038.02	1216.44
2040.03	1219.33
2042.04	1219.78
2044.05	1203.11
2046.05	1207.33
2048.06	1201.56
2050.07	1202.67
2052.07	1212.89
2054.08	1213.78
2056.08	1203.11
2058.08	1184.44
2060.09	1209.33
2062.09	1190.22
2064.09	1192.44
2066.09	1183.11
2068.09	1189.56
2070.09	1196.22
2072.09	1178.89
2074.09	1169.33
2076.09	1171.11
2078.09	1168
2080.08	1172.89
2082.08	1175.33
2084.08	1182.22
2086.07	1151.33
2088.07	1170.67
2090.06	1162.67
2092.05	1161.78
2094.05	1150.89
2096.04	1162.22
2098.03	1150.89
2100.02	1138.89
2102.01	1153.11
2104	1142.22
2105.99	1157.78
2107.98	1146.67
2109.97	1132.89
2111.95	1131.11
2113.94	1143.78
2115.93	1135.78
2117.91	1134.44
2119.9	1131.78
2121.88	1131.78
2123.87	1142.44
2125.85	1137.33
2127.83	1139.56
2129.81	1126
2131.8	1133.78
2133.78	1131.33
2135.76	1134.67
2137.74	1117.11
2139.72	1122.22
2141.69	1132.89
2143.67	1114.44
2145.65	1111.33
2147.63	1100.67
2149.6	1106.67
2151.58	1103.56
2153.55	1092.67
2155.53	1100.89
2157.5	1102.22
2159.48	1105.33
2161.45	1095.56
2163.42	1097.11
2165.39	1082
2167.36	1082.67
2169.33	1092.67
2171.3	1070.89
2173.27	1082.67
2175.24	1096.67
2177.21	1077.11
2179.18	1086.44
2181.14	1078.67
2183.11	1070.67
2185.07	1058.67
2187.04	1057.78
2189	1055.56
2190.97	1056.89
2192.93	1044.67
2194.89	1049.78
2196.86	1047.33
2198.82	1039.56
2200.78	1038.89
2202.74	1048.22
2204.7	1037.56
2206.66	1044
2208.62	1028.89
2210.57	1029.78
2212.53	1028.44
2214.49	1028.22
2216.45	1028.89
2218.4	1030.89
2220.36	1036.22
2222.31	1018.67
2224.27	995.778
2226.22	1014.22
2228.17	1016.22
2230.12	1017.11
2232.08	1022.22
2234.03	1002.22
2235.98	1008.67
2237.93	1009.78
2239.88	990.667
2241.83	1004.67
2243.78	993.111
2245.72	994.667
2247.67	994.667
2249.62	974
2251.56	990.889
2253.51	977.333
2255.45	971.111
2257.4	983.556
2259.34	966.222
2261.28	972.667
2263.23	968
2265.17	960.444
2267.11	952
2269.05	960.222
2270.99	960.667
2272.93	959.778
2274.87	954.222
2276.81	942.889
2278.75	955.333
2280.68	955.778
2282.62	938.222
2284.56	950.667
2286.49	936.889
2288.43	928.667
2290.36	935.556
2292.3	942.444
2294.23	938.889
2296.16	919.333
2298.09	931.111
2300.03	914
2301.96	909.778
2303.89	921.778
2305.82	916
2307.75	916.667
2309.68	923.333
2311.6	922.222
2313.53	903.556
2315.46	921.778
2317.39	899.333
2319.31	911.556
2321.24	902.667
2323.16	900.889
2325.09	908.889
2327.01	904
2328.93	891.556
2330.86	899.556
2332.78	892.667
2334.7	895.111
2336.62	885.111
2338.54	885.333
2340.46	897.556
2342.38	858.667
2344.3	883.778
2346.22	886.667
2348.14	876
2350.05	874.222
2351.97	873.111
2353.89	864.222
2355.8	870.667
2357.71	866.667
2359.63	863.778
2361.54	868.222
2363.46	856.222
2365.37	850.667
2367.28	846.889
2369.19	840.222
2371.1	843.111
2373.01	842.222
2374.92	839.333
2376.83	847.333
2378.74	838.222
2380.65	839.778
2382.56	845.778
2384.46	840.444
2386.37	840.667
2388.27	828
2390.18	841.111
2392.08	833.778
2393.99	812.889
2395.89	829.778
2397.8	821.778
2399.7	810.444
2401.6	812.889
2403.5	812
2405.4	819.778
2407.3	815.111
2409.2	794
2411.1	813.111
2413	814.222
2414.9	814.667
2416.8	815.556
2418.69	811.111
2420.59	814.667
2422.48	799.333
2424.38	795.778
2426.28	788.222
2428.17	793.555
2430.06	804.667
2431.96	790.889
2433.85	797.333
2435.74	788.667
2437.63	798.444
2439.52	794.889
2441.41	800.222
2443.3	788.445
2445.19	779.556
2447.08	778.444
