178.677	1333.33
181.278	1333.78
183.879	1335.56
186.48	1348.67
189.078	1344.22
191.677	1350.44
194.275	1340
196.871	1345.33
199.467	1367.11
202.061	1376
204.656	1370.44
207.248	1380.44
209.841	1386.67
212.431	1392
215.022	1362.67
217.613	1369.56
220.201	1398
222.789	1399.56
225.375	1408.89
227.962	1423.78
230.547	1422.89
233.13	1444
235.714	1453.78
238.296	1464.67
240.879	1462.67
243.459	1460.44
246.04	1476.89
248.618	1476.67
251.196	1491.33
253.774	1489.11
256.35	1492.44
258.927	1498.22
261.501	1512.44
264.074	1480.67
266.648	1498.44
269.22	1488
271.791	1496.67
274.362	1503.56
276.931	1495.78
279.5	1481.78
282.069	1484.67
284.635	1495.78
287.201	1503.56
289.766	1478
292.331	1506.89
294.894	1496.67
297.457	1506.44
300.018	1517.78
302.58	1533.11
305.14	1525.78
307.699	1525.11
310.257	1528.67
312.814	1519.56
315.372	1512
317.928	1530.89
320.482	1527.33
323.036	1516.22
325.589	1529.56
328.142	1522.22
330.693	1541.33
333.243	1528.22
335.795	1550.89
338.343	1544.67
340.891	1551.33
343.439	1556.44
345.985	1566.44
348.53	1550.22
351.075	1587.78
353.619	1586
356.162	1570.44
358.704	1576.22
361.245	1569.11
363.786	1577.78
366.325	1587.33
368.864	1592
371.402	1580.22
373.939	1585.78
376.475	1595.78
379.011	1628.22
381.545	1622.22
384.079	1596.22
386.612	1596.89
389.144	1609.56
391.674	1604.44
394.204	1609.33
396.734	1596.89
399.263	1596.89
401.791	1606
404.318	1602.44
406.844	1603.78
409.368	1607.33
411.893	1609.33
414.417	1609.56
416.94	1637.56
419.462	1619.56
421.982	1625.33
424.502	1645.56
427.022	1645.33
429.541	1636.44
432.057	1664.67
434.574	1665.33
437.091	1671.33
439.606	1652.67
442.12	1643.11
444.634	1671.78
447.147	1634.67
449.657	1650.44
452.169	1638.67
454.68	1648
457.188	1643.56
459.697	1662.89
462.205	1670.22
464.711	1645.11
467.217	1669.33
469.722	1669.56
472.227	1668.67
474.731	1674.44
477.232	1684.22
479.735	1668
482.235	1664.22
484.736	1698.67
487.234	1697.33
489.734	1684.22
492.23	1684.22
494.728	1687.56
497.223	1690.44
499.719	1706
502.213	1679.56
504.707	1694.22
507.199	1701.78
509.692	1688.67
512.182	1691.56
514.673	1696.89
517.162	1697.56
519.65	1704
522.139	1677.56
524.625	1700
527.112	1686.44
529.597	1686.89
532.081	1684.67
534.565	1684.22
537.047	1706.44
539.529	1696
542.011	1699.78
544.491	1707.78
546.97	1742.44
549.45	1713.11
551.927	1706.89
554.404	1711.33
556.88	1724
559.356	1713.56
561.831	1727.33
564.304	1712
566.777	1731.56
569.25	1694
571.721	1742.67
574.191	1735.78
576.661	1712.44
579.129	1715.56
581.599	1725.56
584.066	1730.89
586.532	1725.33
588.997	1727.78
591.462	1730.67
593.926	1722.89
596.389	1719.33
598.851	1711.11
601.314	1711.78
603.775	1734.67
606.235	1718.44
608.694	1719.33
611.152	1722.22
613.609	1735.33
616.066	1740.67
618.522	1721.11
620.977	1728
623.431	1756.89
625.885	1717.33
628.338	1743.56
630.79	1727.11
633.241	1751.56
635.691	1741.56
638.141	1747.78
640.589	1733.11
643.036	1730
645.483	1720
647.929	1730.67
650.375	1745.33
652.82	1726
655.264	1727.56
657.707	1730.22
660.149	1727.78
662.59	1721.78
665.031	1730
667.471	1726.44
669.91	1714.89
672.349	1730.67
674.786	1712.44
677.222	1723.33
679.658	1725.33
682.093	1717.56
684.528	1726.22
686.96	1727.56
689.393	1740.89
691.826	1724.67
694.256	1711.33
696.686	1742
699.116	1754.67
701.545	1742.67
703.972	1743.11
706.4	1738
708.826	1749.33
711.251	1759.78
713.676	1734.89
716.099	1733.33
718.523	1736.67
720.946	1737.33
723.366	1754
725.788	1740
728.207	1720.22
730.627	1724.89
733.044	1733.11
735.462	1726.89
737.88	1722.67
740.295	1718.44
742.711	1726.44
745.125	1723.56
747.539	1711.11
749.951	1702
752.363	1717.56
754.775	1712
757.185	1729.33
759.595	1698.44
762.003	1725.33
764.412	1704
766.819	1714
769.225	1708.89
771.632	1718
774.036	1712.22
776.441	1726
778.844	1706.44
781.246	1720.22
783.649	1703.33
786.05	1722.22
788.449	1707.33
790.85	1727.33
793.248	1704.22
795.646	1689.56
798.042	1708.67
800.44	1712.67
802.835	1727.33
805.23	1721.33
807.623	1719.11
810.018	1703.56
812.41	1718.67
814.801	1695.56
817.192	1708.22
819.582	1699.33
821.972	1704.44
824.361	1701.56
826.748	1687.33
829.135	1693.11
831.521	1682.22
833.907	1688.44
836.291	1701.56
838.675	1708.44
841.059	1700.89
843.442	1675.11
845.823	1695.11
848.204	1677.11
850.584	1686.44
852.963	1687.78
855.342	1692.67
857.72	1662.44
860.097	1685.11
862.473	1674.89
864.848	1680.89
867.223	1680.22
869.597	1696.44
871.97	1672
874.343	1683.11
876.714	1693.11
879.084	1688.44
881.454	1686.67
883.824	1682
886.192	1696.44
888.56	1676
890.927	1692.67
893.294	1685.11
895.66	1671.11
898.023	1672
900.387	1676.89
902.751	1660.44
905.114	1668.67
907.476	1658.89
909.835	1664.22
912.196	1656.44
914.555	1633.56
916.914	1629.33
919.271	1638.22
921.629	1631.56
923.985	1629.11
926.341	1660.44
928.695	1644
931.05	1639.56
933.404	1630.44
935.755	1658.22
938.107	1645.33
940.459	1633.33
942.808	1640.67
945.158	1633.56
947.508	1635.33
949.855	1650
952.202	1626.67
954.548	1644.22
956.894	1622.44
959.239	1642.44
961.583	1630.89
963.928	1641.11
966.27	1625.11
968.612	1640.67
970.953	1653.78
973.294	1646.22
975.633	1642
977.972	1637.33
980.31	1638.89
982.647	1629.78
984.984	1624.67
987.32	1616
989.656	1642
991.989	1626.89
994.324	1633.11
996.656	1629.33
998.988	1639.56
1001.32	1649.33
1003.65	1649.33
1005.98	1676.22
1008.31	1703.78
1010.64	1734
1012.97	1799.56
1015.29	1815.78
1017.62	1790.67
1019.94	1722.22
1022.27	1693.33
1024.59	1648.67
1026.92	1632.67
1029.24	1633.11
1031.56	1645.11
1033.88	1654.22
1036.2	1663.78
1038.52	1678.89
1040.84	1680
1043.16	1647.78
1045.48	1629.78
1047.79	1609.78
1050.11	1612.89
1052.42	1607.56
1054.74	1617.33
1057.05	1604
1059.36	1624.67
1061.67	1612.89
1063.99	1620.67
1066.3	1583.33
1068.61	1605.11
1070.92	1621.33
1073.22	1594.89
1075.53	1594
1077.84	1592.44
1080.15	1600.89
1082.45	1586.44
1084.76	1586.22
1087.06	1607.56
1089.36	1607.78
1091.66	1611.33
1093.97	1635.78
1096.27	1639.33
1098.57	1624.22
1100.87	1623.78
1103.17	1601.11
1105.46	1608.67
1107.76	1595.78
1110.06	1609.11
1112.35	1614
1114.65	1596.89
1116.94	1603.11
1119.24	1619.11
1121.53	1612.44
1123.82	1615.33
1126.11	1613.78
1128.4	1606
1130.7	1608.89
1132.98	1587.33
1135.27	1579.78
1137.56	1590.89
1139.85	1591.11
1142.13	1600.89
1144.42	1604.89
1146.71	1590.89
1148.99	1593.78
1151.27	1589.33
1153.56	1600.67
1155.84	1593.11
1158.12	1588
1160.4	1561.78
1162.68	1578.44
1164.96	1574.67
1167.24	1585.11
1169.51	1543.33
1171.79	1551.11
1174.07	1549.11
1176.34	1549.56
1178.62	1560
1180.89	1531.56
1183.17	1537.33
1185.44	1542.22
1187.71	1534
1189.98	1540
1192.25	1544.89
1194.52	1538.67
1196.79	1537.56
1199.06	1544
1201.33	1534.67
1203.59	1546.44
1205.86	1528
1208.12	1530.67
1210.39	1539.33
1212.65	1546.44
1214.92	1540.44
1217.18	1532
1219.44	1534
1221.7	1523.56
1223.96	1536.67
1226.22	1529.33
1228.48	1532.44
1230.74	1504.22
1233	1522.67
1235.25	1514
1237.51	1530.22
1239.77	1506
1242.02	1510.44
1244.27	1519.33
1246.53	1519.78
1248.78	1546
1251.03	1550.89
1253.28	1506.22
1255.53	1508.89
1257.78	1515.11
1260.03	1516
1262.28	1512.22
1264.53	1526
1266.78	1519.33
1269.02	1542
1271.27	1518.67
1273.51	1530.89
1275.76	1516.44
1278	1515.11
1280.24	1498.22
1282.48	1521.11
1284.72	1483.78
1286.97	1511.56
1289.21	1509.11
1291.44	1516.89
1293.68	1500.89
1295.92	1506
1298.16	1500.67
1300.39	1491.11
1302.63	1496.44
1304.86	1489.56
1307.1	1496.22
1309.33	1509.56
1311.56	1503.56
1313.8	1498.44
1316.03	1516.22
1318.26	1498.67
1320.49	1488
1322.72	1493.11
1324.95	1510
1327.17	1512.22
1329.4	1502
1331.63	1523.11
1333.85	1510.67
1336.08	1525.78
1338.3	1532.44
1340.53	1555.78
1342.75	1561.33
1344.97	1538.44
1347.19	1528.67
1349.41	1499.33
1351.63	1500
1353.85	1492.67
1356.07	1495.56
1358.29	1481.11
1360.51	1479.33
1362.72	1488.89
1364.94	1481.56
1367.16	1487.56
1369.37	1492
1371.58	1483.11
1373.8	1488.67
1376.01	1483.78
1378.22	1494.22
1380.43	1498.44
1382.64	1484
1384.85	1488
1387.06	1480.67
1389.27	1472.22
1391.48	1468.89
1393.68	1450.67
1395.89	1471.11
1398.1	1454.67
1400.3	1457.11
1402.51	1447.33
1404.71	1450
1406.91	1446.44
1409.11	1428
1411.32	1426.89
1413.52	1438.22
1415.72	1443.56
1417.92	1435.56
1420.11	1422.67
1422.31	1435.11
1424.51	1428.44
1426.71	1441.11
1428.9	1421.11
1431.1	1436.89
1433.29	1438.89
1435.49	1444
1437.68	1443.56
1439.87	1442.22
1442.06	1432.44
1444.25	1456.89
1446.45	1461.78
1448.64	1469.56
1450.82	1484.22
1453.01	1484.44
1455.2	1464.89
1457.39	1443.11
1459.57	1446.44
1461.76	1445.78
1463.94	1444.67
1466.13	1428.44
1468.31	1440.89
1470.5	1429.78
1472.68	1436.89
1474.86	1443.11
1477.04	1435.33
1479.22	1455.33
1481.4	1450
1483.58	1441.56
1485.76	1447.33
1487.94	1439.11
1490.11	1423.11
1492.29	1435.56
1494.46	1412.44
1496.64	1432.22
1498.81	1427.78
1500.99	1436.44
1503.16	1431.11
1505.33	1432.67
1507.5	1439.33
1509.67	1429.11
1511.84	1435.33
1514.01	1428.44
1516.18	1431.11
1518.35	1439.11
1520.52	1434.44
1522.68	1432.22
1524.85	1449.33
1527.02	1471.56
1529.18	1503.56
1531.35	1482.22
1533.51	1492
1535.67	1449.78
1537.83	1428.44
1539.99	1431.33
1542.16	1435.78
1544.31	1431.33
1546.47	1411.78
1548.63	1424.44
1550.79	1431.11
1552.95	1441.56
1555.11	1423.78
1557.26	1440.44
1559.42	1416.22
1561.57	1448.67
1563.73	1428.67
1565.88	1426.67
1568.03	1418.89
1570.18	1444.22
1572.34	1465.11
1574.49	1434.67
1576.64	1451.11
1578.79	1441.56
1580.93	1450.44
1583.08	1456.22
1585.23	1454.22
1587.38	1471.11
1589.52	1460.22
1591.67	1480
1593.81	1437.56
1595.96	1436.22
1598.1	1440.89
1600.24	1442
1602.38	1437.33
1604.53	1419.78
1606.67	1410.89
1608.81	1404.67
1610.95	1389.33
1613.09	1390.89
1615.22	1390
1617.36	1375.33
1619.5	1390.22
1621.63	1378
1623.77	1358.67
1625.9	1333.33
1628.04	1348.22
1630.17	1347.11
1632.3	1340.89
1634.44	1339.56
1636.57	1331.11
1638.7	1328.44
1640.83	1333.11
1642.96	1309.78
1645.09	1306.44
1647.22	1293.33
1649.34	1300.89
1651.47	1292.67
1653.6	1294.89
1655.72	1294.22
1657.85	1280
1659.97	1271.33
1662.1	1264
1664.22	1284
1666.34	1257.11
1668.46	1257.33
1670.58	1261.56
1672.7	1278.44
1674.82	1259.11
1676.94	1268.44
1679.06	1258.67
1681.18	1270
1683.3	1257.78
1685.41	1249.78
1687.53	1261.33
1689.64	1264
1691.76	1263.11
1693.87	1242.89
1695.99	1256.44
1698.1	1248.89
1700.21	1260
1702.32	1254.44
1704.43	1232.89
1706.54	1232.22
1708.65	1220.44
1710.76	1252
1712.87	1230.44
1714.98	1242.44
1717.08	1227.78
1719.19	1230.22
1721.29	1230.44
1723.4	1217.33
1725.5	1229.33
1727.61	1219.78
1729.71	1222.22
1731.81	1220.67
1733.91	1226
1736.02	1216
1738.12	1204.22
1740.22	1197.33
1742.31	1210.89
1744.41	1199.78
1746.51	1191.11
1748.61	1194.67
1750.7	1186.22
1752.8	1187.78
1754.9	1188
1756.99	1190.44
1759.08	1188
1761.18	1198.22
1763.27	1185.78
1765.36	1190.67
1767.45	1171.33
1769.54	1209.11
1771.63	1182.22
1773.72	1169.11
1775.81	1169.56
1777.9	1170.22
1779.99	1181.78
1782.08	1165.33
1784.16	1179.11
1786.25	1158.67
1788.33	1172.44
1790.42	1180.22
1792.5	1173.56
1794.58	1180.22
1796.67	1164.67
1798.75	1154.44
1800.83	1159.11
1802.91	1156.44
1804.99	1169.33
1807.07	1161.78
1809.15	1162.89
1811.23	1156.67
1813.3	1148.89
1815.38	1141.33
1817.46	1162.89
1819.53	1145.11
1821.61	1169.11
1823.68	1165.56
1825.75	1122.22
1827.83	1148.89
1829.9	1126.22
1831.97	1126
1834.04	1131.56
1836.11	1148.89
1838.18	1119.56
1840.25	1132.67
1842.32	1121.56
1844.39	1126
1846.46	1112.44
1848.52	1118
1850.59	1126
1852.65	1114.22
1854.72	1117.33
1856.78	1116.44
1858.85	1110.22
1860.91	1104.22
1862.97	1088.22
1865.03	1104.22
1867.09	1120.44
1869.16	1088.44
1871.22	1107.11
1873.27	1094.67
1875.33	1092.89
1877.39	1101.78
1879.45	1096
1881.51	1087.78
1883.56	1098.22
1885.62	1095.33
1887.67	1097.78
1889.73	1079.33
1891.78	1094.44
1893.83	1084
1895.89	1093.56
1897.94	1078.44
1899.99	1085.56
1902.04	1070
1904.09	1080.22
1906.14	1075.78
1908.19	1087.11
1910.23	1073.78
1912.28	1070.89
1914.33	1066
1916.37	1081.56
1918.42	1078.89
1920.46	1073.78
1922.51	1069.78
1924.55	1077.11
1926.6	1061.78
1928.64	1054.44
1930.68	1059.33
1932.72	1068.44
1934.76	1052.67
1936.8	1047.33
1938.84	1048.67
1940.88	1044.44
1942.92	1056.22
1944.96	1043.11
1946.99	1028.67
1949.03	1043.78
1951.06	1040.67
1953.1	1031.56
1955.13	1046
1957.17	1019.11
1959.2	1010.89
1961.23	1041.78
1963.27	1029.33
1965.3	1017.33
1967.33	1012.89
1969.36	1018.44
1971.39	1012.67
1973.42	1004.67
1975.44	1012
1977.47	1018
1979.5	1001.78
1981.53	1009.11
1983.55	994.222
1985.58	989.111
1987.6	990.444
1989.63	995.778
1991.65	1004.44
1993.67	989.556
1995.69	996.222
1997.72	1000.22
1999.74	991.111
2001.76	991.556
2003.78	981.333
2005.8	980.889
2007.82	992
2009.83	990.222
2011.85	988
2013.87	994.889
2015.88	990.667
2017.9	984.444
2019.91	982.222
2021.93	976
2023.94	971.778
2025.96	976.889
2027.97	988
2029.98	980.444
2031.99	978.444
2034	967.778
2036.01	970
2038.02	973.556
2040.03	964.222
2042.04	962.667
2044.05	973.556
2046.05	973.556
2048.06	961.556
2050.07	967.333
2052.07	967.333
2054.08	962.222
2056.08	957.556
2058.08	943.556
2060.09	948.444
2062.09	958
2064.09	937.111
2066.09	936
2068.09	951.333
2070.09	942.889
2072.09	949.556
2074.09	950.667
2076.09	930.222
2078.09	932.667
2080.08	944
2082.08	933.778
2084.08	939.111
2086.07	921.333
2088.07	914.889
2090.06	928.222
2092.05	924
2094.05	918.889
2096.04	930.444
2098.03	915.111
2100.02	921.556
2102.01	922
2104	911.333
2105.99	907.333
2107.98	900.889
2109.97	904.889
2111.95	908.667
2113.94	905.778
2115.93	909.111
2117.91	909.333
2119.9	906.889
2121.88	898.667
2123.87	895.556
2125.85	904.444
2127.83	902.444
2129.81	904
2131.8	896.667
2133.78	882.889
2135.76	894
2137.74	906.222
2139.72	890.667
2141.69	881.556
2143.67	888.222
2145.65	879.111
2147.63	877.555
2149.6	876.667
2151.58	868.889
2153.55	876.889
2155.53	871.556
2157.5	868
2159.48	871.333
2161.45	869.778
2163.42	862
2165.39	870
2167.36	853.111
2169.33	861.333
2171.3	852
2173.27	849.778
2175.24	863.111
2177.21	840.444
2179.18	850.444
2181.14	846.444
2183.11	842
2185.07	844.889
2187.04	842.444
2189	848.889
2190.97	841.111
2192.93	844
2194.89	824.889
2196.86	840.889
2198.82	833.778
2200.78	827.111
2202.74	813.778
2204.7	822
2206.66	814
2208.62	829.556
2210.57	804.444
2212.53	824.667
2214.49	816.444
2216.45	826
2218.4	813.111
2220.36	810.222
2222.31	815.333
2224.27	798.444
2226.22	809.556
2228.17	800
2230.12	795.556
2232.08	804.667
2234.03	794.667
2235.98	799.556
2237.93	792.667
2239.88	785.333
2241.83	787.556
2243.78	778
2245.72	779.778
2247.67	790.444
2249.62	790.445
2251.56	784.444
2253.51	779.333
2255.45	781.333
2257.4	791.111
2259.34	756
2261.28	776
2263.23	770.445
2265.17	770.889
2267.11	772.667
2269.05	766.667
2270.99	753.111
2272.93	774.444
2274.87	768.667
2276.81	759.111
2278.75	751.778
2280.68	752
2282.62	760.222
2284.56	749.556
2286.49	739.556
2288.43	759.111
2290.36	752.667
2292.3	739.333
2294.23	732.889
2296.16	738.222
2298.09	749.333
2300.03	739.556
2301.96	731.778
2303.89	730.667
2305.82	734.445
2307.75	734.889
2309.68	718.445
2311.6	726.889
2313.53	728.889
2315.46	732.889
2317.39	717.778
2319.31	721.333
2321.24	724.444
2323.16	718
2325.09	712.222
2327.01	699.556
2328.93	714
2330.86	712.222
2332.78	706.889
2334.7	713.333
2336.62	716.667
2338.54	710
2340.46	708.889
2342.38	693.556
2344.3	690.444
2346.22	702.444
2348.14	700.444
2350.05	699.778
2351.97	702.667
2353.89	685.333
2355.8	689.333
2357.71	684.889
2359.63	676.222
2361.54	672.222
2363.46	692.444
2365.37	684.444
2367.28	682.889
2369.19	692.667
2371.1	677.111
2373.01	678
2374.92	675.778
2376.83	665.111
2378.74	672.222
2380.65	665.778
2382.56	666.889
2384.46	663.778
2386.37	664.444
2388.27	662.667
2390.18	661.778
2392.08	652.667
2393.99	664.444
2395.89	649.556
2397.8	660.889
2399.7	644
2401.6	649.556
2403.5	634.667
2405.4	638.667
2407.3	637.333
2409.2	645.333
2411.1	644.889
2413	648
2414.9	645.778
2416.8	635.111
2418.69	636.444
2420.59	633.333
2422.48	635.333
2424.38	626
2426.28	635.333
2428.17	630.222
2430.06	633.778
2431.96	633.333
2433.85	631.111
2435.74	632.444
2437.63	633.778
2439.52	635.333
2441.41	620.222
2443.3	620.222
2445.19	610.444
2447.08	616.667
