178.677	205.556
181.278	203.111
183.879	207.778
186.48	204
189.078	208
191.677	196.889
194.275	192
196.871	195.556
199.467	194.222
202.061	202.222
204.656	201.556
207.248	192.222
209.841	202
212.431	205.333
215.022	197.556
217.613	204.667
220.201	200.222
222.789	205.778
225.375	211.778
227.962	210.667
230.547	209.556
233.13	213.778
235.714	222.889
238.296	221.556
240.879	222.222
243.459	211.778
246.04	217.111
248.618	224.444
251.196	223.556
253.774	224
256.35	216.222
258.927	216.889
261.501	216
264.074	201.556
266.648	210.222
269.22	200.667
271.791	204.667
274.362	199.333
276.931	204.444
279.5	197.556
282.069	192.667
284.635	194.667
287.201	187.778
289.766	188
292.331	180.667
294.894	182.222
297.457	185.556
300.018	186.889
302.58	181.778
305.14	182.667
307.699	182.222
310.257	185.778
312.814	184.444
315.372	184
317.928	182.667
320.482	170.444
323.036	184.222
325.589	182
328.142	182
330.693	180.889
333.243	183.111
335.795	183.778
338.343	190.222
340.891	180.667
343.439	182.444
345.985	185.333
348.53	181.111
351.075	183.333
353.619	191.333
356.162	185.556
358.704	179.333
361.245	191.778
363.786	188.889
366.325	195.111
368.864	185.556
371.402	184.444
373.939	195.778
376.475	180.444
379.011	187.111
381.545	189.556
384.079	184.444
386.612	189.778
389.144	190.889
391.674	188.222
394.204	189.556
396.734	188.444
399.263	194.444
401.791	188.667
404.318	192.889
406.844	191.556
409.368	190.667
411.893	189.556
414.417	192.444
416.94	192.889
419.462	194.222
421.982	188.889
424.502	195.111
427.022	196.889
429.541	199.333
432.057	200
434.574	192.889
437.091	194.222
439.606	195.778
442.12	195.111
444.634	199.778
447.147	195.778
449.657	196.889
452.169	195.556
454.68	198.444
457.188	197.556
459.697	198
462.205	194.889
464.711	198.667
467.217	191.333
469.722	200.444
472.227	200.222
474.731	198
477.232	193.556
479.735	197.111
482.235	195.333
484.736	200
487.234	199.333
489.734	205.111
492.23	204.889
494.728	200.667
497.223	205.778
499.719	202.444
502.213	202.889
504.707	201.778
507.199	200
509.692	207.556
512.182	206.667
514.673	198.667
517.162	210.889
519.65	210.444
522.139	211.333
524.625	214.444
527.112	213.333
529.597	209.111
532.081	212.889
534.565	208.667
537.047	218.889
539.529	212.667
542.011	211.111
544.491	218.444
546.97	215.333
549.45	226.222
551.927	219.556
554.404	224.222
556.88	230.889
559.356	225.556
561.831	222
564.304	218.889
566.777	228.889
569.25	230.667
571.721	228.889
574.191	237.111
576.661	238
579.129	237.778
581.599	237.111
584.066	235.111
586.532	233.778
588.997	224.222
591.462	230.667
593.926	226.444
596.389	234
598.851	228.444
601.314	218
603.775	222.222
606.235	222
608.694	223.111
611.152	226.889
613.609	223.778
616.066	227.111
618.522	221.333
620.977	214.667
623.431	222.222
625.885	221.333
628.338	225.778
630.79	223.556
633.241	222
635.691	218.222
638.141	225.333
640.589	217.778
643.036	224.222
645.483	223.111
647.929	226.222
650.375	215.333
652.82	218.667
655.264	217.778
657.707	223.778
660.149	223.333
662.59	225.111
665.031	221.778
667.471	212.889
669.91	224
672.349	219.111
674.786	221.333
677.222	219.556
679.658	220.889
682.093	225.778
684.528	222.222
686.96	221.778
689.393	222
691.826	225.778
694.256	214.667
696.686	221.111
699.116	221.556
701.545	216.222
703.972	220
706.4	222
708.826	223.778
711.251	225.333
713.676	218.667
716.099	224.667
718.523	222.444
720.946	223.778
723.366	220
725.788	225.333
728.207	221.778
730.627	227.778
733.044	217.333
735.462	225.556
737.88	220.444
740.295	223.333
742.711	214.222
745.125	222
747.539	228
749.951	219.778
752.363	226
754.775	227.111
757.185	225.333
759.595	228.222
762.003	221.778
764.412	226.444
766.819	224.222
769.225	227.556
771.632	228
774.036	230
776.441	232.444
778.844	227.778
781.246	230
783.649	230
786.05	228
788.449	226
790.85	234
793.248	238.667
795.646	233.333
798.042	228.889
800.44	235.778
802.835	232.222
805.23	238.222
807.623	235.556
810.018	240.889
812.41	232.444
814.801	230.667
817.192	230.889
819.582	236.444
821.972	234.667
824.361	234.889
826.748	229.333
829.135	239.778
831.521	236.444
833.907	240.889
836.291	233.778
838.675	241.333
841.059	242.222
843.442	237.778
845.823	247.778
848.204	246.667
850.584	246.444
852.963	256.444
855.342	259.556
857.72	249.556
860.097	260.222
862.473	257.556
864.848	244.889
867.223	248
869.597	240
871.97	242.667
874.343	238.889
876.714	238.667
879.084	246.222
881.454	242
883.824	236.444
886.192	242.444
888.56	237.333
890.927	233.333
893.294	245.778
895.66	238
898.023	243.333
900.387	230.889
902.751	234
905.114	231.111
907.476	236.444
909.835	229.333
912.196	238.889
914.555	236
916.914	228.222
919.271	237.111
921.629	228.667
923.985	235.333
926.341	238.444
928.695	235.778
931.05	234.222
933.404	228
935.755	232.889
938.107	240.667
940.459	238.889
942.808	236
945.158	237.111
947.508	236.889
949.855	237.333
952.202	235.778
954.548	238
956.894	241.556
959.239	240.889
961.583	240
963.928	237.111
966.27	240.667
968.612	235.111
970.953	240.444
973.294	240.889
975.633	244.444
977.972	237.556
980.31	244.889
982.647	240.444
984.984	246.222
987.32	240.889
989.656	241.111
991.989	249.333
994.324	250.667
996.656	248
998.988	257.333
1001.32	253.333
1003.65	270.222
1005.98	277.778
1008.31	309.778
1010.64	347.778
1012.97	367.111
1015.29	373.333
1017.62	352.444
1019.94	340.667
1022.27	342.444
1024.59	314.444
1026.92	287.111
1029.24	272.889
1031.56	267.778
1033.88	270.667
1036.2	288.444
1038.52	302
1040.84	302.222
1043.16	281.556
1045.48	266.889
1047.79	262.667
1050.11	267.333
1052.42	261.778
1054.74	265.333
1057.05	259.333
1059.36	251.778
1061.67	255.778
1063.99	249.333
1066.3	248.444
1068.61	251.778
1070.92	250
1073.22	255.333
1075.53	241.778
1077.84	245.111
1080.15	251.333
1082.45	243.111
1084.76	242.889
1087.06	240.222
1089.36	244.444
1091.66	232.444
1093.97	250.444
1096.27	246
1098.57	248.889
1100.87	244.222
1103.17	250.889
1105.46	246.444
1107.76	251.778
1110.06	256.889
1112.35	250.222
1114.65	240.889
1116.94	250.889
1119.24	245.333
1121.53	248.667
1123.82	250.889
1126.11	242.222
1128.4	245.111
1130.7	245.111
1132.98	250.222
1135.27	251.111
1137.56	248.667
1139.85	250.444
1142.13	238.444
1144.42	246
1146.71	253.556
1148.99	255.111
1151.27	256.444
1153.56	254.444
1155.84	259.333
1158.12	246.889
1160.4	247.333
1162.68	257.333
1164.96	253.111
1167.24	251.556
1169.51	252.667
1171.79	248.222
1174.07	254
1176.34	253.111
1178.62	249.556
1180.89	253.556
1183.17	256.444
1185.44	252.889
1187.71	252.889
1189.98	257.556
1192.25	255.556
1194.52	249.778
1196.79	255.556
1199.06	252.667
1201.33	249.333
1203.59	260.444
1205.86	258.889
1208.12	250.444
1210.39	259.333
1212.65	265.333
1214.92	262
1217.18	253.333
1219.44	259.333
1221.7	258.667
1223.96	262.667
1226.22	267.333
1228.48	274.444
1230.74	264.889
1233	266.667
1235.25	273.333
1237.51	272.889
1239.77	261.333
1242.02	265.333
1244.27	265.556
1246.53	262.667
1248.78	262.444
1251.03	261.556
1253.28	264.667
1255.53	264
1257.78	263.556
1260.03	265.556
1262.28	270.222
1264.53	272.889
1266.78	271.556
1269.02	265.556
1271.27	272.667
1273.51	276
1275.76	275.333
1278	279.333
1280.24	269.333
1282.48	274.444
1284.72	266.444
1286.97	272.667
1289.21	261.778
1291.44	265.556
1293.68	274.667
1295.92	268.444
1298.16	270
1300.39	272
1302.63	269.111
1304.86	276.222
1307.1	265.556
1309.33	263.778
1311.56	261.556
1313.8	266.222
1316.03	262.889
1318.26	262.889
1320.49	266.889
1322.72	262.667
1324.95	260.444
1327.17	274
1329.4	260.444
1331.63	268.667
1333.85	269.556
1336.08	264.889
1338.3	267.111
1340.53	266.222
1342.75	271.778
1344.97	270.667
1347.19	273.333
1349.41	272.889
1351.63	271.778
1353.85	271.778
1356.07	269.333
1358.29	275.111
1360.51	269.556
1362.72	270.889
1364.94	265.333
1367.16	269.333
1369.37	261.556
1371.58	267.556
1373.8	263.778
1376.01	263.778
1378.22	269.333
1380.43	266.889
1382.64	270.222
1384.85	266.889
1387.06	256.667
1389.27	264.889
1391.48	258.444
1393.68	262.889
1395.89	250.889
1398.1	261.556
1400.3	259.111
1402.51	256.889
1404.71	253.556
1406.91	259.333
1409.11	260.667
1411.32	259.333
1413.52	256.444
1415.72	248.889
1417.92	260
1420.11	264.222
1422.31	259.111
1424.51	254
1426.71	263.333
1428.9	268.444
1431.1	268.889
1433.29	274.667
1435.49	262
1437.68	271.778
1439.87	267.333
1442.06	272
1444.25	270.889
1446.45	263.111
1448.64	277.556
1450.82	268
1453.01	262.444
1455.2	266.889
1457.39	266.444
1459.57	268.667
1461.76	261.778
1463.94	265.556
1466.13	259.778
1468.31	264.222
1470.5	256.222
1472.68	263.111
1474.86	263.333
1477.04	262.222
1479.22	258.222
1481.4	267.333
1483.58	264.444
1485.76	260.444
1487.94	262
1490.11	267.333
1492.29	260.667
1494.46	260.889
1496.64	259.111
1498.81	272.667
1500.99	259.111
1503.16	269.778
1505.33	259.778
1507.5	258.222
1509.67	263.556
1511.84	264.889
1514.01	263.778
1516.18	268.667
1518.35	260.667
1520.52	265.556
1522.68	260.222
1524.85	262.444
1527.02	272
1529.18	254.444
1531.35	265.556
1533.51	268.889
1535.67	270.444
1537.83	270.667
1539.99	265.778
1542.16	265.111
1544.31	265.778
1546.47	268.889
1548.63	264.667
1550.79	256.222
1552.95	271.333
1555.11	263.111
1557.26	267.556
1559.42	260.667
1561.57	280.667
1563.73	269.333
1565.88	271.333
1568.03	268.889
1570.18	273.333
1572.34	276.889
1574.49	275.778
1576.64	276.889
1578.79	276.667
1580.93	279.333
1583.08	276
1585.23	279.778
1587.38	278.222
1589.52	271.556
1591.67	279.111
1593.81	277.333
1595.96	285.111
1598.1	288
1600.24	295.111
1602.38	298
1604.53	292.444
1606.67	298
1608.81	287.778
1610.95	288
1613.09	280.444
1615.22	281.111
1617.36	274.444
1619.5	272.667
1621.63	270.889
1623.77	273.778
1625.9	263.778
1628.04	260.222
1630.17	268.444
1632.3	264.667
1634.44	261.111
1636.57	266.222
1638.7	260.444
1640.83	257.333
1642.96	264
1645.09	252.444
1647.22	257.778
1649.34	250.667
1651.47	251.111
1653.6	258.667
1655.72	253.333
1657.85	250.889
1659.97	252.667
1662.1	244.222
1664.22	252.444
1666.34	246.222
1668.46	249.333
1670.58	248
1672.7	250
1674.82	244.444
1676.94	238.444
1679.06	243.111
1681.18	244.444
1683.3	238.444
1685.41	240.444
1687.53	247.778
1689.64	246.444
1691.76	234.667
1693.87	239.556
1695.99	240.889
1698.1	237.333
1700.21	238.667
1702.32	235.333
1704.43	237.778
1706.54	242
1708.65	245.556
1710.76	242.444
1712.87	236.222
1714.98	242.222
1717.08	240.889
1719.19	243.111
1721.29	241.333
1723.4	231.778
1725.5	239.333
1727.61	237.111
1729.71	234.667
1731.81	237.111
1733.91	236
1736.02	232
1738.12	233.111
1740.22	231.556
1742.31	234.444
1744.41	236.444
1746.51	232.667
1748.61	234
1750.7	230.222
1752.8	226.889
1754.9	231.111
1756.99	228.222
1759.08	230.667
1761.18	231.111
1763.27	227.333
1765.36	228.667
1767.45	225.111
1769.54	237.333
1771.63	232.667
1773.72	225.556
1775.81	227.333
1777.9	225.778
1779.99	231.333
1782.08	234.667
1784.16	232.222
1786.25	224.889
1788.33	231.333
1790.42	232
1792.5	230.444
1794.58	225.556
1796.67	227.333
1798.75	227.111
1800.83	227.333
1802.91	226.889
1804.99	231.111
1807.07	226.667
1809.15	224.889
1811.23	219.778
1813.3	230.222
1815.38	220.889
1817.46	231.778
1819.53	224.444
1821.61	229.556
1823.68	220.667
1825.75	223.556
1827.83	226.889
1829.9	230
1831.97	220.889
1834.04	225.778
1836.11	223.333
1838.18	227.333
1840.25	227.556
1842.32	224.444
1844.39	219.111
1846.46	221.333
1848.52	221.333
1850.59	222.667
1852.65	218.444
1854.72	226.667
1856.78	221.111
1858.85	217.778
1860.91	222.222
1862.97	218.444
1865.03	222.444
1867.09	213.333
1869.16	216.222
1871.22	220
1873.27	215.111
1875.33	219.556
1877.39	219.778
1879.45	218.444
1881.51	227.333
1883.56	216.222
1885.62	219.333
1887.67	218.889
1889.73	226.444
1891.78	217.111
1893.83	222.444
1895.89	219.778
1897.94	221.778
1899.99	218.889
1902.04	222.222
1904.09	220
1906.14	224.222
1908.19	222.444
1910.23	217.111
1912.28	220.667
1914.33	224
1916.37	222.222
1918.42	218.667
1920.46	221.556
1922.51	213.556
1924.55	219.111
1926.6	219.111
1928.64	219.111
1930.68	222.444
1932.72	221.778
1934.76	216.889
1936.8	210
1938.84	220.889
1940.88	213.556
1942.92	215.556
1944.96	215.333
1946.99	214.667
1949.03	211.333
1951.06	210
1953.1	221.333
1955.13	217.556
1957.17	213.111
1959.2	212.889
1961.23	216
1963.27	214.222
1965.3	211.778
1967.33	216
1969.36	216.222
1971.39	218.222
1973.42	215.556
1975.44	218.222
1977.47	217.111
1979.5	211.111
1981.53	212.222
1983.55	214
1985.58	213.333
1987.6	211.778
1989.63	203.333
1991.65	213.111
1993.67	212
1995.69	213.778
1997.72	214.667
1999.74	213.556
2001.76	213.333
2003.78	213.333
2005.8	210.667
2007.82	209.778
2009.83	209.333
2011.85	217.556
2013.87	217.556
2015.88	216.444
2017.9	218
2019.91	219.111
2021.93	211.333
2023.94	211.333
2025.96	209.111
2027.97	213.111
2029.98	215.111
2031.99	213.111
2034	207.778
2036.01	214.222
2038.02	216.889
2040.03	215.333
2042.04	216.667
2044.05	213.778
2046.05	211.333
2048.06	216.667
2050.07	208.444
2052.07	216.222
2054.08	214
2056.08	205.778
2058.08	211.778
2060.09	213.333
2062.09	209.778
2064.09	208.667
2066.09	198.667
2068.09	218.889
2070.09	214
2072.09	209.778
2074.09	204.667
2076.09	210.222
2078.09	209.778
2080.08	214
2082.08	207.778
2084.08	214
2086.07	207.556
2088.07	204.444
2090.06	211.556
2092.05	210.667
2094.05	212.222
2096.04	210.222
2098.03	211.778
2100.02	210
2102.01	207.111
2104	206.222
2105.99	208.889
2107.98	209.778
2109.97	206.444
2111.95	210
2113.94	206
2115.93	217.111
2117.91	212.889
2119.9	210.444
2121.88	210
2123.87	207.778
2125.85	214
2127.83	210.444
2129.81	214.222
2131.8	207.778
2133.78	208.889
2135.76	207.556
2137.74	208.889
2139.72	204.222
2141.69	215.111
2143.67	209.111
2145.65	209.333
2147.63	214.889
2149.6	214.444
2151.58	213.778
2153.55	211.556
2155.53	205.333
2157.5	212.444
2159.48	214
2161.45	206
2163.42	217.333
2165.39	218.667
2167.36	212
2169.33	221.111
2171.3	213.333
2173.27	217.333
2175.24	215.556
2177.21	216
2179.18	213.333
2181.14	216.222
2183.11	216.444
2185.07	220.667
2187.04	214.889
2189	219.111
2190.97	216.222
2192.93	213.333
2194.89	207.556
2196.86	212.222
2198.82	209.333
2200.78	207.333
2202.74	211.333
2204.7	204.444
2206.66	208.444
2208.62	204.667
2210.57	210
2212.53	204.889
2214.49	201.778
2216.45	201.111
2218.4	204.222
2220.36	203.111
2222.31	202.444
2224.27	208.667
2226.22	205.556
2228.17	200
2230.12	210.444
2232.08	202.444
2234.03	193.556
2235.98	205.778
2237.93	197.111
2239.88	201.111
2241.83	198
2243.78	193.556
2245.72	198.889
2247.67	199.111
2249.62	198.889
2251.56	202.222
2253.51	199.111
2255.45	198.222
2257.4	206.889
2259.34	203.333
2261.28	206.667
2263.23	196.889
2265.17	200.222
2267.11	196.889
2269.05	196
2270.99	197.556
2272.93	194
2274.87	196.444
2276.81	189.556
2278.75	190.667
2280.68	200
2282.62	196.667
2284.56	201.778
2286.49	192.667
2288.43	191.556
2290.36	198.889
2292.3	197.333
2294.23	193.556
2296.16	198.889
2298.09	199.111
2300.03	190.889
2301.96	191.556
2303.89	193.778
2305.82	189.778
2307.75	195.778
2309.68	196.222
2311.6	193.333
2313.53	196.889
2315.46	197.556
2317.39	196.667
2319.31	193.778
2321.24	201.111
2323.16	192
2325.09	195.333
2327.01	197.778
2328.93	196.444
2330.86	196.222
2332.78	193.556
2334.7	192.667
2336.62	189.556
2338.54	192.889
2340.46	190
2342.38	195.556
2344.3	191.778
2346.22	196.222
2348.14	188.889
2350.05	189.556
2351.97	189.556
2353.89	189.778
2355.8	188.222
2357.71	194.444
2359.63	191.778
2361.54	196.667
2363.46	190
2365.37	190.667
2367.28	188.444
2369.19	190
2371.1	192.222
2373.01	189.111
2374.92	190.444
2376.83	189.111
2378.74	194
2380.65	187.111
2382.56	192.444
2384.46	187.778
2386.37	190.889
2388.27	188.222
2390.18	184.444
2392.08	195.333
2393.99	193.111
2395.89	188
2397.8	189.556
2399.7	191.111
2401.6	188.444
2403.5	185.778
2405.4	187.111
2407.3	180.444
2409.2	190.444
2411.1	185.556
2413	188.222
2414.9	188
2416.8	188.222
2418.69	192
2420.59	182.444
2422.48	188.222
2424.38	187.111
2426.28	188.222
2428.17	186.444
2430.06	188.667
2431.96	186.667
2433.85	186.889
2435.74	188.889
2437.63	185.778
2439.52	191.556
2441.41	190.667
2443.3	185.556
2445.19	188.444
2447.08	188.667
