178.677	1779.78
181.278	1792.22
183.879	1785.33
186.48	1792.44
189.078	1816.22
191.677	1813.78
194.275	1812.67
196.871	1821.56
199.467	1824.89
202.061	1846.89
204.656	1829.56
207.248	1849.11
209.841	1843.33
212.431	1891.78
215.022	1882.67
217.613	1874
220.201	1898.67
222.789	1901.56
225.375	1900.67
227.962	1906.44
230.547	1919.78
233.13	1957.33
235.714	1965.11
238.296	1966
240.879	1971.56
243.459	1979.78
246.04	1990
248.618	1988
251.196	1999.33
253.774	2001.78
256.35	1992.89
258.927	1998.44
261.501	2005.78
264.074	1985.33
266.648	1998.22
269.22	2004.44
271.791	1985.78
274.362	2008
276.931	2008.89
279.5	2000.89
282.069	1989.56
284.635	1992.67
287.201	2002.44
289.766	2005.56
292.331	1992.67
294.894	2018.22
297.457	2014
300.018	2013.78
302.58	2025.56
305.14	2013.11
307.699	2016
310.257	2039.11
312.814	2015.11
315.372	2021.11
317.928	2014.22
320.482	1989.11
323.036	2015.33
325.589	2017.11
328.142	2025.33
330.693	2033.56
333.243	2017.33
335.795	2022
338.343	2024.44
340.891	2042.89
343.439	2039.78
345.985	2052.22
348.53	2056.67
351.075	2059.78
353.619	2065.56
356.162	2074.67
358.704	2088
361.245	2082.89
363.786	2086
366.325	2100.22
368.864	2093.78
371.402	2106.89
373.939	2084.67
376.475	2133.56
379.011	2119.78
381.545	2127.56
384.079	2117.78
386.612	2122
389.144	2110.67
391.674	2105.33
394.204	2113.56
396.734	2100.89
399.263	2103.78
401.791	2101.33
404.318	2111.33
406.844	2136.67
409.368	2117.11
411.893	2132.22
414.417	2147.33
416.94	2154.89
419.462	2140.89
421.982	2140.67
424.502	2162
427.022	2170.22
429.541	2160
432.057	2175.56
434.574	2148
437.091	2172.22
439.606	2189.11
442.12	2181.56
444.634	2140
447.147	2168.89
449.657	2171.11
452.169	2160.44
454.68	2193.11
457.188	2165.11
459.697	2179.11
462.205	2188.89
464.711	2189.11
467.217	2157.33
469.722	2186
472.227	2180.22
474.731	2195.33
477.232	2206.89
479.735	2205.33
482.235	2218.67
484.736	2202.22
487.234	2219.56
489.734	2206.22
492.23	2204.22
494.728	2221.11
497.223	2211.11
499.719	2238.67
502.213	2220.89
504.707	2213.78
507.199	2229.33
509.692	2230.44
512.182	2210.44
514.673	2231.78
517.162	2217.78
519.65	2232.44
522.139	2212.44
524.625	2216.67
527.112	2213.56
529.597	2232.89
532.081	2213.56
534.565	2223.33
537.047	2226.44
539.529	2246.89
542.011	2228.89
544.491	2245.78
546.97	2232.44
549.45	2238.89
551.927	2245.11
554.404	2237.11
556.88	2244
559.356	2273.78
561.831	2258.44
564.304	2241.56
566.777	2255.56
569.25	2265.56
571.721	2264
574.191	2266
576.661	2257.33
579.129	2262.89
581.599	2239.56
584.066	2230
586.532	2249.33
588.997	2252.22
591.462	2224
593.926	2248.67
596.389	2247.11
598.851	2247.33
601.314	2251.78
603.775	2226.67
606.235	2238
608.694	2260.22
611.152	2265.33
613.609	2263.11
616.066	2263.56
618.522	2266.89
620.977	2283.78
623.431	2281.11
625.885	2259.78
628.338	2283.33
630.79	2285.11
633.241	2290
635.691	2274.22
638.141	2298.22
640.589	2284.67
643.036	2284.67
645.483	2285.78
647.929	2286.67
650.375	2285.78
652.82	2289.56
655.264	2257.56
657.707	2288.89
660.149	2256.44
662.59	2259.56
665.031	2278.67
667.471	2251.56
669.91	2279.56
672.349	2258.22
674.786	2254.22
677.222	2275.56
679.658	2260.67
682.093	2285.56
684.528	2266.44
686.96	2281.56
689.393	2266.89
691.826	2264.22
694.256	2280.44
696.686	2271.78
699.116	2288
701.545	2278.44
703.972	2278
706.4	2288.22
708.826	2286.44
711.251	2287.56
713.676	2291.56
716.099	2291.56
718.523	2286.44
720.946	2313.11
723.366	2278.22
725.788	2275.33
728.207	2294.22
730.627	2281.33
733.044	2270.89
735.462	2272
737.88	2264.44
740.295	2279.56
742.711	2271.56
745.125	2252.22
747.539	2246.67
749.951	2254.22
752.363	2240.89
754.775	2247.11
757.185	2243.56
759.595	2244.22
762.003	2243.56
764.412	2236.44
766.819	2271.56
769.225	2230.67
771.632	2231.11
774.036	2249.33
776.441	2242
778.844	2242
781.246	2258
783.649	2269.78
786.05	2241.56
788.449	2251.78
790.85	2254.44
793.248	2259.11
795.646	2256.44
798.042	2251.78
800.44	2238
802.835	2259.56
805.23	2246.22
807.623	2245.11
810.018	2258.89
812.41	2239.56
814.801	2251.56
817.192	2219.11
819.582	2227.78
821.972	2241.78
824.361	2242.89
826.748	2223.56
829.135	2216.89
831.521	2221.33
833.907	2242.89
836.291	2215.11
838.675	2216
841.059	2201.11
843.442	2203.11
845.823	2225.33
848.204	2211.56
850.584	2215.11
852.963	2224
855.342	2221.56
857.72	2232
860.097	2222.44
862.473	2225.78
864.848	2216.67
867.223	2218.22
869.597	2227.11
871.97	2222.89
874.343	2226
876.714	2234
879.084	2244.22
881.454	2230.67
883.824	2242.44
886.192	2218.44
888.56	2213.78
890.927	2225.33
893.294	2188.44
895.66	2208.89
898.023	2208.67
900.387	2202.22
902.751	2193.78
905.114	2201.78
907.476	2188.67
909.835	2193.11
912.196	2191.11
914.555	2182.22
916.914	2185.33
919.271	2161.78
921.629	2175.78
923.985	2182.22
926.341	2158.22
928.695	2162.22
931.05	2153.56
933.404	2155.11
935.755	2156.67
938.107	2170.44
940.459	2139.56
942.808	2135.33
945.158	2160.44
947.508	2153.78
949.855	2146
952.202	2147.33
954.548	2177.56
956.894	2162
959.239	2150.44
961.583	2189.78
963.928	2163.11
966.27	2158.44
968.612	2141.78
970.953	2164.89
973.294	2157.33
975.633	2154
977.972	2166
980.31	2167.78
982.647	2162
984.984	2163.56
987.32	2164.67
989.656	2149.33
991.989	2139.11
994.324	2135.11
996.656	2152
998.988	2167.56
1001.32	2174
1003.65	2216.67
1005.98	2226.67
1008.31	2278.67
1010.64	2355.78
1012.97	2432.44
1015.29	2448.67
1017.62	2404
1019.94	2308.44
1022.27	2258.22
1024.59	2198.67
1026.92	2169.33
1029.24	2164.67
1031.56	2158.22
1033.88	2191.11
1036.2	2216.89
1038.52	2257.78
1040.84	2251.56
1043.16	2171.78
1045.48	2152.89
1047.79	2112
1050.11	2114.67
1052.42	2124.22
1054.74	2112.89
1057.05	2112.44
1059.36	2116
1061.67	2130
1063.99	2142.22
1066.3	2104
1068.61	2128.44
1070.92	2133.56
1073.22	2128.44
1075.53	2130
1077.84	2115.33
1080.15	2109.56
1082.45	2133.11
1084.76	2113.56
1087.06	2132.44
1089.36	2134
1091.66	2138.67
1093.97	2171.33
1096.27	2176
1098.57	2179.56
1100.87	2146.67
1103.17	2134.22
1105.46	2124.44
1107.76	2141.78
1110.06	2118
1112.35	2126.67
1114.65	2132.67
1116.94	2133.56
1119.24	2119.11
1121.53	2160.67
1123.82	2146.44
1126.11	2144.22
1128.4	2162
1130.7	2133.78
1132.98	2127.33
1135.27	2127.56
1137.56	2122.22
1139.85	2117.56
1142.13	2119.11
1144.42	2113.33
1146.71	2117.11
1148.99	2132.89
1151.27	2121.33
1153.56	2137.11
1155.84	2129.78
1158.12	2132.44
1160.4	2119.11
1162.68	2115.11
1164.96	2108
1167.24	2125.33
1169.51	2109.78
1171.79	2107.56
1174.07	2092.22
1176.34	2100.44
1178.62	2086.22
1180.89	2088
1183.17	2087.56
1185.44	2061.11
1187.71	2067.56
1189.98	2055.33
1192.25	2063.78
1194.52	2026.67
1196.79	2073.78
1199.06	2042.67
1201.33	2068.22
1203.59	2061.78
1205.86	2076.89
1208.12	2082.89
1210.39	2079.78
1212.65	2076.22
1214.92	2057.11
1217.18	2060.89
1219.44	2065.78
1221.7	2083.33
1223.96	2058.22
1226.22	2062.67
1228.48	2066.44
1230.74	2058
1233	2067.33
1235.25	2073.33
1237.51	2070
1239.77	2081.11
1242.02	2081.11
1244.27	2052
1246.53	2073.11
1248.78	2074.89
1251.03	2068.44
1253.28	2078.67
1255.53	2043.78
1257.78	2078.22
1260.03	2082.89
1262.28	2058.89
1264.53	2046
1266.78	2050
1269.02	2085.56
1271.27	2072.67
1273.51	2059.11
1275.76	2049.11
1278	2075.56
1280.24	2060.67
1282.48	2048.89
1284.72	2032
1286.97	2046.44
1289.21	2043.11
1291.44	2062.22
1293.68	2014.22
1295.92	2044.44
1298.16	2049.56
1300.39	2031.56
1302.63	2063.33
1304.86	2042.67
1307.1	2030.67
1309.33	2050.22
1311.56	2039.56
1313.8	2026.67
1316.03	2007.78
1318.26	2032
1320.49	2047.33
1322.72	2014
1324.95	2029.33
1327.17	2008.22
1329.4	2035.11
1331.63	2018.89
1333.85	2014.89
1336.08	2042.67
1338.3	2056
1340.53	2068.89
1342.75	2045.56
1344.97	2059.78
1347.19	2012.22
1349.41	2013.78
1351.63	2012.22
1353.85	2035.78
1356.07	2043.56
1358.29	2036.67
1360.51	2027.56
1362.72	2013.33
1364.94	2018.44
1367.16	2018.44
1369.37	2015.56
1371.58	2034.22
1373.8	2022.67
1376.01	2027.11
1378.22	2014
1380.43	2018.44
1382.64	2028
1384.85	2018.89
1387.06	2009.33
1389.27	1992.44
1391.48	1983.78
1393.68	1975.56
1395.89	1956
1398.1	1970.44
1400.3	1944.44
1402.51	1979.56
1404.71	1964.44
1406.91	1966.67
1409.11	1946
1411.32	1960.22
1413.52	1959.33
1415.72	1964.44
1417.92	1957.11
1420.11	1950.22
1422.31	1958.22
1424.51	1939.78
1426.71	1961.33
1428.9	1949.33
1431.1	1943.78
1433.29	1958.44
1435.49	1964.22
1437.68	1955.33
1439.87	1968.89
1442.06	1964.89
1444.25	1957.56
1446.45	1963.56
1448.64	1995.33
1450.82	1971.11
1453.01	1994.89
1455.2	1988.89
1457.39	1963.11
1459.57	1974.89
1461.76	1982.22
1463.94	1968.67
1466.13	1976.89
1468.31	1972.22
1470.5	1973.56
1472.68	1980.44
1474.86	1977.33
1477.04	1991.56
1479.22	1969.56
1481.4	1988.22
1483.58	1978.22
1485.76	1982.89
1487.94	1947.11
1490.11	1979.56
1492.29	1988.22
1494.46	1960.22
1496.64	1972.22
1498.81	1992.67
1500.99	1979.78
1503.16	1981.11
1505.33	1995.11
1507.5	2007.11
1509.67	2034
1511.84	2014.22
1514.01	2031.33
1516.18	2008.44
1518.35	2029.78
1520.52	2023.78
1522.68	2075.11
1524.85	2021.11
1527.02	2031.56
1529.18	2048.44
1531.35	2034.44
1533.51	2043.33
1535.67	2044.67
1537.83	2019.56
1539.99	2016.44
1542.16	2021.78
1544.31	2002
1546.47	2004.44
1548.63	2016.67
1550.79	2010.22
1552.95	2021.78
1555.11	2006
1557.26	2008.44
1559.42	2024.89
1561.57	2012.22
1563.73	2023.56
1565.88	2028.44
1568.03	2021.33
1570.18	2022.44
1572.34	2032.22
1574.49	1999.33
1576.64	2010.22
1578.79	2026.89
1580.93	2029.11
1583.08	2011.11
1585.23	2003.56
1587.38	2009.78
1589.52	1993.78
1591.67	2008.22
1593.81	1999.78
1595.96	2011.78
1598.1	1990.22
1600.24	1999.33
1602.38	2001.78
1604.53	1971.11
1606.67	1976
1608.81	1947.56
1610.95	1948.22
1613.09	1934
1615.22	1905.56
1617.36	1913.78
1619.5	1892.89
1621.63	1891.78
1623.77	1863.11
1625.9	1868
1628.04	1852.89
1630.17	1870.44
1632.3	1822.67
1634.44	1842.44
1636.57	1838.44
1638.7	1807.56
1640.83	1799.33
1642.96	1792.67
1645.09	1769.11
1647.22	1769.33
1649.34	1775.11
1651.47	1757.11
1653.6	1748.44
1655.72	1750.89
1657.85	1728.89
1659.97	1739.11
1662.1	1710.67
1664.22	1714.67
1666.34	1744
1668.46	1713.33
1670.58	1712.44
1672.7	1713.33
1674.82	1705.78
1676.94	1704.67
1679.06	1698.22
1681.18	1694.44
1683.3	1695.11
1685.41	1685.33
1687.53	1684.44
1689.64	1682
1691.76	1687.56
1693.87	1662.89
1695.99	1690.22
1698.1	1672.89
1700.21	1669.78
1702.32	1663.33
1704.43	1672.22
1706.54	1650.22
1708.65	1668.89
1710.76	1655.33
1712.87	1651.78
1714.98	1647.78
1717.08	1648.67
1719.19	1660.67
1721.29	1653.78
1723.4	1643.11
1725.5	1651.56
1727.61	1638
1729.71	1634
1731.81	1625.78
1733.91	1625.11
1736.02	1626.22
1738.12	1607.78
1740.22	1604.44
1742.31	1613.33
1744.41	1604
1746.51	1615.33
1748.61	1612.67
1750.7	1610.89
1752.8	1588.22
1754.9	1587.33
1756.99	1590.89
1759.08	1599.33
1761.18	1584.89
1763.27	1573.56
1765.36	1591.11
1767.45	1585.11
1769.54	1565.33
1771.63	1575.33
1773.72	1566.67
1775.81	1585.78
1777.9	1558.89
1779.99	1550.44
1782.08	1574.67
1784.16	1571.11
1786.25	1563.56
1788.33	1562.89
1790.42	1545.78
1792.5	1554.89
1794.58	1560
1796.67	1557.11
1798.75	1558.44
1800.83	1550
1802.91	1557.78
1804.99	1575.11
1807.07	1539.11
1809.15	1546.89
1811.23	1550.89
1813.3	1530
1815.38	1552.67
1817.46	1541.78
1819.53	1533.33
1821.61	1542
1823.68	1520
1825.75	1503.56
1827.83	1533.33
1829.9	1520.44
1831.97	1501.78
1834.04	1483.11
1836.11	1519.11
1838.18	1516.67
1840.25	1502.44
1842.32	1493.78
1844.39	1486.22
1846.46	1492.44
1848.52	1498.22
1850.59	1474.67
1852.65	1493.56
1854.72	1497.78
1856.78	1480.89
1858.85	1477.33
1860.91	1466.44
1862.97	1456.67
1865.03	1469.78
1867.09	1470.67
1869.16	1461.33
1871.22	1465.11
1873.27	1460.22
1875.33	1454.22
1877.39	1455.33
1879.45	1442.44
1881.51	1454.22
1883.56	1451.56
1885.62	1455.11
1887.67	1459.78
1889.73	1422
1891.78	1446.44
1893.83	1446.89
1895.89	1433.78
1897.94	1439.56
1899.99	1434.22
1902.04	1435.33
1904.09	1428
1906.14	1441.78
1908.19	1439.78
1910.23	1430.22
1912.28	1422.67
1914.33	1426
1916.37	1423.33
1918.42	1406.67
1920.46	1414.44
1922.51	1415.56
1924.55	1423.11
1926.6	1407.78
1928.64	1402.44
1930.68	1420.44
1932.72	1404
1934.76	1390.89
1936.8	1404.67
1938.84	1394
1940.88	1396.44
1942.92	1402.44
1944.96	1403.11
1946.99	1394.22
1949.03	1387.33
1951.06	1380.22
1953.1	1377.56
1955.13	1378
1957.17	1383.11
1959.2	1360.67
1961.23	1365.78
1963.27	1374.67
1965.3	1354.22
1967.33	1349.33
1969.36	1340.22
1971.39	1348.22
1973.42	1330.44
1975.44	1339.56
1977.47	1339.56
1979.5	1346.22
1981.53	1317.56
1983.55	1332.22
1985.58	1337.78
1987.6	1316.67
1989.63	1330.89
1991.65	1325.78
1993.67	1334.89
1995.69	1335.33
1997.72	1335.56
1999.74	1330.89
2001.76	1324
2003.78	1297.78
2005.8	1324
2007.82	1317.33
2009.83	1310
2011.85	1304.89
2013.87	1311.78
2015.88	1306.89
2017.9	1304.22
2019.91	1310.89
2021.93	1313.56
2023.94	1306.22
2025.96	1300.89
2027.97	1293.56
2029.98	1317.56
2031.99	1298.22
2034	1297.33
2036.01	1293.78
2038.02	1291.33
2040.03	1281.78
2042.04	1283.56
2044.05	1299.11
2046.05	1292.89
2048.06	1287.33
2050.07	1261.33
2052.07	1268.22
2054.08	1275.56
2056.08	1273.56
2058.08	1273.33
2060.09	1259.78
2062.09	1267.56
2064.09	1255.11
2066.09	1271.33
2068.09	1270.89
2070.09	1253.33
2072.09	1262.44
2074.09	1247.78
2076.09	1260.67
2078.09	1248.22
2080.08	1249.56
2082.08	1258
2084.08	1252
2086.07	1248.44
2088.07	1228.44
2090.06	1228.22
2092.05	1226.67
2094.05	1213.78
2096.04	1222.22
2098.03	1226.67
2100.02	1226.89
2102.01	1224.44
2104	1232.22
2105.99	1220.67
2107.98	1232
2109.97	1230.67
2111.95	1224.44
2113.94	1229.33
2115.93	1224.22
2117.91	1223.33
2119.9	1240.44
2121.88	1236.44
2123.87	1227.78
2125.85	1236.44
2127.83	1239.78
2129.81	1232
2131.8	1250.22
2133.78	1234
2135.76	1219.11
2137.74	1228.89
2139.72	1230.22
2141.69	1232.44
2143.67	1224.22
2145.65	1200.22
2147.63	1224.22
2149.6	1204
2151.58	1211.11
2153.55	1192.89
2155.53	1202
2157.5	1173.56
2159.48	1189.56
2161.45	1204.89
2163.42	1190.67
2165.39	1186
2167.36	1189.78
2169.33	1178.89
2171.3	1173.11
2173.27	1166
2175.24	1161.11
2177.21	1163.56
2179.18	1151.11
2181.14	1149.33
2183.11	1142.67
2185.07	1141.11
2187.04	1146.89
2189	1130.67
2190.97	1134.44
2192.93	1125.56
2194.89	1114
2196.86	1114.44
2198.82	1127.33
2200.78	1121.56
2202.74	1105.11
2204.7	1099.11
2206.66	1106
2208.62	1105.33
2210.57	1093.78
2212.53	1098.67
2214.49	1087.56
2216.45	1094
2218.4	1091.56
2220.36	1100.67
2222.31	1085.33
2224.27	1082.89
2226.22	1077.11
2228.17	1067.78
2230.12	1069.11
2232.08	1081.78
2234.03	1061.33
2235.98	1067.78
2237.93	1061.33
2239.88	1060.22
2241.83	1056.22
2243.78	1046.22
2245.72	1044.67
2247.67	1044.89
2249.62	1035.78
2251.56	1044.44
2253.51	1038.67
2255.45	1045.56
2257.4	1033.33
2259.34	1022.44
2261.28	1032.22
2263.23	1032.44
2265.17	1031.11
2267.11	1039.78
2269.05	1032.22
2270.99	1016.22
2272.93	1018.89
2274.87	1016
2276.81	1020.44
2278.75	1016.67
2280.68	1001.56
2282.62	1004.89
2284.56	1005.78
2286.49	1015.11
2288.43	988.667
2290.36	1008.22
2292.3	992.889
2294.23	993.111
2296.16	977.778
2298.09	983.111
2300.03	983.333
2301.96	967.778
2303.89	987.556
2305.82	988
2307.75	977.333
2309.68	977.556
2311.6	980
2313.53	963.555
2315.46	964
2317.39	972.222
2319.31	966.667
2321.24	964.222
2323.16	957.111
2325.09	961.111
2327.01	955.556
2328.93	951.778
2330.86	952.667
2332.78	935.556
2334.7	942.667
2336.62	935.333
2338.54	941.333
2340.46	942
2342.38	954.667
2344.3	947.333
2346.22	942.222
2348.14	922
2350.05	930.889
2351.97	932
2353.89	929.333
2355.8	927.111
2357.71	924.444
2359.63	918.667
2361.54	925.556
2363.46	912.667
2365.37	916.444
2367.28	911.333
2369.19	912.222
2371.1	912.222
2373.01	898.667
2374.92	907.778
2376.83	911.111
2378.74	892.889
2380.65	897.111
2382.56	894.667
2384.46	901.556
2386.37	890
2388.27	902.889
2390.18	893.555
2392.08	884.889
2393.99	882
2395.89	884
2397.8	894.444
2399.7	874.444
2401.6	874.444
2403.5	879.111
2405.4	882.889
2407.3	859.778
2409.2	865.333
2411.1	864.222
2413	867.333
2414.9	851.778
2416.8	861.555
2418.69	856.444
2420.59	852.444
2422.48	844
2424.38	860.667
2426.28	846.667
2428.17	850.222
2430.06	848.667
2431.96	846.667
2433.85	854
2435.74	844.667
2437.63	839.333
2439.52	830.222
2441.41	836.667
2443.3	836
2445.19	837.556
2447.08	842.222
