178.677	1253.78
181.278	1249.56
183.879	1242
186.48	1237.11
189.078	1233.78
191.677	1253.56
194.275	1241.11
196.871	1253.78
199.467	1252.44
202.061	1253.78
204.656	1257.78
207.248	1272.89
209.841	1292.89
212.431	1287.33
215.022	1290.44
217.613	1293.11
220.201	1306.89
222.789	1305.56
225.375	1320.44
227.962	1330
230.547	1353.78
233.13	1355.11
235.714	1359.78
238.296	1357.78
240.879	1382.89
243.459	1374
246.04	1406.89
248.618	1392
251.196	1399.33
253.774	1400.44
256.35	1425.56
258.927	1400.44
261.501	1389.11
264.074	1405.33
266.648	1396.44
269.22	1385.56
271.791	1377.56
274.362	1391.78
276.931	1369.11
279.5	1386.89
282.069	1366.89
284.635	1378.67
287.201	1380
289.766	1369.11
292.331	1370.89
294.894	1365.56
297.457	1358
300.018	1368.89
302.58	1360.22
305.14	1381.56
307.699	1368.67
310.257	1358.44
312.814	1349.33
315.372	1354.67
317.928	1347.56
320.482	1331.33
323.036	1349.33
325.589	1354.67
328.142	1357.56
330.693	1354.44
333.243	1347.33
335.795	1352.67
338.343	1339.78
340.891	1367.78
343.439	1368
345.985	1371.56
348.53	1385.11
351.075	1387.33
353.619	1381.78
356.162	1391.11
358.704	1382.89
361.245	1381.78
363.786	1389.78
366.325	1382.44
368.864	1406
371.402	1401.33
373.939	1403.33
376.475	1414
379.011	1414
381.545	1432
384.079	1413.11
386.612	1413.56
389.144	1420
391.674	1414.22
394.204	1402.67
396.734	1402.22
399.263	1404.44
401.791	1410.67
404.318	1429.78
406.844	1415.56
409.368	1434.22
411.893	1440.44
414.417	1436.44
416.94	1446.22
419.462	1445.11
421.982	1446.67
424.502	1448.67
427.022	1456.44
429.541	1459.11
432.057	1462.44
434.574	1462.89
437.091	1452.67
439.606	1457.11
442.12	1454.44
444.634	1440.22
447.147	1460
449.657	1452.44
452.169	1457.33
454.68	1457.56
457.188	1458.44
459.697	1482.44
462.205	1460.44
464.711	1464.89
467.217	1465.56
469.722	1457.56
472.227	1460.22
474.731	1460.89
477.232	1474.67
479.735	1468.67
482.235	1489.11
484.736	1489.56
487.234	1490.22
489.734	1500
492.23	1484.89
494.728	1476.22
497.223	1492.67
499.719	1478.89
502.213	1487.11
504.707	1491.11
507.199	1484.22
509.692	1488.89
512.182	1504
514.673	1500
517.162	1494
519.65	1494.44
522.139	1489.56
524.625	1486.44
527.112	1501.56
529.597	1490.22
532.081	1509.11
534.565	1510.89
537.047	1504
539.529	1504
542.011	1499.33
544.491	1499.56
546.97	1503.56
549.45	1520.44
551.927	1517.11
554.404	1524.44
556.88	1518.67
559.356	1542.67
561.831	1542
564.304	1511.11
566.777	1516.89
569.25	1519.11
571.721	1516
574.191	1517.11
576.661	1515.56
579.129	1530.89
581.599	1520.22
584.066	1533.56
586.532	1530.22
588.997	1514.44
591.462	1532.67
593.926	1526.67
596.389	1539.33
598.851	1518.44
601.314	1521.56
603.775	1532
606.235	1517.56
608.694	1545.33
611.152	1537.78
613.609	1535.33
616.066	1537.33
618.522	1532.67
620.977	1539.78
623.431	1533.11
625.885	1564.89
628.338	1542.67
630.79	1534.22
633.241	1557.11
635.691	1562.67
638.141	1572.22
640.589	1560.44
643.036	1573.33
645.483	1560.67
647.929	1560.89
650.375	1570.67
652.82	1550.44
655.264	1548
657.707	1553.33
660.149	1547.33
662.59	1559.78
665.031	1541.78
667.471	1548.67
669.91	1542.44
672.349	1543.56
674.786	1552.22
677.222	1554.89
679.658	1554.67
682.093	1540.67
684.528	1557.56
686.96	1548.22
689.393	1550
691.826	1555.78
694.256	1551.78
696.686	1538.67
699.116	1564.22
701.545	1559.33
703.972	1546.22
706.4	1554.44
708.826	1539.33
711.251	1553.11
713.676	1582.89
716.099	1567.11
718.523	1569.78
720.946	1566
723.366	1571.56
725.788	1573.56
728.207	1543.78
730.627	1559.11
733.044	1568.44
735.462	1568.44
737.88	1549.78
740.295	1542.67
742.711	1545.11
745.125	1548.67
747.539	1558.22
749.951	1548.67
752.363	1557.56
754.775	1539.78
757.185	1554.22
759.595	1547.56
762.003	1541.56
764.412	1538.44
766.819	1532.44
769.225	1538.67
771.632	1546.22
774.036	1517.78
776.441	1547.11
778.844	1541.11
781.246	1556.22
783.649	1561.33
786.05	1548.89
788.449	1564
790.85	1554.44
793.248	1552
795.646	1564.89
798.042	1554.44
800.44	1563.33
802.835	1550.67
805.23	1572.44
807.623	1550.89
810.018	1542.67
812.41	1554.89
814.801	1565.56
817.192	1562.44
819.582	1560.67
821.972	1554.22
824.361	1530.67
826.748	1548.89
829.135	1544.89
831.521	1542.44
833.907	1537.11
836.291	1539.78
838.675	1553.11
841.059	1547.56
843.442	1542.22
845.823	1535.33
848.204	1543.56
850.584	1536.22
852.963	1530.67
855.342	1528.67
857.72	1559.11
860.097	1561.11
862.473	1540.67
864.848	1550
867.223	1551.33
869.597	1545.78
871.97	1557.78
874.343	1562
876.714	1559.56
879.084	1558
881.454	1522.22
883.824	1541.11
886.192	1544.44
888.56	1541.11
890.927	1557.11
893.294	1546.22
895.66	1521.78
898.023	1537.11
900.387	1527.11
902.751	1554
905.114	1502.89
907.476	1499.33
909.835	1516.89
912.196	1513.56
914.555	1512.22
916.914	1499.33
919.271	1512
921.629	1512.22
923.985	1510.89
926.341	1503.56
928.695	1498.22
931.05	1506
933.404	1510
935.755	1499.78
938.107	1521.33
940.459	1506
942.808	1500.89
945.158	1515.11
947.508	1509.33
949.855	1518
952.202	1514
954.548	1504.67
956.894	1508.89
959.239	1510
961.583	1500.89
963.928	1516.89
966.27	1508.67
968.612	1505.11
970.953	1507.78
973.294	1532.44
975.633	1518
977.972	1518.67
980.31	1512.44
982.647	1512.67
984.984	1506
987.32	1508
989.656	1502.89
991.989	1502.89
994.324	1513.78
996.656	1505.78
998.988	1527.78
1001.32	1537.56
1003.65	1574.67
1005.98	1621.33
1008.31	1684.22
1010.64	1789.33
1012.97	1880.89
1015.29	1927.78
1017.62	1866.22
1019.94	1750.22
1022.27	1642.89
1024.59	1593.33
1026.92	1539.56
1029.24	1534.67
1031.56	1556
1033.88	1589.78
1036.2	1620
1038.52	1659.78
1040.84	1644.44
1043.16	1598
1045.48	1536.44
1047.79	1509.56
1050.11	1502.22
1052.42	1491.33
1054.74	1494.22
1057.05	1514.44
1059.36	1513.78
1061.67	1504.67
1063.99	1500.67
1066.3	1516.44
1068.61	1506.67
1070.92	1512
1073.22	1504.44
1075.53	1487.33
1077.84	1495.56
1080.15	1489.78
1082.45	1506.22
1084.76	1495.56
1087.06	1497.11
1089.36	1513.11
1091.66	1512.89
1093.97	1552.22
1096.27	1535.33
1098.57	1543.78
1100.87	1518.67
1103.17	1508.67
1105.46	1513.56
1107.76	1514.44
1110.06	1502.44
1112.35	1523.78
1114.65	1512.22
1116.94	1498.44
1119.24	1505.11
1121.53	1519.78
1123.82	1527.11
1126.11	1534
1128.4	1518
1130.7	1516
1132.98	1504.67
1135.27	1500.22
1137.56	1486.22
1139.85	1508.67
1142.13	1511.11
1144.42	1507.78
1146.71	1496.22
1148.99	1495.33
1151.27	1515.11
1153.56	1503.78
1155.84	1508.44
1158.12	1507.11
1160.4	1502
1162.68	1476.67
1164.96	1499.11
1167.24	1494
1169.51	1494.67
1171.79	1480.22
1174.07	1475.11
1176.34	1469.11
1178.62	1479.11
1180.89	1470
1183.17	1471.56
1185.44	1477.56
1187.71	1480.22
1189.98	1476.22
1192.25	1472.44
1194.52	1467.78
1196.79	1474.67
1199.06	1497.78
1201.33	1484
1203.59	1489.11
1205.86	1485.11
1208.12	1488.67
1210.39	1467.78
1212.65	1482
1214.92	1462
1217.18	1464.89
1219.44	1475.78
1221.7	1468.67
1223.96	1455.78
1226.22	1485.33
1228.48	1469.78
1230.74	1468
1233	1467.33
1235.25	1473.11
1237.51	1481.56
1239.77	1476.67
1242.02	1485.33
1244.27	1494.44
1246.53	1488.67
1248.78	1479.33
1251.03	1481.33
1253.28	1487.56
1255.53	1473.56
1257.78	1469.33
1260.03	1480.22
1262.28	1475.56
1264.53	1470.44
1266.78	1498.44
1269.02	1476
1271.27	1470.44
1273.51	1486.67
1275.76	1479.56
1278	1492
1280.24	1472.89
1282.48	1473.11
1284.72	1474
1286.97	1475.33
1289.21	1466.67
1291.44	1473.56
1293.68	1471.11
1295.92	1471.56
1298.16	1458.44
1300.39	1463.78
1302.63	1474.22
1304.86	1455.33
1307.1	1464
1309.33	1460.22
1311.56	1464
1313.8	1461.11
1316.03	1469.33
1318.26	1447.78
1320.49	1465.78
1322.72	1469.33
1324.95	1463.78
1327.17	1446.67
1329.4	1449.33
1331.63	1463.33
1333.85	1460.67
1336.08	1464.67
1338.3	1476.44
1340.53	1488.22
1342.75	1488
1344.97	1467.78
1347.19	1471.33
1349.41	1462.89
1351.63	1456.67
1353.85	1451.56
1356.07	1418.22
1358.29	1434.44
1360.51	1447.11
1362.72	1447.56
1364.94	1424
1367.16	1429.11
1369.37	1423.11
1371.58	1413.78
1373.8	1426.89
1376.01	1451.78
1378.22	1439.33
1380.43	1453.33
1382.64	1429.11
1384.85	1434.67
1387.06	1431.78
1389.27	1437.56
1391.48	1445.33
1393.68	1430
1395.89	1430.44
1398.1	1404.44
1400.3	1407.11
1402.51	1401.33
1404.71	1408
1406.91	1411.78
1409.11	1413.56
1411.32	1385.11
1413.52	1383.11
1415.72	1393.78
1417.92	1398.22
1420.11	1388.67
1422.31	1410
1424.51	1376
1426.71	1403.33
1428.9	1402
1431.1	1407.56
1433.29	1406
1435.49	1411.78
1437.68	1409.33
1439.87	1413.78
1442.06	1436.67
1444.25	1421.78
1446.45	1426.44
1448.64	1426.22
1450.82	1436.44
1453.01	1438
1455.2	1433.56
1457.39	1414
1459.57	1415.56
1461.76	1412.22
1463.94	1413.56
1466.13	1422.22
1468.31	1435.11
1470.5	1417.33
1472.68	1405.11
1474.86	1404.22
1477.04	1417.78
1479.22	1443.11
1481.4	1428.67
1483.58	1435.78
1485.76	1419.78
1487.94	1412.67
1490.11	1420.89
1492.29	1429.11
1494.46	1417.78
1496.64	1431.33
1498.81	1404.67
1500.99	1402.22
1503.16	1429.11
1505.33	1423.11
1507.5	1430.22
1509.67	1426.22
1511.84	1407.33
1514.01	1421.78
1516.18	1426.89
1518.35	1424.22
1520.52	1437.33
1522.68	1452.89
1524.85	1460.67
1527.02	1457.56
1529.18	1482.89
1531.35	1473.33
1533.51	1460.89
1535.67	1472
1537.83	1464.89
1539.99	1445.33
1542.16	1445.78
1544.31	1441.78
1546.47	1408.89
1548.63	1421.56
1550.79	1448.67
1552.95	1437.78
1555.11	1423.56
1557.26	1436
1559.42	1440.44
1561.57	1443.11
1563.73	1444.89
1565.88	1446.22
1568.03	1449.33
1570.18	1472.89
1572.34	1458.44
1574.49	1456.67
1576.64	1447.78
1578.79	1454.22
1580.93	1463.33
1583.08	1455.11
1585.23	1472
1587.38	1471.78
1589.52	1452
1591.67	1459.56
1593.81	1477.78
1595.96	1476.89
1598.1	1472.44
1600.24	1488.67
1602.38	1464.67
1604.53	1446.22
1606.67	1430.67
1608.81	1425.56
1610.95	1418.89
1613.09	1403.56
1615.22	1397.11
1617.36	1397.78
1619.5	1386.22
1621.63	1372.89
1623.77	1359.11
1625.9	1340.67
1628.04	1342.67
1630.17	1320
1632.3	1308.22
1634.44	1308.67
1636.57	1304
1638.7	1270.67
1640.83	1284
1642.96	1266
1645.09	1279.78
1647.22	1261.11
1649.34	1261.33
1651.47	1259.33
1653.6	1234
1655.72	1243.56
1657.85	1218
1659.97	1237.11
1662.1	1226.44
1664.22	1237.33
1666.34	1222.89
1668.46	1228.44
1670.58	1239.11
1672.7	1214.89
1674.82	1212.22
1676.94	1215.78
1679.06	1214
1681.18	1195.78
1683.3	1197.33
1685.41	1190.22
1687.53	1182.44
1689.64	1195.56
1691.76	1197.33
1693.87	1180.89
1695.99	1174.44
1698.1	1192
1700.21	1195.56
1702.32	1184.67
1704.43	1169.56
1706.54	1184.89
1708.65	1172.44
1710.76	1170
1712.87	1179.78
1714.98	1167.56
1717.08	1176.22
1719.19	1188.22
1721.29	1172
1723.4	1159.33
1725.5	1153.33
1727.61	1151.56
1729.71	1161.11
1731.81	1136.22
1733.91	1137.78
1736.02	1144.67
1738.12	1131.11
1740.22	1129.33
1742.31	1146.89
1744.41	1128.44
1746.51	1130
1748.61	1110.22
1750.7	1128
1752.8	1114
1754.9	1114.67
1756.99	1129.78
1759.08	1111.78
1761.18	1112.89
1763.27	1113.56
1765.36	1118.67
1767.45	1100.44
1769.54	1097.33
1771.63	1121.78
1773.72	1106.89
1775.81	1107.11
1777.9	1090.22
1779.99	1100.67
1782.08	1089.56
1784.16	1092.89
1786.25	1099.78
1788.33	1090.89
1790.42	1102.67
1792.5	1083.78
1794.58	1076
1796.67	1095.56
1798.75	1089.11
1800.83	1095.11
1802.91	1099.56
1804.99	1080.44
1807.07	1079.33
1809.15	1086
1811.23	1078.44
1813.3	1077.78
1815.38	1081.11
1817.46	1069.11
1819.53	1091.78
1821.61	1082.22
1823.68	1080.89
1825.75	1094
1827.83	1056.89
1829.9	1066.67
1831.97	1075.33
1834.04	1056.89
1836.11	1058.22
1838.18	1057.78
1840.25	1057.78
1842.32	1061.78
1844.39	1062.44
1846.46	1048.89
1848.52	1058.22
1850.59	1043.33
1852.65	1045.33
1854.72	1046.89
1856.78	1040
1858.85	1036.44
1860.91	1048.22
1862.97	1035.78
1865.03	1028.67
1867.09	1028.67
1869.16	1023.11
1871.22	1028.22
1873.27	1027.56
1875.33	1031.56
1877.39	1018.44
1879.45	1037.33
1881.51	1024.22
1883.56	1012
1885.62	1028.44
1887.67	1011.11
1889.73	1033.11
1891.78	1030.89
1893.83	1022
1895.89	1022.67
1897.94	1024.89
1899.99	1033.33
1902.04	1018.89
1904.09	1001.56
1906.14	1029.33
1908.19	1010.44
1910.23	1022.89
1912.28	1007.78
1914.33	1005.33
1916.37	1004
1918.42	998.667
1920.46	998.222
1922.51	997.333
1924.55	1008.22
1926.6	1004.44
1928.64	985.333
1930.68	1012.89
1932.72	1000.67
1934.76	1005.33
1936.8	1002.44
1938.84	985.556
1940.88	980.222
1942.92	992.222
1944.96	974.444
1946.99	985.111
1949.03	985.111
1951.06	996.667
1953.1	983.111
1955.13	975.333
1957.17	982.667
1959.2	975.556
1961.23	975.556
1963.27	968.222
1965.3	959.778
1967.33	975.111
1969.36	957.556
1971.39	960.889
1973.42	958.444
1975.44	948.889
1977.47	962.222
1979.5	962
1981.53	950.889
1983.55	966.222
1985.58	950.444
1987.6	965.111
1989.63	952
1991.65	938.222
1993.67	952
1995.69	940
1997.72	950.889
1999.74	937.111
2001.76	946
2003.78	954.222
2005.8	934.667
2007.82	947.778
2009.83	943.111
2011.85	944
2013.87	942.889
2015.88	945.111
2017.9	932.222
2019.91	932
2021.93	943.111
2023.94	945.556
2025.96	938.889
2027.97	930.889
2029.98	931.556
2031.99	927.111
2034	930.222
2036.01	929.333
2038.02	934.444
2040.03	915.333
2042.04	912
2044.05	932.444
2046.05	925.556
2048.06	908.222
2050.07	916.889
2052.07	900.444
2054.08	923.333
2056.08	914.889
2058.08	913.778
2060.09	913.111
2062.09	900.667
2064.09	911.333
2066.09	902.667
2068.09	890.889
2070.09	906.222
2072.09	903.778
2074.09	899.778
2076.09	892.889
2078.09	894.222
2080.08	892.667
2082.08	894.444
2084.08	896.222
2086.07	876.889
2088.07	883.556
2090.06	877.556
2092.05	886
2094.05	874.444
2096.04	876.889
2098.03	891.333
2100.02	878.444
2102.01	884.889
2104	872.444
2105.99	865.556
2107.98	873.333
2109.97	879.111
2111.95	878
2113.94	870
2115.93	875.778
2117.91	883.333
2119.9	874.222
2121.88	873.778
2123.87	869.333
2125.85	876
2127.83	884.444
2129.81	888.444
2131.8	889.111
2133.78	879.111
2135.76	876.222
2137.74	876
2139.72	867.111
2141.69	875.111
2143.67	863.333
2145.65	856
2147.63	867.333
2149.6	859.556
2151.58	874
2153.55	859.111
2155.53	855.333
2157.5	852.667
2159.48	844
2161.45	836.667
2163.42	839.778
2165.39	843.556
2167.36	826.889
2169.33	829.333
2171.3	827.555
2173.27	839.111
2175.24	821.111
2177.21	820.889
2179.18	828.889
2181.14	838.667
2183.11	836
2185.07	816.444
2187.04	821.333
2189	821.333
2190.97	806.889
2192.93	819.333
2194.89	808.222
2196.86	813.111
2198.82	811.556
2200.78	804.222
2202.74	802.667
2204.7	795.333
2206.66	800.444
2208.62	799.111
2210.57	797.556
2212.53	797.111
2214.49	784.889
2216.45	787.556
2218.4	794.222
2220.36	788.222
2222.31	773.778
2224.27	775.556
2226.22	778
2228.17	767.778
2230.12	773.111
2232.08	773.111
2234.03	772.667
2235.98	786.222
2237.93	776.444
2239.88	772.667
2241.83	776
2243.78	759.333
2245.72	766
2247.67	756.222
2249.62	753.111
2251.56	752.222
2253.51	754.889
2255.45	748.667
2257.4	753.333
2259.34	749.333
2261.28	744.667
2263.23	742.444
2265.17	751.778
2267.11	742.222
2269.05	748.444
2270.99	740.222
2272.93	741.556
2274.87	750.222
2276.81	735.555
2278.75	739.556
2280.68	735.778
2282.62	735.333
2284.56	724.667
2286.49	732.222
2288.43	731.556
2290.36	720.222
2292.3	715.333
2294.23	717.556
2296.16	719.556
2298.09	711.111
2300.03	715.778
2301.96	707.333
2303.89	712.667
2305.82	718
2307.75	708.444
2309.68	710.667
2311.6	712
2313.53	715.111
2315.46	720.667
2317.39	698.667
2319.31	711.111
2321.24	709.111
2323.16	701.556
2325.09	691.556
2327.01	693.778
2328.93	704.444
2330.86	705.778
2332.78	693.556
2334.7	702.444
2336.62	697.556
2338.54	690
2340.46	692
2342.38	684
2344.3	680.444
2346.22	683.556
2348.14	675.333
2350.05	676.444
2351.97	675.778
2353.89	684.222
2355.8	678.889
2357.71	668
2359.63	664.444
2361.54	661.778
2363.46	672
2365.37	668.889
2367.28	668.222
2369.19	673.556
2371.1	649.556
2373.01	680.444
2374.92	662
2376.83	664.667
2378.74	660.667
2380.65	652.667
2382.56	664
2384.46	659.111
2386.37	651.555
2388.27	653.111
2390.18	650.889
2392.08	646.222
2393.99	648
2395.89	646.444
2397.8	643.333
2399.7	640.445
2401.6	635.333
2403.5	638.889
2405.4	636.889
2407.3	630.667
2409.2	649.333
2411.1	626.222
2413	634.889
2414.9	622.222
2416.8	630
2418.69	640.444
2420.59	628.222
2422.48	623.111
2424.38	628.444
2426.28	625.778
2428.17	624.667
2430.06	624
2431.96	633.111
2433.85	626.444
2435.74	627.111
2437.63	614
2439.52	626.889
2441.41	622.444
2443.3	612
2445.19	626
2447.08	619.778
