178.677	1870.89
181.278	1854.89
183.879	1860
186.48	1904.22
189.078	1930.89
191.677	1990
194.275	2042.44
196.871	2110.22
199.467	2172.44
202.061	2245.56
204.656	2316
207.248	2405.33
209.841	2496.22
212.431	2610.44
215.022	2698.22
217.613	2824.89
220.201	2986.44
222.789	3148.44
225.375	3357.78
227.962	3581.56
230.547	3842
233.13	4117.78
235.714	4455.11
238.296	4710.89
240.879	4945.56
243.459	5082.67
246.04	5021.11
248.618	4790.44
251.196	4420
253.774	3978
256.35	3514.22
258.927	3099.78
261.501	2735.78
264.074	2443.56
266.648	2211.56
269.22	2004.89
271.791	1864.44
274.362	1742.67
276.931	1646.22
279.5	1565.78
282.069	1495.11
284.635	1439.11
287.201	1396.67
289.766	1347.56
292.331	1315.11
294.894	1274.22
297.457	1259.11
300.018	1255.78
302.58	1218.67
305.14	1197.33
307.699	1187.33
310.257	1162.22
312.814	1169.56
315.372	1138
317.928	1149.33
320.482	1142.44
323.036	1140.22
325.589	1132.89
328.142	1113.33
330.693	1113.78
333.243	1133.11
335.795	1111.11
338.343	1095.78
340.891	1117.11
343.439	1116.44
345.985	1118.89
348.53	1100.67
351.075	1106.22
353.619	1093.11
356.162	1103.56
358.704	1109.33
361.245	1106.67
363.786	1088.89
366.325	1097.78
368.864	1092.67
371.402	1099.56
373.939	1098.67
376.475	1116.89
379.011	1124
381.545	1128.67
384.079	1114.44
386.612	1098.67
389.144	1100.44
391.674	1078.89
394.204	1078.67
396.734	1082
399.263	1094.67
401.791	1071.33
404.318	1086.89
406.844	1070.89
409.368	1085.56
411.893	1088.89
414.417	1071.56
416.94	1098.67
419.462	1062.22
421.982	1084.22
424.502	1091.33
427.022	1095.33
429.541	1080
432.057	1085.33
434.574	1093.78
437.091	1103.56
439.606	1100.22
442.12	1092.67
444.634	1086
447.147	1078.89
449.657	1065.78
452.169	1069.33
454.68	1085.33
457.188	1064.67
459.697	1082.89
462.205	1082.22
464.711	1077.11
467.217	1053.78
469.722	1061.56
472.227	1044
474.731	1058.89
477.232	1058.89
479.735	1065.56
482.235	1068
484.736	1071.11
487.234	1064.67
489.734	1057.33
492.23	1056.67
494.728	1051.78
497.223	1044.22
499.719	1060
502.213	1055.56
504.707	1056.89
507.199	1047.11
509.692	1036.89
512.182	1042.67
514.673	1053.56
517.162	1058.44
519.65	1064
522.139	1037.33
524.625	1054
527.112	1041.56
529.597	1042
532.081	1027.11
534.565	1029.33
537.047	1039.56
539.529	1044
542.011	1040.67
544.491	1040.67
546.97	1044
549.45	1045.33
551.927	1052
554.404	1046.89
556.88	1060.22
559.356	1041.56
561.831	1076
564.304	1042
566.777	1048.67
569.25	1056.67
571.721	1050.67
574.191	1040.67
576.661	1052.22
579.129	1045.78
581.599	1060.22
584.066	1034.89
586.532	1030.67
588.997	1041.11
591.462	1019.56
593.926	1034.89
596.389	1043.78
598.851	1044.89
601.314	1043.56
603.775	1048.89
606.235	1054
608.694	1061.11
611.152	1067.78
613.609	1078.44
616.066	1061.33
618.522	1046.22
620.977	1057.11
623.431	1069.11
625.885	1048.22
628.338	1055.33
630.79	1056
633.241	1068.89
635.691	1068.89
638.141	1066.89
640.589	1072.22
643.036	1066
645.483	1071.78
647.929	1075.78
650.375	1063.78
652.82	1075.56
655.264	1056.22
657.707	1052
660.149	1062.22
662.59	1051.78
665.031	1053.33
667.471	1054.44
669.91	1058.22
672.349	1062.89
674.786	1047.33
677.222	1031.33
679.658	1047.56
682.093	1055.78
684.528	1051.11
686.96	1034.22
689.393	1060
691.826	1052.89
694.256	1049.33
696.686	1051.33
699.116	1062.89
701.545	1067.33
703.972	1072.44
706.4	1057.78
708.826	1059.11
711.251	1064.44
713.676	1065.33
716.099	1060.89
718.523	1075.78
720.946	1065.56
723.366	1071.11
725.788	1055.78
728.207	1068.67
730.627	1061.11
733.044	1055.56
735.462	1062
737.88	1070
740.295	1047.33
742.711	1077.78
745.125	1068.22
747.539	1065.78
749.951	1046.44
752.363	1069.56
754.775	1067.11
757.185	1061.56
759.595	1082.22
762.003	1091.11
764.412	1157.11
766.819	1180.89
769.225	1144.44
771.632	1100.44
774.036	1093.11
776.441	1104.44
778.844	1101.33
781.246	1100.89
783.649	1095.56
786.05	1096.22
788.449	1089.78
790.85	1082.89
793.248	1097.11
795.646	1094.67
798.042	1090
800.44	1088.67
802.835	1086.67
805.23	1078.22
807.623	1088.67
810.018	1077.78
812.41	1070.89
814.801	1072.67
817.192	1082.89
819.582	1060.67
821.972	1080.22
824.361	1076
826.748	1082.22
829.135	1082.67
831.521	1077.56
833.907	1074.22
836.291	1082.89
838.675	1064.22
841.059	1083.78
843.442	1079.78
845.823	1073.78
848.204	1076.22
850.584	1079.56
852.963	1086.44
855.342	1083.78
857.72	1071.33
860.097	1089.78
862.473	1082
864.848	1104.67
867.223	1085.33
869.597	1076.44
871.97	1075.11
874.343	1094.22
876.714	1086.67
879.084	1094.44
881.454	1065.33
883.824	1084.22
886.192	1083.56
888.56	1082.44
890.927	1092.67
893.294	1074
895.66	1091.11
898.023	1070
900.387	1077.56
902.751	1074.22
905.114	1084.89
907.476	1070
909.835	1074.89
912.196	1065.78
914.555	1074
916.914	1072.89
919.271	1081.11
921.629	1081.78
923.985	1084.44
926.341	1065.78
928.695	1064.44
931.05	1060.44
933.404	1071.56
935.755	1061.11
938.107	1081.11
940.459	1073.33
942.808	1096
945.158	1082.22
947.508	1080.89
949.855	1083.33
952.202	1078.67
954.548	1072.22
956.894	1086.22
959.239	1085.56
961.583	1092
963.928	1093.11
966.27	1080.67
968.612	1101.11
970.953	1090.22
973.294	1093.78
975.633	1083.56
977.972	1076.22
980.31	1089.56
982.647	1088.89
984.984	1101.33
987.32	1105.11
989.656	1101.78
991.989	1112
994.324	1108.89
996.656	1120.44
998.988	1136
1001.32	1171.11
1003.65	1241.33
1005.98	1368.67
1008.31	1494.22
1010.64	1517.33
1012.97	1446.89
1015.29	1289.78
1017.62	1216.89
1019.94	1190.44
1022.27	1200
1024.59	1227.33
1026.92	1311.11
1029.24	1336.67
1031.56	1350
1033.88	1358.89
1036.2	1348.44
1038.52	1264.22
1040.84	1185.78
1043.16	1156.44
1045.48	1140.22
1047.79	1131.56
1050.11	1135.56
1052.42	1143.11
1054.74	1172.44
1057.05	1178.89
1059.36	1182.67
1061.67	1165.33
1063.99	1151.56
1066.3	1147.11
1068.61	1140.22
1070.92	1124.67
1073.22	1122.67
1075.53	1129.33
1077.84	1111.78
1080.15	1113.56
1082.45	1106
1084.76	1119.33
1087.06	1130.44
1089.36	1140.89
1091.66	1142
1093.97	1166.22
1096.27	1166.89
1098.57	1164.67
1100.87	1151.33
1103.17	1142.44
1105.46	1146.67
1107.76	1118.67
1110.06	1111.11
1112.35	1146
1114.65	1133.56
1116.94	1146.22
1119.24	1145.11
1121.53	1148
1123.82	1148.89
1126.11	1156.67
1128.4	1131.33
1130.7	1111.56
1132.98	1123.56
1135.27	1116.67
1137.56	1110.44
1139.85	1104.89
1142.13	1117.33
1144.42	1098.89
1146.71	1114.44
1148.99	1122.44
1151.27	1112.22
1153.56	1107.56
1155.84	1116.22
1158.12	1110.67
1160.4	1104.44
1162.68	1096.67
1164.96	1092
1167.24	1091.11
1169.51	1093.56
1171.79	1105.78
1174.07	1090.89
1176.34	1100.22
1178.62	1096.22
1180.89	1085.33
1183.17	1083.56
1185.44	1096.44
1187.71	1091.78
1189.98	1076.89
1192.25	1081.56
1194.52	1089.56
1196.79	1090.89
1199.06	1095.11
1201.33	1097.33
1203.59	1094
1205.86	1106
1208.12	1100.67
1210.39	1093.78
1212.65	1112
1214.92	1091.33
1217.18	1105.33
1219.44	1110.67
1221.7	1107.78
1223.96	1082.44
1226.22	1094.22
1228.48	1084.44
1230.74	1084
1233	1083.11
1235.25	1090.89
1237.51	1095.11
1239.77	1100.67
1242.02	1093.11
1244.27	1097.78
1246.53	1093.78
1248.78	1096
1251.03	1101.78
1253.28	1093.78
1255.53	1094.44
1257.78	1103.11
1260.03	1096.22
1262.28	1090.22
1264.53	1102.44
1266.78	1083.33
1269.02	1098.22
1271.27	1090.22
1273.51	1079.56
1275.76	1106.44
1278	1098.22
1280.24	1096.67
1282.48	1110.67
1284.72	1090.89
1286.97	1102.89
1289.21	1118.44
1291.44	1104.44
1293.68	1097.56
1295.92	1101.78
1298.16	1117.78
1300.39	1145.33
1302.63	1143.33
1304.86	1142.67
1307.1	1127.11
1309.33	1130
1311.56	1111.56
1313.8	1128
1316.03	1103.56
1318.26	1096
1320.49	1108.67
1322.72	1108.89
1324.95	1102.67
1327.17	1110
1329.4	1098.44
1331.63	1108
1333.85	1104.44
1336.08	1096.44
1338.3	1104.67
1340.53	1090.89
1342.75	1095.33
1344.97	1100.22
1347.19	1087.33
1349.41	1097.33
1351.63	1099.11
1353.85	1092.89
1356.07	1101.33
1358.29	1086.89
1360.51	1097.78
1362.72	1090.22
1364.94	1099.56
1367.16	1093.33
1369.37	1102.44
1371.58	1099.78
1373.8	1105.33
1376.01	1113.56
1378.22	1111.33
1380.43	1118
1382.64	1112.67
1384.85	1109.78
1387.06	1098.89
1389.27	1089.56
1391.48	1088
1393.68	1090.67
1395.89	1088.89
1398.1	1064.44
1400.3	1074.67
1402.51	1086
1404.71	1089.78
1406.91	1066.89
1409.11	1067.33
1411.32	1081.33
1413.52	1074.44
1415.72	1080.67
1417.92	1059.78
1420.11	1085.11
1422.31	1069.56
1424.51	1074.22
1426.71	1060.67
1428.9	1075.33
1431.1	1067.78
1433.29	1064.67
1435.49	1061.11
1437.68	1074.67
1439.87	1070.67
1442.06	1064.22
1444.25	1092.22
1446.45	1075.56
1448.64	1082.22
1450.82	1076.89
1453.01	1088.22
1455.2	1079.11
1457.39	1079.78
1459.57	1090.44
1461.76	1077.33
1463.94	1079.33
1466.13	1087.56
1468.31	1070.89
1470.5	1087.56
1472.68	1089.33
1474.86	1077.11
1477.04	1082.22
1479.22	1082
1481.4	1101.56
1483.58	1088.89
1485.76	1091.33
1487.94	1074
1490.11	1056
1492.29	1067.78
1494.46	1062.67
1496.64	1055.11
1498.81	1060.89
1500.99	1052.22
1503.16	1056.22
1505.33	1053.33
1507.5	1058.44
1509.67	1049.56
1511.84	1059.56
1514.01	1040.89
1516.18	1048.89
1518.35	1057.33
1520.52	1064
1522.68	1051.78
1524.85	1040.44
1527.02	1028.22
1529.18	1037.33
1531.35	1044
1533.51	1047.11
1535.67	1036.44
1537.83	1048.44
1539.99	1031.33
1542.16	1043.11
1544.31	1040
1546.47	1039.11
1548.63	1040.89
1550.79	1048
1552.95	1050.22
1555.11	1052
1557.26	1026.44
1559.42	1056.22
1561.57	1041.78
1563.73	1054.44
1565.88	1048.22
1568.03	1053.56
1570.18	1063.33
1572.34	1061.78
1574.49	1062
1576.64	1060.44
1578.79	1067.33
1580.93	1062.22
1583.08	1066.67
1585.23	1057.56
1587.38	1056.22
1589.52	1074.22
1591.67	1074.44
1593.81	1084.89
1595.96	1076.44
1598.1	1076.67
1600.24	1082.89
1602.38	1070.89
1604.53	1051.56
1606.67	1070.44
1608.81	1059.78
1610.95	1038
1613.09	1049.56
1615.22	1052
1617.36	1049.11
1619.5	1045.56
1621.63	1065.33
1623.77	1060.22
1625.9	1043.78
1628.04	1066.67
1630.17	1056.44
1632.3	1063.11
1634.44	1045.11
1636.57	1044.22
1638.7	1044.67
1640.83	1031.56
1642.96	1020.44
1645.09	1024.22
1647.22	1004.67
1649.34	1025.56
1651.47	1022.44
1653.6	1018
1655.72	1023.56
1657.85	1017.11
1659.97	1013.56
1662.1	1026.67
1664.22	1014.89
1666.34	1011.11
1668.46	1017.78
1670.58	1018.44
1672.7	1008.67
1674.82	1013.56
1676.94	1006.67
1679.06	1022.44
1681.18	1013.11
1683.3	1006
1685.41	1015.78
1687.53	1018.67
1689.64	1007.56
1691.76	1005.11
1693.87	1011.56
1695.99	995.111
1698.1	1005.78
1700.21	1002.22
1702.32	1008.22
1704.43	1010.67
1706.54	992.667
1708.65	997.111
1710.76	1000.44
1712.87	1015.56
1714.98	996.667
1717.08	987.556
1719.19	989.333
1721.29	995.333
1723.4	990.889
1725.5	1008
1727.61	990
1729.71	994.889
1731.81	993.556
1733.91	990.667
1736.02	986
1738.12	981.556
1740.22	979.111
1742.31	982.667
1744.41	983.111
1746.51	987.556
1748.61	991.333
1750.7	990
1752.8	986.889
1754.9	978.222
1756.99	982.222
1759.08	968.222
1761.18	983.111
1763.27	961.556
1765.36	988.667
1767.45	984
1769.54	983.111
1771.63	967.778
1773.72	977.111
1775.81	987.111
1777.9	972.667
1779.99	971.333
1782.08	967.333
1784.16	988.222
1786.25	976.222
1788.33	978
1790.42	979.556
1792.5	968.889
1794.58	983.556
1796.67	970.889
1798.75	964.667
1800.83	979.111
1802.91	966
1804.99	967.111
1807.07	979.333
1809.15	975.333
1811.23	970
1813.3	962.667
1815.38	967.333
1817.46	961.111
1819.53	978.889
1821.61	962.889
1823.68	976.889
1825.75	958.889
1827.83	956.444
1829.9	963.333
1831.97	951.333
1834.04	956
1836.11	971.556
1838.18	953.333
1840.25	953.556
1842.32	954.444
1844.39	954.222
1846.46	951.778
1848.52	965.556
1850.59	948.889
1852.65	961.556
1854.72	950.889
1856.78	955.778
1858.85	947.333
1860.91	943.778
1862.97	938.444
1865.03	953.778
1867.09	937.778
1869.16	938.444
1871.22	949.111
1873.27	952.889
1875.33	950.222
1877.39	938.667
1879.45	947.111
1881.51	930.444
1883.56	936.667
1885.62	952.889
1887.67	949.556
1889.73	940.667
1891.78	928.667
1893.83	928.889
1895.89	948.889
1897.94	937.333
1899.99	931.111
1902.04	934.444
1904.09	929.111
1906.14	940.445
1908.19	936.222
1910.23	934.444
1912.28	939.778
1914.33	929.556
1916.37	945.111
1918.42	932.889
1920.46	937.111
1922.51	934.444
1924.55	918.889
1926.6	931.556
1928.64	927.778
1930.68	910
1932.72	937.111
1934.76	926
1936.8	936.889
1938.84	925.556
1940.88	918.444
1942.92	925.333
1944.96	911.333
1946.99	920.889
1949.03	915.111
1951.06	924
1953.1	921.778
1955.13	909.111
1957.17	917.556
1959.2	909.778
1961.23	922.889
1963.27	922
1965.3	911.111
1967.33	916.222
1969.36	900.444
1971.39	891.111
1973.42	905.333
1975.44	895.778
1977.47	910.889
1979.5	899.778
1981.53	894.222
1983.55	908.667
1985.58	898.889
1987.6	901.778
1989.63	888.444
1991.65	903.333
1993.67	898.222
1995.69	903.556
1997.72	892.667
1999.74	896.667
2001.76	896.889
2003.78	901.333
2005.8	887.556
2007.82	893.778
2009.83	908.667
2011.85	893.333
2013.87	888.444
2015.88	896
2017.9	889.778
2019.91	902
2021.93	888.667
2023.94	903.333
2025.96	906.667
2027.97	894.444
2029.98	896.444
2031.99	888.889
2034	888
2036.01	885.333
2038.02	888
2040.03	895.556
2042.04	884.889
2044.05	901.333
2046.05	872.444
2048.06	891.111
2050.07	880.222
2052.07	881.778
2054.08	873.111
2056.08	885.778
2058.08	886
2060.09	888
2062.09	895.111
2064.09	871.778
2066.09	888.222
2068.09	884
2070.09	867.778
2072.09	871.333
2074.09	868.889
2076.09	876
2078.09	859.778
2080.08	862.667
2082.08	872.222
2084.08	868.889
2086.07	865.111
2088.07	853.111
2090.06	870.222
2092.05	865.333
2094.05	863.111
2096.04	869.111
2098.03	859.111
2100.02	851.778
2102.01	852.889
2104	856
2105.99	854.889
2107.98	854
2109.97	864.889
2111.95	862.889
2113.94	861.111
2115.93	857.333
2117.91	853.778
2119.9	853.111
2121.88	865.111
2123.87	860.889
2125.85	853.111
2127.83	862.667
2129.81	854.222
2131.8	857.333
2133.78	858
2135.76	842.889
2137.74	849.333
2139.72	849.111
2141.69	842.222
2143.67	841.778
2145.65	839.555
2147.63	841.111
2149.6	831.778
2151.58	837.333
2153.55	835.333
2155.53	845.333
2157.5	834
2159.48	839.556
2161.45	833.778
2163.42	843.778
2165.39	823.778
2167.36	838.889
2169.33	825.555
2171.3	835.333
2173.27	833.333
2175.24	829.556
2177.21	830.667
2179.18	830
2181.14	814.444
2183.11	830
2185.07	823.556
2187.04	816
2189	813.555
2190.97	820.889
2192.93	817.556
2194.89	808.222
2196.86	822.222
2198.82	817.556
2200.78	809.778
2202.74	811.556
2204.7	804.222
2206.66	823.778
2208.62	810.222
2210.57	804.667
2212.53	814.889
2214.49	816.889
2216.45	812.889
2218.4	808.889
2220.36	813.778
2222.31	810.667
2224.27	808.222
2226.22	799.556
2228.17	798.889
2230.12	805.778
2232.08	803.333
2234.03	807.333
2235.98	793.556
2237.93	799.556
2239.88	811.111
2241.83	799.778
2243.78	805.333
2245.72	791.111
2247.67	791.778
2249.62	794.667
2251.56	800
2253.51	799.333
2255.45	801.333
2257.4	798.222
2259.34	793.111
2261.28	785.111
2263.23	788.889
2265.17	782
2267.11	794.222
2269.05	796.444
2270.99	786.444
2272.93	786
2274.87	777.555
2276.81	770.444
2278.75	782.889
2280.68	782.444
2282.62	784.222
2284.56	772.889
2286.49	774.444
2288.43	774.444
2290.36	756.444
2292.3	764.667
2294.23	760
2296.16	768.667
2298.09	761.333
2300.03	759.111
2301.96	768.667
2303.89	763.556
2305.82	773.778
2307.75	751.111
2309.68	758
2311.6	765.556
2313.53	764
2315.46	753.556
2317.39	752.222
2319.31	755.333
2321.24	759.111
2323.16	753.778
2325.09	766.889
2327.01	753.778
2328.93	769.556
2330.86	757.111
2332.78	745.778
2334.7	746
2336.62	762.667
2338.54	735.778
2340.46	748.889
2342.38	750
2344.3	747.556
2346.22	747.111
2348.14	741.556
2350.05	742.444
2351.97	740.667
2353.89	749.556
2355.8	736.222
2357.71	738.444
2359.63	728.222
2361.54	736.222
2363.46	738.222
2365.37	749.556
2367.28	726.889
2369.19	726.444
2371.1	734.444
2373.01	740.444
2374.92	730.444
2376.83	731.333
2378.74	738.889
2380.65	735.333
2382.56	733.778
2384.46	726
2386.37	717.333
2388.27	731.778
2390.18	725.778
2392.08	710
2393.99	723.333
2395.89	711.778
2397.8	714.889
2399.7	718
2401.6	713.778
2403.5	698.667
2405.4	701.111
2407.3	703.778
2409.2	712.222
2411.1	708.444
2413	686.444
2414.9	718.889
2416.8	722.889
2418.69	706.222
2420.59	700.667
2422.48	692.667
2424.38	694.667
2426.28	704.889
2428.17	707.111
2430.06	705.111
2431.96	725.111
2433.85	708.889
2435.74	708.667
2437.63	705.333
2439.52	707.778
2441.41	709.778
2443.3	703.556
2445.19	705.556
2447.08	704.667
