178.677	689.111
181.278	682.667
183.879	685.778
186.48	693.333
189.078	694.222
191.677	715.333
194.275	699.556
196.871	704.444
199.467	714.222
202.061	700
204.656	715.333
207.248	719.778
209.841	723.778
212.431	722.444
215.022	746.889
217.613	732.667
220.201	746.444
222.789	745.333
225.375	736.222
227.962	740.889
230.547	745.111
233.13	759.556
235.714	751.333
238.296	768
240.879	734.222
243.459	750.667
246.04	762.444
248.618	746.889
251.196	737.778
253.774	748.222
256.35	746.222
258.927	741.111
261.501	715.778
264.074	719.333
266.648	711.333
269.22	713.111
271.791	687.556
274.362	704.444
276.931	687.778
279.5	685.778
282.069	680.889
284.635	664.222
287.201	675.778
289.766	668.444
292.331	668.444
294.894	666.889
297.457	658.667
300.018	654.444
302.58	664.889
305.14	661.778
307.699	659.556
310.257	646.667
312.814	650.889
315.372	651.778
317.928	654.667
320.482	649.111
323.036	651.555
325.589	649.778
328.142	650.667
330.693	661.111
333.243	652.444
335.795	647.555
338.343	646.667
340.891	648.222
343.439	648.667
345.985	654.444
348.53	664.444
351.075	659.111
353.619	664.444
356.162	661.556
358.704	656.444
361.245	661.556
363.786	664.667
366.325	656.222
368.864	668.667
371.402	671.333
373.939	674.222
376.475	679.111
379.011	685.778
381.545	682.222
384.079	688.444
386.612	677.111
389.144	673.333
391.674	653.111
394.204	659.778
396.734	674.667
399.263	654.222
401.791	657.111
404.318	668
406.844	661.111
409.368	660.667
411.893	654
414.417	669.333
416.94	662.222
419.462	659.556
421.982	672
424.502	664.222
427.022	678.444
429.541	676.667
432.057	682
434.574	694.889
437.091	704.889
439.606	690.889
442.12	682.444
444.634	679.111
447.147	686.222
449.657	682
452.169	670
454.68	685.333
457.188	683.778
459.697	688
462.205	690.222
464.711	696.667
467.217	676
469.722	670.222
472.227	680.889
474.731	665.333
477.232	682
479.735	678.667
482.235	685.333
484.736	692.222
487.234	683.111
489.734	675.111
492.23	692
494.728	684.667
497.223	685.111
499.719	679.333
502.213	683.556
504.707	680.222
507.199	679.333
509.692	682
512.182	690.444
514.673	684.222
517.162	686.889
519.65	688.444
522.139	675.555
524.625	677.778
527.112	685.778
529.597	688.889
532.081	687.778
534.565	682.222
537.047	686.222
539.529	684.667
542.011	676.222
544.491	669.778
546.97	682
549.45	678.444
551.927	679.778
554.404	680
556.88	687.778
559.356	686.667
561.831	685.333
564.304	692.889
566.777	693.111
569.25	704.222
571.721	688.889
574.191	690.667
576.661	691.778
579.129	694.222
581.599	683.111
584.066	678.445
586.532	683.556
588.997	683.333
591.462	688.667
593.926	685.111
596.389	669.111
598.851	684.889
601.314	690.222
603.775	681.778
606.235	690.667
608.694	681.111
611.152	696
613.609	683.778
616.066	698
618.522	691.333
620.977	699.778
623.431	699.333
625.885	696.889
628.338	680
630.79	684.445
633.241	698.667
635.691	686.667
638.141	686
640.589	686.667
643.036	696.667
645.483	694
647.929	687.111
650.375	679.555
652.82	696.222
655.264	691.778
657.707	689.111
660.149	692.667
662.59	688.222
665.031	698.889
667.471	679.778
669.91	691.556
672.349	687.111
674.786	686.222
677.222	681.556
679.658	683.778
682.093	691.111
684.528	689.333
686.96	679.333
689.393	680.444
691.826	684.222
694.256	690.444
696.686	680.889
699.116	686.667
701.545	690.444
703.972	680
706.4	684.222
708.826	677.111
711.251	693.111
713.676	694.889
716.099	687.778
718.523	688.667
720.946	687.333
723.366	674.222
725.788	680.222
728.207	694
730.627	679.111
733.044	669.556
735.462	680.667
737.88	682.444
740.295	666.222
742.711	678.222
745.125	684.889
747.539	685.556
749.951	681.778
752.363	676.667
754.775	679.333
757.185	685.556
759.595	680.444
762.003	674.667
764.412	674.667
766.819	691.333
769.225	663.778
771.632	692
774.036	666.667
776.441	676.667
778.844	684.667
781.246	684.222
783.649	690.222
786.05	664.889
788.449	676
790.85	684.667
793.248	692
795.646	680.444
798.042	676.222
800.44	682.444
802.835	681.556
805.23	678.667
807.623	678.667
810.018	692
812.41	676.222
814.801	676.444
817.192	680.222
819.582	675.111
821.972	674.222
824.361	687.778
826.748	672
829.135	669.333
831.521	682.222
833.907	677.111
836.291	684.889
838.675	670.444
841.059	665.778
843.442	677.333
845.823	681.333
848.204	673.111
850.584	683.556
852.963	667.556
855.342	681.111
857.72	668.444
860.097	674
862.473	652.889
864.848	679.778
867.223	683.111
869.597	677.778
871.97	674.667
874.343	676.444
876.714	681.556
879.084	681.778
881.454	682.667
883.824	677.556
886.192	663.556
888.56	676.667
890.927	683.333
893.294	687.556
895.66	678.889
898.023	671.333
900.387	680.222
902.751	685.556
905.114	679.556
907.476	680.667
909.835	670.222
912.196	667.778
914.555	658.889
916.914	664.667
919.271	681.111
921.629	662.667
923.985	666.444
926.341	664.444
928.695	667.111
931.05	652.667
933.404	662.444
935.755	672.444
938.107	670.889
940.459	673.333
942.808	663.556
945.158	655.778
947.508	660.889
949.855	670.889
952.202	672.222
954.548	673.556
956.894	675.111
959.239	669.333
961.583	676.889
963.928	686.667
966.27	669.778
968.612	671.333
970.953	681.111
973.294	685.556
975.633	674.444
977.972	665.111
980.31	668.222
982.647	670
984.984	674.889
987.32	674
989.656	672.667
991.989	678.667
994.324	668.889
996.656	669.333
998.988	677.556
1001.32	685.333
1003.65	687.556
1005.98	719.333
1008.31	742
1010.64	751.111
1012.97	730.889
1015.29	722.889
1017.62	702.222
1019.94	695.556
1022.27	684.444
1024.59	683.556
1026.92	678.222
1029.24	680.445
1031.56	676.667
1033.88	699.111
1036.2	709.556
1038.52	703.111
1040.84	703.333
1043.16	679.111
1045.48	686.667
1047.79	682.889
1050.11	659.778
1052.42	677.333
1054.74	686
1057.05	687.556
1059.36	686.889
1061.67	677.778
1063.99	684.889
1066.3	681.333
1068.61	697.556
1070.92	685.778
1073.22	678.889
1075.53	685.111
1077.84	689.333
1080.15	684.444
1082.45	676.667
1084.76	695.778
1087.06	683.111
1089.36	707.333
1091.66	701.556
1093.97	722.222
1096.27	732.222
1098.57	734.889
1100.87	725.778
1103.17	702.667
1105.46	696.889
1107.76	690
1110.06	697.333
1112.35	691.111
1114.65	706.667
1116.94	702.889
1119.24	718.667
1121.53	727.111
1123.82	720.667
1126.11	706.222
1128.4	701.556
1130.7	707.778
1132.98	693.333
1135.27	682.889
1137.56	684.444
1139.85	678.444
1142.13	689.556
1144.42	682
1146.71	684.444
1148.99	682.889
1151.27	690.444
1153.56	688.889
1155.84	675.555
1158.12	679.556
1160.4	672
1162.68	672.222
1164.96	663.556
1167.24	661.556
1169.51	668
1171.79	669.778
1174.07	669.333
1176.34	650.889
1178.62	666.889
1180.89	651.111
1183.17	658
1185.44	656.222
1187.71	659.556
1189.98	645.556
1192.25	664.444
1194.52	664.889
1196.79	646.667
1199.06	652.444
1201.33	651.556
1203.59	653.111
1205.86	659.111
1208.12	646.667
1210.39	654.222
1212.65	651.556
1214.92	653.111
1217.18	656.222
1219.44	659.333
1221.7	647.778
1223.96	656.222
1226.22	649.556
1228.48	665.333
1230.74	665.333
1233	663.333
1235.25	649.333
1237.51	649.111
1239.77	652.667
1242.02	644.445
1244.27	650.889
1246.53	659.111
1248.78	659.111
1251.03	654.667
1253.28	650
1255.53	660.667
1257.78	644.222
1260.03	657.556
1262.28	662.889
1264.53	671.556
1266.78	667.111
1269.02	671.778
1271.27	662.222
1273.51	661.778
1275.76	657.333
1278	665.556
1280.24	664.222
1282.48	671.778
1284.72	659.778
1286.97	662.889
1289.21	671.333
1291.44	666.667
1293.68	686.889
1295.92	673.333
1298.16	681.556
1300.39	664.444
1302.63	673.556
1304.86	656
1307.1	668.889
1309.33	664.222
1311.56	655.333
1313.8	668.222
1316.03	658
1318.26	653.333
1320.49	667.333
1322.72	664.889
1324.95	674.667
1327.17	670.444
1329.4	677.111
1331.63	673.556
1333.85	681.556
1336.08	676.667
1338.3	689.333
1340.53	690.222
1342.75	679.111
1344.97	672
1347.19	669.333
1349.41	683.556
1351.63	675.556
1353.85	679.778
1356.07	676
1358.29	682.889
1360.51	668
1362.72	671.555
1364.94	677.111
1367.16	671.333
1369.37	679.333
1371.58	675.111
1373.8	681.333
1376.01	692.667
1378.22	682.444
1380.43	692.444
1382.64	690
1384.85	678.222
1387.06	680.889
1389.27	672
1391.48	667.778
1393.68	665.333
1395.89	662
1398.1	652.889
1400.3	664.222
1402.51	662.222
1404.71	662
1406.91	662.222
1409.11	667.333
1411.32	668.667
1413.52	660.667
1415.72	663.111
1417.92	661.333
1420.11	653.778
1422.31	660.889
1424.51	650.222
1426.71	665.778
1428.9	645.111
1431.1	642.444
1433.29	650.444
1435.49	641.778
1437.68	644.222
1439.87	643.778
1442.06	645.333
1444.25	643.333
1446.45	634.222
1448.64	649.333
1450.82	640
1453.01	640
1455.2	648.222
1457.39	641.556
1459.57	646.444
1461.76	646.222
1463.94	645.111
1466.13	649.333
1468.31	651.778
1470.5	641.556
1472.68	654.889
1474.86	635.111
1477.04	659.333
1479.22	652.667
1481.4	650.889
1483.58	647.556
1485.76	642.667
1487.94	642.667
1490.11	647.778
1492.29	637.778
1494.46	630.889
1496.64	630.222
1498.81	622.667
1500.99	622.222
1503.16	632.222
1505.33	632.889
1507.5	627.333
1509.67	634.889
1511.84	645.556
1514.01	631.111
1516.18	632
1518.35	640
1520.52	639.333
1522.68	649.333
1524.85	635.333
1527.02	636.667
1529.18	624.667
1531.35	633.778
1533.51	622.444
1535.67	632.667
1537.83	619.333
1539.99	638.444
1542.16	631.556
1544.31	621.778
1546.47	631.556
1548.63	624
1550.79	624.222
1552.95	640
1555.11	641.556
1557.26	620.889
1559.42	633.778
1561.57	631.111
1563.73	625.778
1565.88	638.445
1568.03	636.667
1570.18	632
1572.34	631.111
1574.49	635.111
1576.64	632.667
1578.79	628.444
1580.93	630.667
1583.08	619.111
1585.23	633.333
1587.38	630.444
1589.52	628.889
1591.67	633.778
1593.81	632.667
1595.96	632.444
1598.1	630
1600.24	624
1602.38	632.667
1604.53	635.111
1606.67	618.444
1608.81	627.333
1610.95	631.778
1613.09	638.889
1615.22	629.111
1617.36	631.778
1619.5	637.111
1621.63	636.222
1623.77	628.667
1625.9	630.444
1628.04	619.778
1630.17	616
1632.3	604
1634.44	608
1636.57	598
1638.7	607.556
1640.83	595.556
1642.96	600.667
1645.09	593.111
1647.22	588.889
1649.34	588
1651.47	586.444
1653.6	586.444
1655.72	585.556
1657.85	581.778
1659.97	582.444
1662.1	589.556
1664.22	580.222
1666.34	576
1668.46	566.444
1670.58	579.778
1672.7	576.889
1674.82	578.889
1676.94	581.556
1679.06	580.445
1681.18	572
1683.3	561.111
1685.41	564.222
1687.53	569.333
1689.64	563.556
1691.76	568
1693.87	577.333
1695.99	570.667
1698.1	572.889
1700.21	572.222
1702.32	561.111
1704.43	574
1706.54	566.222
1708.65	567.556
1710.76	562.889
1712.87	565.333
1714.98	557.333
1717.08	558.222
1719.19	563.333
1721.29	553.111
1723.4	563.778
1725.5	547.333
1727.61	560.222
1729.71	561.111
1731.81	561.111
1733.91	550.667
1736.02	548.222
1738.12	557.111
1740.22	549.778
1742.31	554.222
1744.41	555.111
1746.51	546.222
1748.61	549.333
1750.7	550.444
1752.8	547.556
1754.9	532.444
1756.99	544.222
1759.08	538.222
1761.18	529.778
1763.27	537.556
1765.36	540.222
1767.45	544.222
1769.54	529.111
1771.63	539.333
1773.72	540.222
1775.81	538.222
1777.9	524.667
1779.99	535.778
1782.08	534
1784.16	536
1786.25	533.111
1788.33	541.111
1790.42	539.333
1792.5	535.778
1794.58	528
1796.67	544.222
1798.75	539.778
1800.83	540.889
1802.91	533.111
1804.99	530.444
1807.07	532.222
1809.15	540.222
1811.23	521.111
1813.3	528.667
1815.38	528
1817.46	533.556
1819.53	519.333
1821.61	525.111
1823.68	530
1825.75	516.222
1827.83	523.778
1829.9	523.111
1831.97	524.667
1834.04	528.667
1836.11	521.556
1838.18	518
1840.25	521.556
1842.32	522.222
1844.39	529.556
1846.46	509.778
1848.52	524.444
1850.59	518.667
1852.65	512
1854.72	514.444
1856.78	509.111
1858.85	506.889
1860.91	522.889
1862.97	512.667
1865.03	504.444
1867.09	510.222
1869.16	504.889
1871.22	500
1873.27	505.556
1875.33	502.222
1877.39	513.778
1879.45	503.778
1881.51	506.444
1883.56	500.889
1885.62	498.667
1887.67	502.222
1889.73	497.778
1891.78	511.556
1893.83	509.778
1895.89	503.778
1897.94	507.778
1899.99	503.778
1902.04	506.444
1904.09	497.111
1906.14	497.778
1908.19	507.111
1910.23	501.778
1912.28	501.111
1914.33	501.111
1916.37	505.778
1918.42	499.778
1920.46	498.222
1922.51	496
1924.55	502.444
1926.6	499.333
1928.64	499.556
1930.68	495.111
1932.72	501.778
1934.76	495.778
1936.8	499.333
1938.84	497.111
1940.88	482.444
1942.92	486.889
1944.96	490.444
1946.99	485.333
1949.03	499.111
1951.06	488.889
1953.1	480.667
1955.13	480.222
1957.17	490
1959.2	482.889
1961.23	474.444
1963.27	489.111
1965.3	478.444
1967.33	478.444
1969.36	469.556
1971.39	485.778
1973.42	476.667
1975.44	485.778
1977.47	474.444
1979.5	483.111
1981.53	474.444
1983.55	481.556
1985.58	470.444
1987.6	470.667
1989.63	476
1991.65	470.889
1993.67	474.222
1995.69	473.556
1997.72	481.111
1999.74	478.444
2001.76	472.222
2003.78	469.111
2005.8	470.889
2007.82	463.556
2009.83	470.889
2011.85	475.556
2013.87	468.667
2015.88	470.889
2017.9	462
2019.91	474.889
2021.93	466.667
2023.94	470.889
2025.96	474.222
2027.97	471.778
2029.98	465.556
2031.99	468.889
2034	468.222
2036.01	467.333
2038.02	461.111
2040.03	462.889
2042.04	475.778
2044.05	467.556
2046.05	459.778
2048.06	460
2050.07	454.444
2052.07	454.444
2054.08	464.222
2056.08	460
2058.08	462.222
2060.09	446.667
2062.09	457.778
2064.09	455.556
2066.09	458.222
2068.09	466.222
2070.09	450.889
2072.09	449.111
2074.09	458
2076.09	447.556
2078.09	454.222
2080.08	446.222
2082.08	459.778
2084.08	458.667
2086.07	444.889
2088.07	451.111
2090.06	449.778
2092.05	455.556
2094.05	449.333
2096.04	448.889
2098.03	448
2100.02	444.667
2102.01	448.444
2104	454.444
2105.99	447.778
2107.98	452.444
2109.97	452.889
2111.95	445.778
2113.94	436.444
2115.93	443.333
2117.91	447.333
2119.9	446.889
2121.88	440.889
2123.87	436.222
2125.85	448
2127.83	439.778
2129.81	444.444
2131.8	448.222
2133.78	436.667
2135.76	440.222
2137.74	449.111
2139.72	431.778
2141.69	433.778
2143.67	433.778
2145.65	435.111
2147.63	439.111
2149.6	432
2151.58	430.667
2153.55	440.667
2155.53	429.556
2157.5	430.667
2159.48	430.667
2161.45	424.889
2163.42	422.667
2165.39	426.444
2167.36	430.222
2169.33	420.889
2171.3	422
2173.27	423.556
2175.24	417.333
2177.21	422.222
2179.18	411.778
2181.14	419.333
2183.11	419.111
2185.07	415.556
2187.04	419.778
2189	415.556
2190.97	412.889
2192.93	413.556
2194.89	422.444
2196.86	412.444
2198.82	404.444
2200.78	419.333
2202.74	416.889
2204.7	411.333
2206.66	420
2208.62	415.111
2210.57	411.111
2212.53	407.333
2214.49	406
2216.45	411.556
2218.4	407.778
2220.36	404.889
2222.31	408.444
2224.27	404.444
2226.22	413.333
2228.17	406.889
2230.12	405.778
2232.08	405.111
2234.03	397.778
2235.98	397.556
2237.93	398.222
2239.88	400.222
2241.83	402.444
2243.78	398
2245.72	399.778
2247.67	395.333
2249.62	392.222
2251.56	394
2253.51	399.333
2255.45	402.667
2257.4	395.556
2259.34	396
2261.28	397.556
2263.23	404.222
2265.17	392.889
2267.11	388.889
2269.05	392.222
2270.99	387.556
2272.93	397.111
2274.87	398.444
2276.81	392.444
2278.75	379.778
2280.68	400
2282.62	386
2284.56	390.667
2286.49	377.556
2288.43	382
2290.36	390.889
2292.3	381.778
2294.23	376.222
2296.16	383.778
2298.09	386.667
2300.03	388
2301.96	384
2303.89	383.111
2305.82	372.222
2307.75	378.667
2309.68	373.333
2311.6	377.333
2313.53	376.222
2315.46	377.778
2317.39	371.111
2319.31	372.222
2321.24	374.667
2323.16	374.444
2325.09	384.444
2327.01	383.556
2328.93	367.556
2330.86	378.222
2332.78	372.889
2334.7	369.333
2336.62	368.667
2338.54	369.333
2340.46	369.333
2342.38	373.556
2344.3	372
2346.22	365.333
2348.14	366.889
2350.05	361.778
2351.97	370
2353.89	359.778
2355.8	363.556
2357.71	367.556
2359.63	377.111
2361.54	366.222
2363.46	361.778
2365.37	358.444
2367.28	361.333
2369.19	357.778
2371.1	366.444
2373.01	368
2374.92	353.556
2376.83	350.667
2378.74	350.667
2380.65	351.778
2382.56	355.111
2384.46	353.333
2386.37	354
2388.27	354
2390.18	360.889
2392.08	352.889
2393.99	352.222
2395.89	348.667
2397.8	355.778
2399.7	344.222
2401.6	351.333
2403.5	357.556
2405.4	359.333
2407.3	352
2409.2	345.556
2411.1	342
2413	352
2414.9	340.444
2416.8	353.111
2418.69	342.889
2420.59	346.444
2422.48	340
2424.38	331.111
2426.28	352.667
2428.17	343.111
2430.06	340.222
2431.96	346.667
2433.85	351.111
2435.74	336.889
2437.63	340
2439.52	336.667
2441.41	340.667
2443.3	343.778
2445.19	342
2447.08	340.667
