178.677	1555.78
181.278	1552.44
183.879	1567.33
186.48	1555.33
189.078	1572.22
191.677	1570.44
194.275	1574.89
196.871	1580.22
199.467	1598
202.061	1594.44
204.656	1614.89
207.248	1606
209.841	1602.44
212.431	1601.56
215.022	1620.44
217.613	1612.67
220.201	1617.56
222.789	1633.33
225.375	1636.22
227.962	1663.33
230.547	1658.22
233.13	1675.78
235.714	1667.11
238.296	1688.89
240.879	1687.78
243.459	1696.67
246.04	1694.22
248.618	1706.22
251.196	1720
253.774	1713.56
256.35	1723.78
258.927	1740.67
261.501	1756.67
264.074	1754.44
266.648	1731.33
269.22	1752.89
271.791	1744.44
274.362	1763.11
276.931	1754.44
279.5	1757.78
282.069	1752.44
284.635	1769.33
287.201	1769.11
289.766	1774
292.331	1783.11
294.894	1774.67
297.457	1777.78
300.018	1801.33
302.58	1803.78
305.14	1818
307.699	1819.56
310.257	1800.89
312.814	1796.89
315.372	1816
317.928	1794.67
320.482	1784.22
323.036	1810.44
325.589	1806.67
328.142	1810.22
330.693	1829.78
333.243	1821.78
335.795	1813.33
338.343	1835.56
340.891	1845.33
343.439	1844.22
345.985	1860.67
348.53	1870.22
351.075	1864.22
353.619	1870
356.162	1888.22
358.704	1897.56
361.245	1883.56
363.786	1896.44
366.325	1890.22
368.864	1890.89
371.402	1900.89
373.939	1910.44
376.475	1910
379.011	1930.89
381.545	1934.89
384.079	1937.11
386.612	1918
389.144	1893.11
391.674	1910
394.204	1908.89
396.734	1922
399.263	1920
401.791	1930.44
404.318	1922.44
406.844	1929.78
409.368	1951.33
411.893	1957.78
414.417	1956.89
416.94	1971.56
419.462	1950.67
421.982	1971.56
424.502	1981.33
427.022	1975.11
429.541	1968.44
432.057	1988
434.574	1982
437.091	1982.22
439.606	1998.89
442.12	2000
444.634	1996.22
447.147	1995.11
449.657	2003.11
452.169	1999.11
454.68	2010.67
457.188	1989.33
459.697	2009.11
462.205	2006
464.711	2010.89
467.217	2024.44
469.722	2018.22
472.227	2020.89
474.731	2004.89
477.232	2026
479.735	2034.89
482.235	2020.22
484.736	2037.78
487.234	2052.44
489.734	2033.11
492.23	2032
494.728	2032.89
497.223	2034.44
499.719	2077.11
502.213	2056.44
504.707	2067.78
507.199	2038.44
509.692	2042.22
512.182	2064.44
514.673	2046.89
517.162	2042.89
519.65	2070.22
522.139	2057.33
524.625	2065.11
527.112	2071.78
529.597	2054.22
532.081	2063.33
534.565	2071.78
537.047	2050.22
539.529	2050.22
542.011	2076.67
544.491	2080.44
546.97	2094
549.45	2087.78
551.927	2087.33
554.404	2099.33
556.88	2082.89
559.356	2092.89
561.831	2100.44
564.304	2092.22
566.777	2098.89
569.25	2096
571.721	2115.33
574.191	2100.22
576.661	2107.11
579.129	2089.78
581.599	2116.89
584.066	2092.22
586.532	2076.44
588.997	2104.44
591.462	2104.44
593.926	2095.78
596.389	2098.22
598.851	2084.89
601.314	2099.11
603.775	2097.78
606.235	2104.44
608.694	2106.44
611.152	2092.67
613.609	2109.56
616.066	2124.44
618.522	2105.11
620.977	2142.89
623.431	2133.33
625.885	2143.56
628.338	2123.11
630.79	2142.67
633.241	2142.44
635.691	2131.33
638.141	2151.56
640.589	2136.44
643.036	2151.78
645.483	2138.89
647.929	2142.67
650.375	2150.44
652.82	2149.33
655.264	2154.22
657.707	2138.44
660.149	2139.56
662.59	2117.56
665.031	2156.44
667.471	2126.67
669.91	2138.67
672.349	2129.33
674.786	2126.67
677.222	2122.44
679.658	2134.89
682.093	2142.22
684.528	2133.33
686.96	2112.67
689.393	2117.56
691.826	2145.78
694.256	2127.56
696.686	2131.33
699.116	2134.44
701.545	2135.11
703.972	2128
706.4	2143.56
708.826	2143.33
711.251	2148.44
713.676	2146.67
716.099	2146.89
718.523	2154.22
720.946	2130.22
723.366	2130
725.788	2143.33
728.207	2129.11
730.627	2140.44
733.044	2122.22
735.462	2136.44
737.88	2126.44
740.295	2109.56
742.711	2114.44
745.125	2130.67
747.539	2113.56
749.951	2134
752.363	2113.78
754.775	2129.11
757.185	2120.44
759.595	2128.89
762.003	2141.56
764.412	2123.78
766.819	2122.89
769.225	2111.56
771.632	2108.89
774.036	2132.67
776.441	2121.33
778.844	2124.89
781.246	2110.67
783.649	2137.33
786.05	2136.22
788.449	2127.56
790.85	2160.22
793.248	2125.78
795.646	2144
798.042	2118.67
800.44	2134.67
802.835	2103.78
805.23	2125.56
807.623	2121.56
810.018	2122.44
812.41	2118.22
814.801	2104
817.192	2118.22
819.582	2123.33
821.972	2101.78
824.361	2101.11
826.748	2103.11
829.135	2105.33
831.521	2114.44
833.907	2097.33
836.291	2087.56
838.675	2109.11
841.059	2090.67
843.442	2062.44
845.823	2081.78
848.204	2085.78
850.584	2102.22
852.963	2072.67
855.342	2090.44
857.72	2110.44
860.097	2096
862.473	2074.44
864.848	2104
867.223	2100.67
869.597	2110
871.97	2102
874.343	2093.33
876.714	2105.78
879.084	2105.56
881.454	2109.11
883.824	2072.44
886.192	2095.56
888.56	2094.22
890.927	2106.44
893.294	2093.56
895.66	2088.67
898.023	2080.89
900.387	2080.89
902.751	2067.78
905.114	2075.78
907.476	2061.33
909.835	2047.56
912.196	2046
914.555	2033.11
916.914	2056
919.271	2042
921.629	2042
923.985	2036
926.341	2052.22
928.695	2036.89
931.05	2034.89
933.404	2033.56
935.755	2032
938.107	2044.89
940.459	2038
942.808	2034
945.158	2028
947.508	2024
949.855	2028.67
952.202	2028.22
954.548	2039.33
956.894	2053.33
959.239	2042.44
961.583	2029.78
963.928	2044
966.27	2038
968.612	2048.44
970.953	2030.22
973.294	2034.89
975.633	2039.11
977.972	2032
980.31	2039.56
982.647	2032
984.984	2034.67
987.32	2022
989.656	2023.56
991.989	2048
994.324	2031.56
996.656	2036
998.988	2028.22
1001.32	2038.89
1003.65	2058.22
1005.98	2072.44
1008.31	2125.56
1010.64	2148.67
1012.97	2197.56
1015.29	2178.89
1017.62	2149.33
1019.94	2092.44
1022.27	2074.89
1024.59	2051.56
1026.92	2028.67
1029.24	2030.67
1031.56	2039.56
1033.88	2042.44
1036.2	2054
1038.52	2074.44
1040.84	2061.33
1043.16	2013.78
1045.48	2013.11
1047.79	1996.22
1050.11	2004.22
1052.42	1994.89
1054.74	2001.78
1057.05	1998.44
1059.36	1999.56
1061.67	1992.89
1063.99	1987.11
1066.3	2016
1068.61	2012.22
1070.92	2000.89
1073.22	2003.56
1075.53	2010.22
1077.84	1997.56
1080.15	2008.89
1082.45	2002.67
1084.76	1978.22
1087.06	2004.44
1089.36	2029.11
1091.66	2014.44
1093.97	2020.67
1096.27	2051.78
1098.57	2050
1100.87	2038.67
1103.17	1996
1105.46	2011.11
1107.76	2000.22
1110.06	1989.78
1112.35	1993.56
1114.65	2001.56
1116.94	1978.67
1119.24	2011.78
1121.53	1995.78
1123.82	2008.44
1126.11	2006.44
1128.4	2005.11
1130.7	1992.22
1132.98	2002.67
1135.27	1983.11
1137.56	1960.44
1139.85	1985.33
1142.13	1960.22
1144.42	1963.78
1146.71	1971.78
1148.99	1956.89
1151.27	1965.56
1153.56	1977.33
1155.84	1981.11
1158.12	1972.89
1160.4	1980.44
1162.68	1950.44
1164.96	1942.89
1167.24	1942
1169.51	1945.11
1171.79	1944.89
1174.07	1932.22
1176.34	1926.22
1178.62	1945.33
1180.89	1944.44
1183.17	1939.33
1185.44	1922
1187.71	1918.44
1189.98	1910.44
1192.25	1910.44
1194.52	1907.56
1196.79	1925.33
1199.06	1924.67
1201.33	1929.11
1203.59	1918.44
1205.86	1910.89
1208.12	1927.78
1210.39	1929.33
1212.65	1928.89
1214.92	1922.89
1217.18	1918.89
1219.44	1903.56
1221.7	1921.11
1223.96	1912
1226.22	1895.11
1228.48	1914.67
1230.74	1901.56
1233	1898.67
1235.25	1913.11
1237.51	1918.89
1239.77	1925.78
1242.02	1914.22
1244.27	1934
1246.53	1910.22
1248.78	1916.89
1251.03	1900
1253.28	1905.11
1255.53	1912.44
1257.78	1894.67
1260.03	1891.78
1262.28	1905.11
1264.53	1897.33
1266.78	1891.78
1269.02	1891.78
1271.27	1880.22
1273.51	1884.22
1275.76	1894.67
1278	1890.22
1280.24	1889.11
1282.48	1884.44
1284.72	1879.78
1286.97	1881.56
1289.21	1876
1291.44	1881.78
1293.68	1882.89
1295.92	1881.33
1298.16	1873.33
1300.39	1877.78
1302.63	1862.44
1304.86	1885.78
1307.1	1873.33
1309.33	1865.33
1311.56	1875.78
1313.8	1883.11
1316.03	1861.11
1318.26	1859.33
1320.49	1876.89
1322.72	1884.22
1324.95	1886
1327.17	1877.78
1329.4	1878
1331.63	1871.11
1333.85	1868.67
1336.08	1865.11
1338.3	1894.44
1340.53	1907.33
1342.75	1909.33
1344.97	1907.78
1347.19	1878.22
1349.41	1862
1351.63	1853.11
1353.85	1852.67
1356.07	1853.56
1358.29	1849.33
1360.51	1846.67
1362.72	1854
1364.94	1842.44
1367.16	1856.89
1369.37	1841.33
1371.58	1835.11
1373.8	1826.44
1376.01	1848.67
1378.22	1844.44
1380.43	1836.22
1382.64	1851.33
1384.85	1828.22
1387.06	1821.11
1389.27	1816.67
1391.48	1798.67
1393.68	1791.33
1395.89	1803.56
1398.1	1818.44
1400.3	1789.78
1402.51	1798.22
1404.71	1786.22
1406.91	1777.78
1409.11	1780.89
1411.32	1759.78
1413.52	1766.67
1415.72	1765.78
1417.92	1792.89
1420.11	1780.89
1422.31	1778
1424.51	1769.78
1426.71	1784.67
1428.9	1758.67
1431.1	1770.44
1433.29	1777.11
1435.49	1748
1437.68	1770.89
1439.87	1786
1442.06	1780
1444.25	1784.44
1446.45	1815.78
1448.64	1824.44
1450.82	1830.89
1453.01	1827.56
1455.2	1827.33
1457.39	1808.89
1459.57	1807.33
1461.76	1797.56
1463.94	1805.11
1466.13	1798.44
1468.31	1788.44
1470.5	1787.56
1472.68	1818.89
1474.86	1797.78
1477.04	1790.67
1479.22	1800.89
1481.4	1795.11
1483.58	1791.33
1485.76	1788.67
1487.94	1789.11
1490.11	1785.11
1492.29	1766.22
1494.46	1772
1496.64	1787.11
1498.81	1782.67
1500.99	1785.11
1503.16	1790
1505.33	1795.56
1507.5	1778.67
1509.67	1769.11
1511.84	1774.44
1514.01	1787.56
1516.18	1774
1518.35	1777.78
1520.52	1796
1522.68	1795.33
1524.85	1800.44
1527.02	1823.33
1529.18	1832.67
1531.35	1813.78
1533.51	1808
1535.67	1777.33
1537.83	1788.22
1539.99	1783.56
1542.16	1786
1544.31	1764.22
1546.47	1771.11
1548.63	1770.67
1550.79	1767.11
1552.95	1788.22
1555.11	1769.11
1557.26	1770.22
1559.42	1768.44
1561.57	1793.11
1563.73	1752.44
1565.88	1781.11
1568.03	1791.33
1570.18	1764.44
1572.34	1790.44
1574.49	1790
1576.64	1758.89
1578.79	1769.78
1580.93	1784.89
1583.08	1766.44
1585.23	1773.33
1587.38	1767.33
1589.52	1780.89
1591.67	1761.33
1593.81	1770
1595.96	1756.22
1598.1	1771.11
1600.24	1777.78
1602.38	1774.44
1604.53	1771.11
1606.67	1738.67
1608.81	1760.89
1610.95	1746.44
1613.09	1742.44
1615.22	1736.89
1617.36	1738.89
1619.5	1737.11
1621.63	1715.11
1623.77	1676.89
1625.9	1681.78
1628.04	1670.44
1630.17	1654.89
1632.3	1644.44
1634.44	1662.44
1636.57	1646.22
1638.7	1634.44
1640.83	1636.22
1642.96	1624.89
1645.09	1629.78
1647.22	1603.56
1649.34	1592
1651.47	1596.67
1653.6	1595.56
1655.72	1603.56
1657.85	1576.67
1659.97	1565.33
1662.1	1573.56
1664.22	1570.44
1666.34	1568.22
1668.46	1580.44
1670.58	1557.33
1672.7	1561.11
1674.82	1551.11
1676.94	1565.56
1679.06	1556.22
1681.18	1542
1683.3	1557.78
1685.41	1554.22
1687.53	1540
1689.64	1536.67
1691.76	1544.44
1693.87	1549.33
1695.99	1530.67
1698.1	1545.11
1700.21	1556.89
1702.32	1542
1704.43	1533.56
1706.54	1540.44
1708.65	1527.33
1710.76	1515.11
1712.87	1526.44
1714.98	1530
1717.08	1522.89
1719.19	1508.44
1721.29	1520
1723.4	1510
1725.5	1495.56
1727.61	1499.11
1729.71	1509.78
1731.81	1489.11
1733.91	1484.67
1736.02	1491.11
1738.12	1492
1740.22	1485.78
1742.31	1472
1744.41	1483.56
1746.51	1468.89
1748.61	1452.44
1750.7	1463.56
1752.8	1470
1754.9	1452.67
1756.99	1470
1759.08	1451.56
1761.18	1452.22
1763.27	1461.33
1765.36	1445.78
1767.45	1442.44
1769.54	1449.11
1771.63	1440
1773.72	1467.78
1775.81	1443.56
1777.9	1439.56
1779.99	1440.22
1782.08	1437.33
1784.16	1429.78
1786.25	1431.33
1788.33	1429.78
1790.42	1431.11
1792.5	1432.44
1794.58	1429.56
1796.67	1452.22
1798.75	1432.89
1800.83	1413.56
1802.91	1437.78
1804.99	1406.44
1807.07	1430.89
1809.15	1431.33
1811.23	1424
1813.3	1411.56
1815.38	1399.33
1817.46	1402.22
1819.53	1414.89
1821.61	1414
1823.68	1400.89
1825.75	1407.78
1827.83	1389.78
1829.9	1392.89
1831.97	1393.33
1834.04	1392.22
1836.11	1391.78
1838.18	1382
1840.25	1367.11
1842.32	1379.11
1844.39	1384
1846.46	1355.11
1848.52	1375.33
1850.59	1375.33
1852.65	1348
1854.72	1370.89
1856.78	1360.89
1858.85	1356.22
1860.91	1349.78
1862.97	1337.33
1865.03	1348.22
1867.09	1354.22
1869.16	1347.33
1871.22	1348.22
1873.27	1331.33
1875.33	1341.56
1877.39	1329.11
1879.45	1335.33
1881.51	1329.78
1883.56	1332.22
1885.62	1329.56
1887.67	1337.78
1889.73	1330.67
1891.78	1339.33
1893.83	1338.22
1895.89	1333.11
1897.94	1319.11
1899.99	1311.11
1902.04	1319.78
1904.09	1312.89
1906.14	1319.11
1908.19	1326.89
1910.23	1307.78
1912.28	1321.56
1914.33	1304.22
1916.37	1309.78
1918.42	1296
1920.46	1312
1922.51	1307.11
1924.55	1299.33
1926.6	1287.78
1928.64	1295.56
1930.68	1293.78
1932.72	1296
1934.76	1296.22
1936.8	1280
1938.84	1268.22
1940.88	1286
1942.92	1282.89
1944.96	1278.44
1946.99	1266.22
1949.03	1256.22
1951.06	1284.67
1953.1	1253.78
1955.13	1257.56
1957.17	1264.89
1959.2	1251.56
1961.23	1250.67
1963.27	1246.44
1965.3	1245.33
1967.33	1248.44
1969.36	1235.11
1971.39	1221.11
1973.42	1236.89
1975.44	1240.67
1977.47	1230.44
1979.5	1227.78
1981.53	1223.56
1983.55	1225.56
1985.58	1222
1987.6	1211.78
1989.63	1222.22
1991.65	1215.56
1993.67	1211.78
1995.69	1209.11
1997.72	1211.78
1999.74	1222.44
2001.76	1201.78
2003.78	1219.78
2005.8	1209.78
2007.82	1202.44
2009.83	1207.33
2011.85	1204.22
2013.87	1202.44
2015.88	1224.89
2017.9	1217.33
2019.91	1201.11
2021.93	1200.44
2023.94	1190.22
2025.96	1214.67
2027.97	1210
2029.98	1217.33
2031.99	1187.11
2034	1198.89
2036.01	1191.78
2038.02	1181.56
2040.03	1173.56
2042.04	1188.44
2044.05	1184
2046.05	1185.78
2048.06	1172.89
2050.07	1177.78
2052.07	1178.22
2054.08	1167.78
2056.08	1153.78
2058.08	1155.11
2060.09	1174.22
2062.09	1155.11
2064.09	1169.33
2066.09	1148.89
2068.09	1152.89
2070.09	1140.67
2072.09	1142.22
2074.09	1140.67
2076.09	1152.22
2078.09	1154.44
2080.08	1133.33
2082.08	1137.11
2084.08	1127.78
2086.07	1119.78
2088.07	1136.67
2090.06	1133.11
2092.05	1130.67
2094.05	1127.78
2096.04	1133.33
2098.03	1115.78
2100.02	1136.44
2102.01	1106.22
2104	1109.78
2105.99	1109.78
2107.98	1100.44
2109.97	1097.78
2111.95	1105.11
2113.94	1119.56
2115.93	1093.56
2117.91	1103.11
2119.9	1092
2121.88	1103.56
2123.87	1098.89
2125.85	1094
2127.83	1091.56
2129.81	1102.22
2131.8	1096.22
2133.78	1093.78
2135.76	1082
2137.74	1088.22
2139.72	1080
2141.69	1078
2143.67	1075.78
2145.65	1067.56
2147.63	1075.11
2149.6	1074.89
2151.58	1061.33
2153.55	1066.44
2155.53	1060
2157.5	1058.67
2159.48	1049.56
2161.45	1054.67
2163.42	1053.78
2165.39	1046
2167.36	1039.56
2169.33	1037.56
2171.3	1032.44
2173.27	1045.11
2175.24	1027.11
2177.21	1021.78
2179.18	1030.44
2181.14	1019.78
2183.11	1029.33
2185.07	1027.78
2187.04	1022.44
2189	1015.11
2190.97	1021.33
2192.93	999.111
2194.89	996.444
2196.86	1007.78
2198.82	996.667
2200.78	996.667
2202.74	995.111
2204.7	994.444
2206.66	993.778
2208.62	1006
2210.57	980
2212.53	992.444
2214.49	972
2216.45	981.778
2218.4	979.556
2220.36	986
2222.31	972.222
2224.27	976.889
2226.22	959.556
2228.17	959.556
2230.12	966.222
2232.08	968.222
2234.03	962.889
2235.98	967.111
2237.93	969.778
2239.88	957.111
2241.83	955.111
2243.78	954.667
2245.72	941.111
2247.67	943.333
2249.62	952.444
2251.56	936.222
2253.51	939.333
2255.45	934.667
2257.4	931.111
2259.34	936.444
2261.28	924.222
2263.23	924
2265.17	935.778
2267.11	924.444
2269.05	917.333
2270.99	926.444
2272.93	925.111
2274.87	926.667
2276.81	918.889
2278.75	920.667
2280.68	923.333
2282.62	912.222
2284.56	914.222
2286.49	896.667
2288.43	901.333
2290.36	902.667
2292.3	896.444
2294.23	900.444
2296.16	898
2298.09	890.889
2300.03	875.556
2301.96	882
2303.89	881.556
2305.82	877.333
2307.75	875.111
2309.68	881.333
2311.6	876
2313.53	872.222
2315.46	869.333
2317.39	855.556
2319.31	854.444
2321.24	864.889
2323.16	854.889
2325.09	854.667
2327.01	855.778
2328.93	858.667
2330.86	860.222
2332.78	850.667
2334.7	851.778
2336.62	851.556
2338.54	852.444
2340.46	844.889
2342.38	836.222
2344.3	850
2346.22	836.444
2348.14	838.667
2350.05	838.667
2351.97	841.111
2353.89	830.444
2355.8	833.111
2357.71	825.556
2359.63	812
2361.54	836.667
2363.46	819.111
2365.37	815.778
2367.28	827.556
2369.19	810
2371.1	808
2373.01	816
2374.92	813.556
2376.83	804.444
2378.74	799.556
2380.65	806.444
2382.56	797.556
2384.46	803.556
2386.37	802.444
2388.27	807.111
2390.18	790.222
2392.08	792.889
2393.99	787.778
2395.89	794.222
2397.8	783.556
2399.7	784.222
2401.6	778.222
2403.5	768.667
2405.4	788.222
2407.3	772.889
2409.2	768
2411.1	764.444
2413	777.778
2414.9	766.222
2416.8	749.556
2418.69	761.111
2420.59	771.778
2422.48	763.333
2424.38	764
2426.28	756
2428.17	758.444
2430.06	763.556
2431.96	749.778
2433.85	740.889
2435.74	746.667
2437.63	762
2439.52	758
2441.41	753.556
2443.3	751.556
2445.19	741.111
2447.08	757.778
