178.677	690.889
181.278	691.778
183.879	684.889
186.48	691.556
189.078	691.778
191.677	702.667
194.275	710.444
196.871	707.111
199.467	727.778
202.061	726.667
204.656	722.667
207.248	734
209.841	720.444
212.431	728.667
215.022	734.444
217.613	746
220.201	749.555
222.789	743.111
225.375	750.444
227.962	751.556
230.547	759.111
233.13	749.333
235.714	748.667
238.296	758
240.879	763.333
243.459	766.667
246.04	761.333
248.618	758.222
251.196	759.111
253.774	753.111
256.35	743.778
258.927	743.111
261.501	733.556
264.074	739.556
266.648	735.333
269.22	726.667
271.791	712.222
274.362	706.667
276.931	696.889
279.5	711.111
282.069	694.222
284.635	690.445
287.201	688.667
289.766	674.889
292.331	676.444
294.894	671.778
297.457	672.667
300.018	675.333
302.58	670.667
305.14	677.111
307.699	667.111
310.257	668.222
312.814	670.667
315.372	662.445
317.928	656.444
320.482	653.333
323.036	661.555
325.589	664.889
328.142	662.889
330.693	673.333
333.243	673.778
335.795	673.111
338.343	679.333
340.891	670
343.439	688.445
345.985	674.222
348.53	671.111
351.075	670.889
353.619	681.111
356.162	683.111
358.704	671.111
361.245	686.667
363.786	686.222
366.325	677.111
368.864	680.667
371.402	684.667
373.939	688.889
376.475	681.778
379.011	712.889
381.545	703.778
384.079	710.222
386.612	704.667
389.144	688
391.674	670
394.204	681.556
396.734	658.889
399.263	670.444
401.791	674.444
404.318	684.889
406.844	676.444
409.368	674.444
411.893	686.222
414.417	679.556
416.94	686
419.462	686.444
421.982	694
424.502	694.889
427.022	688
429.541	699.333
432.057	696.667
434.574	704.444
437.091	710
439.606	704
442.12	687.778
444.634	705.333
447.147	709.556
449.657	696
452.169	690.667
454.68	701.111
457.188	703.333
459.697	716.889
462.205	714.889
464.711	698.667
467.217	698.222
469.722	703.556
472.227	682.444
474.731	689.333
477.232	689.111
479.735	683.778
482.235	691.111
484.736	694.667
487.234	692.222
489.734	700.444
492.23	695.333
494.728	710.667
497.223	704.444
499.719	699.556
502.213	702.889
504.707	707.778
507.199	696.444
509.692	702.667
512.182	694.889
514.673	701.333
517.162	698.889
519.65	708.444
522.139	709.556
524.625	701.111
527.112	694.222
529.597	701.333
532.081	706.444
534.565	700.667
537.047	698
539.529	712.667
542.011	703.333
544.491	707.778
546.97	700.889
549.45	693.333
551.927	706.667
554.404	704.444
556.88	694.667
559.356	713.111
561.831	704.667
564.304	704.222
566.777	714.222
569.25	713.556
571.721	699.778
574.191	706
576.661	702.889
579.129	720.444
581.599	697.111
584.066	698.444
586.532	698.889
588.997	698.889
591.462	702.889
593.926	708
596.389	707.556
598.851	716.222
601.314	703.778
603.775	710.889
606.235	706.667
608.694	727.333
611.152	711.555
613.609	710.889
616.066	711.778
618.522	703.111
620.977	709.778
623.431	710.222
625.885	715.778
628.338	706.667
630.79	719.111
633.241	706.889
635.691	707.333
638.141	709.778
640.589	706.222
643.036	714.444
645.483	715.778
647.929	706.444
650.375	723.111
652.82	721.778
655.264	704.444
657.707	706.667
660.149	712
662.59	707.333
665.031	705.111
667.471	711.111
669.91	713.778
672.349	700.889
674.786	707.778
677.222	708.222
679.658	702.222
682.093	710
684.528	702.222
686.96	697.556
689.393	706.889
691.826	708.222
694.256	713.778
696.686	703.111
699.116	706.222
701.545	714.444
703.972	707.778
706.4	698.444
708.826	704.222
711.251	706.667
713.676	707.556
716.099	716.444
718.523	708.667
720.946	708.667
723.366	707.111
725.788	702.222
728.207	695.556
730.627	700
733.044	702.222
735.462	708.667
737.88	713.111
740.295	704.444
742.711	698.667
745.125	698.444
747.539	689.111
749.951	699.111
752.363	694
754.775	688.667
757.185	694.889
759.595	694.222
762.003	702.667
764.412	696.889
766.819	690.444
769.225	698
771.632	707.111
774.036	702.667
776.441	704.222
778.844	707.778
781.246	706.444
783.649	695.111
786.05	713.111
788.449	707.556
790.85	699.778
793.248	700.667
795.646	714.444
798.042	708
800.44	705.778
802.835	702.667
805.23	717.333
807.623	718.222
810.018	702
812.41	695.333
814.801	685.111
817.192	704.667
819.582	683.111
821.972	696
824.361	699.333
826.748	694.222
829.135	687.556
831.521	697.333
833.907	691.556
836.291	679.333
838.675	690.444
841.059	689.333
843.442	687.333
845.823	683.333
848.204	699.555
850.584	684.889
852.963	698.667
855.342	692.222
857.72	683.111
860.097	691.333
862.473	696.667
864.848	696
867.223	692.222
869.597	688.222
871.97	702
874.343	707.333
876.714	684.222
879.084	699.778
881.454	699.556
883.824	697.111
886.192	695.333
888.56	696
890.927	697.333
893.294	715.111
895.66	694.889
898.023	695.333
900.387	691.555
902.751	695.333
905.114	693.333
907.476	695.333
909.835	691.111
912.196	689.333
914.555	690.222
916.914	694.222
919.271	689.111
921.629	683.778
923.985	691.778
926.341	693.111
928.695	684.889
931.05	684.222
933.404	692.667
935.755	696.444
938.107	684.667
940.459	685.778
942.808	688.667
945.158	686.444
947.508	693.111
949.855	690.667
952.202	681.333
954.548	680.889
956.894	678.222
959.239	690.889
961.583	694.889
963.928	685.778
966.27	698.444
968.612	692.889
970.953	688
973.294	698.889
975.633	694.667
977.972	686.667
980.31	680.889
982.647	696.667
984.984	682.889
987.32	686.222
989.656	698.222
991.989	691.333
994.324	684
996.656	692.222
998.988	714.222
1001.32	700.444
1003.65	713.333
1005.98	726.222
1008.31	766.222
1010.64	777.111
1012.97	774
1015.29	734.444
1017.62	719.556
1019.94	701.778
1022.27	701.111
1024.59	696.222
1026.92	690.667
1029.24	689.333
1031.56	701.111
1033.88	702.889
1036.2	729.333
1038.52	746.222
1040.84	729.556
1043.16	697.111
1045.48	698.222
1047.79	694.667
1050.11	691.778
1052.42	689.333
1054.74	708.222
1057.05	709.333
1059.36	711.333
1061.67	706.444
1063.99	694.444
1066.3	703.333
1068.61	698.445
1070.92	708.889
1073.22	690.222
1075.53	706.445
1077.84	696.889
1080.15	695.111
1082.45	695.333
1084.76	714.889
1087.06	709.778
1089.36	711.778
1091.66	716.667
1093.97	743.111
1096.27	746.222
1098.57	747.778
1100.87	736.667
1103.17	723.111
1105.46	720.222
1107.76	716.444
1110.06	714.667
1112.35	715.556
1114.65	715.111
1116.94	718.667
1119.24	727.778
1121.53	722.222
1123.82	722.667
1126.11	730.667
1128.4	718.222
1130.7	708.667
1132.98	710.889
1135.27	692.667
1137.56	696.889
1139.85	685.333
1142.13	700.667
1144.42	691.778
1146.71	705.111
1148.99	696.222
1151.27	698.667
1153.56	703.556
1155.84	713.556
1158.12	705.333
1160.4	687.333
1162.68	690.222
1164.96	684
1167.24	683.333
1169.51	686.667
1171.79	676.445
1174.07	685.333
1176.34	687.556
1178.62	696.222
1180.89	678.222
1183.17	682.444
1185.44	685.333
1187.71	686.222
1189.98	676.667
1192.25	669.778
1194.52	683.111
1196.79	674.889
1199.06	678.889
1201.33	685.556
1203.59	674
1205.86	688.222
1208.12	680.889
1210.39	681.556
1212.65	688.667
1214.92	681.556
1217.18	677.556
1219.44	691.333
1221.7	676.444
1223.96	691.333
1226.22	683.333
1228.48	678.667
1230.74	680.444
1233	673.556
1235.25	670.222
1237.51	679.333
1239.77	679.333
1242.02	672.667
1244.27	666.667
1246.53	668
1248.78	678
1251.03	681.333
1253.28	680.444
1255.53	676
1257.78	680.222
1260.03	675.111
1262.28	677.333
1264.53	678.667
1266.78	691.333
1269.02	689.556
1271.27	674.444
1273.51	675.111
1275.76	679.111
1278	679.333
1280.24	672.222
1282.48	684.889
1284.72	690
1286.97	677.111
1289.21	679.111
1291.44	693.556
1293.68	689.111
1295.92	685.111
1298.16	686.444
1300.39	686.667
1302.63	687.111
1304.86	681.778
1307.1	677.333
1309.33	693.778
1311.56	693.111
1313.8	684.222
1316.03	687.778
1318.26	689.778
1320.49	685.111
1322.72	695.333
1324.95	680.222
1327.17	686.444
1329.4	694.444
1331.63	696
1333.85	694.667
1336.08	702.444
1338.3	694.444
1340.53	697.556
1342.75	688.444
1344.97	693.556
1347.19	690.667
1349.41	685.333
1351.63	684.444
1353.85	684.444
1356.07	676.889
1358.29	684
1360.51	694.889
1362.72	690.222
1364.94	694.444
1367.16	698.222
1369.37	696.222
1371.58	692
1373.8	688.667
1376.01	716.889
1378.22	703.778
1380.43	709.556
1382.64	712
1384.85	705.333
1387.06	720.667
1389.27	699.111
1391.48	703.556
1393.68	692.667
1395.89	685.111
1398.1	688.667
1400.3	683.333
1402.51	679.778
1404.71	666.444
1406.91	688.444
1409.11	675.333
1411.32	680.889
1413.52	679.333
1415.72	681.333
1417.92	675.778
1420.11	666
1422.31	665.333
1424.51	673.778
1426.71	663.556
1428.9	664
1431.1	652
1433.29	661.333
1435.49	676.889
1437.68	665.111
1439.87	654.667
1442.06	669.111
1444.25	665.333
1446.45	652.667
1448.64	668
1450.82	648.889
1453.01	654.667
1455.2	665.333
1457.39	657.778
1459.57	652.667
1461.76	666.667
1463.94	659.333
1466.13	672.222
1468.31	658.222
1470.5	653.333
1472.68	659.556
1474.86	664.444
1477.04	658.444
1479.22	664.667
1481.4	658
1483.58	652.889
1485.76	661.778
1487.94	648.889
1490.11	643.111
1492.29	643.333
1494.46	634.667
1496.64	657.333
1498.81	650.222
1500.99	637.778
1503.16	644.444
1505.33	660.667
1507.5	638.889
1509.67	644
1511.84	651.111
1514.01	649.111
1516.18	640.444
1518.35	650.444
1520.52	645.111
1522.68	648.444
1524.85	654.889
1527.02	639.556
1529.18	647.333
1531.35	644.222
1533.51	657.778
1535.67	648.444
1537.83	650.222
1539.99	643.556
1542.16	649.556
1544.31	647.111
1546.47	644
1548.63	651.111
1550.79	642
1552.95	639.778
1555.11	649.333
1557.26	646.889
1559.42	646.667
1561.57	642.222
1563.73	650.667
1565.88	638.222
1568.03	647.778
1570.18	639.778
1572.34	649.556
1574.49	658.222
1576.64	648.889
1578.79	647.778
1580.93	646.667
1583.08	646.667
1585.23	647.778
1587.38	648.444
1589.52	648.222
1591.67	656.667
1593.81	651.778
1595.96	649.333
1598.1	655.111
1600.24	648.444
1602.38	644.889
1604.53	638.667
1606.67	641.333
1608.81	639.556
1610.95	653.333
1613.09	645.778
1615.22	638
1617.36	644.889
1619.5	646.222
1621.63	642.444
1623.77	627.556
1625.9	644
1628.04	626
1630.17	637.778
1632.3	639.333
1634.44	640.889
1636.57	624.444
1638.7	627.778
1640.83	622.222
1642.96	617.778
1645.09	620.667
1647.22	626.444
1649.34	618
1651.47	610
1653.6	622.667
1655.72	611.333
1657.85	615.333
1659.97	620.667
1662.1	619.778
1664.22	605.333
1666.34	603.778
1668.46	604.889
1670.58	612.667
1672.7	607.333
1674.82	603.556
1676.94	604.667
1679.06	604
1681.18	599.556
1683.3	606
1685.41	590.889
1687.53	600.667
1689.64	595.333
1691.76	605.111
1693.87	598
1695.99	599.111
1698.1	602.444
1700.21	593.111
1702.32	598.222
1704.43	597.111
1706.54	598
1708.65	592.889
1710.76	585.556
1712.87	594.889
1714.98	594.222
1717.08	595.333
1719.19	602.889
1721.29	585.333
1723.4	585.778
1725.5	576.222
1727.61	591.778
1729.71	572
1731.81	598.667
1733.91	576.667
1736.02	576.222
1738.12	585.333
1740.22	565.333
1742.31	576
1744.41	582.222
1746.51	570
1748.61	568.667
1750.7	577.111
1752.8	560.222
1754.9	570.889
1756.99	573.556
1759.08	567.333
1761.18	564.667
1763.27	565.556
1765.36	579.111
1767.45	560.444
1769.54	566.444
1771.63	558.889
1773.72	568.889
1775.81	557.778
1777.9	560.222
1779.99	563.778
1782.08	567.778
1784.16	562.889
1786.25	565.111
1788.33	572.222
1790.42	552.222
1792.5	562.222
1794.58	562.667
1796.67	552
1798.75	563.556
1800.83	557.111
1802.91	569.111
1804.99	564.889
1807.07	566.444
1809.15	552.667
1811.23	570.667
1813.3	555.778
1815.38	553.111
1817.46	557.555
1819.53	563.333
1821.61	560.222
1823.68	554.222
1825.75	565.111
1827.83	557.333
1829.9	551.556
1831.97	551.778
1834.04	546.222
1836.11	552.889
1838.18	553.556
1840.25	555.111
1842.32	547.111
1844.39	550.889
1846.46	541.556
1848.52	545.111
1850.59	549.111
1852.65	534.667
1854.72	538.889
1856.78	540.222
1858.85	545.333
1860.91	536.222
1862.97	541.556
1865.03	548.667
1867.09	536.444
1869.16	548.889
1871.22	542
1873.27	538.444
1875.33	533.778
1877.39	543.778
1879.45	526.222
1881.51	534.889
1883.56	536.889
1885.62	543.333
1887.67	539.778
1889.73	546.889
1891.78	536.222
1893.83	533.333
1895.89	530.444
1897.94	524.889
1899.99	537.556
1902.04	532
1904.09	533.555
1906.14	520.667
1908.19	534.667
1910.23	532.222
1912.28	529.778
1914.33	526.444
1916.37	523.333
1918.42	527.111
1920.46	536.889
1922.51	528.444
1924.55	525.778
1926.6	523.556
1928.64	531.778
1930.68	524
1932.72	525.111
1934.76	518.444
1936.8	520.889
1938.84	520.222
1940.88	523.556
1942.92	511.778
1944.96	520.667
1946.99	512.444
1949.03	521.111
1951.06	520.667
1953.1	516.889
1955.13	513.556
1957.17	515.333
1959.2	513.333
1961.23	519.111
1963.27	509.333
1965.3	513.556
1967.33	497.556
1969.36	503.111
1971.39	503.556
1973.42	509.333
1975.44	510
1977.47	496.222
1979.5	512.222
1981.53	511.111
1983.55	506.667
1985.58	498
1987.6	511.556
1989.63	500.889
1991.65	500.667
1993.67	498.444
1995.69	500.667
1997.72	499.556
1999.74	504.444
2001.76	509.333
2003.78	507.556
2005.8	502.667
2007.82	513.556
2009.83	499.556
2011.85	501.333
2013.87	503.556
2015.88	487.333
2017.9	496.444
2019.91	492.667
2021.93	494
2023.94	497.778
2025.96	486.444
2027.97	497.333
2029.98	490.667
2031.99	494
2034	491.556
2036.01	493.111
2038.02	498.444
2040.03	499.333
2042.04	492.444
2044.05	486.444
2046.05	495.111
2048.06	487.333
2050.07	497.111
2052.07	478.444
2054.08	499.556
2056.08	491.778
2058.08	486.444
2060.09	486.667
2062.09	482.889
2064.09	490
2066.09	484.222
2068.09	481.111
2070.09	480.222
2072.09	484
2074.09	488.667
2076.09	491.333
2078.09	480.889
2080.08	481.111
2082.08	489.778
2084.08	494.222
2086.07	480.667
2088.07	473.111
2090.06	474.444
2092.05	474.444
2094.05	468.667
2096.04	465.778
2098.03	485.778
2100.02	481.778
2102.01	478.444
2104	470.444
2105.99	474.222
2107.98	474.667
2109.97	476.222
2111.95	471.333
2113.94	473.111
2115.93	470.667
2117.91	484.222
2119.9	468.889
2121.88	476.222
2123.87	460.889
2125.85	465.778
2127.83	465.556
2129.81	467.778
2131.8	468.444
2133.78	468.889
2135.76	459.111
2137.74	447.778
2139.72	467.556
2141.69	462.667
2143.67	462
2145.65	460.444
2147.63	462.889
2149.6	460.222
2151.58	461.111
2153.55	466
2155.53	459.333
2157.5	454.667
2159.48	450.889
2161.45	456
2163.42	447.111
2165.39	454.667
2167.36	457.556
2169.33	451.556
2171.3	459.556
2173.27	449.333
2175.24	448.444
2177.21	440.444
2179.18	441.333
2181.14	447.111
2183.11	453.111
2185.07	442.222
2187.04	438.222
2189	438.222
2190.97	440.889
2192.93	444
2194.89	443.778
2196.86	432.889
2198.82	432
2200.78	435.111
2202.74	437.111
2204.7	434.889
2206.66	434.222
2208.62	433.333
2210.57	445.556
2212.53	438.222
2214.49	430
2216.45	434
2218.4	429.556
2220.36	436.667
2222.31	434.667
2224.27	418.444
2226.22	430.889
2228.17	429.111
2230.12	433.111
2232.08	433.556
2234.03	431.556
2235.98	431.778
2237.93	427.333
2239.88	417.111
2241.83	421.333
2243.78	426.444
2245.72	430
2247.67	426.667
2249.62	416.667
2251.56	431.556
2253.51	431.111
2255.45	418.667
2257.4	422.889
2259.34	419.111
2261.28	420.667
2263.23	428.889
2265.17	407.111
2267.11	413.333
2269.05	421.333
2270.99	418.222
2272.93	419.778
2274.87	411.556
2276.81	413.111
2278.75	416
2280.68	422.444
2282.62	404
2284.56	413.333
2286.49	414.222
2288.43	414.889
2290.36	402.222
2292.3	408.889
2294.23	405.111
2296.16	414
2298.09	410.889
2300.03	409.778
2301.96	406.444
2303.89	401.556
2305.82	403.333
2307.75	396.222
2309.68	396.889
2311.6	399.556
2313.53	393.556
2315.46	401.333
2317.39	407.778
2319.31	405.778
2321.24	398.444
2323.16	405.111
2325.09	407.556
2327.01	402
2328.93	393.111
2330.86	400.667
2332.78	399.556
2334.7	389.556
2336.62	391.556
2338.54	396.889
2340.46	394
2342.38	398.667
2344.3	391.556
2346.22	404
2348.14	388.889
2350.05	391.111
2351.97	382.444
2353.89	385.333
2355.8	380.889
2357.71	394
2359.63	391.778
2361.54	383.111
2363.46	389.111
2365.37	385.333
2367.28	381.111
2369.19	392
2371.1	375.333
2373.01	379.333
2374.92	378.444
2376.83	380.444
2378.74	383.333
2380.65	382.667
2382.56	377.778
2384.46	379.333
2386.37	378.222
2388.27	372.444
2390.18	378.667
2392.08	368.667
2393.99	381.778
2395.89	369.556
2397.8	376.667
2399.7	378.889
2401.6	366.444
2403.5	365.556
2405.4	374
2407.3	372
2409.2	363.111
2411.1	363.333
2413	366.889
2414.9	369.333
2416.8	361.556
2418.69	369.556
2420.59	368.889
2422.48	371.556
2424.38	367.556
2426.28	373.333
2428.17	370.222
2430.06	369.333
2431.96	370.444
2433.85	366.889
2435.74	372.889
2437.63	369.778
2439.52	365.778
2441.41	364
2443.3	363.333
2445.19	360.889
2447.08	366.667
