364.259	31.0551
367.212	33.5073
370.164	32.2944
373.114	33.3823
376.063	37.1632
379.009	37.5567
381.955	40.3856
384.9	42.7304
387.843	48.5643
390.784	51.11
393.724	56.6841
396.662	53.713
399.6	56.6338
402.536	53.8075
405.469	46.1981
408.403	44.0193
411.334	40.3837
414.264	43.8813
417.192	42.11
420.12	49.9157
423.045	51.5115
425.969	51.2179
428.893	44.9312
431.814	42.5081
434.734	35.8575
437.652	30.7218
440.569	28.3308
443.485	23.0026
446.399	25.8723
449.312	23.0927
452.224	23.5371
455.134	26.4915
458.043	24.5711
460.949	26.5667
463.855	24.5049
466.76	21.9577
469.663	24.9947
472.564	26.0176
475.465	33.9073
478.363	38.6186
481.261	43.4141
484.156	47.9382
487.05	47.6296
489.944	43.1523
492.835	35.5648
495.725	32.7094
498.614	27.4975
501.502	23.8155
504.388	24.2262
507.273	22.4558
510.156	21.3753
513.038	22.4494
515.919	19.231
518.797	25.3445
521.675	20.961
524.551	20.4763
527.426	25.6407
530.299	23.1203
533.172	21.612
536.043	20.4018
538.912	21.2477
541.78	20.6555
544.646	18.6987
547.511	21.3383
550.375	21.8342
553.237	21.8867
556.098	17.397
558.958	22.5386
561.816	22.9397
564.673	23.3888
567.529	23.444
570.382	19.6222
573.234	22.9168
576.086	18.6809
578.936	20.4723
581.785	21.1
584.632	21.4016
587.477	19.4847
590.322	21.6812
593.164	21.872
596.006	17.8592
598.846	20.3971
601.686	20.8129
604.523	21.0337
607.359	20.7612
610.194	21.0866
613.027	20.2368
615.859	19.2415
618.69	18.0374
621.519	22.4051
624.347	23.5425
627.174	23.7036
629.999	25.1442
632.823	25.8563
635.645	31.0595
638.466	44.9947
641.286	87.1202
644.104	148.58
646.921	129.569
649.736	74.7804
652.551	45.9507
655.364	31.3952
658.175	24.4808
660.985	22.73
663.795	21.3794
666.602	21.2115
669.408	23.5735
672.213	24.0378
675.016	20.0618
677.818	24.6951
680.619	21.1696
683.418	24.1347
686.216	24.2917
689.013	22.8509
691.808	21.6169
694.602	28.7351
697.395	25.8549
700.186	28.1614
702.976	22.6943
705.765	20.398
708.552	22.767
711.338	21.6202
714.122	21.9878
716.906	21.966
719.687	24.1706
722.468	22.7051
725.247	22.8878
728.025	21.4844
730.802	22.125
733.577	26.2674
736.351	30.6642
739.124	25.3888
741.894	31.4956
744.665	34.3985
747.433	47.0297
750.201	70.7757
752.966	126.486
755.731	255.01
758.494	381.935
761.256	303.156
764.016	187.721
766.776	103.931
769.534	65.6635
772.29	38.7118
775.046	33.7182
777.8	29.108
780.552	26.458
783.304	24.8013
786.053	24.8849
788.802	23.2324
791.549	25.2674
794.296	26.5081
797.04	35.1225
799.784	37.0822
802.526	31.4855
805.266	25.5709
808.006	25.6274
810.744	21.0561
813.481	21.7743
816.217	20.6726
818.951	18.8939
821.683	22.9044
824.415	18.7261
827.145	17.2817
829.874	24.7041
832.602	19.7401
835.329	22.9158
838.053	20.8952
840.777	24.0776
843.499	28.2295
846.22	34.1071
848.94	48.9419
851.659	61.4442
854.376	54.5943
857.092	42.7304
859.807	30.0508
862.52	29.1651
865.232	24.1
867.943	25.1531
870.653	22.2631
873.361	22.5994
876.068	23.6935
878.773	24.7604
881.477	26.0485
884.18	28.7713
886.882	31.9276
889.582	35.0935
892.282	37.5722
894.98	34.9168
897.676	35.5206
900.371	28.7182
903.065	26.81
905.758	23.7854
908.45	22.8901
911.139	21.8947
913.828	21.0026
916.516	19.5163
919.202	19.3864
921.887	17.7447
924.571	19.3794
927.253	18.2897
929.934	19.9147
932.615	20.6822
935.292	20.7447
937.97	22.4965
940.646	21.8965
943.321	20.8322
945.994	14.6979
948.667	17.9881
951.337	19.2146
954.007	20.255
956.675	20.7087
959.342	17.5073
962.008	18.3751
964.673	19.461
967.336	18.4456
969.998	19.582
972.66	21.2588
975.319	20.7221
977.977	23.9893
980.634	26.7753
983.29	38.4829
985.944	49.1647
988.597	75.2118
991.249	140.672
993.9	291.055
996.549	375.108
999.197	267.335
1001.84	149.303
1004.49	84.7428
1007.13	45.2563
1009.78	28.7923
1012.42	23.0428
1015.06	21.0059
1017.7	23.0356
1020.34	22.0722
1022.97	20.1028
1025.61	18.7756
1028.24	20.7483
1030.88	17.6437
1033.51	17.6382
1036.14	18.3402
1038.77	16.7753
1041.4	15.5386
1044.02	16.6336
1046.65	15.3708
1049.27	18.768
1051.9	17.2115
1054.52	15.5653
1057.14	15.1213
1059.76	16.6675
1062.38	16.2917
1064.99	18.4952
1067.61	18.8991
1070.22	20.0145
1072.84	19.6336
1075.45	18.4545
1078.06	19.818
1080.67	21.9309
1083.28	21.0927
1085.89	19.6842
1088.49	21.2544
1091.1	18.7025
1093.7	17.295
1096.3	16.2157
1098.9	17.3335
1101.5	17.1724
1104.1	14.4105
1106.7	16.2056
1109.29	18.2285
1111.89	18.6491
1114.48	16.864
1117.07	16.9916
1119.66	20.5075
1122.25	17.1873
1124.84	17.3496
1127.43	17.8286
1130.02	18.8196
1132.6	17.3445
1135.18	18.2581
1137.77	17.8383
1140.35	19.4587
1142.93	18.0551
1145.51	26.9317
1148.09	34.396
1150.66	36.6855
1153.24	33.8133
1155.81	34.7529
1158.38	30.8759
1160.95	31.4864
1163.53	29.2285
1166.09	32.4629
1168.66	27.4395
1171.23	26.7231
1173.79	31.2972
1176.36	34.6954
1178.92	34.611
1181.48	35.2597
1184.04	32.2869
1186.6	29.0999
1189.16	20.8472
1191.72	25.9053
1194.27	17.1829
1196.83	18.8383
1199.38	22.5405
1201.93	19.2105
1204.49	22.673
1207.04	19.9378
1209.58	16.7725
1212.13	19.0364
1214.68	22.7407
1217.22	19.3229
1219.77	17.8496
1222.31	19.1846
1224.85	20.3216
1227.39	20.6642
1229.93	19.5637
1232.47	21.1243
1235	19.0358
1237.54	22.615
1240.07	23.5921
1242.61	21.9158
1245.14	20.7018
1247.67	25.0628
1250.2	30.3743
1252.73	28.8878
1255.25	34.5445
1257.78	34.4214
1260.3	37.4873
1262.83	44.3345
1265.35	45.0979
1267.87	46.3038
1270.39	51.9321
1272.91	55.173
1275.43	51.1739
1277.95	47.4803
1280.46	46.2368
1282.97	47.2201
1285.49	49.4463
1288	54.6736
1290.51	61.836
1293.02	77.4361
1295.53	73.6171
1298.03	67.8055
1300.54	62.8289
1303.04	52.585
1305.55	46.6745
1308.05	40.469
1310.55	40.5865
1313.05	35.7756
1315.55	38.2103
1318.05	43.7128
1320.54	45.7313
1323.04	51.0068
1325.53	52.8977
1328.03	48.9574
1330.52	44.9301
1333.01	34.7208
1335.5	31.8289
1337.99	28.2544
1340.47	24.6617
1342.96	26.7218
1345.44	23.0102
1347.93	26.962
1350.41	20.2817
1352.89	20.1113
1355.37	20.4309
1357.85	21.6356
1360.33	21.0718
1362.81	25.4333
1365.28	21.142
1367.76	21.6549
1370.23	20.9086
1372.7	19.5688
1375.17	23.2046
1377.64	22.252
1380.11	23.1337
1382.58	22.6986
1385.04	19.5039
1387.51	19.6437
1389.97	20.2982
1392.44	20.3087
1394.9	21.7084
1397.36	18.9989
1399.82	22.4855
1402.28	20.675
1404.73	20.0012
1407.19	18.078
1409.64	23.7467
1412.1	22.9969
1414.55	21.4765
1417	22.9697
1419.45	23.3757
1421.9	21.4513
1424.35	24.6055
1426.79	24.3952
1429.24	23.4623
1431.68	27.8415
1434.13	26.7948
1436.57	26.3283
1439.01	32.5691
1441.45	37.3322
1443.89	41.1791
1446.33	41.943
1448.76	36.4785
1451.2	35.6635
1453.63	32.3646
1456.07	30.5853
1458.5	35.0928
1460.93	33.995
1463.36	34.1858
1465.79	29.4095
1468.22	30.1582
1470.64	29.8137
1473.07	27.4526
1475.49	24.0399
1477.91	26.8286
1480.34	23.2146
1482.76	23.5615
1485.18	23.7012
1487.59	20.4361
1490.01	20.1629
1492.43	21.7859
1494.84	18.5632
1497.26	18.4723
1499.67	24.1651
1502.08	18.1444
1504.49	19.8036
1506.9	18.6138
1509.31	20.3149
1511.72	20.9237
1514.12	19.6614
1516.53	19.1563
1518.93	16.7713
1521.34	19.1523
1523.74	19.3888
1526.14	21.9266
1528.54	23.2831
1530.94	20.0735
1533.33	18.5735
1535.73	21.6009
1538.12	22.0322
1540.52	21.0946
1542.91	19.5707
1545.3	20.6317
1547.69	25.504
1550.08	23.6418
1552.47	21.1035
1554.86	24.6511
1557.24	25.0102
1559.63	23.5545
1562.01	26.2767
1564.4	32.5515
1566.78	42.4347
1569.16	52.3312
1571.54	68.0499
1573.91	80.4583
1576.29	84.7374
1578.67	73.4404
1581.04	56.0273
1583.42	49.0212
1585.79	37.7738
1588.16	36.8777
1590.53	33.249
1592.9	34.9491
1595.27	33.1187
1597.64	30.1596
1600	29.8506
1602.37	29.9665
1604.73	28.0728
1607.1	27.9134
1609.46	31.9068
1611.82	33.7373
1614.18	34.3757
1616.54	32.8162
1618.9	33.264
1621.25	42.1915
1623.61	45.3409
1625.96	51.0525
1628.31	52.1768
1630.67	60.0091
1633.02	67.7767
1635.37	77.5081
1637.72	86.1662
1640.06	85.0164
1642.41	89.2193
1644.76	90.6945
1647.1	78.2477
1649.44	83.6184
1651.79	79.3008
1654.13	77.9447
1656.47	63.8424
1658.81	58.4059
1661.15	61.8496
1663.48	50.0847
1665.82	46.4198
1668.15	42.4844
1670.49	37.7413
1672.82	35.1696
1675.15	32.4723
1677.48	32.3216
1679.81	29.944
1682.14	28.0076
1684.47	28.4504
1686.79	25.4052
1689.12	26.6679
1691.44	23.8289
1693.76	22.7464
1696.09	25.4494
1698.41	21.3929
1700.73	21.2157
1703.05	20.3512
1705.36	20.9507
1707.68	20.3026
1710	19.6645
1712.31	19.3678
1714.62	18.5669
1716.94	19.6277
1719.25	17.7224
1721.56	17.9065
1723.87	17.2734
1726.17	18.1082
1728.48	17.075
1730.79	17.5643
1733.09	16.7892
1735.4	14.699
1737.7	17.7295
1740	15.1833
1742.3	16.0269
1744.6	15.2224
1746.9	16.1485
1749.2	18.6317
1751.49	15.3743
1753.79	16.0069
1756.08	19.6208
1758.38	13.5711
1760.67	15.285
1762.96	15.3327
1765.25	14.9068
1767.54	15.3864
1769.83	14.9397
1772.11	13.6864
1774.4	15.7211
1776.68	12.9969
1778.97	15.8972
1781.25	17.4556
1783.53	13.8057
1785.81	15.032
1788.09	15.2272
1790.37	15.0776
1792.65	14.8342
1794.92	12.143
1797.2	11.8839
1799.47	16.4532
1801.75	13.2654
1804.02	14.8466
1806.29	12.7689
1808.56	13.8515
1810.83	13.1653
1813.1	9.99599
1815.37	12.1758
1817.63	13.4546
1819.9	11.4626
1822.16	10.4819
1824.42	13.8805
1826.68	13.1439
1828.95	13.1202
1831.21	12.4767
1833.46	15.3569
1835.72	14.0184
1837.98	9.99794
1840.23	11.6555
1842.49	14.1399
1844.74	14.6556
1846.99	12.9155
1849.25	14.1662
1851.5	13.5181
1853.75	14.5814
1855.99	12.1758
1858.24	12.1758
1860.49	10.5152
1862.73	10.3592
1864.98	13.3888
1867.22	11.9031
1869.46	9.94944
1871.71	14.0288
1873.95	13.5024
1876.18	12.6925
1878.42	10.3954
1880.66	13.6336
1882.9	14.426
1885.13	11.611
1887.37	14.8814
1889.6	13.2143
1891.83	12.6679
1894.06	10.1544
1896.29	12.5625
1898.52	13.0685
1900.75	9.82064
1902.98	14.7975
1905.2	10.703
1907.43	11.7079
1909.65	11.821
1911.87	12.624
1914.1	8.82932
1916.32	12.9736
1918.54	13.9132
1920.75	10.8839
1922.97	12.4361
1925.19	12.6502
1927.41	11.0451
1929.62	9.12663
1931.83	10.7694
1934.05	9.55642
1936.26	10.5253
1938.47	11.6071
1940.68	12.2632
1942.89	12.5166
1945.1	11.3302
1947.3	13.2314
1949.51	11.2282
1951.71	11.9596
1953.92	12.0451
1956.12	8.76942
1958.32	11.4996
1960.52	10.2972
1962.72	8.59397
1964.92	11.934
1967.12	12.1395
1969.31	10.4322
1971.51	11.6364
1973.7	8.85395
1975.9	12.2224
1978.09	10.1179
1980.28	9.68305
1982.47	9.43142
1984.66	9.74468
1986.85	10.0412
1989.04	13.2972
1991.23	8.78375
1993.41	9.06185
1995.6	11.295
1997.78	13.4289
1999.96	10.9864
2002.14	9.14952
2004.33	11.1786
2006.51	9.8788
2008.68	9.63628
2010.86	11.0541
2013.04	9.98351
2015.22	10.1086
2017.39	12.7934
2019.56	9.76704
2021.74	11.5997
2023.91	11.0545
2026.08	10.0145
2028.25	11.7295
2030.42	11.0541
2032.59	9.11133
2034.75	9.11328
2036.92	11.139
2039.08	12.273
2041.25	9.99349
2043.41	10.0235
2045.57	9.3469
2047.73	12.5027
2049.89	12.0928
2052.05	9.67806
2054.21	10.6184
2056.37	10.4952
2058.52	9.92632
2060.68	10.8836
2062.83	14.1745
2064.99	10.8515
2067.14	9.12033
2069.29	8.77246
2071.44	10.2172
2073.59	9.91341
2075.74	8.40647
2077.89	9.3087
2080.03	10.0258
2082.18	11.8915
2084.32	11.3023
2086.47	10.2239
2088.61	11.2236
2090.75	10.231
2092.89	9.72211
2095.03	10.3691
2097.17	13.0273
2099.31	10.0678
2101.44	11.0012
2103.58	9.52528
2105.71	9.93425
2107.85	10.1549
2109.98	11.1179
2112.11	11.542
2114.24	7.5842
2116.37	11.252
2118.5	8.72949
2120.63	8.7449
2122.76	9.89486
2124.88	10.2388
2127.01	10.7261
2129.13	9.38639
2131.25	8.3049
2133.38	10.3682
2135.5	8.93685
2137.62	7.04894
2139.74	9.82769
2141.86	9.78461
2143.97	10.9065
2146.09	10.4618
2148.21	10.2053
2150.32	7.59136
2152.43	7.7105
2154.55	9.44227
2156.66	12.0367
2158.77	9.27257
2160.88	7.99164
2162.99	7.71278
2165.1	10.7959
2167.2	9.58247
2169.31	8.25065
2171.41	7.10579
2173.52	9.84581
2175.62	11.2544
2177.72	7.64822
2179.82	11.2542
2181.93	10.4638
2184.02	11.3508
2186.12	9.51845
2188.22	9.78364
2190.32	10.1267
2192.41	9.38748
2194.51	6.96647
2196.6	6.34169
2198.69	9.8444
2200.79	9.62815
2202.88	7.70226
2204.97	10.8466
2207.06	8.21821
2209.14	10.3643
2211.23	9.15625
2213.32	8.66135
2215.4	11.1253
2217.49	8.65017
2219.57	8.80566
2221.65	12.0189
2223.73	12.1247
2225.81	9.42784
2227.89	10.0747
2229.97	10.0692
2232.05	8.30024
2234.13	7.98351
2236.2	9.10037
2238.28	9.12901
2240.35	9.73134
2242.42	8.94065
2244.5	10.1842
2246.57	8.61068
2248.64	8.83984
2250.71	9.48568
2252.78	9.04514
2254.84	10.2753
2256.91	9.59733
2258.97	8.51291
2261.04	10.9434
2263.1	8.78375
2265.17	8.07183
2267.23	10.5072
2269.29	10.9173
2271.35	8.28375
2273.41	9.87381
2275.47	11.4276
2277.52	8.75325
2279.58	9.71842
2281.64	10.7076
2283.69	10.7846
2285.74	8.78798
2287.8	8.8967
2289.85	9.28179
2291.9	8.12131
2293.95	8.91536
2296	9.02767
2298.05	10.3906
2300.09	10.7365
2302.14	9.361
2304.18	9.47125
2306.23	7.69889
2308.27	9.77995
2310.31	9.66016
2312.36	6.96202
2314.4	8.11708
2316.44	6.0561
2318.48	8.91471
2320.51	8.84993
2322.55	8.01552
2324.59	10.5624
2326.62	5.48286
2328.66	7.84852
2330.69	9.72179
2332.72	10.2458
2334.75	7.53971
2336.78	7.67263
2338.81	8.14746
2340.84	10.7266
2342.87	8.49859
2344.9	8.29839
2346.92	19.0288
2348.95	8.56391
2350.97	9.35124
2353	9.05946
2355.02	8.44987
2357.04	5.22906
2359.06	9.77127
2361.08	8.00879
2363.1	8.52246
2365.12	9.90082
2367.14	7.91547
2369.15	10.3743
2371.17	8.50814
2373.18	9.55349
2375.19	8.11003
2377.21	6.69314
2379.22	8.89583
2381.23	9.9273
2383.24	10.3012
2385.25	8.62565
2387.26	9.85786
2389.26	7.8036
2391.27	9.67209
2393.28	8.59332
2395.28	8.47993
2397.28	7.99349
2399.29	8.72461
2401.29	7.83724
2403.29	7.58529
2405.29	8.33116
2407.29	7.57444
2409.29	8.42708
2411.28	7.61838
2413.28	7.91732
2415.28	8.5115
2417.27	7.9082
2419.26	9.00694
2421.26	7.40614
2423.25	5.92632
2425.24	8.04351
2427.23	10.5296
2429.22	7.21691
2431.21	9.45139
2433.19	8.06283
2435.18	9.93338
2437.17	9.11003
2439.15	8.98448
2441.14	11.2415
2443.12	7.56695
2445.1	9.70866
2447.08	7.01118
2449.06	7.81869
2451.04	9.15397
2453.02	8.139
2455	8.62901
2456.98	8.03993
2458.95	10.616
2460.93	10.251
2462.9	9.93175
2464.87	6.63639
2466.85	9.10796
2468.82	9.04384
2470.79	8.21105
2472.76	8.37326
2474.73	10.8075
2476.7	6.98882
2478.66	9.34755
2480.63	8.23058
2482.6	11.0288
2484.56	9.03559
2486.52	9.1735
2488.49	8.37435
2490.45	9.19586
2492.41	10.0927
2494.37	6.92763
2496.33	7.32943
2498.29	7.99468
2500.25	9.28461
2502.2	8.24295
2504.16	9.37565
2506.11	9.65658
2508.07	10.0747
2510.02	8.16656
2511.97	9.31641
2513.92	6.6569
2515.88	8.68403
2517.83	7.51812
2519.77	7.84625
2521.72	8.15538
2523.67	10.1007
2525.62	6.61838
2527.56	6.85059
2529.51	8.43815
2531.45	9.00836
2533.39	7.14084
2535.33	11.2745
2537.28	9.95736
2539.22	7.74067
2541.16	7.24013
2543.09	8.56673
2545.03	9.28407
2546.97	8.42795
2548.9	7.32704
2550.84	6.65017
2552.77	8.09527
2554.71	9.51942
2556.64	10.9248
2558.57	10.4944
2560.5	7.52528
2562.43	9.25814
2564.36	11.3672
2566.29	6.26497
2568.22	10.0284
2570.14	9.69314
2572.07	7.5166
2573.99	10.8295
2575.92	10.3761
2577.84	8.62901
2579.76	10.4028
2581.69	11.0737
2583.61	10.4494
2585.53	9.47103
2587.44	11.0155
2589.36	9.315
2591.28	12.7023
2593.2	11.6556
2595.11	10.9086
2597.03	9.82888
2598.94	11.325
2600.85	7.78895
2602.76	12.7235
2604.68	10.4014
2606.59	11.818
2608.5	11.5853
2610.4	12.9526
2612.31	9.76421
2614.22	12.4528
2616.13	13.2188
2618.03	13.54
2619.94	11.5534
2621.84	10.4337
2623.74	10.8805
2625.64	12.8363
2627.54	11.1819
2629.45	13.6809
2631.34	12.9975
2633.24	14.6263
2635.14	18.6284
2637.04	10.2535
2638.93	9.0102
2640.83	13.1829
2642.72	18.5053
2644.62	26.3946
2646.51	27.3283
2648.4	25.961
2650.29	27.7007
2652.18	18.4359
2654.07	18.0609
2655.96	16.8424
2657.85	18.1181
2659.74	14.6632
2661.62	20.2777
2663.51	17.3841
2665.39	22.087
2667.27	24.5973
2669.16	28.8177
2671.04	46.1463
2672.92	64.2907
2674.8	84.0852
2676.68	87.0718
2678.56	83.8515
2680.44	66.2401
2682.31	55.2907
2684.19	36.7834
2686.06	43.9059
2687.94	55.1563
2689.81	64.6656
2691.68	111.884
2693.56	285.942
2695.43	344.711
2697.3	230.165
2699.17	190.691
2701.04	119.366
2702.9	68.8177
2704.77	53.3203
2706.64	39.3373
2708.5	30.4729
2710.37	20.7649
2712.23	17.3592
2714.09	15.9716
2715.96	16.6077
2717.82	14.2105
2719.68	15.7713
2721.54	15.6943
2723.4	15.4536
2725.25	15.2817
2727.11	14.3085
2728.97	16.2324
2730.82	15.5973
2732.68	14.2835
2734.53	15.779
2736.38	12.6745
2738.24	11.7856
2740.09	9.59874
2741.94	12.5521
2743.79	12.8263
2745.64	12.0022
2747.48	11.0127
2749.33	10.9429
2751.18	12.2143
2753.02	10.9208
2754.87	12.3302
2756.71	11.3396
2758.56	13.3178
2760.4	8.33116
2762.24	9.07075
