364.259	71.2959
367.212	78.4708
370.164	79.5809
373.114	85.3097
376.063	88.1814
379.009	99.201
381.955	106.851
384.9	128.192
387.843	143.132
390.784	161.36
393.724	164.809
396.662	173.033
399.6	165.306
402.536	152.024
405.469	134.687
408.403	122.319
411.334	128.672
414.264	145.528
417.192	160.345
420.12	170.528
423.045	174.049
425.969	158.488
428.893	140.33
431.814	112.912
434.734	96.5952
437.652	73.327
440.569	59.811
443.485	59.1018
446.399	54.0241
449.312	48.7066
452.224	52.3736
455.134	49.515
458.043	51.0269
460.949	55.3911
463.855	55.9686
466.76	62.2002
469.663	76.5581
472.564	95.1722
475.465	122.293
478.363	151.95
481.261	194.061
484.156	209.107
487.05	209.195
489.944	190.583
492.835	156.793
495.725	122.126
498.614	91.0731
501.502	76.4109
504.388	64.5983
507.273	59.3584
510.156	55.5897
513.038	50.8652
515.919	51.6546
518.797	49.7215
521.675	48.0905
524.551	46.8624
527.426	49.1488
530.299	47.1029
533.172	44.8075
536.043	39.9998
538.912	43.297
541.78	41.7712
544.646	41.0938
547.511	39.663
550.375	43.7027
553.237	42.9155
556.098	44.9559
558.958	45.4979
561.816	46.6967
564.673	50.0064
567.529	47.2586
570.382	46.1311
573.234	47.6047
576.086	44.5704
578.936	42.5081
581.785	40.9623
584.632	35.6875
587.477	39.5613
590.322	36.3328
593.164	38.0241
596.006	37.5818
598.846	34.8174
601.686	39.988
604.523	40.1776
607.359	43.4134
610.194	39.4999
613.027	39.7509
615.859	40.1972
618.69	44.4449
621.519	46.333
624.347	50.4742
627.174	54.9965
629.999	66.0377
632.823	86.1722
635.645	188.744
638.466	353.76
641.286	510.088
644.104	617.138
646.921	673.353
649.736	576.394
652.551	328.353
655.364	142.547
658.175	68.6166
660.985	48.9623
663.795	46.1317
666.602	43.3358
669.408	40.3358
672.213	40.3396
675.016	45.5404
677.818	44.5118
680.619	48.7649
683.418	47.9186
686.216	56.1501
689.013	66.0579
691.808	68.95
694.602	81.302
697.395	87.1545
700.186	84.401
702.976	70.19
705.765	49.9089
708.552	44.5022
711.338	39.6168
714.122	41.8945
716.906	40.5291
719.687	44.2062
722.468	48.6495
725.247	44.2523
728.025	53.6079
730.802	52.9991
733.577	61.7748
736.351	65.269
739.124	82.0282
741.894	107.3
744.665	163.516
747.433	302.585
750.201	624.432
752.966	1068.89
755.731	1490.31
758.494	1797.37
761.256	1825.87
764.016	1495.63
766.776	880.629
769.534	420.922
772.29	203.798
775.046	121.129
777.8	86.4771
780.552	73.1225
783.304	60.1345
786.053	54.3451
788.802	58.6835
791.549	58.4436
794.296	64.302
797.04	78.5796
799.784	84.2486
802.526	70.3267
805.266	67.8854
808.006	55.8136
810.744	45.0149
813.481	40.7307
816.217	40.6904
818.951	40.4502
821.683	40.2899
824.415	37.9221
827.145	39.5326
829.874	40.7892
832.602	45.1479
835.329	47.2688
838.053	53.1454
840.777	78.3328
843.499	126.585
846.22	187.918
848.94	249.858
851.659	298.994
854.376	310.157
857.092	261.152
859.807	182.546
862.52	112.869
865.232	71.1351
867.943	59.8646
870.653	50.1311
873.361	48.4964
876.068	51.7218
878.773	54.5761
881.477	61.0672
884.18	69.0639
886.882	81.5695
889.582	86.9158
892.282	87.3647
894.98	83.6637
897.676	82.3574
900.371	63.3733
903.065	55.0497
905.758	46.4036
908.45	46.8595
911.139	43.1168
913.828	34.1109
916.516	37.2985
919.202	35.3678
921.887	36.3888
924.571	35.4695
927.253	33.3571
929.934	35.5233
932.615	32.8676
935.292	33.2105
937.97	34.4268
940.646	38.6787
943.321	39.2861
945.994	37.663
948.667	37.5384
951.337	36.3972
954.007	35.555
956.675	40.0264
959.342	41.7246
962.008	43.5055
964.673	41.0889
967.336	48.1879
969.998	46.5519
972.66	54.6724
975.319	68.5319
977.977	81.6908
980.634	117.929
983.29	181.375
985.944	326.534
988.597	649.427
991.249	1090
993.9	1443.8
996.549	1669.61
999.197	1658.05
1001.84	1301.21
1004.49	720.357
1007.13	295.549
1009.78	134.95
1012.42	79.2625
1015.06	68.0175
1017.7	59.7509
1020.34	57.1017
1022.97	56.2247
1025.61	52.8618
1028.24	46.2834
1030.88	36.8326
1033.51	35.7926
1036.14	32.4502
1038.77	30.3802
1041.4	32.9155
1044.02	30.8538
1046.65	31.4473
1049.27	29.3092
1051.9	30.7306
1054.52	29.938
1057.14	25.8945
1059.76	26.5364
1062.38	25.4408
1064.99	29.1586
1067.61	29.7568
1070.22	28.1848
1072.84	30.6901
1075.45	35.5428
1078.06	36.945
1080.67	39.4907
1083.28	43.3907
1085.89	43.3241
1088.49	42.2463
1091.1	38.1029
1093.7	31.7035
1096.3	28.555
1098.9	28.484
1101.5	26.6784
1104.1	25.5527
1106.7	28.3156
1109.29	28.0436
1111.89	28.8483
1114.48	27.6075
1117.07	26.8854
1119.66	29.5965
1122.25	28.126
1124.84	24.6433
1127.43	30.6424
1130.02	29.6259
1132.6	29.1023
1135.18	27.6693
1137.77	31.5847
1140.35	36.2527
1142.93	44.3733
1145.51	53.1425
1148.09	71.8575
1150.66	80.0842
1153.24	84.7035
1155.81	88.8557
1158.38	87.1606
1160.95	80.1808
1163.53	78.4872
1166.09	88.2491
1168.66	95.9872
1171.23	99.4714
1173.79	105.929
1176.36	121.372
1178.92	118.931
1181.48	116.364
1184.04	107.263
1186.6	87.6908
1189.16	75.1454
1191.72	58.6261
1194.27	43.7926
1196.83	44.5384
1199.38	40.523
1201.93	33.3267
1204.49	31.4781
1207.04	31.202
1209.58	30.0972
1212.13	31.9189
1214.68	27.4878
1217.22	31.2957
1219.77	29.5456
1222.31	34.2044
1224.85	32.7513
1227.39	36.5382
1229.93	35.5463
1232.47	35.4233
1235	35.4651
1237.54	38.4992
1240.07	37.3761
1242.61	44.4036
1245.14	48.9935
1247.67	53.7401
1250.2	65.5923
1252.73	72.4207
1255.25	83.515
1257.78	96.6168
1260.3	114.246
1262.83	126.596
1265.35	145.404
1267.87	165.193
1270.39	176.502
1272.91	190.529
1275.43	190.901
1277.95	184.959
1280.46	186.643
1282.97	195.878
1285.49	214.012
1288	245.884
1290.51	292.932
1293.02	338.061
1295.53	339.552
1298.03	333.33
1300.54	303.043
1303.04	249.805
1305.55	211.707
1308.05	181.754
1310.55	152.485
1313.05	154.626
1315.55	157.663
1318.05	165.374
1320.54	186.31
1323.04	196.094
1325.53	191.909
1328.03	180.163
1330.52	152.163
1333.01	126.487
1335.5	103.753
1337.99	85.2339
1340.47	64.8177
1342.96	62.8018
1345.44	54.8483
1347.93	53.9231
1350.41	47.8044
1352.89	46.4441
1355.37	44.4173
1357.85	48.4002
1360.33	46.4315
1362.81	48.2718
1365.28	47.1846
1367.76	45.0142
1370.23	46.2159
1372.7	42.1004
1375.17	42.5087
1377.64	40.4039
1380.11	44.3574
1382.58	46.9997
1385.04	41.5927
1387.51	45.0323
1389.97	43.1542
1392.44	41.9095
1394.9	42.5181
1397.36	43.3328
1399.82	42.8852
1402.28	43.1539
1404.73	42.646
1407.19	43.5816
1409.64	48.9364
1412.1	50.1057
1414.55	52.7649
1417	51.5645
1419.45	56.1957
1421.9	61.9696
1424.35	62.1405
1426.79	58.7278
1429.24	61.1368
1431.68	65.8554
1434.13	66.1539
1436.57	70.5324
1439.01	79.2185
1441.45	93.8243
1443.89	101.006
1446.33	102.495
1448.76	101.987
1451.2	94.5919
1453.63	85.7166
1456.07	85.1139
1458.5	88.1453
1460.93	86.5521
1463.36	86.2457
1465.79	83.3571
1468.22	74.9215
1470.64	71.6489
1473.07	63.7449
1475.49	60.2593
1477.91	53.8826
1480.34	53.1232
1482.76	44.6612
1485.18	40.9501
1487.59	39.4736
1490.01	38.9871
1492.43	40.7218
1494.84	39.66
1497.26	37.8515
1499.67	36.7984
1502.08	39.4243
1504.49	37.0056
1506.9	41.8567
1509.31	36.4273
1511.72	42.88
1514.12	40.6847
1516.53	43.2719
1518.93	42.2013
1521.34	39.4267
1523.74	41.7279
1526.14	42.2154
1528.54	43.2622
1530.94	42.643
1533.33	42.9795
1535.73	43.7639
1538.12	43.2185
1540.52	45.8114
1542.91	48.6404
1545.3	46.8275
1547.69	49.3299
1550.08	49.6743
1552.47	53.0905
1554.86	54.7421
1557.24	63.8247
1559.63	61.9657
1562.01	67.8997
1564.4	88.0292
1566.78	113.357
1569.16	157.561
1571.54	203.236
1573.91	239.006
1576.29	238.286
1578.67	217.795
1581.04	181.959
1583.42	145.064
1585.79	119.757
1588.16	105.682
1590.53	91.8792
1592.9	83.4742
1595.27	81.1019
1597.64	85.4259
1600	78.2399
1602.37	82.0555
1604.73	78.5122
1607.1	81.5967
1609.46	90.767
1611.82	92.3832
1614.18	101.787
1616.54	109.116
1618.9	113.824
1621.25	133.588
1623.61	154.818
1625.96	186.898
1628.31	206.879
1630.67	246.316
1633.02	278.474
1635.37	315.564
1637.72	348.33
1640.06	366.33
1642.41	396.353
1644.76	390.154
1647.1	388.99
1649.44	362.709
1651.79	336.7
1654.13	320.567
1656.47	283.404
1658.81	256.009
1661.15	227.984
1663.48	195.713
1665.82	183.345
1668.15	155.501
1670.49	148.697
1672.82	127.792
1675.15	118.842
1677.48	106.064
1679.81	100.584
1682.14	92.7496
1684.47	90.2049
1686.79	80.8658
1689.12	80.5148
1691.44	72.4584
1693.76	71.3571
1696.09	70.1139
1698.41	66.9566
1700.73	62.1317
1703.05	57.8618
1705.36	54.599
1707.68	50.977
1710	50.4005
1712.31	50.4736
1714.62	48.593
1716.94	47.7309
1719.25	45.1507
1721.56	39.579
1723.87	40.4068
1726.17	40.7066
1728.48	36.7034
1730.79	37.2742
1733.09	37.6929
1735.4	34.5213
1737.7	30.9594
1740	35.9041
1742.3	33.8247
1744.6	36.5612
1746.9	31.4141
1749.2	32.194
1751.49	34.8304
1753.79	30.4593
1756.08	31.225
1758.38	34.4565
1760.67	32.0546
1762.96	30.2893
1765.25	28.3141
1767.54	25.3391
1769.83	28.3885
1772.11	28.8648
1774.4	23.0114
1776.68	24.0982
1778.97	25.1978
1781.25	24.1691
1783.53	26.3944
1785.81	21.371
1788.09	23.0399
1790.37	23.9455
1792.65	23.5927
1794.92	19.8019
1797.2	21.8651
1799.47	22.4376
1801.75	19.7888
1804.02	19.8104
1806.29	20.7246
1808.56	19.663
1810.83	19.4803
1813.1	19.5724
1815.37	20.5658
1817.63	19.8945
1819.9	17.7926
1822.16	20.4315
1824.42	19.8206
1826.68	20.6873
1828.95	15.9029
1831.21	18.9553
1833.46	19.299
1835.72	20.4319
1837.98	17.1076
1840.23	18.9221
1842.49	18.7076
1844.74	19.1985
1846.99	16.4378
1849.25	17.491
1851.5	17.2722
1853.75	17.0327
1855.99	14.9965
1858.24	16.6104
1860.49	15.1599
1862.73	20.5233
1864.98	17.397
1867.22	15.0434
1869.46	19.2016
1871.71	17.7008
1873.95	17.7699
1876.18	18.9221
1878.42	18.2108
1880.66	17.1412
1882.9	18.228
1885.13	14.977
1887.37	18.4235
1889.6	19.3571
1891.83	14.7535
1894.06	14.8418
1896.29	14.351
1898.52	17.139
1900.75	15.5758
1902.98	19.6866
1905.2	15.1345
1907.43	16.0497
1909.65	13.9095
1911.87	12.7699
1914.1	15.0206
1916.32	18.3972
1918.54	14.3694
1920.75	18.397
1922.97	16.7971
1925.19	13.9946
1927.41	13.4007
1929.62	14.5585
1931.83	13.5227
1934.05	14.0705
1936.26	15.9798
1938.47	13.1106
1940.68	15.2887
1942.89	13.4036
1945.1	13.3094
1947.3	14.9307
1949.51	14.9089
1951.71	13.7741
1953.92	15.0672
1956.12	11.7104
1958.32	13.4352
1960.52	13.9257
1962.72	13.7835
1964.92	12.6344
1967.12	16.208
1969.31	14.4584
1971.51	12.4781
1973.7	12.9963
1975.9	10.197
1978.09	13.5993
1980.28	15.0913
1982.47	12.2833
1984.66	13.5696
1986.85	14.225
1989.04	7.21853
1991.23	13.7678
1993.41	10.8711
1995.6	12.6815
1997.78	11.0881
1999.96	12.6031
2002.14	11.6661
2004.33	13.7435
2006.51	11.4239
2008.68	11.8917
2010.86	14.0206
2013.04	15.6832
2015.22	13.1311
2017.39	13.5291
2019.56	13.8338
2021.74	13.9234
2023.91	10.7981
2026.08	14.5085
2028.25	15.7456
2030.42	12.3498
2032.59	12.8075
2034.75	10.3885
2036.92	13.474
2039.08	12.0028
2041.25	12.7389
2043.41	13.9995
2045.57	14.4533
2047.73	15.2618
2049.89	13.2188
2052.05	15.5758
2054.21	14.4702
2056.37	14.441
2058.52	11.5407
2060.68	13.0991
2062.83	14.2742
2064.99	14.3391
2067.14	11.0462
2069.29	11.05
2071.44	15.9532
2073.59	15.3299
2075.74	10.7977
2077.89	12.4039
2080.03	13.8417
2082.18	12.4442
2084.32	11.2658
2086.47	11.6567
2088.61	14.4102
2090.75	10.9158
2092.89	12.5213
2095.03	11.5322
2097.17	12.201
2099.31	13.5521
2101.44	9.7372
2103.58	10.9963
2105.71	9.8418
2107.85	12.5283
2109.98	12.9225
2112.11	13.0796
2114.24	12.9699
2116.37	13.0677
2118.5	13.8854
2120.63	11.6538
2122.76	12.9623
2124.88	13.5318
2127.01	10.0488
2129.13	12.2384
2131.25	11.693
2133.38	11.8983
2135.5	8.92253
2137.62	10.9729
2139.74	12.3907
2141.86	11.5762
2143.97	11.7038
2146.09	10.1416
2148.21	11.66
2150.32	13.5758
2152.43	12.7971
2154.55	11.252
2156.66	13.0463
2158.77	12.5724
2160.88	11.549
2162.99	9.99143
2165.1	12.4384
2167.2	13.4473
2169.31	12.4162
2171.41	10.9038
2173.52	14.3382
2175.62	12.5316
2177.72	12.631
2179.82	13.6433
2181.93	12.8626
2184.02	14.7364
2186.12	11.5571
2188.22	9.91461
2190.32	12.239
2192.41	13.7221
2194.51	10.5261
2196.6	10.9158
2198.69	10.505
2200.79	11.0292
2202.88	7.97179
2204.97	10.3568
2207.06	12.2225
2209.14	12.175
2211.23	7.37391
2213.32	10.7066
2215.4	12.3931
2217.49	13.2539
2219.57	14.7056
2221.65	13.7395
2223.73	12.3254
2225.81	11.0462
2227.89	8.75087
2229.97	10.6402
2232.05	8.63184
2234.13	11.976
2236.2	10.6906
2238.28	10.7743
2240.35	9.6199
2242.42	10.309
2244.5	9.66949
2246.57	10.2093
2248.64	13.5762
2250.71	14.3122
2252.78	10.8945
2254.84	11.5853
2256.91	12.4619
2258.97	12.0779
2261.04	12.6196
2263.1	9.31217
2265.17	10.9932
2267.23	13.8645
2269.29	9.22483
2271.35	9.14887
2273.41	10.3062
2275.47	11.8357
2277.52	9.31239
2279.58	9.67242
2281.64	11.9389
2283.69	10.2483
2285.74	11.0665
2287.8	10.7606
2289.85	10.5407
2291.9	10.0368
2293.95	10.1048
2296	12.6394
2298.05	12.1517
2300.09	9.99967
2302.14	11.3767
2304.18	11.201
2306.23	11.7652
2308.27	10.3391
2310.31	10.4827
2312.36	10.8212
2314.4	12.9778
2316.44	11.6075
2318.48	10.6352
2320.51	11.579
2322.55	11.5727
2324.59	11.3733
2326.62	8.86068
2328.66	8.67242
2330.69	8.40961
2332.72	10.6841
2334.75	9.66124
2336.78	10.484
2338.81	11.3536
2340.84	13.0716
2342.87	9.51161
2344.9	12.4606
2346.92	22.8624
2348.95	9.21365
2350.97	9.74175
2353	8.64095
2355.02	8.80751
2357.04	10.5213
2359.06	8.01487
2361.08	8.25673
2363.1	10.3096
2365.12	13.3606
2367.14	8.84342
2369.15	8.99002
2371.17	11.7396
2373.18	9.24913
2375.19	9.25901
2377.21	12.0403
2379.22	10.888
2381.23	11.1785
2383.24	10.605
2385.25	9.64887
2387.26	9.15104
2389.26	11.435
2391.27	10.1631
2393.28	5.99143
2395.28	9.69325
2397.28	12.3134
2399.29	9.46788
2401.29	10.5755
2403.29	8.90885
2405.29	10.9759
2407.29	7.88227
2409.29	9.81098
2411.28	10.5955
2413.28	11.0058
2415.28	9.53244
2417.27	9.53982
2419.26	10.5318
2421.26	11.7279
2423.25	11.6201
2425.24	8.93641
2427.23	11.5983
2429.22	11.9022
2431.21	9.6696
2433.19	8.13043
2435.18	11.6604
2437.17	9.21853
2439.15	11.9678
2441.14	12.8075
2443.12	11.6815
2445.1	10.1782
2447.08	10.599
2449.06	10.2651
2451.04	10.9592
2453.02	13.6584
2455	12.2552
2456.98	10.2899
2458.95	10.4122
2460.93	12.195
2462.9	9.23112
2464.87	9.97591
2466.85	11.2188
2468.82	12.018
2470.79	11.0871
2472.76	10.3051
2474.73	14.8019
2476.7	10.9566
2478.66	9.12728
2480.63	12.2011
2482.6	13.7526
2484.56	11.1416
2486.52	9.68696
2488.49	7.3725
2490.45	11
2492.41	12.441
2494.37	9.25998
2496.33	9.38401
2498.29	11.1586
2500.25	11.5122
2502.2	10.6967
2504.16	11.2925
2506.11	12.5084
2508.07	11.5207
2510.02	10.7565
2511.97	9.47711
2513.92	9.74349
2515.88	10.9794
2517.83	8.10764
2519.77	11.2049
2521.72	11.4232
2523.67	11.4616
2525.62	10.4742
2527.56	10.629
2529.51	12.0469
2531.45	10.2684
2533.39	10.8763
2535.33	11.6901
2537.28	10.9092
2539.22	13.0292
2541.16	9.98427
2543.09	9.20106
2545.03	10.1992
2546.97	9.81098
2548.9	8.86827
2550.84	13.4878
2552.77	11.8088
2554.71	13.126
2556.64	13.1868
2558.57	10.4816
2560.5	11.0671
2562.43	12.2925
2564.36	11.0165
2566.29	12.9788
2568.22	11.1108
2570.14	15.579
2572.07	14.9089
2573.99	12.7037
2575.92	10.9535
2577.84	14.5204
2579.76	12.6398
2581.69	12.6487
2583.61	14.4159
2585.53	12.7806
2587.44	11.5888
2589.36	13.0234
2591.28	14.7827
2593.2	13.2016
2595.11	12.3568
2597.03	13.6689
2598.94	12.8687
2600.85	12.371
2602.76	14.7958
2604.68	10.3638
2606.59	14.5487
2608.5	13.1757
2610.4	12.9718
2612.31	10.4644
2614.22	14.5984
2616.13	12.4172
2618.03	12.6166
2619.94	12.2625
2621.84	11.8572
2623.74	14.6539
2625.64	11.9566
2627.54	15.4639
2629.45	14.5426
2631.34	12.6196
2633.24	15.2121
2635.14	16.367
2637.04	11.874
2638.93	11.8574
2640.83	12.8917
2642.72	16.2217
2644.62	25.599
2646.51	25.3337
2648.4	25.6233
2650.29	22.8918
2652.18	18.9686
2654.07	16.8277
2655.96	16.5116
2657.85	17.2599
2659.74	18.5806
2661.62	21.7104
2663.51	19.4441
2665.39	19.0854
2667.27	22.4714
2669.16	28.6444
2671.04	38.3267
2672.92	53.4787
2674.8	73.9089
2676.68	76.6574
2678.56	70.7535
2680.44	65.2336
2682.31	46.9671
2684.19	29.4296
2686.06	37.6313
2687.94	46.3945
2689.81	62.0871
2691.68	106.082
2693.56	243.63
2695.43	282.926
2697.3	185.848
2699.17	162.101
2701.04	106.809
2702.9	61.2399
2704.77	49.6196
2706.64	37.0345
2708.5	28.4872
2710.37	23.6663
2712.23	17.7572
2714.09	17.245
2715.96	17.4378
2717.82	18.087
2719.68	15.565
2721.54	12.9822
2723.4	15.9358
2725.25	15.1083
2727.11	15.2928
2728.97	15.7572
2730.82	13.0776
2732.68	10.731
2734.53	13.8483
2736.38	12.978
2738.24	14.1611
2740.09	12.8547
2741.94	15.0434
2743.79	15.0796
2745.64	12.4131
2747.48	14.6427
2749.33	16.9326
2751.18	12.9092
2753.02	14.2773
2754.87	11.037
2756.71	11.3938
2758.56	12.515
2760.4	10.7043
2762.24	15.1004
