364.259	35.1808
367.212	36.1135
370.164	44.2471
373.114	39.8254
376.063	44.0675
379.009	46.3048
381.955	51.6274
384.9	56.1022
387.843	59.6552
390.784	64.4145
393.724	70.9809
396.662	78.7771
399.6	69.5176
402.536	66.3678
405.469	61.8702
408.403	54.403
411.334	64.7865
414.264	65.2795
417.192	74.5683
420.12	80.4788
423.045	81.4919
425.969	80.3104
428.893	67.4933
431.814	55.1455
434.734	46.2667
437.652	45.5498
440.569	36.4991
443.485	36.2225
446.399	33.9698
449.312	31.4494
452.224	32.9833
455.134	27.1005
458.043	29.4887
460.949	30.5648
463.855	31.2165
466.76	37.9807
469.663	37.3736
472.564	52.2869
475.465	62.9729
478.363	69.9191
481.261	92.5931
484.156	96.0102
487.05	105.356
489.944	94.2274
492.835	77.3652
495.725	64.4848
498.614	48.3228
501.502	42.9648
504.388	38.3751
507.273	33.8061
510.156	31.4516
513.038	28.4338
515.919	32.3404
518.797	32.4365
521.675	30.7565
524.551	26.5549
527.426	26.9333
530.299	29.9081
533.172	24.6417
536.043	26.881
538.912	23.8128
541.78	24.0847
544.646	27.1219
547.511	27.2262
550.375	27.3958
553.237	27.5441
556.098	26.4847
558.958	27.1962
561.816	25.6816
564.673	30.2713
567.529	27.7119
570.382	26.1842
573.234	27.1636
576.086	27.443
578.936	27.3492
581.785	26.5931
584.632	25.5085
587.477	25.4562
590.322	25.4103
593.164	26.048
596.006	27.1679
598.846	25.7311
601.686	24.6717
604.523	22.8783
607.359	24.9749
610.194	25.7492
613.027	26.3311
615.859	26.389
618.69	25.5264
621.519	27.5957
624.347	28.9901
627.174	30.0463
629.999	36.7599
632.823	51.0716
635.645	93.4287
638.466	166.166
641.286	237.278
644.104	288.663
646.921	311.673
649.736	269.419
652.551	162.197
655.364	76.1115
658.175	40.9712
660.985	31.3218
663.795	28.4186
666.602	26.9642
669.408	27.9042
672.213	26.6274
675.016	25.2133
677.818	29.6367
680.619	28.4593
683.418	31.2245
686.216	36.9798
689.013	37.7168
691.808	42.1564
694.602	49.1511
697.395	51.6056
700.186	43.0718
702.976	40.3721
705.765	32.8517
708.552	27.4339
711.338	28.5865
714.122	26.8553
716.906	29.2471
719.687	31.4928
722.468	28.5953
725.247	32.0557
728.025	32.4137
730.802	32.9124
733.577	35.0683
736.351	40.6578
739.124	43.2458
741.894	56.8991
744.665	83.0241
747.433	147.313
750.201	291.013
752.966	482.945
755.731	670.448
758.494	792.622
761.256	830.555
764.016	695.181
766.776	403.933
769.534	204.975
772.29	94.398
775.046	59.188
777.8	49.7307
780.552	43.3472
783.304	35.742
786.053	33.3729
788.802	33.4123
791.549	38.3582
794.296	40.1612
797.04	41.143
799.784	42.9006
802.526	42.6689
805.266	37.2819
808.006	34.2189
810.744	27.7781
813.481	28.8778
816.217	25.4086
818.951	28.1891
821.683	25.988
824.415	25.742
827.145	27.3662
829.874	28.878
832.602	27.7527
835.329	32.2567
838.053	32.1886
840.777	44.1054
843.499	64.1959
846.22	93.6634
848.94	119.6
851.659	143.613
854.376	149.378
857.092	128.08
859.807	88.1891
862.52	59.5388
865.232	40.341
867.943	33.0661
870.653	31.194
873.361	26.7936
876.068	29.0239
878.773	31.8855
881.477	34.7075
884.18	37.6717
886.882	37.4749
889.582	47.2308
892.282	45.3002
894.98	45.7571
897.676	41.8196
900.371	38.7563
903.065	37.8266
905.758	33.699
908.45	29.0882
911.139	25.7068
913.828	26.5426
916.516	21.9334
919.202	25.2588
921.887	22.219
924.571	25.2245
927.253	25.4315
929.934	24.6273
932.615	21.3472
935.292	21.9042
937.97	24.0406
940.646	23.6726
943.321	24.324
945.994	24.004
948.667	22.7855
951.337	26.2531
954.007	24.8009
956.675	25.3046
959.342	24.8604
962.008	28.6452
964.673	25.1097
967.336	26.9227
969.998	25.3482
972.66	32.7566
975.319	39.1791
977.977	45.7042
980.634	58.6252
983.29	85.7549
985.944	155.57
988.597	311.866
991.249	494.236
993.9	642.435
996.549	739.145
999.197	758.584
1001.84	596.913
1004.49	331.207
1007.13	143.664
1009.78	67.9373
1012.42	47.7808
1015.06	35.3118
1017.7	29.1959
1020.34	31.9642
1022.97	34.4677
1025.61	33.7492
1028.24	30.648
1030.88	24.126
1033.51	22.4567
1036.14	20.846
1038.77	20.9436
1041.4	16.9548
1044.02	21.8604
1046.65	24.3356
1049.27	23.1011
1051.9	19.7492
1054.52	21.34
1057.14	23.8352
1059.76	21.2138
1062.38	19.5605
1064.99	20.1491
1067.61	20.6696
1070.22	21.9536
1072.84	22.461
1075.45	21.9536
1078.06	25.8582
1080.67	25.2905
1083.28	29.9016
1085.89	26.1061
1088.49	26.968
1091.1	26.5327
1093.7	22.7507
1096.3	23.2997
1098.9	19.8604
1101.5	19.1886
1104.1	16.8205
1106.7	17.8762
1109.29	18.4016
1111.89	19.7157
1114.48	17.8674
1117.07	22.541
1119.66	19.7179
1122.25	19.4123
1124.84	19.4467
1127.43	18.4159
1130.02	20.049
1132.6	21.5704
1135.18	19.5219
1137.77	21.0758
1140.35	23.5694
1142.93	27.9585
1145.51	32.295
1148.09	36.8219
1150.66	40.9642
1153.24	42.5041
1155.81	47.5704
1158.38	46.9038
1160.95	44.0445
1163.53	44.1203
1166.09	43.3775
1168.66	46.8097
1171.23	53.3694
1173.79	53.7168
1176.36	56.7349
1178.92	61.9921
1181.48	60.0573
1184.04	57.6343
1186.6	50.1599
1189.16	40.6252
1191.72	34.5161
1194.27	30.3002
1196.83	28.1296
1199.38	24.2919
1201.93	22.8439
1204.49	19.6589
1207.04	19.9656
1209.58	25.9135
1212.13	20.9571
1214.68	22.7568
1217.22	20.7192
1219.77	21.732
1222.31	23.2031
1224.85	20.4589
1227.39	21.4629
1229.93	22.9701
1232.47	23.0613
1235	23.9715
1237.54	25.1827
1240.07	25.4052
1242.61	25.2769
1245.14	28.6
1247.67	35.6044
1250.2	38.1507
1252.73	41.7179
1255.25	45.7121
1257.78	51.8509
1260.3	60.453
1262.83	57.9234
1265.35	70.2975
1267.87	79.0163
1270.39	84.9966
1272.91	87.1937
1275.43	91.1529
1277.95	90.9375
1280.46	86.5875
1282.97	94.9006
1285.49	101.185
1288	112.436
1290.51	130.133
1293.02	148.867
1295.53	156.863
1298.03	154.828
1300.54	133.751
1303.04	115.52
1305.55	95.529
1308.05	80.6169
1310.55	76.3426
1313.05	69.8087
1315.55	71.2122
1318.05	81.728
1320.54	87.092
1323.04	89.0996
1325.53	85.0697
1328.03	81.6917
1330.52	72.0418
1333.01	64.1274
1335.5	53.1523
1337.99	40.4583
1340.47	36.529
1342.96	29.1513
1345.44	32.9864
1347.93	32.5662
1350.41	27.7901
1352.89	28.0305
1355.37	29.4921
1357.85	28.0319
1360.33	25.0023
1362.81	32.3662
1365.28	25.9628
1367.76	28.6056
1370.23	25.2314
1372.7	28.8469
1375.17	29.8219
1377.64	27.8804
1380.11	24.4112
1382.58	27.9011
1385.04	28.2901
1387.51	26.6896
1389.97	26.4768
1392.44	27.1213
1394.9	27.545
1397.36	29.226
1399.82	26.5931
1402.28	27.9871
1404.73	27.034
1407.19	27.4121
1409.64	30.9787
1412.1	29.1585
1414.55	30.9701
1417	32.1553
1419.45	31.4324
1421.9	36.7096
1424.35	34.2734
1426.79	31.7771
1429.24	36.1451
1431.68	36.752
1434.13	34.7884
1436.57	39.1255
1439.01	45.6117
1441.45	47.2372
1443.89	48.8844
1446.33	54.7699
1448.76	52.6417
1451.2	47.2245
1453.63	47.1038
1456.07	44.3378
1458.5	43.6057
1460.93	39.2367
1463.36	44.5219
1465.79	37.7771
1468.22	45.0496
1470.64	38.7042
1473.07	38.6035
1475.49	31.482
1477.91	28.7343
1480.34	31.3286
1482.76	27.497
1485.18	23.787
1487.59	26.0283
1490.01	22.6774
1492.43	23.5522
1494.84	25.5837
1497.26	23.9182
1499.67	24.5788
1502.08	24.6354
1504.49	25.2675
1506.9	25.5063
1509.31	25.1452
1511.72	23.8496
1514.12	23.9571
1516.53	27.1765
1518.93	24.4439
1521.34	27.1539
1523.74	21.4636
1526.14	25.5234
1528.54	24.5594
1530.94	28.7865
1533.33	23.5791
1535.73	29.4567
1538.12	27.1587
1540.52	26.4825
1542.91	27.6995
1545.3	28.9622
1547.69	28.3335
1550.08	31.423
1552.47	29.0482
1554.86	32.4067
1557.24	34.7432
1559.63	37.4666
1562.01	38.5456
1564.4	44.9814
1566.78	61.3563
1569.16	78.0163
1571.54	96.9404
1573.91	108.12
1576.29	113.113
1578.67	109.295
1581.04	91.2941
1583.42	74.5256
1585.79	60.8625
1588.16	51.436
1590.53	47.7228
1592.9	41.0375
1595.27	36.9436
1597.64	41.185
1600	40.7241
1602.37	41.7385
1604.73	41.9307
1607.1	42.1658
1609.46	44.1177
1611.82	47.6395
1614.18	48.7917
1616.54	56.8681
1618.9	59.666
1621.25	67.8158
1623.61	71.4826
1625.96	78.314
1628.31	92.7755
1630.67	109.227
1633.02	124.969
1635.37	134.679
1637.72	156.992
1640.06	168.28
1642.41	178.76
1644.76	171.032
1647.1	180.722
1649.44	170.533
1651.79	151.965
1654.13	145.376
1656.47	133.295
1658.81	119.35
1661.15	107.909
1663.48	90.7184
1665.82	80.1611
1668.15	70.3147
1670.49	68.6454
1672.82	61.2645
1675.15	55.2747
1677.48	55.5622
1679.81	49.6323
1682.14	47.4395
1684.47	48.833
1686.79	44.7695
1689.12	38.7551
1691.44	39.1951
1693.76	36.5569
1696.09	38.0826
1698.41	32.7907
1700.73	32.0896
1703.05	30.8839
1705.36	30.4537
1707.68	29.0344
1710	25.8912
1712.31	26.0778
1714.62	26.2284
1716.94	26.613
1719.25	24.6689
1721.56	23.9946
1723.87	22.9615
1726.17	25.7478
1728.48	20.5483
1730.79	25.4086
1733.09	22.5327
1735.4	22.4258
1737.7	21.8053
1740	22.3036
1742.3	21.1312
1744.6	22.3075
1746.9	20.4132
1749.2	21.5306
1751.49	19.2883
1753.79	18.3778
1756.08	21.3621
1758.38	17.7454
1760.67	22.709
1762.96	21.679
1765.25	18.8196
1767.54	19.6732
1769.83	19.4338
1772.11	18.1734
1774.4	18.1827
1776.68	17.4532
1778.97	18.8139
1781.25	16.7507
1783.53	17.1556
1785.81	16.4865
1788.09	15.7941
1790.37	15.307
1792.65	17.1794
1794.92	15.0918
1797.2	15.6582
1799.47	12.447
1801.75	17.4636
1804.02	15.4845
1806.29	15.4086
1808.56	17.0124
1810.83	13.9698
1813.1	14.403
1815.37	14.6682
1817.63	13.9463
1819.9	12.8325
1822.16	14.9429
1824.42	16.8158
1826.68	13.3499
1828.95	14.264
1831.21	12.2216
1833.46	13.264
1835.72	12.109
1837.98	14.8604
1840.23	12.7393
1842.49	12.494
1844.74	14.6609
1846.99	13.9605
1849.25	11.5276
1851.5	12.0561
1853.75	14.0432
1855.99	13.9785
1858.24	10.9248
1860.49	14.0882
1862.73	14.3699
1864.98	13.8179
1867.22	13.0288
1869.46	13.5971
1871.71	14.0691
1873.95	13.0826
1876.18	13.2367
1878.42	11.2551
1880.66	14.7289
1882.9	15.173
1885.13	14.0163
1887.37	15.3709
1889.6	16.0267
1891.83	15.2573
1894.06	13.4065
1896.29	13.252
1898.52	12.8035
1900.75	11.8424
1902.98	18.2077
1905.2	13.3992
1907.43	12.2288
1909.65	13.4919
1911.87	13.5935
1914.1	11.2919
1916.32	12.7942
1918.54	10.9771
1920.75	12.1477
1922.97	13.5748
1925.19	11.2734
1927.41	10.3154
1929.62	9.48459
1931.83	11.3992
1934.05	15.881
1936.26	13.2371
1938.47	13.1555
1940.68	13.6759
1942.89	12.1548
1945.1	12.8841
1947.3	10.2989
1949.51	8.38509
1951.71	12.4438
1953.92	10.8252
1956.12	12.2189
1958.32	11.2722
1960.52	11.1077
1962.72	13.0341
1964.92	11.5405
1967.12	13.2272
1969.31	10.1235
1971.51	10.77
1973.7	12.1217
1975.9	11.1235
1978.09	11.8607
1980.28	10.7465
1982.47	11.6416
1984.66	8.04449
1986.85	11.3835
1989.04	10.8631
1991.23	12.043
1993.41	10.0718
1995.6	13.5736
1997.78	11.3835
1999.96	11.9894
2002.14	14.0902
2004.33	10.5582
2006.51	10.9771
2008.68	11.6689
2010.86	11.8856
2013.04	11.7456
2015.22	12.4933
2017.39	11.0146
2019.56	10.7082
2021.74	10.4424
2023.91	8.66819
2026.08	9.97765
2028.25	12.0015
2030.42	13.3026
2032.59	12.5235
2034.75	11.9368
2036.92	10.9742
2039.08	12.1566
2041.25	10.8625
2043.41	8.95855
2045.57	8.87099
2047.73	13.8976
2049.89	9.62717
2052.05	10.3075
2054.21	10.7456
2056.37	13.048
2058.52	9.03092
2060.68	9.52637
2062.83	10.9586
2064.99	11.0697
2067.14	9.25673
2069.29	11.7361
2071.44	9.7997
2073.59	11.6344
2075.74	8.25662
2077.89	10.4571
2080.03	11.5533
2082.18	9.79004
2084.32	9.56944
2086.47	9.22244
2088.61	11.8743
2090.75	9.29536
2092.89	10.6726
2095.03	10.1032
2097.17	8.92925
2099.31	9.09256
2101.44	11.8525
2103.58	11.3621
2105.71	9.41124
2107.85	8.76638
2109.98	10.9079
2112.11	11.1556
2114.24	8.61372
2116.37	10.4806
2118.5	11.2666
2120.63	10.7735
2122.76	7.7436
2124.88	8.86393
2127.01	12.19
2129.13	8.19368
2131.25	10.6123
2133.38	10.2227
2135.5	9.43598
2137.62	10.7119
2139.74	10.6408
2141.86	10.1566
2143.97	10.6066
2146.09	8.11046
2148.21	10.6417
2150.32	10.9188
2152.43	9.09256
2154.55	8.60395
2156.66	9.40864
2158.77	10.7112
2160.88	10.9248
2162.99	8.74566
2165.1	8.05664
2167.2	8.77724
2169.31	9.8252
2171.41	8.58789
2173.52	8.89334
2175.62	9.78038
2177.72	10.7895
2179.82	10.9135
2181.93	8.82302
2184.02	10.9264
2186.12	8.5804
2188.22	9.30697
2190.32	9.93305
2192.41	8.53624
2194.51	8.70942
2196.6	10.9942
2198.69	7.59169
2200.79	10.1973
2202.88	9.79015
2204.97	7.64551
2207.06	7.12576
2209.14	11.0809
2211.23	10.0826
2213.32	12.3289
2215.4	10.1617
2217.49	11.9849
2219.57	10.5936
2221.65	12.2917
2223.73	14.1102
2225.81	10.2272
2227.89	9.33268
2229.97	9.63954
2232.05	8.78548
2234.13	8.04525
2236.2	7.57183
2238.28	8.17719
2240.35	9.43381
2242.42	11.2975
2244.5	9.13574
2246.57	7.22157
2248.64	9.04015
2250.71	8.2602
2252.78	8.74924
2254.84	7.98937
2256.91	10.3775
2258.97	8.18077
2261.04	10.3319
2263.1	8.69238
2265.17	9.27387
2267.23	10.7471
2269.29	11.2675
2271.35	9.7946
2273.41	8.96072
2275.47	7.83388
2277.52	9.33572
2279.58	8.85449
2281.64	9.28754
2283.69	8.63824
2285.74	8.35688
2287.8	8.37337
2289.85	10.5895
2291.9	8.55132
2293.95	6.06749
2296	10.7884
2298.05	10.1612
2300.09	11.0527
2302.14	10.2245
2304.18	7.31185
2306.23	11.6759
2308.27	10.324
2310.31	9.44477
2312.36	7.96419
2314.4	8.22721
2316.44	9.73134
2318.48	11.3692
2320.51	9.13401
2322.55	8.11469
2324.59	9.29405
2326.62	9.89974
2328.66	8.46289
2330.69	9.56424
2332.72	11.6294
2334.75	8.30838
2336.78	8.85449
2338.81	9.699
2340.84	10.6128
2342.87	8.14562
2344.9	11.7757
2346.92	22.3845
2348.95	9.22483
2350.97	10.5332
2353	8.32444
2355.02	9.51031
2357.04	8.94358
2359.06	10.5704
2361.08	7.32997
2363.1	6.36382
2365.12	8.07183
2367.14	7.42589
2369.15	10.5915
2371.17	6.0804
2373.18	6.86957
2375.19	7.53407
2377.21	8.16634
2379.22	9.29536
2381.23	7.28668
2383.24	6.0574
2385.25	7.46191
2387.26	9.29188
2389.26	9.32248
2391.27	9.72135
2393.28	8.65462
2395.28	7.34353
2397.28	8.34559
2399.29	9.16851
2401.29	6.55013
2403.29	10.6314
2405.29	9.42535
2407.29	8.79481
2409.29	9.70323
2411.28	7.23503
2413.28	9.7755
2415.28	9.70486
2417.27	8.55349
2419.26	8.34104
2421.26	11.0237
2423.25	7.36426
2425.24	8.63542
2427.23	8.90354
2429.22	9.11469
2431.21	9.33247
2433.19	7.9656
2435.18	8.69954
2437.17	8.83181
2439.15	9.78483
2441.14	9.35254
2443.12	10.187
2445.1	11.2071
2447.08	7.46929
2449.06	7.7385
2451.04	7.94607
2453.02	8.49913
2455	9.7321
2456.98	8.25098
2458.95	10.3751
2460.93	9.23459
2462.9	10.0826
2464.87	6.7793
2466.85	8.20095
2468.82	8.66905
2470.79	9.89757
2472.76	7.301
2474.73	12.728
2476.7	8.92122
2478.66	7.70844
2480.63	6.55132
2482.6	10.2011
2484.56	7.78451
2486.52	7.49186
2488.49	10.4508
2490.45	11.7112
2492.41	11.586
2494.37	7.11491
2496.33	7.81011
2498.29	7.38336
2500.25	8.2883
2502.2	8.33832
2504.16	6.81217
2506.11	9.60829
2508.07	9.92502
2510.02	8.42155
2511.97	7.74338
2513.92	9.75271
2515.88	9.56
2517.83	10.1487
2519.77	7.95855
2521.72	10.7699
2523.67	9.16265
2525.62	8.86252
2527.56	9.93066
2529.51	9.19737
2531.45	9.46105
2533.39	10.0375
2535.33	9.11393
2537.28	9.80263
2539.22	10.4862
2541.16	8.79004
2543.09	9.82617
2545.03	10.3658
2546.97	7.80165
2548.9	8.65158
2550.84	11.6975
2552.77	11.0423
2554.71	10.9331
2556.64	11.3104
2558.57	9.86751
2560.5	11.0444
2562.43	10.6815
2564.36	7.34353
2566.29	10.2401
2568.22	12.275
2570.14	8.67589
2572.07	10.6737
2573.99	9.91645
2575.92	9.40506
2577.84	10.2122
2579.76	9.20866
2581.69	7.94857
2583.61	10.3987
2585.53	9.78038
2587.44	10.995
2589.36	10.6287
2591.28	9.39008
2593.2	12.4882
2595.11	8.99132
2597.03	10.7436
2598.94	11.1404
2600.85	10.6924
2602.76	11.6315
2604.68	11.0319
2606.59	7.53049
2608.5	11.9178
2610.4	9.89117
2612.31	8.83811
2614.22	10.7627
2616.13	10.1075
2618.03	10.5804
2619.94	11.4825
2621.84	9.49186
2623.74	11.7285
2625.64	11.1543
2627.54	9.94358
2629.45	10.9656
2631.34	8.91981
2633.24	13.2975
2635.14	14.7849
2637.04	13.1937
2638.93	12.0375
2640.83	11.5383
2642.72	18.4173
2644.62	24.0445
2646.51	23.7929
2648.4	25.9991
2650.29	23.3533
2652.18	14.7906
2654.07	18.9962
2655.96	16.572
2657.85	15.0552
2659.74	12.7884
2661.62	15.4132
2663.51	15.6008
2665.39	19.8638
2667.27	23.2901
2669.16	26.355
2671.04	41.4137
2672.92	53.173
2674.8	71.9885
2676.68	73.9571
2678.56	67.3523
2680.44	59.5476
2682.31	47.0841
2684.19	30.1864
2686.06	37.556
2687.94	43.5141
2689.81	58.9401
2691.68	100.511
2693.56	235.868
2695.43	277.34
2697.3	188.517
2699.17	157.938
2701.04	110.9
2702.9	62.5522
2704.77	48.4691
2706.64	38.0391
2708.5	25.8495
2710.37	20.62
2712.23	15.8855
2714.09	17.0926
2715.96	17.6753
2717.82	15.7549
2719.68	13.5435
2721.54	14.3204
2723.4	13.4754
2725.25	15.0753
2727.11	15.5063
2728.97	15.2667
2730.82	14.3219
2732.68	12.5012
2734.53	12.084
2736.38	12.6744
2738.24	12.3806
2740.09	10.7492
2741.94	13.279
2743.79	11.1685
2745.64	11.6395
2747.48	12.3562
2749.33	12.6737
2751.18	10.6964
2753.02	10.7108
2754.87	11.5931
2756.71	9.27691
2758.56	9.85818
2760.4	9.42567
2762.24	10.3305
