364.259	31.1411
367.212	36.6207
370.164	34.929
373.114	36.3736
376.063	36.4136
379.009	41.6291
381.955	45.9997
384.9	49.4928
387.843	55.5253
390.784	64.5157
393.724	64.991
396.662	69.1823
399.6	61.4776
402.536	61.1372
405.469	52.4767
408.403	50.7739
411.334	46.8701
414.264	52.8301
417.192	57.2077
420.12	64.0097
423.045	64.7563
425.969	59.0406
428.893	57.941
431.814	51.2488
434.734	45.2675
437.652	35.3725
440.569	32.547
443.485	28.6594
446.399	27.3606
449.312	30.2416
452.224	25.8717
455.134	26.3762
458.043	26.8985
460.949	28.0934
463.855	24.5849
466.76	24.9924
469.663	30.6054
472.564	33.4092
475.465	42.0157
478.363	49.1472
481.261	57.4715
484.156	60.4263
487.05	59.9221
489.944	50.1237
492.835	48.1906
495.725	35.0366
498.614	30.4035
501.502	28.9291
504.388	31.5556
507.273	22.3768
510.156	24.1444
513.038	24.9654
515.919	25.9561
518.797	24.8219
521.675	26.2117
524.551	27.7633
527.426	23.6864
530.299	24.9373
533.172	23.0679
536.043	23.5548
538.912	22.6153
541.78	26.5242
544.646	22.4498
547.511	24.094
550.375	23.0464
553.237	27.0996
556.098	27.3643
558.958	23.6587
561.816	27.0809
564.673	26.8209
567.529	26.9597
570.382	27.3762
573.234	26.6972
576.086	23.8569
578.936	21.2373
581.785	21.9529
584.632	24.5036
587.477	23.8174
590.322	24.0397
593.164	21.7258
596.006	19.1912
598.846	19.4928
601.686	23.5916
604.523	23.9846
607.359	20.1064
610.194	24.2901
613.027	23.6939
615.859	25.27
618.69	20.7475
621.519	24.5372
624.347	24.8077
627.174	27.6521
629.999	27.7567
632.823	29.9749
635.645	41.3466
638.466	64.4137
641.286	121.743
644.104	201.599
646.921	174.962
649.736	97.457
652.551	56.7637
655.364	31.8816
658.175	27.8536
660.985	23.7369
663.795	25.6158
666.602	21.0435
669.408	24.0602
672.213	22.9571
675.016	27.2901
677.818	26.1388
680.619	32.6041
683.418	25.572
686.216	24.2358
689.013	25.9502
691.808	30.936
694.602	31.4
697.395	34.8269
700.186	30.4013
702.976	28.5849
705.765	27.5789
708.552	25.2488
711.338	23.52
714.122	21.2522
716.906	25.0827
719.687	25.9852
722.468	25.5436
725.247	23.9957
728.025	25.9068
730.802	24.969
733.577	25.1514
736.351	30.4874
739.124	32.4881
741.894	38.8075
744.665	43.0136
747.433	61.3508
750.201	103.905
752.966	194.992
755.731	381.637
758.494	548.401
761.256	434.185
764.016	248.941
766.776	134.653
769.534	76.6841
772.29	43.5174
775.046	35.815
777.8	34.9326
780.552	29.9859
783.304	25.0498
786.053	24.596
788.802	29.4085
791.549	24.3811
794.296	33.8507
797.04	38.1671
799.784	40.6822
802.526	36.9093
805.266	30.9491
808.006	29.7039
810.744	24.4893
813.481	26.9317
816.217	22.7874
818.951	23.8518
821.683	20.5984
824.415	22.9357
827.145	21.4098
829.874	24.5047
832.602	24.4079
835.329	24.1751
838.053	27.7396
840.777	28.0168
843.499	33.2552
846.22	44.6785
848.94	69.1111
851.659	78.6799
854.376	71.1632
857.092	56.3261
859.807	38.0401
862.52	35.164
865.232	26.3495
867.943	26.1377
870.653	21.602
873.361	25.4069
876.068	26.3861
878.773	28.057
881.477	27.9155
884.18	31.8107
886.882	37.282
889.582	44.9629
892.282	44.1851
894.98	39.8543
897.676	36.481
900.371	31.9349
903.065	30.7278
905.758	24.3257
908.45	27.7243
911.139	27.4268
913.828	23.9188
916.516	22.3862
919.202	22.238
921.887	24.1484
924.571	24.5483
927.253	19.457
929.934	21.0136
932.615	20.9895
935.292	22.398
937.97	21.5681
940.646	22.8513
943.321	23.4052
945.994	20.572
948.667	22.0732
951.337	22.1672
954.007	22.7121
956.675	20.385
959.342	23.6308
962.008	23.2618
964.673	21.4905
967.336	22.7739
969.998	23.2351
972.66	25.0373
975.319	27.1615
977.977	29.8816
980.634	38.4098
983.29	49.0089
985.944	65.471
988.597	110.679
991.249	225.951
993.9	423.374
996.549	535.219
999.197	360.108
1001.84	194.852
1004.49	99.5073
1007.13	55.6841
1009.78	32.9392
1012.42	28.8426
1015.06	22.8054
1017.7	27.2155
1020.34	24.3599
1022.97	26.1564
1025.61	26.0798
1028.24	21.3732
1030.88	19.0498
1033.51	18.8549
1036.14	20.6871
1038.77	17.8489
1041.4	18.2348
1044.02	17.6232
1046.65	20.5205
1049.27	18.4498
1051.9	19.3643
1054.52	21.7412
1057.14	18.9282
1059.76	19.5146
1062.38	21.1038
1064.99	21.084
1067.61	18.547
1070.22	22.6788
1072.84	20.9629
1075.45	23.3707
1078.06	21.9487
1080.67	23.4092
1083.28	22.7396
1085.89	23.759
1088.49	25.7256
1091.1	21.5613
1093.7	21.6788
1096.3	20.3489
1098.9	18.5153
1101.5	20.4401
1104.1	19.2556
1106.7	19.6153
1109.29	18.5717
1111.89	22.4493
1114.48	20.0745
1117.07	19.5372
1119.66	20.1684
1122.25	20.1951
1124.84	21.7062
1127.43	19.4045
1130.02	18.0934
1132.6	20.697
1135.18	18.4401
1137.77	17.2845
1140.35	24.4638
1142.93	25.4003
1145.51	29.2051
1148.09	38.0765
1150.66	42.5368
1153.24	46.9324
1155.81	41.1722
1158.38	36.2552
1160.95	33.5821
1163.53	33.1808
1166.09	35.4717
1168.66	35.6421
1171.23	37.6401
1173.79	38.5447
1176.36	43.8444
1178.92	43.3023
1181.48	44.8087
1184.04	35.1576
1186.6	31.4781
1189.16	25.0155
1191.72	26.3541
1194.27	20.4297
1196.83	21.7343
1199.38	21.8745
1201.93	22.8237
1204.49	19.1021
1207.04	19.6321
1209.58	18.9083
1212.13	19.5209
1214.68	20.2739
1217.22	20.586
1219.77	20.9349
1222.31	22.3495
1224.85	20.4398
1227.39	21.548
1229.93	23.1239
1232.47	22.2096
1235	23.142
1237.54	22.5551
1240.07	25.9249
1242.61	23.0845
1245.14	26.426
1247.67	30.7399
1250.2	37.8474
1252.73	36.1709
1255.25	41.6908
1257.78	42.8082
1260.3	47.9572
1262.83	50.1734
1265.35	55.1576
1267.87	62.4073
1270.39	63.3123
1272.91	65.6897
1275.43	65.2613
1277.95	59.9967
1280.46	57.2051
1282.97	53.5335
1285.49	61.4717
1288	70.5153
1290.51	88.2906
1293.02	99.3531
1295.53	99.6587
1298.03	91.5613
1300.54	81.8169
1303.04	64.972
1305.55	56.0266
1308.05	48.6059
1310.55	45.8151
1313.05	48.6301
1315.55	51.7127
1318.05	53.3775
1320.54	59.5271
1323.04	57.4811
1325.53	61.2146
1328.03	54.2452
1330.52	49.6357
1333.01	41.3049
1335.5	38.3049
1337.99	33.104
1340.47	31.0589
1342.96	27.3798
1345.44	27.1279
1347.93	23.4836
1350.41	21.2045
1352.89	25.1905
1355.37	27.0398
1357.85	26.4372
1360.33	23.5174
1362.81	28.2526
1365.28	23.5891
1367.76	22.3129
1370.23	24.6288
1372.7	23.9859
1375.17	22.272
1377.64	24.2992
1380.11	22.3733
1382.58	23.2397
1385.04	23.187
1387.51	22.0299
1389.97	23.7343
1392.44	23.6264
1394.9	23.9374
1397.36	25.009
1399.82	22.968
1402.28	24.1576
1404.73	22.2041
1407.19	25.1808
1409.64	26.948
1412.1	25.9025
1414.55	25.1781
1417	27.7591
1419.45	27.484
1421.9	28.69
1424.35	30.0697
1426.79	28.413
1429.24	27.6577
1431.68	28.9257
1434.13	30.303
1436.57	32.1035
1439.01	40.7269
1441.45	44.46
1443.89	48.4408
1446.33	43.7712
1448.76	42.759
1451.2	43.4362
1453.63	43.1021
1456.07	37.403
1458.5	35.4063
1460.93	39.5953
1463.36	37.3254
1465.79	38.5365
1468.22	35.9796
1470.64	33.3669
1473.07	33.6634
1475.49	28.1344
1477.91	26.6757
1480.34	25.4648
1482.76	24.7339
1485.18	24.1243
1487.59	21.696
1490.01	20.5929
1492.43	23.5272
1494.84	23.2628
1497.26	23.1851
1499.67	22.9086
1502.08	25.6545
1504.49	23.5711
1506.9	23.0609
1509.31	23.7939
1511.72	23.2101
1514.12	21.7688
1516.53	23.548
1518.93	24.2409
1521.34	23.1243
1523.74	22.7734
1526.14	23.9025
1528.54	22.9313
1530.94	24.518
1533.33	21.9848
1535.73	22.7244
1538.12	24.2689
1540.52	23.352
1542.91	26.3267
1545.3	26.3977
1547.69	26.2888
1550.08	26.9816
1552.47	23.738
1554.86	27.357
1557.24	27.4329
1559.63	31.3942
1562.01	36.1502
1564.4	37.2968
1566.78	51.6903
1569.16	68.6314
1571.54	97.6089
1573.91	105.097
1576.29	106.379
1578.67	93.0266
1581.04	70.5271
1583.42	60.6285
1585.79	50.0702
1588.16	46.1951
1590.53	39.6594
1592.9	34.4261
1595.27	37.0804
1597.64	35.7809
1600	33.4566
1602.37	35.0522
1604.73	37.0118
1607.1	35.2433
1609.46	37.9086
1611.82	37.9086
1614.18	40.6047
1616.54	42.3056
1618.9	48.9938
1621.25	49.4408
1623.61	50.6153
1625.96	62.361
1628.31	70.2613
1630.67	83.0498
1633.02	89.033
1635.37	97.0585
1637.72	107.43
1640.06	113.147
1642.41	119.099
1644.76	118.623
1647.1	116.865
1649.44	106.461
1651.79	104.37
1654.13	91.2706
1656.47	83.8889
1658.81	79.2776
1661.15	76.7632
1663.48	65.0471
1665.82	58.2215
1668.15	55.4705
1670.49	48.5953
1672.82	42.154
1675.15	40.2987
1677.48	41.0634
1679.81	38.1388
1682.14	34.2358
1684.47	31.0553
1686.79	32.9493
1689.12	31.5035
1691.44	26.426
1693.76	25.3606
1696.09	30.7968
1698.41	24.642
1700.73	24.9585
1703.05	25.1783
1705.36	22.0162
1707.68	25.6868
1710	26.1844
1712.31	22.3691
1714.62	21.7537
1716.94	19.2898
1719.25	20.3857
1721.56	21.8854
1723.87	19.2923
1726.17	18.4942
1728.48	16.3049
1730.79	18.7904
1733.09	16.2811
1735.4	20.8641
1737.7	16.904
1740	18.9654
1742.3	18.1951
1744.6	16.4378
1746.9	17.5766
1749.2	16.6278
1751.49	17.8219
1753.79	18.9325
1756.08	18.9086
1758.38	15.1309
1760.67	16.1359
1762.96	18.1068
1765.25	17.0992
1767.54	17.2117
1769.83	18.1576
1772.11	16.8249
1774.4	17.5652
1776.68	15.8605
1778.97	15.806
1781.25	15.5186
1783.53	16.9621
1785.81	11.0758
1788.09	14.9331
1790.37	15.0403
1792.65	13.9612
1794.92	14.4584
1797.2	13.0304
1799.47	16.0162
1801.75	17.1032
1804.02	16.3296
1806.29	13.9634
1808.56	15.6577
1810.83	14.9597
1813.1	14.7195
1815.37	13.1286
1817.63	11.6382
1819.9	16.416
1822.16	12.6257
1824.42	12.7562
1826.68	14.3825
1828.95	14.0362
1831.21	12.239
1833.46	12.2893
1835.72	13.0807
1837.98	12.7626
1840.23	13.543
1842.49	15.6171
1844.74	12.8302
1846.99	16.2924
1849.25	14.1724
1851.5	13.097
1853.75	13.1808
1855.99	14.1348
1858.24	15.8518
1860.49	12.3031
1862.73	15.7151
1864.98	12.4412
1867.22	13.4756
1869.46	12.1445
1871.71	11.3489
1873.95	15.3696
1876.18	17.1976
1878.42	11.063
1880.66	16.0175
1882.9	12.7133
1885.13	11.0155
1887.37	14.0212
1889.6	10.129
1891.83	12.6864
1894.06	11.5246
1896.29	12.1315
1898.52	11.1441
1900.75	14.2595
1902.98	17.5029
1905.2	13.66
1907.43	11.3887
1909.65	9.47103
1911.87	11.0993
1914.1	12.4609
1916.32	13.7329
1918.54	11.7871
1920.75	15.0081
1922.97	11.878
1925.19	11.5696
1927.41	10.7952
1929.62	11.9562
1931.83	11.1787
1934.05	11.4818
1936.26	13.1273
1938.47	12.8312
1940.68	13.2831
1942.89	12.0211
1945.1	12.8536
1947.3	11.7165
1949.51	13.2636
1951.71	12.0591
1953.92	13.0683
1956.12	11.0827
1958.32	12.3788
1960.52	11.4903
1962.72	11.1032
1964.92	9.18804
1967.12	9.18804
1969.31	12.8791
1971.51	10.6785
1973.7	11.2132
1975.9	9.62576
1978.09	11.3261
1980.28	12.8821
1982.47	10.8455
1984.66	9.67025
1986.85	12.8611
1989.04	9.43978
1991.23	12.9686
1993.41	12.5965
1995.6	12.7375
1997.78	13.0795
1999.96	11.3643
2002.14	9.81066
2004.33	11.0459
2006.51	9.13444
2008.68	9.94162
2010.86	10.9249
2013.04	11.2437
2015.22	12.0741
2017.39	12.6451
2019.56	12.0396
2021.74	8.27257
2023.91	11.2792
2026.08	12.8418
2028.25	8.31228
2030.42	11.0598
2032.59	11.886
2034.75	10.413
2036.92	10.8405
2039.08	12.0764
2041.25	11.8609
2043.41	8.02658
2045.57	13.3502
2047.73	12.4942
2049.89	8.75966
2052.05	11.6041
2054.21	11.7619
2056.37	12.424
2058.52	14.649
2060.68	12.1851
2062.83	12.3186
2064.99	11.2646
2067.14	11.7152
2069.29	10.4069
2071.44	12.4124
2073.59	11.077
2075.74	10.1582
2077.89	11.3949
2080.03	10.9064
2082.18	11.2682
2084.32	11.6451
2086.47	9.80436
2088.61	10.3599
2090.75	10.9155
2092.89	10.7399
2095.03	10.046
2097.17	11.5816
2099.31	9.91753
2101.44	12.9597
2103.58	9.85688
2105.71	10.9519
2107.85	9.78961
2109.98	11.9221
2112.11	13.7563
2114.24	10.0736
2116.37	11.2045
2118.5	12.7076
2120.63	9.16146
2122.76	8.74316
2124.88	10.4749
2127.01	13.0277
2129.13	10.3092
2131.25	10.2387
2133.38	10.1884
2135.5	10.9224
2137.62	12.31
2139.74	10.7438
2141.86	7.3508
2143.97	10.9924
2146.09	10.4854
2148.21	11.4099
2150.32	10.9064
2152.43	10.0679
2154.55	10.7699
2156.66	9.2526
2158.77	11.3262
2160.88	12.3502
2162.99	11.3149
2165.1	9.54112
2167.2	6.99208
2169.31	9.9413
2171.41	8.63314
2173.52	10.8706
2175.62	11.5124
2177.72	10.0277
2179.82	10.6997
2181.93	8.03299
2184.02	10.1553
2186.12	11.267
2188.22	11.9155
2190.32	12.0211
2192.41	9.46484
2194.51	10.6357
2196.6	8.29829
2198.69	10.0215
2200.79	10.7874
2202.88	10.4837
2204.97	9.31923
2207.06	9.12728
2209.14	8.4936
2211.23	12.4837
2213.32	9.40788
2215.4	8.90929
2217.49	11.0598
2219.57	10.0367
2221.65	11.471
2223.73	12.0397
2225.81	9.27073
2227.89	9.73687
2229.97	8.29872
2232.05	9.24262
2234.13	10.7734
2236.2	9.40419
2238.28	9.62847
2240.35	11.407
2242.42	11.0391
2244.5	8.71376
2246.57	10.9093
2248.64	9.03038
2250.71	11.0838
2252.78	10.5208
2254.84	7.51736
2256.91	9.3265
2258.97	11.2781
2261.04	11.936
2263.1	11.0878
2265.17	8.13542
2267.23	9.00076
2269.29	9.72287
2271.35	9.71517
2273.41	8.01942
2275.47	10.3888
2277.52	9.28613
2279.58	10.6927
2281.64	9.74653
2283.69	7.85753
2285.74	11.2901
2287.8	9.61838
2289.85	9.25521
2291.9	11.0362
2293.95	8.26508
2296	8.6148
2298.05	10.7035
2300.09	8.90506
2302.14	9.74067
2304.18	9.23438
2306.23	9.83496
2308.27	9.9796
2310.31	7.79036
2312.36	8.18511
2314.4	7.09342
2316.44	7.17025
2318.48	11.0489
2320.51	9.21007
2322.55	10.1884
2324.59	10.1147
2326.62	8.26204
2328.66	11.5241
2330.69	8.1722
2332.72	10.282
2334.75	7.88813
2336.78	9.26194
2338.81	7.38639
2340.84	8.57465
2342.87	11.0763
2344.9	12.9859
2346.92	20.7692
2348.95	10.6133
2350.97	10.7369
2353	8.48166
2355.02	8.09635
2357.04	10.3656
2359.06	8.66591
2361.08	8.18403
2363.1	7.3189
2365.12	10.357
2367.14	10.8852
2369.15	8.6594
2371.17	8.04644
2373.18	9.76194
2375.19	6.95855
2377.21	9.52713
2379.22	10.2756
2381.23	9.76563
2383.24	8.44119
2385.25	11.0211
2387.26	8.58898
2389.26	9.73438
2391.27	10.1667
2393.28	7.52821
2395.28	10.5713
2397.28	7.48796
2399.29	11.0197
2401.29	10.3735
2403.29	8.32964
2405.29	7.70399
2407.29	11.1663
2409.29	9.17773
2411.28	9.02083
2413.28	9.2538
2415.28	9.16395
2417.27	8.32943
2419.26	11.2183
2421.26	8.71213
2423.25	11.3563
2425.24	10.7731
2427.23	7.46387
2429.22	9.52528
2431.21	8.65875
2433.19	8.29243
2435.18	7.40734
2437.17	7.49989
2439.15	9.15961
2441.14	7.57921
2443.12	7.19141
2445.1	9.38314
2447.08	9.52029
2449.06	8.73752
2451.04	10.0173
2453.02	10.1309
2455	7.58605
2456.98	5.47103
2458.95	8.49425
2460.93	7.49425
2462.9	12.2968
2464.87	10.5434
2466.85	9.07726
2468.82	8.86849
2470.79	8.75966
2472.76	11.848
2474.73	12.5711
2476.7	11.6278
2478.66	10.0585
2480.63	9.95909
2482.6	8.04709
2484.56	8.01617
2486.52	10.5177
2488.49	9.64193
2490.45	10.2664
2492.41	6.50423
2494.37	5.28982
2496.33	7.35308
2498.29	10.8701
2500.25	9.37001
2502.2	9.80382
2504.16	8.10384
2506.11	9.14844
2508.07	9.82758
2510.02	8.838
2511.97	8.16287
2513.92	8.37684
2515.88	10.9928
2517.83	10.3469
2519.77	9.95898
2521.72	9.32964
2523.67	9.86784
2525.62	6.37609
2527.56	7.85862
2529.51	5.4936
2531.45	6.87739
2533.39	10.9188
2535.33	9.75087
2537.28	12.3633
2539.22	8.77702
2541.16	10.5235
2543.09	10.8365
2545.03	8.14789
2546.97	10.5717
2548.9	7.91254
2550.84	6.74577
2552.77	10.8444
2554.71	10.848
2556.64	11.9999
2558.57	10.7913
2560.5	8.38542
2562.43	9.04709
2564.36	7.26823
2566.29	10.3974
2568.22	10.2348
2570.14	9.09071
2572.07	10.0765
2573.99	10.6325
2575.92	10.4961
2577.84	10.0428
2579.76	13.4602
2581.69	6.42567
2583.61	12.7072
2585.53	11.0729
2587.44	11.39
2589.36	7.77311
2591.28	9.57856
2593.2	10.3113
2595.11	11.5515
2597.03	10.7498
2598.94	10.7674
2600.85	10.1851
2602.76	10.2779
2604.68	9.17025
2606.59	14.0322
2608.5	11.4268
2610.4	12.5114
2612.31	11.2179
2614.22	10.5865
2616.13	9.83626
2618.03	13.3026
2619.94	11.7254
2621.84	11.7601
2623.74	9.40918
2625.64	11.5828
2627.54	13.5711
2629.45	14.3545
2631.34	15.2413
2633.24	16.6871
2635.14	15.3606
2637.04	13.3524
2638.93	13.2809
2640.83	16.663
2642.72	18.548
2644.62	25.6452
2646.51	27.2039
2648.4	26.805
2650.29	23.4843
2652.18	20.1788
2654.07	16.7975
2655.96	18.3701
2657.85	18.2223
2659.74	16.4905
2661.62	16.2654
2663.51	18.7469
2665.39	18.1433
2667.27	22.6153
2669.16	32.086
2671.04	44.8242
2672.92	59.9324
2674.8	78.2183
2676.68	81.7745
2678.56	68.5991
2680.44	60.1377
2682.31	50.9166
2684.19	34.4606
2686.06	44.9317
2687.94	52.5216
2689.81	71.8151
2691.68	115.925
2693.56	270.289
2695.43	324.662
2697.3	225.93
2699.17	176.886
2701.04	113.595
2702.9	72.1564
2704.77	54.3062
2706.64	34.129
2708.5	29.2551
2710.37	19.5146
2712.23	18.1544
2714.09	16.0702
2715.96	15.1539
2717.82	14.0901
2719.68	15.4842
2721.54	13.9607
2723.4	14.3831
2725.25	13.1851
2727.11	17.8712
2728.97	13.4899
2730.82	15.9459
2732.68	13.1354
2734.53	13.6233
2736.38	13.151
2738.24	11.9683
2740.09	12.8455
2741.94	12.8612
2743.79	13.3662
2745.64	12.8376
2747.48	12.5959
2749.33	11.846
2751.18	12.6463
2753.02	11.4882
2754.87	13.3694
2756.71	10.5404
2758.56	10.2384
2760.4	8.69716
2762.24	10.9374
