364.259	48.5666
367.212	47.7549
370.164	52.9974
373.114	56.9771
376.063	60.0462
379.009	62.4425
381.955	65.4416
384.9	74.3444
387.843	82.5237
390.784	97.488
393.724	97.769
396.662	108.931
399.6	104.762
402.536	90.9276
405.469	83.1645
408.403	76.5738
411.334	76.5897
414.264	77.0186
417.192	85.1163
420.12	89.157
423.045	84.3392
425.969	85.19
428.893	76.5468
431.814	68.144
434.734	59.6725
437.652	50.6137
440.569	47.1222
443.485	41.4882
446.399	38.1302
449.312	38.6659
452.224	38.5617
455.134	36.196
458.043	36.8788
460.949	35.1366
463.855	37.7317
466.76	33.9081
469.663	39.4783
472.564	43.7057
475.465	46.9
478.363	56.603
481.261	63.8801
484.156	68.7762
487.05	68.3291
489.944	66.6846
492.835	58.3305
495.725	55.6407
498.614	49.7132
501.502	44.1773
504.388	38.2228
507.273	36.7083
510.156	37.8123
513.038	36.9063
515.919	34.3366
518.797	34.534
521.675	34.9308
524.551	34.5527
527.426	34.2208
530.299	34.1085
533.172	31.1605
536.043	30.8486
538.912	30.1381
541.78	30.9008
544.646	31.2442
547.511	30.7836
550.375	31.3512
553.237	36.605
556.098	33.4785
558.958	33.9589
561.816	38.9539
564.673	36.3252
567.529	35.1302
570.382	38.435
573.234	36.8026
576.086	35.2763
578.936	31.5928
581.785	30.7677
584.632	29.0407
587.477	32.2109
590.322	30.3507
593.164	31.4776
596.006	31.0786
598.846	27.8969
601.686	27.4204
604.523	28.5707
607.359	27.6176
610.194	29.9975
613.027	30.0425
615.859	34.7852
618.69	31.2122
621.519	30.7602
624.347	33.6759
627.174	34.3955
629.999	35.5729
632.823	41.5728
635.645	54.4848
638.466	84.4188
641.286	122.537
644.104	157.539
646.921	177.815
649.736	152.197
652.551	111.041
655.364	59.2113
658.175	41.3239
660.985	31.3354
663.795	31.0447
666.602	30.908
669.408	33.8981
672.213	31.3089
675.016	32.9906
677.818	35.6666
680.619	32.4512
683.418	36.6783
686.216	42.5173
689.013	49.5215
691.808	53.2395
694.602	58.9819
697.395	62.8626
700.186	52.666
702.976	44.9912
705.765	38.9796
708.552	32.1972
711.338	33.9153
714.122	30.6209
716.906	30.232
719.687	33.4353
722.468	32.2809
725.247	35.0422
728.025	35.6108
730.802	35.5393
733.577	38.6915
736.351	35.3681
739.124	39.2342
741.894	43.3687
744.665	64.1961
747.433	94.1651
750.201	162.606
752.966	288.003
755.731	416.446
758.494	511.118
761.256	522.745
764.016	427.131
766.776	266.49
769.534	137.324
772.29	80.4637
775.046	56.0179
777.8	43.9737
780.552	42.6696
783.304	39.7882
786.053	39.7002
788.802	40.1614
791.549	49.3245
794.296	56.4916
797.04	72.7615
799.784	70.2717
802.526	72.1923
805.266	59.1203
808.006	49.0509
810.744	37.1372
813.481	32.8873
816.217	31.9231
818.951	29.7082
821.683	27.8626
824.415	31.5982
827.145	33.4064
829.874	34.816
832.602	34.6727
835.329	31.9744
838.053	41.6332
840.777	52.8206
843.499	67.8789
846.22	104.45
848.94	139.094
851.659	161.49
854.376	153.333
857.092	126.781
859.807	91.9149
862.52	63.2233
865.232	39.9216
867.943	38.4277
870.653	35.1215
873.361	31.8038
876.068	33.947
878.773	33.7969
881.477	39.1767
884.18	39.1693
886.882	43.7678
889.582	46.7668
892.282	49.4642
894.98	47.7381
897.676	47.0603
900.371	42.0062
903.065	42.3245
905.758	32.191
908.45	33.6506
911.139	29.0354
913.828	28.9744
916.516	26.7095
919.202	30.1144
921.887	27.4419
924.571	26.6962
927.253	27.8632
929.934	25.7615
932.615	27.0179
935.292	28.7683
937.97	27.5614
940.646	26.8988
943.321	28.1302
945.994	26.1302
948.667	28.7369
951.337	30.0279
954.007	27.4263
956.675	26.1972
959.342	24.7083
962.008	28.6867
964.673	28.628
967.336	27.6711
969.998	30.5119
972.66	30.4431
975.319	32.805
977.977	38.2401
980.634	48.1095
983.29	62.5233
985.944	97.2284
988.597	183.275
991.249	321.405
993.9	447.306
996.549	502.934
999.197	490.069
1001.84	375.766
1004.49	234.336
1007.13	110.854
1009.78	56.9638
1012.42	40.5315
1015.06	33.3392
1017.7	36.1698
1020.34	36.7008
1022.97	36.6189
1025.61	34.7753
1028.24	29.2206
1030.88	29.2639
1033.51	23.7615
1036.14	23.4771
1038.77	24.1144
1041.4	23.538
1044.02	24.5446
1046.65	23.6834
1049.27	23.0191
1051.9	24.9551
1054.52	20.1219
1057.14	23.8944
1059.76	21.5031
1062.38	20.9626
1064.99	26.4362
1067.61	27.3792
1070.22	29.1905
1072.84	27.9391
1075.45	29.4778
1078.06	33.7248
1080.67	37.4623
1083.28	39.8555
1085.89	39.6737
1088.49	39.2998
1091.1	33.7329
1093.7	29.5828
1096.3	25.1378
1098.9	25.1693
1101.5	25.3755
1104.1	23.2046
1106.7	23.4542
1109.29	25.6567
1111.89	23.0948
1114.48	24.9143
1117.07	25.341
1119.66	21.8925
1122.25	21.4148
1124.84	24.1973
1127.43	20.7317
1130.02	22.3426
1132.6	23.0435
1135.18	24.3224
1137.77	21.8789
1140.35	24.45
1142.93	29.4163
1145.51	34.4542
1148.09	39.5889
1150.66	41.101
1153.24	44.8041
1155.81	48.2549
1158.38	44.2984
1160.95	42.506
1163.53	41.1173
1166.09	37.7681
1168.66	43.0239
1171.23	44.1886
1173.79	44.0021
1176.36	46.1891
1178.92	46.9306
1181.48	49.8045
1184.04	43.4623
1186.6	40.4792
1189.16	37.1312
1191.72	32.7329
1194.27	29.1446
1196.83	26.6491
1199.38	26.2735
1201.93	26.4425
1204.49	23.7677
1207.04	21.6584
1209.58	25.3305
1212.13	23.9308
1214.68	24.7609
1217.22	27.9315
1219.77	26.8237
1222.31	24.6915
1224.85	25.054
1227.39	23.9
1229.93	26.4435
1232.47	26.684
1235	28.4058
1237.54	27.8546
1240.07	27.6089
1242.61	24.2676
1245.14	27.8801
1247.67	33.7094
1250.2	33.9429
1252.73	41.0391
1255.25	42.384
1257.78	50.3164
1260.3	54.6102
1262.83	56.5828
1265.35	60.1452
1267.87	70.0512
1270.39	68.1203
1272.91	73.0098
1275.43	72.9109
1277.95	67.8915
1280.46	68.9008
1282.97	66.3606
1285.49	70.9511
1288	80.3359
1290.51	93.6999
1293.02	104.976
1295.53	105.888
1298.03	100.173
1300.54	94.2265
1303.04	84.8789
1305.55	71.3037
1308.05	62.9663
1310.55	56.0342
1313.05	61.1895
1315.55	64.8521
1318.05	61.129
1320.54	64.8038
1323.04	72.6018
1325.53	70.3034
1328.03	68.83
1330.52	61.4555
1333.01	49.8033
1335.5	45.0954
1337.99	37.5524
1340.47	37.744
1342.96	32.2116
1345.44	32.7957
1347.93	30.6999
1350.41	30.3811
1352.89	30.5663
1355.37	28.6286
1357.85	26.9156
1360.33	28.5741
1362.81	30.4903
1365.28	27.7049
1367.76	32.3327
1370.23	25.2791
1372.7	24.9682
1375.17	31.3431
1377.64	24.7687
1380.11	27.6993
1382.58	26.6693
1385.04	28.6344
1387.51	30.2405
1389.97	30.0354
1392.44	25.9753
1394.9	31.8876
1397.36	26.5259
1399.82	26.9321
1402.28	28.3234
1404.73	26.3886
1407.19	25.491
1409.64	25.7814
1412.1	32.6774
1414.55	29.1312
1417	29.8861
1419.45	30.506
1421.9	35.3091
1424.35	36.4443
1426.79	35.0454
1429.24	37.5026
1431.68	36.0152
1434.13	38.5531
1436.57	40.0011
1439.01	44.8738
1441.45	47.3273
1443.89	49.0266
1446.33	52.3389
1448.76	51.2113
1451.2	50.6716
1453.63	48.8198
1456.07	44.9839
1458.5	46.2339
1460.93	41.796
1463.36	47.908
1465.79	46.111
1468.22	41.736
1470.64	36.5738
1473.07	35.9184
1475.49	34.3245
1477.91	31.3426
1480.34	33.9564
1482.76	29.9993
1485.18	23.9309
1487.59	26.4564
1490.01	26.6858
1492.43	27.3326
1494.84	26.4783
1497.26	26.2303
1499.67	29.7609
1502.08	28.0173
1504.49	24.5666
1506.9	27.1365
1509.31	27.3071
1511.72	27.3687
1514.12	26.7982
1516.53	28.4335
1518.93	25.7885
1521.34	26.3799
1523.74	24.101
1526.14	26.3086
1528.54	26.7447
1530.94	28.2113
1533.33	25.2113
1535.73	25.7615
1538.12	29.408
1540.52	25.5735
1542.91	27.8526
1545.3	29.4098
1547.69	28.2284
1550.08	30.4077
1552.47	29.7597
1554.86	31.3588
1557.24	33.9041
1559.63	31.7752
1562.01	34.5981
1564.4	45.5669
1566.78	51.909
1569.16	74.1658
1571.54	84.796
1573.91	106.61
1576.29	113.338
1578.67	108.746
1581.04	87.3414
1583.42	73.0775
1585.79	62.9429
1588.16	54.5554
1590.53	45.3326
1592.9	44.4864
1595.27	38.7678
1597.64	40.4345
1600	38.7549
1602.37	40.7342
1604.73	40.1122
1607.1	38.2536
1609.46	39.1832
1611.82	44.3395
1614.18	43.1606
1616.54	48.0549
1618.9	53.2716
1621.25	52.4537
1623.61	61.5546
1625.96	69.5938
1628.31	74.4437
1630.67	86.8026
1633.02	97.1098
1635.37	104.732
1637.72	117.797
1640.06	125.78
1642.41	128.848
1644.76	129.257
1647.1	127.095
1649.44	115.8
1651.79	112.177
1654.13	106.336
1656.47	92.6567
1658.81	86.3233
1661.15	84.0662
1663.48	72.105
1665.82	66.5395
1668.15	56.2413
1670.49	51.6049
1672.82	51.9683
1675.15	47.8233
1677.48	41.7521
1679.81	40.718
1682.14	36.6624
1684.47	37.2215
1686.79	37.9919
1689.12	31.4645
1691.44	31.9074
1693.76	33.1209
1696.09	33.4903
1698.41	30.5119
1700.73	33.042
1703.05	31.7317
1705.36	26.9149
1707.68	28.4477
1710	27.674
1712.31	29.3861
1714.62	27.1972
1716.94	24.4505
1719.25	22.9314
1721.56	22.1002
1723.87	19.5653
1726.17	24.6624
1728.48	20.7864
1730.79	24.5828
1733.09	20.3234
1735.4	21.4778
1737.7	21.1693
1740	22.2121
1742.3	19.7216
1744.6	21.6922
1746.9	18.4648
1749.2	23.3715
1751.49	19.9812
1753.79	19.026
1756.08	16.3524
1758.38	20.1972
1760.67	19.0416
1762.96	19.712
1765.25	20.7858
1767.54	19.5259
1769.83	17.8972
1772.11	16.2989
1774.4	20.2121
1776.68	18.8032
1778.97	16.5675
1781.25	20.2414
1783.53	17.7675
1785.81	17.775
1788.09	19.6404
1790.37	16.1565
1792.65	16.4826
1794.92	15.5072
1797.2	13.086
1799.47	18.1891
1801.75	17.0179
1804.02	15.7005
1806.29	18.4182
1808.56	17.3091
1810.83	14.027
1813.1	16.947
1815.37	13.4263
1817.63	13.8888
1819.9	16.7852
1822.16	15.153
1824.42	14.086
1826.68	16.7157
1828.95	13.0432
1831.21	14.7824
1833.46	13.0653
1835.72	13.7696
1837.98	13.5275
1840.23	15.2321
1842.49	16.0339
1844.74	15.5308
1846.99	11.3359
1849.25	13.1764
1851.5	14.8041
1853.75	13.787
1855.99	16.1263
1858.24	17.229
1860.49	12.6711
1862.73	14.7014
1864.98	14.4294
1867.22	12.3242
1869.46	16.2194
1871.71	12.435
1873.95	13.5098
1876.18	14.9335
1878.42	12.8828
1880.66	15.4863
1882.9	13.7678
1885.13	12.777
1887.37	13.8453
1889.6	11.871
1891.83	15.5275
1894.06	15.8318
1896.29	13.947
1898.52	11.9056
1900.75	11.4474
1902.98	19.8789
1905.2	11.0441
1907.43	11.7602
1909.65	11.7597
1911.87	13.4938
1914.1	13.1203
1916.32	13.1293
1918.54	13.2483
1920.75	13.9589
1922.97	12.6638
1925.19	11.0186
1927.41	11.0714
1929.62	14.2293
1931.83	10.7515
1934.05	11.9684
1936.26	11.7753
1938.47	15.4002
1940.68	15.4543
1942.89	14.7839
1945.1	11.2293
1947.3	12.8713
1949.51	13.5666
1951.71	14.2293
1953.92	14.153
1956.12	9.60297
1958.32	9.98362
1960.52	14.6939
1962.72	11.7858
1964.92	13.9276
1967.12	12.5153
1969.31	9.99034
1971.51	13.1903
1973.7	11.7527
1975.9	12.0696
1978.09	13.1132
1980.28	12.4109
1982.47	12.5809
1984.66	13.5474
1986.85	13.0017
1989.04	10.7605
1991.23	11.6284
1993.41	11.435
1995.6	13.1525
1997.78	12.9743
1999.96	8.90082
2002.14	11.9212
2004.33	12.8325
2006.51	12.4617
2008.68	11.734
2010.86	10.9523
2013.04	11.4041
2015.22	11.093
2017.39	11.3678
2019.56	9.55273
2021.74	12.3987
2023.91	11.2791
2026.08	11.275
2028.25	11.6323
2030.42	11.3357
2032.59	13.077
2034.75	13.4362
2036.92	12.7677
2039.08	12.6638
2041.25	13.8975
2043.41	12.5398
2045.57	12.5828
2047.73	12.6411
2049.89	9.74099
2052.05	11.4518
2054.21	11.2471
2056.37	12.796
2058.52	10.9999
2060.68	9.6416
2062.83	12.6404
2064.99	11.1083
2067.14	10.5617
2069.29	12.4194
2071.44	13.2413
2073.59	11.8794
2075.74	12.3449
2077.89	10.8048
2080.03	11.8325
2082.18	11.9074
2084.32	10.9632
2086.47	11.8132
2088.61	11.9363
2090.75	10.9429
2092.89	10.3395
2095.03	9.12901
2097.17	11.6237
2099.31	11.3792
2101.44	12.9551
2103.58	8.87891
2105.71	8.88607
2107.85	10.2644
2109.98	9.83301
2112.11	10.1095
2114.24	12.4903
2116.37	10.8555
2118.5	10.3886
2120.63	9.91526
2122.76	10.8708
2124.88	12.5539
2127.01	11.7536
2129.13	11.0119
2131.25	11.1011
2133.38	13.1573
2135.5	11.3768
2137.62	11.7102
2139.74	10.2729
2141.86	11.5259
2143.97	9.89594
2146.09	10.7036
2148.21	9.32205
2150.32	9.67643
2152.43	9.34375
2154.55	11.716
2156.66	10.4269
2158.77	10.6846
2160.88	10.6678
2162.99	9.79568
2165.1	9.29926
2167.2	9.22157
2169.31	9.37684
2171.41	10.2093
2173.52	9.5293
2175.62	6.6849
2177.72	9.66775
2179.82	7.74523
2181.93	9.57465
2184.02	10.1011
2186.12	10.7599
2188.22	7.79503
2190.32	8.64041
2192.41	10.2281
2194.51	9.59646
2196.6	9.29709
2198.69	10.9539
2200.79	9.85211
2202.88	9.73806
2204.97	9.94575
2207.06	7.86263
2209.14	10.0782
2211.23	9.08149
2213.32	10.0173
2215.4	8.44162
2217.49	8.54677
2219.57	10.1545
2221.65	15.2681
2223.73	12.5138
2225.81	9.0549
2227.89	10.0935
2229.97	12.3016
2232.05	8.33203
2234.13	8.86382
2236.2	7.33171
2238.28	8.57465
2240.35	8.14518
2242.42	9.62055
2244.5	8.14583
2246.57	8.52995
2248.64	8.74501
2250.71	10.105
2252.78	8.25727
2254.84	9.06337
2256.91	10.2333
2258.97	8.92242
2261.04	10.4197
2263.1	11.1773
2265.17	10.3239
2267.23	9.05816
2269.29	8.9975
2271.35	8.10232
2273.41	8.76031
2275.47	10.8714
2277.52	7.75304
2279.58	8.51693
2281.64	10.3083
2283.69	8.54677
2285.74	9.37467
2287.8	8.7755
2289.85	9.03874
2291.9	10.3749
2293.95	9.59093
2296	11.0104
2298.05	9.99002
2300.09	9.81131
2302.14	8.41222
2304.18	8.79568
2306.23	8.95388
2308.27	8.08702
2310.31	7.16135
2312.36	7.74349
2314.4	6.90712
2316.44	7.79449
2318.48	9.74099
2320.51	9.42687
2322.55	11.0272
2324.59	9.28038
2326.62	8.99837
2328.66	8.98242
2330.69	8.87977
2332.72	10.1813
2334.75	8.96647
2336.78	9.12283
2338.81	11.2281
2340.84	11.121
2342.87	10.4698
2344.9	9.45421
2346.92	23.0425
2348.95	9.77984
2350.97	10.0777
2353	8.16981
2355.02	9.30078
2357.04	10.2483
2359.06	9.065
2361.08	7.23741
2363.1	9.90809
2365.12	7.87923
2367.14	8.18945
2369.15	8.14399
2371.17	8.787
2373.18	9.47917
2375.19	7.20584
2377.21	8.435
2379.22	8.74034
2381.23	10.026
2383.24	8.10015
2385.25	10.523
2387.26	7.47982
2389.26	6.91341
2391.27	11.1981
2393.28	10.1135
2395.28	8.85634
2397.28	7.89095
2399.29	10.5026
2401.29	9.78071
2403.29	10.734
2405.29	9.78852
2407.29	10.0954
2409.29	10.4542
2411.28	8.5293
2413.28	9.99392
2415.28	8.28559
2417.27	8.83268
2419.26	9.61708
2421.26	8.21408
2423.25	10.4064
2425.24	7.63379
2427.23	7.81966
2429.22	7.32335
2431.21	10.0062
2433.19	7.59842
2435.18	10.4282
2437.17	8.72873
2439.15	9.95388
2441.14	9.66385
2443.12	8.1811
2445.1	10.0413
2447.08	7.86198
2449.06	7.64909
2451.04	9.11415
2453.02	10.0672
2455	8.81185
2456.98	7.79688
2458.95	8.88466
2460.93	10.5383
2462.9	7.76899
2464.87	8.10503
2466.85	12.5834
2468.82	10.2203
2470.79	9.17676
2472.76	10.4665
2474.73	10.2206
2476.7	9.74034
2478.66	9.63043
2480.63	8.79112
2482.6	10.3372
2484.56	6.65668
2486.52	7.98307
2488.49	10.392
2490.45	9.73351
2492.41	9.44303
2494.37	7.75174
2496.33	9.01042
2498.29	7.12185
2500.25	8.44021
2502.2	7.8623
2504.16	6.38422
2506.11	10.0254
2508.07	8.1135
2510.02	8.22081
2511.97	7.61426
2513.92	8.59429
2515.88	10.9986
2517.83	7.6939
2519.77	9.78885
2521.72	9.42806
2523.67	4.31521
2525.62	7.53928
2527.56	10.5401
2529.51	9.85482
2531.45	11.1365
2533.39	9.56326
2535.33	10.232
2537.28	9.80382
2539.22	8.72418
2541.16	10.3413
2543.09	7.65039
2545.03	9.00857
2546.97	9.44835
2548.9	9.10297
2550.84	11.844
2552.77	11.5221
2554.71	10.8521
2556.64	12.1813
2558.57	8.35243
2560.5	11.4985
2562.43	9.54546
2564.36	9.93077
2566.29	8.93544
2568.22	7.69206
2570.14	8.19781
2572.07	10.1095
2573.99	11.153
2575.92	9.44553
2577.84	10.3083
2579.76	10.1297
2581.69	11.2333
2583.61	8.56727
2585.53	9.6849
2587.44	11.5133
2589.36	8.61372
2591.28	7.74501
2593.2	13.166
2595.11	11.3158
2597.03	9.22927
2598.94	10.4817
2600.85	10.0714
2602.76	10.9311
2604.68	9.38455
2606.59	10.5666
2608.5	10.5943
2610.4	10.899
2612.31	11.7049
2614.22	10.9022
2616.13	11.2342
2618.03	10.824
2619.94	11.7875
2621.84	12.3372
2623.74	11.332
2625.64	10.2756
2627.54	13.6304
2629.45	14.4435
2631.34	14.5588
2633.24	15.3441
2635.14	14.8398
2637.04	11.6859
2638.93	15.2999
2640.83	11.6124
2642.72	15.5648
2644.62	24.2696
2646.51	26.1147
2648.4	24.4431
2650.29	24.0534
2652.18	15.8045
2654.07	15.2999
2655.96	13.6567
2657.85	17.628
2659.74	17.2843
2661.62	17.6759
2663.51	17.2395
2665.39	17.8205
2667.27	21.4635
2669.16	29.6777
2671.04	36.9396
2672.92	52.4202
2674.8	73.6859
2676.68	78.7882
2678.56	77.5753
2680.44	58.0552
2682.31	46.8564
2684.19	31.3344
2686.06	38.093
2687.94	49.3932
2689.81	64.295
2691.68	101.861
2693.56	252.058
2695.43	309.951
2697.3	212.785
2699.17	176.301
2701.04	109.103
2702.9	62.4623
2704.77	53.0599
2706.64	37.9289
2708.5	26.753
2710.37	20.3747
2712.23	19.4543
2714.09	16.1173
2715.96	14.6647
2717.82	15.6768
2719.68	13.3747
2721.54	14.1878
2723.4	14.6764
2725.25	15.4344
2727.11	12.3512
2728.97	13.4029
2730.82	12.3915
2732.68	12.7963
2734.53	14.2161
2736.38	14.0783
2738.24	14.4798
2740.09	14.0737
2741.94	10.4543
2743.79	13.1215
2745.64	11.3332
2747.48	13.1651
2749.33	13.1011
2751.18	10.5776
2753.02	14.2641
2754.87	8.70985
2756.71	12.42
2758.56	12.7592
2760.4	11.4002
2762.24	10.1331
