365.286	283.492
368.238	289.594
371.189	302.545
374.139	319.554
377.087	332.049
380.034	319.927
382.979	319.83
385.923	302.712
388.866	299.734
391.806	283.691
394.745	288.46
397.684	286.757
400.62	288.434
403.555	287.144
406.49	291.672
409.421	286.227
412.353	291.885
415.282	303.811
418.209	308.448
421.137	305.728
424.062	304.55
426.985	328.429
429.908	340.911
432.829	343.181
435.748	349.633
438.666	340.677
441.583	324.644
444.498	319.049
447.412	325.106
450.324	308.73
453.235	323.758
456.145	315.641
459.052	314.269
461.959	306.297
464.865	291.957
467.769	285.241
470.671	286.494
473.572	277.229
476.471	282.13
479.37	282.404
482.266	283.382
485.162	286.252
488.056	277.006
490.948	288.352
493.839	281.632
496.73	274.363
499.618	279.637
502.505	277.519
505.39	278.66
508.275	281.69
511.157	281.611
514.039	292.259
516.919	291.454
519.798	283.306
522.674	284.69
525.55	269.674
528.425	265.97
531.297	261.827
534.169	262.962
537.039	264.414
539.908	260.308
542.775	259.3
545.642	265.756
548.506	257.35
551.369	261.416
554.231	264.063
557.092	268.244
559.951	265.885
562.808	269.474
565.664	265.296
568.519	263.748
571.373	263.664
574.225	262.75
577.076	261.163
579.925	266.86
582.773	264.439
585.62	266.211
588.466	257.578
591.309	261.892
594.152	263.882
596.993	259.299
599.832	251.005
602.671	252.586
605.508	258.927
608.343	253.756
611.178	263.253
614.011	252.358
616.842	251.381
619.672	257.826
622.501	261.73
625.329	253.798
628.155	266.996
630.98	268.714
633.802	268.966
636.624	268.329
639.445	259.927
642.264	263.244
645.082	268.022
647.898	266.306
650.714	274.476
653.527	282.343
656.34	273.738
659.151	281.16
661.961	268.178
664.769	263.529
667.576	254.562
670.382	251.753
673.186	245.53
675.989	238.286
678.791	245.763
681.591	245.387
684.39	248.941
687.187	245.639
689.983	251.132
692.779	247.787
695.572	245.734
698.363	250.385
701.155	245.051
703.944	244.874
706.733	248.311
709.519	251.448
712.305	252.533
715.089	247.979
717.871	254.135
720.653	242.571
723.433	248.735
726.212	251.369
728.989	240.47
731.765	246.163
734.54	247.927
737.313	251.051
740.085	236.024
742.856	247.697
745.625	253.37
748.394	246.772
751.16	242.205
753.926	247.715
756.689	246.475
759.452	244.081
762.214	246.309
764.974	250.993
767.733	247.467
770.49	243.198
773.246	252.051
776.001	250.029
778.755	249.306
781.507	248.468
784.258	253.432
787.007	251.193
789.756	256.519
792.502	257.574
795.247	260.011
797.992	252.774
800.735	256.276
803.477	248.9
806.217	255.441
808.956	256.741
811.694	261.805
814.43	262.883
817.165	250.015
819.899	253.498
822.631	248.697
825.362	247.133
828.092	238.527
830.82	250.054
833.548	246.558
836.274	243.22
838.998	240.191
841.721	245.541
844.444	236.246
847.165	241.074
849.884	241.277
852.601	243.63
855.318	239.694
858.034	226.371
860.749	238.217
863.461	235.222
866.173	243.396
868.883	230.336
871.592	222.55
874.3	230.851
877.006	233.636
879.712	223.993
882.415	217.935
885.118	227.909
887.819	233.2
890.519	231.205
893.218	238.372
895.914	234.543
898.611	238.274
901.306	230.144
903.999	232.493
906.692	235.688
909.382	230.212
912.072	229.942
914.761	226.672
917.447	226.255
920.133	235.085
922.818	224.333
925.501	224.747
928.183	225.271
930.864	222.566
933.543	224.63
936.221	221.416
938.898	227.223
941.574	220.734
944.248	221.193
946.921	225.061
949.593	225.331
952.263	227.644
954.932	221.801
957.6	221.467
960.267	212.999
962.932	227.388
965.597	227.243
968.26	226.471
970.922	219.175
973.581	228.311
976.241	237.999
978.898	237.55
981.555	243.266
984.21	254.114
986.864	253.118
989.517	263.904
992.169	295.718
994.819	304.329
997.468	312.451
1000.12	331.25
1002.76	347.584
1005.41	357.997
1008.05	364.165
1010.69	346.219
1013.34	326.907
1015.98	310.286
1018.61	277.672
1021.25	258.28
1023.89	245.377
1026.52	242.529
1029.16	237.463
1031.79	235.756
1034.42	241.697
1037.05	239.623
1039.68	234.749
1042.31	237.356
1044.93	246.22
1047.56	247.668
1050.18	252.812
1052.81	245.691
1055.43	251.527
1058.05	246.414
1060.67	240.548
1063.28	245.064
1065.9	246.525
1068.52	253.473
1071.13	262.51
1073.74	257.137
1076.35	259.179
1078.96	275.527
1081.57	272.231
1084.18	286.421
1086.79	295.404
1089.39	308.929
1092	326.614
1094.6	326.704
1097.2	313.498
1099.8	299.722
1102.4	277.755
1105	276.515
1107.6	278.107
1110.19	274.805
1112.79	276.357
1115.38	286.941
1117.97	288.184
1120.56	293.018
1123.15	278.946
1125.74	276.44
1128.33	266.9
1130.91	258.656
1133.5	240
1136.08	244.724
1138.66	244.101
1141.24	239.143
1143.82	239.337
1146.4	244.021
1148.98	238.723
1151.55	252.164
1154.13	241.612
1156.7	242.717
1159.27	237.566
1161.85	232.054
1164.42	226.889
1166.98	228.081
1169.55	220.328
1172.12	221.755
1174.68	210.7
1177.25	216.031
1179.81	221.328
1182.37	221.754
1184.93	225.39
1187.49	207.359
1190.05	207.664
1192.6	217.011
1195.16	213.53
1197.71	208.646
1200.27	206.199
1202.82	199.101
1205.37	201.73
1207.92	206.925
1210.47	197.089
1213.01	204.849
1215.56	200.304
1218.1	200.478
1220.65	202.134
1223.19	206.159
1225.73	210.776
1228.27	210.438
1230.81	205.049
1233.35	214.742
1235.88	206.4
1238.42	212.384
1240.95	205.197
1243.48	205.357
1246.02	206.482
1248.55	206.109
1251.07	211.888
1253.6	209.051
1256.13	206.31
1258.66	209.939
1261.18	208.589
1263.7	209.831
1266.22	211.339
1268.75	209.104
1271.27	213.185
1273.78	203.715
1276.3	205.45
1278.82	215.541
1281.33	211.465
1283.85	200.308
1286.36	206.97
1288.87	207.867
1291.38	208.673
1293.89	218.337
1296.4	203.552
1298.9	203.97
1301.41	207.628
1303.91	210.134
1306.41	201.808
1308.92	214.751
1311.42	209.296
1313.92	215.788
1316.42	212.784
1318.91	221.713
1321.41	218.851
1323.9	220.795
1326.4	219.996
1328.89	220.113
1331.38	224.349
1333.87	220.114
1336.36	222.718
1338.85	221.107
1341.34	218.724
1343.82	209.006
1346.31	208.152
1348.79	208.558
1351.27	214.391
1353.75	211.694
1356.23	215.59
1358.71	214.602
1361.19	220.567
1363.66	224.676
1366.14	227.148
1368.61	229.296
1371.09	227.049
1373.56	236.405
1376.03	248.232
1378.5	248.44
1380.96	247.754
1383.43	240.063
1385.9	243.03
1388.36	226.605
1390.83	228.086
1393.29	222.971
1395.75	209.131
1398.21	202.243
1400.67	193.976
1403.13	194.451
1405.58	194.893
1408.04	188.259
1410.49	191.666
1412.95	191.845
1415.4	193.429
1417.85	189.261
1420.3	188.771
1422.75	194.906
1425.2	196.808
1427.64	184.686
1430.09	190.636
1432.53	192.905
1434.97	185.49
1437.42	188.945
1439.86	171.601
1442.3	192.245
1444.73	185.271
1447.17	172.523
1449.61	174.314
1452.04	173.895
1454.48	176.857
1456.91	177.106
1459.34	183.049
1461.77	176.288
1464.2	173.134
1466.63	171.723
1469.06	170.049
1471.48	175.773
1473.91	170.432
1476.33	167.895
1478.75	170.739
1481.17	169.883
1483.6	172.168
1486.01	159.485
1488.43	172.26
1490.85	161.955
1493.27	161.275
1495.68	158.364
1498.09	151.805
1500.51	161.471
1502.92	154.228
1505.33	151.52
1507.74	161.422
1510.14	156.639
1512.55	158.028
1514.96	146.863
1517.36	150.882
1519.77	150.91
1522.17	152.087
1524.57	153.665
1526.97	154.872
1529.37	159.632
1531.77	153.525
1534.16	156.776
1536.56	151.755
1538.95	155.495
1541.35	148.644
1543.74	156.677
1546.13	148.285
1548.52	144.673
1550.91	151.383
1553.3	145.054
1555.68	151.863
1558.07	161.474
1560.45	149.056
1562.84	153.662
1565.22	161.123
1567.6	159.704
1569.98	166.783
1572.36	159.255
1574.74	165.089
1577.12	154.827
1579.49	160.424
1581.87	161.691
1584.24	157.959
1586.61	151.181
1588.98	151.336
1591.35	154.846
1593.72	153.988
1596.09	149.066
1598.46	150.696
1600.82	147.874
1603.19	141.397
1605.55	147.974
1607.92	142.499
1610.28	139.873
1612.64	143.212
1615	145.545
1617.36	143.147
1619.71	141.976
1622.07	136.904
1624.42	140.363
1626.78	131.751
1629.13	130.885
1631.48	135.968
1633.83	133.056
1636.18	131.365
1638.53	133.921
1640.88	136.018
1643.22	135.524
1645.57	134.42
1647.91	132.113
1650.26	126.951
1652.6	132.162
1654.94	124.78
1657.28	133.056
1659.62	139.813
1661.96	131.087
1664.29	126.441
1666.63	125.833
1668.96	125.029
1671.3	123.274
1673.63	125.661
1675.96	121.337
1678.29	127.493
1680.62	127.128
1682.95	125.747
1685.27	121.528
1687.6	122.407
1689.92	123.126
1692.25	126.305
1694.57	131.669
1696.89	124.225
1699.21	125.493
1701.53	128.032
1703.85	120.646
1706.17	120.785
1708.48	123.39
1710.8	118.705
1713.11	124.425
1715.43	121.636
1717.74	128.787
1720.05	117.743
1722.36	123.922
1724.67	119.611
1726.97	120.576
1729.28	123.524
1731.59	119.253
1733.89	115.915
1736.19	120.957
1738.5	117.734
1740.8	115.418
1743.1	115.997
1745.4	115.997
1747.7	118.48
1749.99	117.748
1752.29	102.672
1754.58	116.666
1756.88	109.841
1759.17	109.475
1761.46	116.587
1763.75	105.996
1766.04	106.338
1768.33	109.271
1770.62	116.545
1772.91	108.863
1775.19	108.876
1777.48	110.147
1779.76	107.946
1782.04	105.969
1784.32	111.193
1786.6	103.159
1788.88	108.605
1791.16	110.477
1793.44	104.438
1795.71	105.685
1797.99	105.737
1800.26	105.639
1802.54	104.495
1804.81	102.765
1807.08	105.978
1809.35	103.806
1811.62	101.749
1813.88	100.252
1816.15	101.971
1818.42	106.46
1820.68	101.866
1822.95	102.261
1825.21	97.274
1827.47	95.7407
1829.73	99.1369
1831.99	100.741
1834.25	102.496
1836.51	106.697
1838.76	99.6904
1841.02	95.5461
1843.27	98.7395
1845.52	103.328
1847.78	95.4328
1850.03	96.2891
1852.28	101.367
1854.53	99.7709
1856.78	100.029
1859.02	92.441
1861.27	97.7199
1863.51	97.5087
1865.76	93.2714
1868	94.6423
1870.24	100.991
1872.48	96.554
1874.72	90.3883
1876.96	96.2772
1879.2	96.725
1881.44	101.715
1883.67	94.3356
1885.91	96.4339
1888.14	92.4401
1890.37	88.3611
1892.61	94.8934
1894.84	90.5594
1897.07	94.4552
1899.29	91.0737
1901.52	94.1216
1903.75	105.952
1905.97	97.1219
1908.2	95.5652
1910.42	89.7885
1912.64	92.8188
1914.87	86.6105
1917.09	90.7032
1919.31	89.3813
1921.52	97.2632
1923.74	91.3309
1925.96	88.7548
1928.17	90.7765
1930.39	85.8163
1932.6	88.7801
1934.81	88.3287
1937.03	88.867
1939.24	87.7801
1941.45	91.5511
1943.65	88.4754
1945.86	85.8649
1948.07	86.4952
1950.27	84.3274
1952.48	86.1313
1954.68	86.6987
1956.88	79.6561
1959.08	84.5255
1961.29	82.6963
1963.48	88.7407
1965.68	86.1098
1967.88	79.867
1970.08	88.4431
1972.27	85.6089
1974.47	76.3015
1976.66	84.3217
1978.85	85.7769
1981.04	83.0246
1983.23	79.4631
1985.42	83.6869
1987.61	79.5173
1989.8	79.5602
1991.99	82.9175
1994.17	85.9265
1996.36	75.0366
1998.54	83.5296
2000.72	81.6774
2002.9	81.0573
2005.08	81.4205
2007.26	79.021
2009.44	77.9393
2011.62	76.3066
2013.8	81.2531
2015.97	76.9964
2018.15	82.351
2020.32	81.7814
2022.49	77.2735
2024.66	81.6365
2026.83	76.1264
2029	77.7577
2031.17	76.6643
2033.34	80.6106
2035.51	74.6106
2037.67	76.6611
2039.84	78.4799
2042	72.7559
2044.16	80.702
2046.32	76.1194
2048.48	76.0385
2050.64	75.4798
2052.8	76.7746
2054.96	73.5104
2057.12	69.2221
2059.27	75.5638
2061.43	70.0915
2063.58	74.4655
2065.73	77.6284
2067.89	75.3217
2070.04	74.7217
2072.19	73.4986
2074.34	73.8291
2076.48	70.6386
2078.63	68.5787
2080.78	75.1848
2082.92	72.6654
2085.07	67.4132
2087.21	69.5941
2089.35	70.1071
2091.49	70.4172
2093.63	64.5042
2095.77	71.9373
2097.91	71.0202
2100.05	67.1653
2102.19	66.108
2104.32	69.7828
2106.45	70.1839
2108.59	64.8773
2110.72	69.1054
2112.85	69.0811
2114.98	66.6296
2117.11	71.0267
2119.24	65.6075
2121.37	69.8039
2123.5	65.2221
2125.62	66.5308
2127.75	61.5336
2129.87	67.6819
2131.99	69.8073
2134.11	68.5558
2136.24	65.4248
2138.36	62.1672
2140.47	66.5255
2142.59	63.0858
2144.71	61.2285
2146.83	64.117
2148.94	64.3564
2151.06	62.3813
2153.17	63.8342
2155.28	65.179
2157.39	62.8666
2159.5	60.7228
2161.61	62.3287
2163.72	60.3449
2165.83	67.6466
2167.94	60.2338
2170.04	62.0632
2172.15	62.2641
2174.25	59.6259
2176.35	64.6738
2178.45	61.6669
2180.56	60.6187
2182.66	60.5431
2184.75	64.0737
2186.85	61.3621
2188.95	62.3083
2191.05	57.9974
2193.14	58.7801
2195.24	55.731
2197.33	62.1445
2199.42	59.0354
2201.51	62.7511
2203.6	56.737
2205.69	54.5288
2207.78	58.9122
2209.87	60.3322
2211.96	57.2484
2214.04	60.8832
2216.13	56.2374
2218.21	61.6997
2220.29	57.4046
2222.38	55.612
2224.46	61.8108
2226.54	56.3838
2228.62	55.697
2230.69	58.8634
2232.77	59.3299
2234.85	58.6953
2236.92	52.3834
2239	57.6445
2241.07	59.3356
2243.15	54.7229
2245.22	53.9377
2247.29	53.9928
2249.36	56.1403
2251.43	54.1673
2253.49	57.2772
2255.56	52.9958
2257.63	60.9218
2259.69	54.8952
2261.76	54.7192
2263.82	54.5305
2265.88	52.9999
2267.95	49.9999
2270.01	52.753
2272.07	56.4156
2274.12	53.0015
2276.18	52.2735
2278.24	55.5558
2280.3	53.6868
2282.35	53.5323
2284.41	51.7486
2286.46	51.6378
2288.51	49.9626
2290.56	56.4503
2292.61	49.8804
2294.66	49.0703
2296.71	51.4107
2298.76	49.6845
2300.8	51.033
2302.85	45.407
2304.9	49.6963
2306.94	49.0573
2308.98	51.4402
2311.03	47.2484
2313.07	48.3407
2315.11	48.9531
2317.15	48.8587
2319.19	47.6909
2321.22	47.929
2323.26	48.6153
2325.3	48.6088
2327.33	45.1675
2329.36	45.0036
2331.4	49.4986
2333.43	44.3405
2335.46	49.4385
2337.49	48.2
2339.52	51.8854
2341.55	48.6363
2343.58	46.3898
2345.6	46.7939
2347.63	61.0665
2349.65	49.554
2351.68	46.2453
2353.7	48.7024
2355.72	45.242
2357.74	43.3699
2359.76	43.6738
2361.78	46.1714
2363.8	47.7735
2365.82	45.5152
2367.84	44.0892
2369.85	45.3137
2371.87	43.8112
2373.88	42.076
2375.9	43.6712
2377.91	43.0822
2379.92	40.362
2381.93	45.6024
2383.94	45.7497
2385.95	44.3066
2387.96	47.5909
2389.96	46.7653
2391.97	40.6105
2393.97	44.5459
2395.98	46.2959
2397.98	40.2221
2399.98	43.7793
2401.98	39.6582
2403.99	40.2517
2405.99	44.4937
2407.98	41.1313
2409.98	42.5827
2411.98	42.2186
2413.98	40.205
2415.97	42.7816
2417.96	41.287
2419.96	41.8009
2421.95	40.2314
2423.94	40.5885
2425.93	40.9405
2427.92	42.0027
2429.91	41.1848
2431.9	41.5578
2433.89	35.8585
2435.87	44.0339
2437.86	40.6738
2439.84	37.9935
2441.83	42.6959
2443.81	39.4936
2445.79	39.7344
2447.77	36.427
2449.75	37.9355
2451.73	36.3719
2453.71	42.1929
2455.69	40.0318
2457.67	34.6363
2459.64	39.7905
2461.62	40.407
2463.59	38.1963
2465.56	38.2445
2467.54	38.1848
2469.51	39.4026
2471.48	38.9205
2473.45	36.6797
2475.42	40.1644
2477.38	35.8053
2479.35	36.5545
2481.32	37.9005
2483.28	41.2531
2485.25	38.6595
2487.21	36.1992
2489.17	34.896
2491.13	35.7488
2493.09	36.7486
2495.05	37.2361
2497.01	37.1941
2498.97	37.226
2500.93	40.6938
2502.89	33.8916
2504.84	39.2879
2506.8	33.2003
2508.75	32.9193
2510.7	36.8154
2512.65	33.1406
2514.61	36.7539
2516.56	34.2959
2518.51	34.2352
2520.45	34.8716
2522.4	35.9127
2524.35	31.1599
2526.29	34.5345
2528.24	33.7603
2530.18	32.3564
2532.13	35.2003
2534.07	33.7331
2536.01	32.6623
2537.95	32.5521
2539.89	34.5802
2541.83	30.6035
2543.77	34.1418
2545.71	32.1098
2547.64	34.5798
2549.58	34.1848
2551.51	32.8083
2553.45	34.4949
2555.38	35.0524
2557.31	34.3626
2559.25	33.2272
2561.18	31.9095
2563.11	32.6375
2565.03	31.7323
2566.96	33.6641
2568.89	31.1272
2570.82	30.0139
2572.74	33.3822
2574.67	28.3556
2576.59	33.9473
2578.51	31.6248
2580.43	31.776
2582.36	34.3659
2584.28	35.4153
2586.2	30.0222
2588.11	31.0545
2590.03	30.9431
2591.95	33.2201
2593.86	31.2138
2595.78	31.3977
2597.69	31.7355
2599.61	29.9099
2601.52	32.0466
2603.43	29.8515
2605.34	30.3659
2607.25	33.0819
2609.16	32.5314
2611.07	33.0282
2612.98	29.6109
2614.89	31.5113
2616.79	29.8319
2618.7	29.1684
2620.6	30.1848
2622.5	30.6909
2624.41	32.223
2626.31	29.9799
2628.21	30.963
2630.11	31.606
2632.01	29.3825
2633.91	27.6882
2635.8	31.8322
2637.7	30.8907
2639.6	27.8197
2641.49	29.9487
2643.39	28.2786
2645.28	38.3847
2647.17	42.091
2649.06	43.5484
2650.95	39.5521
2652.84	32.1398
2654.73	34.474
2656.62	32.5345
2658.51	31.2891
2660.4	32.5629
2662.28	31.4933
2664.17	25.7052
2666.05	29.8523
2667.93	37.3033
2669.82	36.9928
2671.7	47.246
2673.58	66.6038
2675.46	79.3817
2677.34	84.0142
2679.21	74.8634
2681.09	59.9711
2682.97	60.0142
2684.84	45.44
2686.72	39.8888
2688.59	43.049
2690.47	62.2747
2692.34	87.7004
2694.21	183.364
2696.08	248.278
2697.95	289.283
2699.82	217.497
2701.69	112.363
2703.56	67.2163
2705.42	59.6855
2707.29	49.6292
2709.15	38.833
2711.02	36.7706
2712.88	30.5618
2714.75	29.511
2716.61	31.5974
2718.47	32.0844
2720.33	28.6466
2722.19	28.5594
2724.05	29.6972
2725.9	27.1824
2727.76	31.254
2729.62	27.896
2731.47	29.3626
2733.33	25.4958
2735.18	28.0707
2737.03	26.8888
2738.88	28.0715
2740.73	25.3327
2742.59	26.8585
2744.43	27.2305
2746.28	29.1449
2748.13	22.4995
2749.98	23.5974
2751.82	27.0889
2753.67	25.792
2755.51	23.6456
2757.36	23.5966
2759.2	25.6139
2761.04	22.8597
2762.88	20.3564
