365.286	294.376
368.238	298.547
371.189	309.233
374.139	323.547
377.087	345.323
380.034	347.352
382.979	346.053
385.923	321.361
388.866	313.087
391.806	300.606
394.745	295.89
397.684	296.004
400.62	306.052
403.555	313.373
406.49	327.095
409.421	321.2
412.353	332.791
415.282	336.441
418.209	338.609
421.137	347.27
424.062	348.523
426.985	364.939
429.908	388.717
432.829	403.419
435.748	398.966
438.666	387.72
441.583	363.567
444.498	348.783
447.412	335.151
450.324	314.855
453.235	325.379
456.145	306.694
459.052	314.262
461.959	294.766
464.865	290.163
467.769	266.027
470.671	270.316
473.572	265.451
476.471	259.777
479.37	261.912
482.266	261.212
485.162	268.09
488.056	256.94
490.948	257.437
493.839	258.073
496.73	265.571
499.618	268.789
502.505	263.695
505.39	266.829
508.275	269.795
511.157	266.087
514.039	262.42
516.919	261.174
519.798	271.411
522.674	266.14
525.55	253.642
528.425	247.983
531.297	246.68
534.169	244.139
537.039	237.726
539.908	228.204
542.775	227.36
545.642	232.027
548.506	234.369
551.369	228.343
554.231	233.94
557.092	238.132
559.951	228.712
562.808	244.593
565.664	233.88
568.519	234.038
571.373	231.924
574.225	252.311
577.076	241.976
579.925	224.773
582.773	229.502
585.62	233.879
588.466	226.78
591.309	227.571
594.152	231.055
596.993	227.109
599.832	227.718
602.671	233.434
605.508	229.94
608.343	229.448
611.178	233.004
614.011	226.387
616.842	235.165
619.672	236.557
622.501	237.56
625.329	245.992
628.155	257.628
630.98	264.943
633.802	268.865
636.624	270.29
639.445	259.027
642.264	250.214
645.082	254.441
647.898	263.754
650.714	273.112
653.527	281.494
656.34	293.117
659.151	284.161
661.961	277.356
664.769	255.226
667.576	237.101
670.382	232.18
673.186	229.132
675.989	218.769
678.791	219.677
681.591	212.349
684.39	212.835
687.187	221.246
689.983	227.103
692.779	228.218
695.572	226.395
698.363	227.821
701.155	240.635
703.944	228.903
706.733	224.493
709.519	229.76
712.305	238.619
715.089	232.474
717.871	232.791
720.653	240.174
723.433	228.166
726.212	229.999
728.989	219.324
731.765	227.228
734.54	223.315
737.313	219.966
740.085	220.644
742.856	218.671
745.625	225.912
748.394	218.348
751.16	216.396
753.926	218.107
756.689	219.373
759.452	218.329
762.214	230.733
764.974	233.039
767.733	225.322
770.49	227.558
773.246	223.844
776.001	225.058
778.755	230.112
781.507	232.804
784.258	226.917
787.007	232.3
789.756	237.596
792.502	226.196
795.247	228.239
797.992	237.658
800.735	233.844
803.477	240.567
806.217	242.573
808.956	250.793
811.694	252.706
814.43	258.92
817.165	258.724
819.899	255.946
822.631	245.811
825.362	232.337
828.092	230.863
830.82	225.164
833.548	227.629
836.274	233.354
838.998	234.577
841.721	239.791
844.444	240.72
847.165	228.391
849.884	218.401
852.601	217.968
855.318	216.224
858.034	208.738
860.749	212.067
863.461	210.609
866.173	214.345
868.883	210.343
871.592	206.573
874.3	201.391
877.006	203.178
879.712	206.454
882.415	205.844
885.118	209.302
887.819	209.472
890.519	204.552
893.218	209.625
895.914	209.996
898.611	215.934
901.306	217.302
903.999	208.755
906.692	215.266
909.382	210.33
912.072	214.523
914.761	208.939
917.447	209.266
920.133	207.063
922.818	197.183
925.501	198.217
928.183	203.543
930.864	196.863
933.543	201.004
936.221	206.573
938.898	194.232
941.574	206.128
944.248	205.554
946.921	192.564
949.593	193.184
952.263	203.902
954.932	203.338
957.6	203.488
960.267	212.559
962.932	223.041
965.597	211.668
968.26	218.867
970.922	215.56
973.581	228.583
976.241	237.282
978.898	241.928
981.555	266.136
984.21	291.084
986.864	325.939
989.517	357.802
992.169	408.197
994.819	448.957
997.468	508.569
1000.12	544.814
1002.76	588.383
1005.41	614.828
1008.05	601.068
1010.69	576.737
1013.34	517.779
1015.98	432.8
1018.61	365.653
1021.25	305.115
1023.89	269.108
1026.52	250.745
1029.16	243.739
1031.79	249.78
1034.42	247.509
1037.05	241.165
1039.68	255.399
1042.31	254.893
1044.93	286.789
1047.56	313.276
1050.18	315.361
1052.81	302.237
1055.43	286.983
1058.05	261.009
1060.67	259.128
1063.28	246.011
1065.9	245.214
1068.52	251.956
1071.13	262.551
1073.74	267.718
1076.35	282.339
1078.96	291.769
1081.57	306.467
1084.18	312.295
1086.79	316.351
1089.39	319.676
1092	324.75
1094.6	343.377
1097.2	334.257
1099.8	318.96
1102.4	307.19
1105	285.017
1107.6	292.022
1110.19	301.043
1112.79	308.104
1115.38	321.373
1117.97	332.052
1120.56	311.267
1123.15	302.697
1125.74	307.835
1128.33	290.03
1130.91	283.416
1133.5	258.724
1136.08	240.742
1138.66	240.553
1141.24	235.729
1143.82	233.233
1146.4	231.472
1148.98	245.055
1151.55	248.521
1154.13	248.577
1156.7	239.186
1159.27	238.123
1161.85	235.52
1164.42	233.769
1166.98	232.904
1169.55	225.178
1172.12	230.087
1174.68	225.349
1177.25	207.682
1179.81	219.512
1182.37	213.564
1184.93	206.301
1187.49	209.822
1190.05	203.344
1192.6	197.188
1195.16	197.311
1197.71	191.067
1200.27	194.069
1202.82	195.849
1205.37	182.775
1207.92	183.897
1210.47	188.516
1213.01	184.41
1215.56	184.706
1218.1	181.533
1220.65	183.979
1223.19	194.437
1225.73	195.916
1228.27	194.436
1230.81	191.385
1233.35	194.373
1235.88	197.831
1238.42	191.934
1240.95	200.414
1243.48	189.509
1246.02	194.311
1248.55	195.128
1251.07	188.301
1253.6	186.674
1256.13	195.129
1258.66	189.954
1261.18	191.415
1263.7	192.892
1266.22	186.285
1268.75	194.809
1271.27	192.434
1273.78	204.934
1276.3	205.35
1278.82	207.182
1281.33	206.755
1283.85	197.974
1286.36	206.605
1288.87	217.978
1291.38	215.262
1293.89	219.844
1296.4	220.907
1298.9	218.784
1301.41	208.361
1303.91	211.645
1306.41	205.277
1308.92	206.719
1311.42	212.965
1313.92	203.77
1316.42	205.01
1318.91	214.611
1321.41	213.133
1323.9	213.793
1326.4	215.011
1328.89	223.925
1331.38	221.065
1333.87	226.706
1336.36	228.557
1338.85	211.275
1341.34	229.843
1343.82	225.003
1346.31	226.079
1348.79	227.017
1351.27	228.5
1353.75	222.706
1356.23	231.627
1358.71	223.922
1361.19	245.946
1363.66	248.313
1366.14	251.318
1368.61	260.49
1371.09	271.885
1373.56	278.946
1376.03	286.786
1378.5	293.032
1380.96	301.294
1383.43	301.927
1385.9	287.385
1388.36	276.656
1390.83	253.867
1393.29	241.816
1395.75	227.858
1398.21	216.184
1400.67	206.41
1403.13	213.664
1405.58	196.33
1408.04	195.947
1410.49	192.067
1412.95	201.934
1415.4	195.704
1417.85	192.406
1420.3	196.267
1422.75	190.01
1425.2	200.231
1427.64	206.11
1430.09	201.101
1432.53	208.026
1434.97	201.497
1437.42	201.128
1439.86	197.534
1442.3	193.72
1444.73	181.797
1447.17	174.85
1449.61	183.838
1452.04	170.928
1454.48	176.126
1456.91	168.198
1459.34	168.706
1461.77	171.1
1464.2	160.1
1466.63	166.803
1469.06	169.547
1471.48	171.646
1473.91	162.978
1476.33	162.36
1478.75	155.368
1481.17	161.072
1483.6	160.387
1486.01	160.373
1488.43	148.405
1490.85	144.755
1493.27	141.775
1495.68	140.902
1498.09	147.876
1500.51	140.582
1502.92	150.767
1505.33	147.101
1507.74	143.922
1510.14	146.632
1512.55	147.761
1514.96	140.918
1517.36	149.032
1519.77	143.142
1522.17	147.003
1524.57	143.663
1526.97	148.898
1529.37	161.087
1531.77	157.467
1534.16	158.71
1536.56	155.331
1538.95	158.194
1541.35	155.044
1543.74	155.115
1546.13	167.817
1548.52	178.395
1550.91	163.412
1553.3	165.172
1555.68	170.377
1558.07	172.373
1560.45	171.992
1562.84	166.712
1565.22	181.853
1567.6	187.208
1569.98	191.92
1572.36	204.534
1574.74	194.96
1577.12	205.086
1579.49	189.496
1581.87	186.707
1584.24	185.237
1586.61	183.497
1588.98	178.742
1591.35	177.969
1593.72	181.406
1596.09	176.376
1598.46	170.318
1600.82	165.289
1603.19	164.216
1605.55	161.343
1607.92	153.798
1610.28	145.652
1612.64	134.849
1615	142.739
1617.36	139.18
1619.71	137.605
1622.07	135.162
1624.42	131.21
1626.78	131.213
1629.13	126.556
1631.48	133.493
1633.83	129.438
1636.18	125.667
1638.53	117.903
1640.88	125.082
1643.22	118.153
1645.57	126.071
1647.91	121.767
1650.26	121.638
1652.6	119.743
1654.94	123.501
1657.28	117.966
1659.62	118.887
1661.96	118.835
1664.29	115.173
1666.63	113.398
1668.96	113.842
1671.3	111.275
1673.63	112.062
1675.96	111.433
1678.29	109.589
1680.62	113.313
1682.95	109.063
1685.27	111.613
1687.6	110.134
1689.92	112.892
1692.25	107.793
1694.57	103.427
1696.89	114.294
1699.21	110.833
1701.53	105.365
1703.85	106.551
1706.17	109.118
1708.48	109.914
1710.8	106.169
1713.11	103.538
1715.43	105.259
1717.74	107.468
1720.05	103.595
1722.36	102.668
1724.67	103.515
1726.97	100.966
1729.28	99.3304
1731.59	101.855
1733.89	103.521
1736.19	99.3566
1738.5	100.656
1740.8	96.0191
1743.1	100.889
1745.4	97.3155
1747.7	94.62
1749.99	101.363
1752.29	98.0382
1754.58	99.2222
1756.88	94.0761
1759.17	89.6444
1761.46	94.0596
1763.75	92.3957
1766.04	93.2792
1768.33	91.4162
1770.62	86.2241
1772.91	95.6331
1775.19	95.0347
1777.48	95.4296
1779.76	93.5445
1782.04	91.6636
1784.32	94.7252
1786.6	84.521
1788.88	85.9414
1791.16	87.5169
1793.44	88.8411
1795.71	85.8107
1797.99	92.2454
1800.26	88.6049
1802.54	84.4595
1804.81	86.384
1807.08	85.1364
1809.35	83.9822
1811.62	85.9718
1813.88	87.3363
1816.15	87.4819
1818.42	85.3662
1820.68	84.7122
1822.95	80.9533
1825.21	82.5089
1827.47	77.6049
1829.73	82.8841
1831.99	80.589
1834.25	83.0151
1836.51	87.521
1838.76	82.5898
1841.02	82.0437
1843.27	83.3903
1845.52	87.703
1847.78	85.7618
1850.03	81.8195
1852.28	82.5862
1854.53	83.76
1856.78	82.62
1859.02	76.0645
1861.27	82.5972
1863.51	80.9121
1865.76	80.1681
1868	78.5033
1870.24	81.7406
1872.48	83.2447
1874.72	85.432
1876.96	84.0505
1879.2	79.2252
1881.44	80.9142
1883.67	80.1122
1885.91	85.3697
1888.14	77.0525
1890.37	83.3344
1892.61	75.2193
1894.84	77.9557
1897.07	78.5574
1899.29	78.2112
1901.52	82.9889
1903.75	78.3045
1905.97	79.7247
1908.2	74.5396
1910.42	74.0507
1912.64	75.2233
1914.87	77.4453
1917.09	76.1981
1919.31	71.7629
1921.52	71.9615
1923.74	75.3858
1925.96	74.6489
1928.17	74.6322
1930.39	73.5218
1932.6	74.4204
1934.81	77.3517
1937.03	75.2163
1939.24	75.0725
1941.45	76.128
1943.65	78.0944
1945.86	73.2551
1948.07	73.9383
1950.27	75.1636
1952.48	75.8271
1954.68	76.5218
1956.88	66.8422
1959.08	75.9383
1961.29	76.3848
1963.48	69.5302
1965.68	73.3726
1967.88	75.4773
1970.08	72.5267
1972.27	73.9163
1974.47	71.4331
1976.66	71.8907
1978.85	71.366
1981.04	70.8128
1983.23	70.7537
1985.42	69.497
1987.61	70.4938
1989.8	60.8841
1991.99	71.8805
1994.17	70.4819
1996.36	69.9047
1998.54	70.5388
2000.72	72.7618
2002.9	65.0785
2005.08	66.4669
2007.26	66.4595
2009.44	67.8992
2011.62	68.8794
2013.8	68.7173
2015.97	68.1618
2018.15	69.7247
2020.32	66.128
2022.49	65.5788
2024.66	64.1458
2026.83	69.829
2029	66.9778
2031.17	68.339
2033.34	66.62
2035.51	68.1262
2037.67	62.5463
2039.84	65.2233
2042	68.0396
2044.16	67.2214
2046.32	63.1262
2048.48	69.0507
2050.64	65.1122
2052.8	63.2729
2054.96	65.7992
2057.12	67.1
2059.27	65.0962
2061.43	63.2044
2063.58	65.7255
2065.73	58.1315
2067.89	61.4331
2070.04	62.3978
2072.19	67.9762
2074.34	59.0011
2076.48	65.1315
2078.63	58.0253
2080.78	62.521
2082.92	59.5574
2085.07	59.2867
2087.21	60.1
2089.35	64.0459
2091.49	60.4949
2093.63	60.4277
2095.77	61.2747
2097.91	60.6444
2100.05	59.6619
2102.19	57.2112
2104.32	58.521
2106.45	59.7807
2108.59	56.9759
2110.72	57.1122
2112.85	55.4722
2114.98	57.0514
2117.11	56.1122
2119.24	61.4455
2121.37	59.3858
2123.5	59.4697
2125.62	57.8031
2127.75	56.3344
2129.87	56.1485
2131.99	55.9414
2134.11	60.1062
2136.24	60.2325
2138.36	57.1979
2140.47	58.7796
2142.59	60.0225
2144.71	53.7489
2146.83	54.8125
2148.94	59.2729
2151.06	52.3681
2153.17	52.4951
2155.28	55.9142
2157.39	56.8366
2159.5	54.0525
2161.61	55.1382
2163.72	47.8282
2165.83	56.497
2167.94	54.2233
2170.04	55.1019
2172.15	52.2475
2174.25	52.3547
2176.35	51.5445
2178.45	56.4548
2180.56	55.7179
2182.66	51.8981
2184.75	50.5333
2186.85	46.5808
2188.95	50.3978
2191.05	54.7929
2193.14	56.3363
2195.24	49.1699
2197.33	49.7524
2199.42	50.7537
2201.51	55.1122
2203.6	53.0169
2205.69	52.9778
2207.78	57.8648
2209.87	50.9889
2211.96	51.2475
2214.04	53.2697
2216.13	54.7489
2218.21	55.0581
2220.29	51.9889
2222.38	54.1
2224.46	49.8303
2226.54	53.4455
2228.62	51.2829
2230.69	52.4334
2232.77	48.6518
2234.85	49.5566
2236.92	46.2475
2239	50.4911
2241.07	46.7489
2243.15	51.497
2245.22	48.4156
2247.29	47.4397
2249.36	44.4697
2251.43	47.3858
2253.49	43.3586
2255.56	48.087
2257.63	42.087
2259.69	45.7789
2261.76	48.6144
2263.82	45.1458
2265.88	44.6081
2267.95	45.7173
2270.01	41.2729
2272.07	41.1485
2274.12	45.1
2276.18	45.1877
2278.24	47.3858
2280.3	45.6919
2282.35	43.6518
2284.41	42.6015
2286.46	43.0889
2288.51	35.8648
2290.56	39.087
2292.61	42.3848
2294.66	36.8152
2296.71	39.4463
2298.76	38.087
2300.8	47.8449
2302.85	44.9759
2304.9	42.0169
2306.94	43.128
2308.98	46.4773
2311.03	40.1364
2313.07	43.8551
2315.11	40.5566
2317.15	43.593
2319.19	41.9851
2321.22	43.8284
2323.26	42.1523
2325.3	44.8284
2327.33	40.4819
2329.36	37.6081
2331.4	42.8031
2333.43	41.0766
2335.46	36.9889
2337.49	40.6556
2339.52	39.2597
2341.55	43.3045
2343.58	37.1485
2345.6	44.5808
2347.63	52.2985
2349.65	40.7947
2351.68	39.8031
2353.7	37.89
2355.72	38.5445
2357.74	39.1625
2359.76	38.6685
2361.78	37.6919
2363.8	38.3921
2365.82	38.8648
2367.84	37.366
2369.85	35.4296
2371.87	34.0766
2373.88	39.3858
2375.9	39.1981
2377.91	37.1458
2379.92	36.1122
2381.93	35.2475
2383.94	36.8152
2385.95	35.3045
2387.96	35.9263
2389.96	37.7041
2391.97	38.4352
2393.97	36.4819
2395.98	38.5566
2397.98	43.295
2399.98	36.2747
2401.98	34.1262
2403.99	35.7311
2405.99	35.5452
2407.98	37.384
2409.98	33.9759
2411.98	36.62
2413.98	36.7555
2415.97	34.7537
2417.96	32.5445
2419.96	33.2755
2421.95	39.7133
2423.94	34.4951
2425.93	32.5267
2427.92	33.5808
2429.91	35.1981
2431.9	34.5388
2433.89	29.6574
2435.87	33.5706
2437.86	32.7796
2439.84	36.1981
2441.83	32.9711
2443.81	33.4222
2445.79	35.7667
2447.77	33.6426
2449.75	31.9889
2451.73	30.8648
2453.71	32.3586
2455.69	28.7041
2457.67	32.2747
2459.64	31.2475
2461.62	33.7667
2463.59	30.7807
2465.56	33.7059
2467.54	31.0507
2469.51	30.7041
2471.48	32.7173
2473.45	32.3092
2475.42	35.0374
2477.38	32.5315
2479.35	31.8292
2481.32	30.6426
2483.28	34.4951
2485.25	29.8907
2487.21	28.3708
2489.17	32.9759
2491.13	30.5808
2493.09	27.113
2495.05	31.1102
2497.01	28.4819
2498.97	32.4222
2500.93	30.0253
2502.89	30.9396
2504.84	29.2
2506.8	29.7059
2508.75	31.8648
2510.7	29.1625
2512.65	29.5827
2514.61	31.9396
2516.56	33.9403
2518.51	28.9263
2520.45	26.0374
2522.4	27.8646
2524.35	30.0374
2526.29	29.7059
2528.24	31.2475
2530.18	26.0151
2532.13	28.9655
2534.07	29.89
2536.01	27.128
2537.95	31.9396
2539.89	29.9655
2541.83	27.0253
2543.77	27.4697
2545.71	30.5315
2547.64	30.2233
2549.58	29.0645
2551.51	28.9973
2553.45	26.3092
2555.38	31.7041
2557.31	27.4819
2559.25	27.8648
2561.18	24.4222
2563.11	27.9759
2565.03	27.6426
2566.96	27.9263
2568.89	26.9403
2570.82	28.7041
2572.74	27.2112
2574.67	27.4697
2576.59	22.087
2578.51	28.4857
2580.43	27.0507
2582.36	25.6556
2584.28	25.4204
2586.2	27.8648
2588.11	25.4455
2590.03	26.5333
2591.95	24.7555
2593.86	28.8554
2595.78	29.8152
2597.69	23.5333
2599.61	31.3586
2601.52	25.5808
2603.43	25.3223
2605.34	25.8171
2607.25	25.0253
2609.16	29.0253
2611.07	26.1485
2612.98	25.9142
2614.89	25.6088
2616.79	28.1364
2618.7	26.9396
2620.6	26.2
2622.5	27.9778
2624.41	27.5808
2626.31	30.8285
2628.21	29.4341
2630.11	28.5315
2632.01	24.607
2633.91	26.8786
2635.8	28.6444
2637.7	25.3092
2639.6	25.7192
2641.49	26.2597
2643.39	31.323
2645.28	35.5808
2647.17	39.3708
2649.06	36.2729
2650.95	34.323
2652.84	29.4819
2654.73	31.8926
2656.62	28.2475
2658.51	26.4697
2660.4	25.1364
2662.28	32.635
2664.17	28.7789
2666.05	27.2
2667.93	31.7537
2669.82	37.8152
2671.7	49.087
2673.58	68.8152
2675.46	81.86
2677.34	86.497
2679.21	65.3586
2681.09	58.5267
2682.97	53.4204
2684.84	47.904
2686.72	41.7181
2688.59	47.087
2690.47	69.5808
2692.34	92.664
2694.21	245.719
2696.08	337.836
2697.95	338.581
2699.82	230.98
2701.69	111.087
2703.56	67.4951
2705.42	64.1896
2707.29	49.3681
2709.15	38.1981
2711.02	31.8031
2712.88	30.2475
2714.75	31.5315
2716.61	29.9897
2718.47	28.1981
2720.33	25.0889
2722.19	29.7537
2724.05	25.7433
2725.9	26.8031
2727.76	20.6836
2729.62	27.113
2731.47	25.9263
2733.33	24.7489
2735.18	25.9759
2737.03	27.0253
2738.88	21.9759
2740.73	23.607
2742.59	21.3708
2744.43	21.7041
2746.28	23.0889
2748.13	21.8648
2749.98	17.9142
2751.82	21.5315
2753.67	21.1981
2755.51	21.4697
2757.36	21.8152
2759.2	21.2597
2761.04	19.4819
2762.88	18.9897
