365.286	299.867
368.238	305.837
371.189	308.733
374.139	325.885
377.087	340.281
380.034	347.249
382.979	341.005
385.923	318.737
388.866	318.626
391.806	309.887
394.745	307.999
397.684	313.182
400.62	317.609
403.555	325.229
406.49	325.089
409.421	330.442
412.353	325.252
415.282	340.69
418.209	330.967
421.137	336.819
424.062	352.754
426.985	358.304
429.908	372.206
432.829	366.899
435.748	384.404
438.666	359.097
441.583	347.486
444.498	337.819
447.412	335.197
450.324	324.972
453.235	326.287
456.145	314.43
459.052	314.149
461.959	292.369
464.865	290.438
467.769	277.515
470.671	282.065
473.572	271.442
476.471	268.786
479.37	274.945
482.266	271.801
485.162	262.364
488.056	270.59
490.948	271.954
493.839	270.311
496.73	271.664
499.618	274.022
502.505	276.039
505.39	272.689
508.275	271.093
511.157	273.701
514.039	275.5
516.919	276.059
519.798	282.323
522.674	267.633
525.55	261.078
528.425	263.725
531.297	263.074
534.169	258.344
537.039	263.923
539.908	266.276
542.775	261.933
545.642	265.94
548.506	258.553
551.369	257.18
554.231	257.749
557.092	251.809
559.951	262.167
562.808	257.822
565.664	264.611
568.519	261.777
571.373	263.2
574.225	258.589
577.076	265.118
579.925	252.552
582.773	261.368
585.62	260.071
588.466	252.711
591.309	264.609
594.152	253.93
596.993	248.357
599.832	262.922
602.671	252.133
605.508	255.578
608.343	255.435
611.178	250.486
614.011	261.789
616.842	261.396
619.672	275.344
622.501	265.408
625.329	276.197
628.155	282.097
630.98	292.05
633.802	300.967
636.624	300.231
639.445	285.386
642.264	284.842
645.082	286.924
647.898	286.389
650.714	294.2
653.527	313.582
656.34	320.026
659.151	335.816
661.961	334.789
664.769	307.126
667.576	295.885
670.382	283.234
673.186	259.227
675.989	265.337
678.791	261.441
681.591	248.57
684.39	258.595
687.187	257.44
689.983	272.052
692.779	288.037
695.572	276.279
698.363	281.318
701.155	292.356
703.944	294.956
706.733	298.127
709.519	284.053
712.305	275.356
715.089	276.142
717.871	266.323
720.653	283.155
723.433	263.848
726.212	275.57
728.989	262.016
731.765	275.126
734.54	257.016
737.313	268.708
740.085	268.135
742.856	262.404
745.625	260.823
748.394	266.227
751.16	276.669
753.926	277.276
756.689	272.106
759.452	268.783
762.214	271.93
764.974	273.798
767.733	281.056
770.49	272.278
773.246	274.119
776.001	268.77
778.755	270.888
781.507	271.148
784.258	273.829
787.007	271.86
789.756	287.778
792.502	287.372
795.247	282.865
797.992	281.692
800.735	279.942
803.477	290.552
806.217	290.378
808.956	295.722
811.694	311.007
814.43	322.748
817.165	328.733
819.899	326.672
822.631	318.518
825.362	310.892
828.092	292.888
830.82	286.816
833.548	279.464
836.274	273.2
838.998	287.46
841.721	302.11
844.444	289.226
847.165	281.108
849.884	278.25
852.601	261.608
855.318	262.438
858.034	265.741
860.749	256.422
863.461	254.711
866.173	261.843
868.883	262.516
871.592	264.819
874.3	258.9
877.006	255.78
879.712	259.492
882.415	246.323
885.118	256.253
887.819	256.29
890.519	249.627
893.218	259.515
895.914	257.809
898.611	248.797
901.306	253.748
903.999	255.097
906.692	256.976
909.382	259.029
912.072	253.649
914.761	246.6
917.447	247.927
920.133	250.312
922.818	258.001
925.501	250.664
928.183	249.945
930.864	249.775
933.543	247.287
936.221	248.508
938.898	242.224
941.574	253.426
944.248	247.111
946.921	249.109
949.593	244.442
952.263	249.99
954.932	237.144
957.6	241.222
960.267	242.754
962.932	251.711
965.597	255.471
968.26	253.422
970.922	252.462
973.581	263.192
976.241	274.304
978.898	273.922
981.555	302.629
984.21	338.296
986.864	372.565
989.517	408.982
992.169	460.572
994.819	482.772
997.468	535.67
1000.12	584.886
1002.76	636.128
1005.41	661.663
1008.05	684.081
1010.69	673.44
1013.34	611.519
1015.98	518.555
1018.61	428.778
1021.25	368.04
1023.89	321.949
1026.52	291.822
1029.16	296.008
1031.79	286.444
1034.42	283.949
1037.05	288.901
1039.68	293.079
1042.31	303.538
1044.93	327.737
1047.56	342.534
1050.18	348.171
1052.81	354.411
1055.43	333.644
1058.05	318.754
1060.67	305.287
1063.28	299.045
1065.9	290.144
1068.52	299.03
1071.13	305.467
1073.74	319.194
1076.35	333.919
1078.96	344.009
1081.57	357.746
1084.18	360.754
1086.79	371.138
1089.39	373.186
1092	388.562
1094.6	379.405
1097.2	380.042
1099.8	369.282
1102.4	356.109
1105	352.853
1107.6	343.001
1110.19	354.09
1112.79	369.659
1115.38	385.361
1117.97	389.601
1120.56	387.879
1123.15	392.827
1125.74	373.16
1128.33	359.511
1130.91	344.72
1133.5	328.428
1136.08	319.756
1138.66	315.119
1141.24	305.482
1143.82	308.953
1146.4	296.16
1148.98	309.582
1151.55	316.849
1154.13	322.72
1156.7	325.997
1159.27	315.848
1161.85	315.976
1164.42	304.13
1166.98	311.137
1169.55	300.516
1172.12	303.763
1174.68	305.012
1177.25	287.754
1179.81	278.353
1182.37	284.457
1184.93	281.277
1187.49	280.894
1190.05	268.444
1192.6	272.796
1195.16	272.79
1197.71	266.05
1200.27	264.789
1202.82	264.039
1205.37	260.22
1207.92	265.705
1210.47	258.068
1213.01	268.09
1215.56	266.605
1218.1	268.513
1220.65	275.049
1223.19	277.527
1225.73	283.853
1228.27	286.453
1230.81	296.631
1233.35	292.605
1235.88	281.901
1238.42	291.123
1240.95	283.249
1243.48	284.106
1246.02	286.09
1248.55	279.141
1251.07	289.564
1253.6	267.79
1256.13	277.186
1258.66	277.264
1261.18	272.378
1263.7	271.235
1266.22	274.882
1268.75	273.446
1271.27	278.882
1273.78	277.797
1276.3	283.087
1278.82	280.135
1281.33	281.626
1283.85	278.841
1286.36	286.539
1288.87	294.475
1291.38	288.777
1293.89	294.726
1296.4	290.894
1298.9	287.742
1301.41	285.252
1303.91	291.761
1306.41	292.886
1308.92	291.306
1311.42	285.648
1313.92	289.498
1316.42	284.692
1318.91	287.948
1321.41	278.775
1323.9	278.108
1326.4	289.263
1328.89	291.997
1331.38	287.519
1333.87	284.804
1336.36	293.971
1338.85	292.877
1341.34	291.442
1343.82	284.039
1346.31	287.802
1348.79	289.746
1351.27	293.957
1353.75	287.86
1356.23	305.627
1358.71	306.104
1361.19	320.075
1363.66	319.632
1366.14	322.816
1368.61	337.242
1371.09	337.464
1373.56	358.728
1376.03	360.742
1378.5	372.879
1380.96	357.816
1383.43	361.116
1385.9	354.749
1388.36	344.509
1390.83	338.464
1393.29	308.36
1395.75	293.215
1398.21	283.749
1400.67	280.938
1403.13	265.524
1405.58	259.499
1408.04	262.081
1410.49	260.402
1412.95	265.422
1415.4	266.164
1417.85	261.12
1420.3	252.657
1422.75	260.565
1425.2	267.993
1427.64	261.664
1430.09	262.104
1432.53	270.457
1434.97	272.91
1437.42	266.099
1439.86	264.323
1442.3	250.531
1444.73	251.963
1447.17	246.186
1449.61	238.012
1452.04	240.705
1454.48	242.586
1456.91	245.746
1459.34	238.027
1461.77	238.957
1464.2	235.34
1466.63	235.116
1469.06	229.372
1471.48	229.563
1473.91	236.305
1476.33	230.679
1478.75	228.701
1481.17	231.408
1483.6	228.464
1486.01	223.693
1488.43	216.901
1490.85	219.549
1493.27	221.579
1495.68	217.341
1498.09	216.247
1500.51	216.323
1502.92	218.853
1505.33	218.283
1507.74	218.153
1510.14	210.693
1512.55	217.4
1514.96	220.853
1517.36	218.431
1519.77	219.402
1522.17	218.65
1524.57	227.302
1526.97	232.464
1529.37	222.494
1531.77	230.404
1534.16	228.942
1536.56	239.274
1538.95	239.905
1541.35	242.771
1543.74	245.976
1546.13	253.253
1548.52	255.913
1550.91	257.561
1553.3	258.871
1555.68	254.644
1558.07	246.438
1560.45	242.76
1562.84	264.257
1565.22	258.993
1567.6	274.529
1569.98	273.019
1572.36	287.993
1574.74	281.771
1577.12	286.159
1579.49	282.609
1581.87	277.734
1584.24	278.951
1586.61	274.023
1588.98	269.401
1591.35	263.194
1593.72	260.393
1596.09	258.787
1598.46	248.087
1600.82	243.985
1603.19	242.078
1605.55	228.857
1607.92	231.69
1610.28	228.359
1612.64	218.964
1615	226.972
1617.36	220.882
1619.71	226.02
1622.07	208.371
1624.42	206.648
1626.78	205.819
1629.13	199.519
1631.48	192.408
1633.83	201.915
1636.18	194.62
1638.53	191.369
1640.88	190.375
1643.22	181.734
1645.57	188.342
1647.91	180.568
1650.26	185.564
1652.6	183.275
1654.94	183.123
1657.28	180.549
1659.62	180.752
1661.96	181.299
1664.29	173.485
1666.63	175.055
1668.96	171.159
1671.3	166.408
1673.63	168.797
1675.96	171.771
1678.29	166.36
1680.62	167.844
1682.95	165.606
1685.27	166.915
1687.6	163.853
1689.92	165.593
1692.25	165.438
1694.57	168.36
1696.89	154.212
1699.21	158.123
1701.53	165.768
1703.85	159.565
1706.17	159.705
1708.48	158.786
1710.8	165.094
1713.11	158.775
1715.43	160.071
1717.74	158.262
1720.05	156.482
1722.36	155.901
1724.67	150.244
1726.97	156.411
1729.28	160.356
1731.59	157.868
1733.89	156.631
1736.19	154.761
1738.5	155.964
1740.8	156.49
1743.1	150.024
1745.4	150.734
1747.7	154.575
1749.99	152.938
1752.29	146.819
1754.58	150.124
1756.88	152.247
1759.17	149.276
1761.46	149.934
1763.75	143.471
1766.04	143.848
1768.33	144.879
1770.62	146.73
1772.91	142.681
1775.19	148.505
1777.48	147.499
1779.76	138.866
1782.04	144.941
1784.32	142.171
1786.6	147.745
1788.88	146.725
1791.16	142.678
1793.44	146.862
1795.71	145.539
1797.99	143.297
1800.26	142.162
1802.54	147.331
1804.81	144.457
1807.08	134.821
1809.35	134.804
1811.62	142.802
1813.88	139.573
1816.15	139.582
1818.42	137.261
1820.68	135.909
1822.95	135.42
1825.21	137.846
1827.47	134.059
1829.73	134.019
1831.99	135.396
1834.25	132.853
1836.51	131.579
1838.76	135.555
1841.02	136.043
1843.27	123.03
1845.52	120.852
1847.78	131.472
1850.03	132.127
1852.28	129.574
1854.53	131.186
1856.78	131.652
1859.02	125.401
1861.27	131.968
1863.51	125.634
1865.76	129.104
1868	126.571
1870.24	121.434
1872.48	125.171
1874.72	126.852
1876.96	127.657
1879.2	129.426
1881.44	126.191
1883.67	132.457
1885.91	127.976
1888.14	124.778
1890.37	128.628
1892.61	122.905
1894.84	119.394
1897.07	119.432
1899.29	119.411
1901.52	120.371
1903.75	129.134
1905.97	126.819
1908.2	122.879
1910.42	123.706
1912.64	123.397
1914.87	118.533
1917.09	125.79
1919.31	126.028
1921.52	125.884
1923.74	121.323
1925.96	121.531
1928.17	119.745
1930.39	125.683
1932.6	121.683
1934.81	123.023
1937.03	122.661
1939.24	126.742
1941.45	118.232
1943.65	124.241
1945.86	121.901
1948.07	121.346
1950.27	121.742
1952.48	120.401
1954.68	118.517
1956.88	118.137
1959.08	119.775
1961.29	118.315
1963.48	118.52
1965.68	115.69
1967.88	121.863
1970.08	116.594
1972.27	117.609
1974.47	123.85
1976.66	117.179
1978.85	121.39
1981.04	120.968
1983.23	116.028
1985.42	123.406
1987.61	115.131
1989.8	117.942
1991.99	121.29
1994.17	116.41
1996.36	113.882
1998.54	117.364
2000.72	113.582
2002.9	112.79
2005.08	119.886
2007.26	115.725
2009.44	113.287
2011.62	110.356
2013.8	120.105
2015.97	115.804
2018.15	112.949
2020.32	121.556
2022.49	112.656
2024.66	116.271
2026.83	113.424
2029	115.409
2031.17	111.697
2033.34	112.464
2035.51	111.189
2037.67	112.246
2039.84	110.897
2042	108.523
2044.16	113.43
2046.32	112.3
2048.48	103.461
2050.64	105.248
2052.8	112.185
2054.96	111.252
2057.12	111.627
2059.27	105.386
2061.43	111.507
2063.58	106.312
2065.73	105.964
2067.89	109.049
2070.04	106.097
2072.19	107.913
2074.34	112.172
2076.48	110.238
2078.63	108.042
2080.78	109.623
2082.92	111.783
2085.07	107.352
2087.21	102.757
2089.35	106.912
2091.49	105.656
2093.63	103.963
2095.77	108.764
2097.91	104.66
2100.05	102.535
2102.19	107.338
2104.32	104.219
2106.45	98.4927
2108.59	101.464
2110.72	106.112
2112.85	104.597
2114.98	104.366
2117.11	101.833
2119.24	101.584
2121.37	102.386
2123.5	98.7055
2125.62	101.488
2127.75	99.5161
2129.87	99.15
2131.99	98.4174
2134.11	101.748
2136.24	102.104
2138.36	94.6814
2140.47	103.863
2142.59	99.6858
2144.71	98.363
2146.83	99.0388
2148.94	98.6858
2151.06	97.838
2153.17	97.6272
2155.28	99.0723
2157.39	99.6635
2159.5	93.8261
2161.61	96.9371
2163.72	96.5638
2165.83	98.0296
2167.94	96.2155
2170.04	98.535
2172.15	95.1372
2174.25	98.0052
2176.35	96.8781
2178.45	96.3063
2180.56	91.952
2182.66	90.7827
2184.75	90.3901
2186.85	92.3742
2188.95	87.4741
2191.05	94.2042
2193.14	93.0238
2195.24	90.9306
2197.33	89.1118
2199.42	90.6299
2201.51	87.5167
2203.6	92.2669
2205.69	91.7568
2207.78	84.5308
2209.87	91.205
2211.96	88.4934
2214.04	84.5033
2216.13	85.3488
2218.21	83.7299
2220.29	87.0902
2222.38	93.4682
2224.46	93.5594
2226.54	85.0154
2228.62	91.4538
2230.69	84.8134
2232.77	82.6742
2234.85	80.9962
2236.92	88.1713
2239	82.5638
2241.07	84.3905
2243.15	82.4421
2245.22	81.7299
2247.29	81.3145
2249.36	77.2418
2251.43	80.6663
2253.49	81.279
2255.56	79.0006
2257.63	80.3226
2259.69	78.4741
2261.76	85.6862
2263.82	76.4882
2265.88	83.4634
2267.95	82.7055
2270.01	78.4819
2272.07	80.2611
2274.12	76.0195
2276.18	80.8194
2278.24	76.7948
2280.3	82.1528
2282.35	74.7675
2284.41	80.4698
2286.46	74.9477
2288.51	76.1194
2290.56	74.1306
2292.61	78.6081
2294.66	76.6921
2296.71	74.4892
2298.76	73.1335
2300.8	74.4682
2302.85	75.0148
2304.9	75.5711
2306.94	74.9605
2308.98	70.9404
2311.03	73.6278
2313.07	74.8194
2315.11	71.7591
2317.15	71.5487
2319.19	71.3587
2321.22	73.182
2323.26	69.5703
2325.3	73.8559
2327.33	71.8372
2329.36	72.3901
2331.4	68.4235
2333.43	69.6003
2335.46	69.8964
2337.49	71.7709
2339.52	70.8074
2341.55	65.9084
2343.58	65.6264
2345.6	66.5153
2347.63	72.3295
2349.65	73.5844
2351.68	68.1335
2353.7	60.8001
2355.72	72.6822
2357.74	65.3708
2359.76	69.1528
2361.78	67.2476
2363.8	70.6457
2365.82	65.6921
2367.84	66.9358
2369.85	61.9597
2371.87	62.5965
2373.88	68.7267
2375.9	64.1483
2377.91	63.6629
2379.92	71.3613
2381.93	65.5951
2383.94	67.2855
2385.95	65.7775
2387.96	65.2733
2389.96	68.367
2391.97	65.1775
2393.97	67.0447
2395.98	65.2332
2397.98	66.1558
2399.98	64.4741
2401.98	60.3237
2403.99	61.8289
2405.99	64.1885
2407.98	61.4668
2409.98	64.5638
2411.98	59.6711
2413.98	57.6329
2415.97	65.9704
2417.96	64.4967
2419.96	60.1194
2421.95	62.7732
2423.94	61.3844
2425.93	64.4084
2427.92	65.9306
2429.91	59.5562
2431.9	66.0224
2433.89	58.5638
2435.87	61.6085
2437.86	57.7182
2439.84	58.0709
2441.83	57.6814
2443.81	59.6071
2445.79	57.5411
2447.77	62.4592
2449.75	57.689
2451.73	63.053
2453.71	59.237
2455.69	57.2305
2457.67	60.0515
2459.64	57.8001
2461.62	55.1485
2463.59	57.6071
2465.56	56.5153
2467.54	55.1485
2469.51	56.2036
2471.48	58.9856
2473.45	58.3416
2475.42	57.8001
2477.38	54.6442
2479.35	54.4107
2481.32	56.0774
2483.28	55.2931
2485.25	57.6329
2487.21	53.8851
2489.17	53.4668
2491.13	51.677
2493.09	54.182
2495.05	56.8001
2497.01	56.4042
2498.97	52.6511
2500.93	54.4668
2502.89	51.6644
2504.84	53.5703
2506.8	50.5153
2508.75	55.5331
2510.7	54.9404
2512.65	53.9185
2514.61	55.815
2516.56	56.0803
2518.51	52.8173
2520.45	50.8001
2522.4	51.744
2524.35	53.4527
2526.29	51.9813
2528.24	48.648
2530.18	52.7182
2532.13	48.0709
2534.07	52.1627
2536.01	48.8486
2537.95	45.7732
2539.89	52.0224
2541.83	52.2996
2543.77	50.744
2545.71	46.8293
2547.64	47.182
2549.58	47.9404
2551.51	47.2639
2553.45	38.9112
2555.38	50.6264
2557.31	49.4527
2559.25	49.1627
2561.18	44.551
2563.11	49.6621
2565.03	44.1066
2566.96	48.0709
2568.89	46.677
2570.82	43.0774
2572.74	47.9477
2574.67	47.0967
2576.59	43.4592
2578.51	45.1066
2580.43	45.8032
2582.36	48.4592
2584.28	45.6144
2586.2	43.9954
2588.11	49.7702
2590.03	40.2738
2591.95	46.2446
2593.86	45.689
2595.78	47.1627
2597.69	42.0224
2599.61	42.4107
2601.52	46.2399
2603.43	48.1066
2605.34	42.744
2607.25	41.9663
2609.16	42.6264
2611.07	47.689
2612.98	45.551
2614.89	41.551
2616.79	43.6329
2618.7	43.3557
2620.6	47.1627
2622.5	41.4839
2624.41	46.2177
2626.31	42.4698
2628.21	41.237
2630.11	47.1627
2632.01	43.7375
2633.91	43.1066
2635.8	46.6522
2637.7	40.4399
2639.6	46.0924
2641.49	42.689
2643.39	48.9954
2645.28	51.5039
2647.17	53.0224
2649.06	58.7925
2650.95	55.9404
2652.84	47.6814
2654.73	48.9036
2656.62	42.6071
2658.51	46.2639
2660.4	48.237
2662.28	49.5703
2664.17	43.1506
2666.05	41.8366
2667.93	47.9306
2669.82	56.0967
2671.7	74.3288
2673.58	97.2446
2675.46	114.926
2677.34	120.252
2679.21	91.3928
2681.09	77.0224
2682.97	74.0515
2684.84	63.3481
2686.72	55.3288
2688.59	68.2996
2690.47	89.5703
2692.34	117.7
2694.21	297.456
2696.08	338.435
2697.95	305.818
2699.82	217.022
2701.69	125.385
2703.56	83.2617
2705.42	78.4071
2707.29	59.3849
2709.15	56.4042
2711.02	49.551
2712.88	44.689
2714.75	44.8551
2716.61	46.6447
2718.47	42.3849
2720.33	40.496
2722.19	45.8745
2724.05	44.0515
2725.9	42.4042
2727.76	38.3288
2729.62	43.551
2731.47	40.7182
2733.33	36.744
2735.18	36.7375
2737.03	38.9954
2738.88	36.9112
2740.73	35.1214
2742.59	33.3288
2744.43	35.9477
2746.28	36.6264
2748.13	34.3849
2749.98	36.5779
2751.82	36.2177
2753.67	37.8366
2755.51	34.7062
2757.36	36.0515
2759.2	31.7182
2761.04	35.6621
2762.88	34.496
