365.286	317.447
368.238	318.977
371.189	320.794
374.139	333.572
377.087	344.401
380.034	343.617
382.979	334.29
385.923	323.748
388.866	321.895
391.806	319.589
394.745	312.31
397.684	319.2
400.62	309.52
403.555	308.914
406.49	324.037
409.421	329.814
412.353	348.447
415.282	338.963
418.209	347.134
421.137	353.491
424.062	354.71
426.985	378.34
429.908	385.117
432.829	388.806
435.748	389.417
438.666	362.581
441.583	360.719
444.498	343.51
447.412	333.125
450.324	339.881
453.235	327.955
456.145	322.889
459.052	333.945
461.959	312.584
464.865	299.461
467.769	295.71
470.671	291.414
473.572	288.895
476.471	288.233
479.37	296.047
482.266	289.646
485.162	293.712
488.056	285.255
490.948	283.395
493.839	282.261
496.73	284.286
499.618	286.486
502.505	286.669
505.39	281.313
508.275	283.82
511.157	285.475
514.039	279.79
516.919	296.012
519.798	288.534
522.674	285.757
525.55	282.379
528.425	271.115
531.297	257.418
534.169	264.606
537.039	254.449
539.908	256.657
542.775	253.742
545.642	256.991
548.506	256.589
551.369	253.634
554.231	260.265
557.092	258.511
559.951	262.18
562.808	256.631
565.664	262.006
568.519	265.117
571.373	265.435
574.225	263.597
577.076	261.71
579.925	258.016
582.773	264.508
585.62	260.944
588.466	259.472
591.309	247.055
594.152	247.066
596.993	254.506
599.832	251.69
602.671	256.846
605.508	247.703
608.343	254.749
611.178	250.709
614.011	254.088
616.842	252.422
619.672	250.539
622.501	255.048
625.329	256.2
628.155	267.213
630.98	274.609
633.802	270.461
636.624	267.488
639.445	254.517
642.264	259.474
645.082	266.737
647.898	259.814
650.714	270.705
653.527	275.403
656.34	283.192
659.151	296.198
661.961	284.867
664.769	275.891
667.576	263.689
670.382	253.717
673.186	246.585
675.989	238.808
678.791	238.343
681.591	245.103
684.39	239.07
687.187	243.821
689.983	243.562
692.779	247.559
695.572	242.387
698.363	243.28
701.155	246.452
703.944	245.047
706.733	246.234
709.519	248.345
712.305	251.901
715.089	262.089
717.871	252.794
720.653	255.819
723.433	255.764
726.212	251.286
728.989	247.429
731.765	252.847
734.54	251.119
737.313	250.83
740.085	251.004
742.856	252.808
745.625	262.547
748.394	251.825
751.16	246.711
753.926	247.499
756.689	251.134
759.452	254.732
762.214	264.456
764.974	263.464
767.733	257.484
770.49	264.547
773.246	259.342
776.001	257.685
778.755	277.134
781.507	264.506
784.258	265.794
787.007	263.775
789.756	269.501
792.502	273.005
795.247	274.377
797.992	270.759
800.735	268.116
803.477	274.751
806.217	280.795
808.956	284.936
811.694	284.113
814.43	294.944
817.165	280.477
819.899	275.114
822.631	275.405
825.362	255.311
828.092	252.463
830.82	251.727
833.548	253.671
836.274	248.806
838.998	247.79
841.721	249.666
844.444	241.855
847.165	253.589
849.884	246.814
852.601	245.336
855.318	241.363
858.034	238.922
860.749	231.113
863.461	240.873
866.173	235.128
868.883	243.116
871.592	230.165
874.3	229.718
877.006	234.169
879.712	231.83
882.415	232.592
885.118	233.044
887.819	230.213
890.519	237.312
893.218	233.061
895.914	230.294
898.611	231.867
901.306	235.638
903.999	230.238
906.692	238.301
909.382	234.958
912.072	233.968
914.761	235.916
917.447	235.488
920.133	238.591
922.818	243.673
925.501	241.331
928.183	237.251
930.864	228.944
933.543	233.409
936.221	236.665
938.898	239.601
941.574	244.621
944.248	232.325
946.921	232.49
949.593	236.009
952.263	235.393
954.932	235.658
957.6	240.648
960.267	239.745
962.932	243.658
965.597	244.931
968.26	254.551
970.922	257.938
973.581	257.675
976.241	266.976
978.898	292.428
981.555	297.458
984.21	334.435
986.864	376.887
989.517	419.803
992.169	441.795
994.819	470.447
997.468	501.825
1000.12	525.867
1002.76	535.389
1005.41	523.533
1008.05	499.002
1010.69	471.944
1013.34	426.991
1015.98	380.882
1018.61	332.54
1021.25	291.337
1023.89	268.048
1026.52	258.182
1029.16	264.092
1031.79	264.681
1034.42	253.631
1037.05	248.7
1039.68	262.34
1042.31	275.063
1044.93	289.922
1047.56	300.114
1050.18	294.315
1052.81	286.998
1055.43	269.688
1058.05	261.402
1060.67	261.478
1063.28	263.2
1065.9	262.97
1068.52	269.128
1071.13	282.37
1073.74	282.044
1076.35	310.632
1078.96	316.59
1081.57	319.148
1084.18	314.225
1086.79	309.524
1089.39	302.731
1092	315.24
1094.6	314.005
1097.2	320.906
1099.8	304.2
1102.4	306.038
1105	314.358
1107.6	325.138
1110.19	323.994
1112.79	339.992
1115.38	350.467
1117.97	346.815
1120.56	337.705
1123.15	333.445
1125.74	331.817
1128.33	319.267
1130.91	319.258
1133.5	294.039
1136.08	298.565
1138.66	284.147
1141.24	273.261
1143.82	280.814
1146.4	286.742
1148.98	287.314
1151.55	287.741
1154.13	277.326
1156.7	280.241
1159.27	274.412
1161.85	266.065
1164.42	269.105
1166.98	261.994
1169.55	263.687
1172.12	251.859
1174.68	262.611
1177.25	250.229
1179.81	249.48
1182.37	244.624
1184.93	241.786
1187.49	245.027
1190.05	242.846
1192.6	242.251
1195.16	239.359
1197.71	227.669
1200.27	236.161
1202.82	236.887
1205.37	239.363
1207.92	231.835
1210.47	229.995
1213.01	232.311
1215.56	243.673
1218.1	235.601
1220.65	245.869
1223.19	245.207
1225.73	247.314
1228.27	249.189
1230.81	251.16
1233.35	259.078
1235.88	257.918
1238.42	242.736
1240.95	246.954
1243.48	242.13
1246.02	247.128
1248.55	239.23
1251.07	242.153
1253.6	246.671
1256.13	240.793
1258.66	242.624
1261.18	247.389
1263.7	246.353
1266.22	244.091
1268.75	249.475
1271.27	249.065
1273.78	249.544
1276.3	250.911
1278.82	256.044
1281.33	256.264
1283.85	249.016
1286.36	250.258
1288.87	258.423
1291.38	257.461
1293.89	266.099
1296.4	248.669
1298.9	252.002
1301.41	257.197
1303.91	256.936
1306.41	245.799
1308.92	242.128
1311.42	247.287
1313.92	250.339
1316.42	239.463
1318.91	244.486
1321.41	250.097
1323.9	245.887
1326.4	256.284
1328.89	246.176
1331.38	244.442
1333.87	253.258
1336.36	254.745
1338.85	247.776
1341.34	239.934
1343.82	247.964
1346.31	249.2
1348.79	251.856
1351.27	252.609
1353.75	252.367
1356.23	258.645
1358.71	263.391
1361.19	265.577
1363.66	268.112
1366.14	269.439
1368.61	260.078
1371.09	271.413
1373.56	279.005
1376.03	292.256
1378.5	291.795
1380.96	285.936
1383.43	293.838
1385.9	277.9
1388.36	275.477
1390.83	259.128
1393.29	252.322
1395.75	242.875
1398.21	239.229
1400.67	232.991
1403.13	232.697
1405.58	217.46
1408.04	224.716
1410.49	230.694
1412.95	229.8
1415.4	225.477
1417.85	221.186
1420.3	212.898
1422.75	223.368
1425.2	217.733
1427.64	219.491
1430.09	218.846
1432.53	218.23
1434.97	208.927
1437.42	208.803
1439.86	211.764
1442.3	213.621
1444.73	208.608
1447.17	199.399
1449.61	187.619
1452.04	199.45
1454.48	186.717
1456.91	192.115
1459.34	192.625
1461.77	193.478
1464.2	193.314
1466.63	192.251
1469.06	190.783
1471.48	187.896
1473.91	194.317
1476.33	196.441
1478.75	187.697
1481.17	184.244
1483.6	188.401
1486.01	185.672
1488.43	180.672
1490.85	179.394
1493.27	184.336
1495.68	179.717
1498.09	176.839
1500.51	169.322
1502.92	176.481
1505.33	173.642
1507.74	173.416
1510.14	171.864
1512.55	185.717
1514.96	178.717
1517.36	180.384
1519.77	173.627
1522.17	183.02
1524.57	183.98
1526.97	180.659
1529.37	183.266
1531.77	186.178
1534.16	187.717
1536.56	198.928
1538.95	200.558
1541.35	195.634
1543.74	205.62
1546.13	209.645
1548.52	214.648
1550.91	206.349
1553.3	208.98
1555.68	201.03
1558.07	199.681
1560.45	203.717
1562.84	205.648
1565.22	211.377
1567.6	210.982
1569.98	224.959
1572.36	221.833
1574.74	220.783
1577.12	214.053
1579.49	218.158
1581.87	213.586
1584.24	202.155
1586.61	201.039
1588.98	198.2
1591.35	197.666
1593.72	189.042
1596.09	177.831
1598.46	181.689
1600.82	177.086
1603.19	171.576
1605.55	172.786
1607.92	174.506
1610.28	161.891
1612.64	168.961
1615	167.126
1617.36	163.132
1619.71	169.724
1622.07	156.384
1624.42	154.627
1626.78	155.319
1629.13	156.639
1631.48	150.699
1633.83	153.944
1636.18	149.228
1638.53	142.688
1640.88	144.685
1643.22	142.766
1645.57	147.367
1647.91	143.924
1650.26	140.595
1652.6	141.026
1654.94	143.797
1657.28	141.763
1659.62	141.266
1661.96	139.696
1664.29	144.348
1666.63	137.564
1668.96	131.773
1671.3	127.7
1673.63	131.937
1675.96	135.687
1678.29	124.495
1680.62	128.446
1682.95	132.44
1685.27	134.091
1687.6	129.532
1689.92	130.909
1692.25	130.394
1694.57	130.695
1696.89	135.224
1699.21	126.197
1701.53	122.655
1703.85	123.218
1706.17	128.002
1708.48	124.172
1710.8	131.611
1713.11	134.339
1715.43	121.786
1717.74	122.687
1720.05	127.381
1722.36	123.823
1724.67	120.617
1726.97	125.486
1729.28	124.723
1731.59	123.061
1733.89	122.63
1736.19	126.414
1738.5	122.959
1740.8	127.588
1743.1	122.137
1745.4	122.713
1747.7	124.813
1749.99	124.995
1752.29	122.117
1754.58	119.614
1756.88	120.224
1759.17	123.335
1761.46	118.544
1763.75	118.884
1766.04	120.539
1768.33	121.655
1770.62	118.008
1772.91	116.844
1775.19	121.906
1777.48	116.217
1779.76	118.787
1782.04	113.355
1784.32	118.504
1786.6	112.43
1788.88	113.426
1791.16	114.113
1793.44	113.697
1795.71	120.004
1797.99	114.269
1800.26	114.65
1802.54	114.515
1804.81	113.269
1807.08	114.726
1809.35	112.035
1811.62	117.68
1813.88	114.576
1816.15	109.486
1818.42	110.557
1820.68	106.573
1822.95	114.666
1825.21	111.279
1827.47	111.229
1829.73	105.662
1831.99	109.137
1834.25	110.737
1836.51	111.197
1838.76	115.503
1841.02	110.168
1843.27	106.988
1845.52	108.126
1847.78	111.253
1850.03	117.01
1852.28	105.108
1854.53	106.988
1856.78	104.946
1859.02	108.766
1861.27	99.7998
1863.51	103.88
1865.76	109.577
1868	104.213
1870.24	105.026
1872.48	99.9858
1874.72	99.9461
1876.96	109.877
1879.2	102.342
1881.44	111.785
1883.67	106.624
1885.91	101.495
1888.14	101.824
1890.37	103.446
1892.61	99.5404
1894.84	103.057
1897.07	98.8656
1899.29	104.727
1901.52	102.873
1903.75	108.132
1905.97	106.668
1908.2	104.306
1910.42	98.5413
1912.64	100.946
1914.87	103.602
1917.09	105.466
1919.31	101.63
1921.52	102.475
1923.74	102.479
1925.96	100.78
1928.17	102.263
1930.39	100.532
1932.6	102.987
1934.81	98.5306
1937.03	99.5903
1939.24	103.502
1941.45	100.557
1943.65	98.7858
1945.86	102.415
1948.07	100.364
1950.27	96.224
1952.48	103.325
1954.68	100.266
1956.88	97.84
1959.08	95.8491
1961.29	97.4499
1963.48	101.491
1965.68	99.4137
1967.88	96.6877
1970.08	95.8613
1972.27	98.6854
1974.47	97.962
1976.66	93.7936
1978.85	97.9103
1981.04	96.3883
1983.23	94.5573
1985.42	98.1563
1987.61	92.4185
1989.8	93.5776
1991.99	95.4462
1994.17	94.1855
1996.36	94.7419
1998.54	93.4206
2000.72	97.8725
2002.9	94.0355
2005.08	97.5766
2007.26	94.9703
2009.44	92.9194
2011.62	96.9724
2013.8	96.1592
2015.97	93.8747
2018.15	96.0865
2020.32	89.7795
2022.49	89.0835
2024.66	91.8441
2026.83	93.5322
2029	91.5896
2031.17	89.7929
2033.34	86.0158
2035.51	88.0878
2037.67	90.0538
2039.84	89.3358
2042	85.8604
2044.16	87.7643
2046.32	89.5112
2048.48	87.4039
2050.64	85.6862
2052.8	88.2373
2054.96	88.3351
2057.12	87.3084
2059.27	87.0305
2061.43	85.4462
2063.58	80.7528
2065.73	86.0572
2067.89	88.208
2070.04	85.3058
2072.19	84.9774
2074.34	88.2182
2076.48	87.8613
2078.63	86.8316
2080.78	85.1465
2082.92	86.8663
2085.07	78.7113
2087.21	83.2935
2089.35	87.8906
2091.49	81.1599
2093.63	82.7238
2095.77	82.4469
2097.91	82.4074
2100.05	82.8139
2102.19	81.7747
2104.32	82.176
2106.45	80.127
2108.59	80.2247
2110.72	82.5706
2112.85	78.6817
2114.98	76.7936
2117.11	79.1136
2119.24	79.9246
2121.37	81.7141
2123.5	78.4074
2125.62	79.0228
2127.75	80.1973
2129.87	80.5089
2131.99	78.2088
2134.11	77.4017
2136.24	75.3978
2138.36	82.5917
2140.47	81.0713
2142.59	76.7695
2144.71	72.9001
2146.83	79.3625
2148.94	75.1136
2151.06	77.2292
2153.17	79.3492
2155.28	73.9865
2157.39	74.0959
2159.5	72.0158
2161.61	78.8509
2163.72	76.9724
2165.83	76.1573
2167.94	69.8266
2170.04	73.245
2172.15	69.7071
2174.25	70.3808
2176.35	75.2794
2178.45	73.9243
2180.56	66.1852
2182.66	75.5991
2184.75	69.2381
2186.85	69.7491
2188.95	66.9047
2191.05	72.9233
2193.14	69.4823
2195.24	65.1075
2197.33	66.0462
2199.42	63.5463
2201.51	70.3674
2203.6	68.6994
2205.69	67.907
2207.78	68.0895
2209.87	66.3117
2211.96	67.1888
2214.04	68.6177
2216.13	67.0025
2218.21	68.1957
2220.29	72.0691
2222.38	75.2601
2224.46	64.5581
2226.54	66.127
2228.62	71.0495
2230.69	70.6268
2232.77	65.7872
2234.85	69.8914
2236.92	63.2155
2239	60.9001
2241.07	63.9112
2243.15	66.0446
2245.22	63.1863
2247.29	58.3941
2249.36	61.0608
2251.43	68.302
2253.49	63.6547
2255.56	62.9693
2257.63	60.4293
2259.69	58.0691
2261.76	62.7936
2263.82	63.865
2265.88	58.6959
2267.95	62.5506
2270.01	62.3069
2272.07	58.7205
2274.12	57.8385
2276.18	58.033
2278.24	53.5052
2280.3	61.2552
2282.35	56.7408
2284.41	57.4352
2286.46	55.7777
2288.51	59.3796
2290.56	52.3492
2292.61	57.8519
2294.66	54.2418
2296.71	56.6692
2298.76	55.3031
2300.8	52.1339
2302.85	56.3492
2304.9	54.6515
2306.94	56.3518
2308.98	55.9732
2311.03	54.0431
2313.07	60.7654
2315.11	50.8241
2317.15	52.8139
2319.19	51.9117
2321.22	53.2963
2323.26	53.3358
2325.3	57.7738
2327.33	49.8252
2329.36	53.1015
2331.4	52.2584
2333.43	52.2381
2335.46	48.1296
2337.49	42.8519
2339.52	50.7936
2341.55	53.0132
2343.58	50.0846
2345.6	54.1472
2347.63	62.8372
2349.65	50.1824
2351.68	49.9436
2353.7	48.9233
2355.72	49.2433
2357.74	51.1455
2359.76	46.9219
2361.78	46.5329
2363.8	46.5499
2365.82	51.9483
2367.84	45.5186
2369.85	42.469
2371.87	47.8241
2373.88	47.3677
2375.9	47.1061
2377.91	47.34
2379.92	42.7777
2381.93	43.9602
2383.94	44.5847
2385.95	48.0431
2387.96	46.4166
2389.96	49.0569
2391.97	46.3188
2393.97	44.6884
2395.98	45.2155
2397.98	47.0101
2399.98	44.7632
2401.98	47.771
2403.99	45.5285
2405.99	46.5429
2407.98	44.017
2409.98	43.4806
2411.98	46.6959
2413.98	43.1574
2415.97	44.0548
2417.96	43.283
2419.96	49.1574
2421.95	40.8108
2423.94	42.5216
2425.93	40.1018
2427.92	41.2686
2429.91	44.0196
2431.9	43.1075
2433.89	42.3663
2435.87	39.3797
2437.86	38.5291
2439.84	42.2288
2441.83	42.1852
2443.81	39.8108
2445.79	41.6124
2447.77	39.6019
2449.75	37.6487
2451.73	39.5436
2453.71	42.2306
2455.69	40.713
2457.67	42.9907
2459.64	38.3579
2461.62	41.5039
2463.59	37.0063
2465.56	35.6997
2467.54	37.0084
2469.51	39.1909
2471.48	35.2882
2473.45	35.2552
2475.42	41.1044
2477.38	37.4908
2479.35	34.5991
2481.32	35.6573
2483.28	41.0217
2485.25	39.4412
2487.21	37.8662
2489.17	34.9219
2491.13	35.5752
2493.09	34.1909
2495.05	33.877
2497.01	36.2155
2498.97	37.2552
2500.93	31.3214
2502.89	32.3764
2504.84	34.8108
2506.8	35.5622
2508.75	35.1195
2510.7	35.1706
2512.65	35.8241
2514.61	33.9219
2516.56	35.9483
2518.51	34.6104
2520.45	34.7974
2522.4	37.3625
2524.35	34.7408
2526.29	36.0435
2528.24	33.0051
2530.18	31.605
2532.13	34.7594
2534.07	36.5934
2536.01	33.2552
2537.95	38.6733
2539.89	32.3663
2541.83	33.957
2543.77	30.9219
2545.71	33.5052
2547.64	32.2973
2549.58	30.713
2551.51	31.127
2553.45	35.1372
2555.38	34.2657
2557.31	33.8903
2559.25	33.302
2561.18	26.6019
2563.11	26.5285
2565.03	31.1195
2566.96	28.8108
2568.89	32.1574
2570.82	31.0992
2572.74	32.9352
2574.67	27.0884
2576.59	32.9219
2578.51	28.877
2580.43	30.2168
2582.36	28.4908
2584.28	30.6019
2586.2	33.4412
2588.11	30.2419
2590.03	30.4528
2591.95	29.4908
2593.86	30.2439
2595.78	31.5523
2597.69	30.0217
2599.61	30.5683
2601.52	26.666
2603.43	27.9352
2605.34	29.017
2607.25	29.6757
2609.16	29.2686
2611.07	31.6733
2612.98	27.6997
2614.89	31.7988
2616.79	26.8662
2618.7	27.5683
2620.6	26.5885
2622.5	29.033
2624.41	27.1441
2626.31	29.7482
2628.21	27.0463
2630.11	30.5859
2632.01	29.605
2633.91	28.7658
2635.8	29.6927
2637.7	27.8108
2639.6	30.2055
2641.49	31.0101
2643.39	32.5752
2645.28	37.3797
2647.17	40.3663
2649.06	39.6681
2650.95	33.7995
2652.84	30.3797
2654.73	31.8241
2656.62	31.9682
2658.51	30.2155
2660.4	27.353
2662.28	34.0798
2664.17	33.5259
2666.05	28.713
2667.93	34.324
2669.82	39.9073
2671.7	50.5726
2673.58	67.1943
2675.46	82.4185
2677.34	81.5885
2679.21	67.5488
2681.09	55.0634
2682.97	50.6547
2684.84	44.6681
2686.72	40.4015
2688.59	43.7464
2690.47	63.5752
2692.34	89.5523
2694.21	199.544
2696.08	229.231
2697.95	206.655
2699.82	152.35
2701.69	90.2259
2703.56	62.8241
2705.42	53.0463
2707.29	44.877
2709.15	34.5885
2711.02	34.1044
2712.88	30.4908
2714.75	26.6466
2716.61	28.5773
2718.47	26.4774
2720.33	23.8709
2722.19	27.033
2724.05	25.4511
2725.9	28.5885
2727.76	27.1281
2729.62	24.1574
2731.47	26.3797
2733.33	23.6543
2735.18	19.1441
2737.03	21.8636
2738.88	23.0127
2740.73	23.0079
2742.59	25.4705
2744.43	23.9352
2746.28	20.6733
2748.13	20.9085
2749.98	23.6997
2751.82	19.3663
2753.67	21.3417
2755.51	23.8241
2757.36	22.4377
2759.2	23.5986
2761.04	20.1904
2762.88	21.3663
