365.286	227.32
368.238	235.344
371.189	244.536
374.139	266.671
377.087	295.168
380.034	294.447
382.979	277.214
385.923	259.091
388.866	235.695
391.806	218.039
394.745	218.072
397.684	220.827
400.62	215.698
403.555	222.49
406.49	220.581
409.421	214.196
412.353	216.805
415.282	219.418
418.209	223.034
421.137	219.41
424.062	235.742
426.985	242.866
429.908	261.83
432.829	269.13
435.748	276.653
438.666	270.82
441.583	261.574
444.498	246.69
447.412	237.44
450.324	243.251
453.235	242.794
456.145	247.116
459.052	238.294
461.959	227.35
464.865	216.727
467.769	207.417
470.671	199.812
473.572	195.431
476.471	197.537
479.37	195.438
482.266	195.118
485.162	195.843
488.056	196.525
490.948	192.542
493.839	197.962
496.73	200.1
499.618	190.386
502.505	197.662
505.39	194.928
508.275	201.164
511.157	199.769
514.039	207.507
516.919	219.012
519.798	218.427
522.674	202.429
525.55	198.84
528.425	186.754
531.297	178.788
534.169	181.311
537.039	177.624
539.908	169.181
542.775	167.13
545.642	175.9
548.506	172.247
551.369	169.615
554.231	169.745
557.092	178.316
559.951	183.037
562.808	180.926
565.664	179.867
568.519	179.849
571.373	179.048
574.225	178.701
577.076	174.922
579.925	172.163
582.773	178.862
585.62	173.069
588.466	170.809
591.309	175.726
594.152	175.913
596.993	170.82
599.832	167.373
602.671	164.48
605.508	179.914
608.343	166.809
611.178	173.407
614.011	167.641
616.842	168.708
619.672	172.469
622.501	166.736
625.329	166.195
628.155	170.344
630.98	175.544
633.802	174.964
636.624	177.571
639.445	169.024
642.264	178.16
645.082	174.601
647.898	176.47
650.714	176.186
653.527	188.999
656.34	187.358
659.151	186.587
661.961	188.498
664.769	172.538
667.576	175.926
670.382	160.683
673.186	159.283
675.989	157.608
678.791	160.054
681.591	151.045
684.39	153.181
687.187	159.615
689.983	165.958
692.779	159.86
695.572	166.808
698.363	160.978
701.155	166.72
703.944	161.451
706.733	156.597
709.519	156.157
712.305	159.129
715.089	161.445
717.871	166.95
720.653	164.711
723.433	163.746
726.212	160.49
728.989	160.662
731.765	158.301
734.54	157.677
737.313	161.884
740.085	157.29
742.856	156.033
745.625	154.219
748.394	156.796
751.16	151.601
753.926	158.418
756.689	159.221
759.452	159.018
762.214	156.861
764.974	159.413
767.733	158.018
770.49	162.294
773.246	153.125
776.001	160.498
778.755	160.5
781.507	153.069
784.258	155.595
787.007	160.478
789.756	171.498
792.502	171.151
795.247	167.777
797.992	162.507
800.735	167.447
803.477	175.954
806.217	169.658
808.956	171.313
811.694	174.853
814.43	188.632
817.165	184.72
819.899	176.144
822.631	166.943
825.362	168.369
828.092	158.705
830.82	151.351
833.548	151.359
836.274	155.982
838.998	153.987
841.721	158.706
844.444	158.805
847.165	153.854
849.884	149.812
852.601	154.548
855.318	152.818
858.034	149.609
860.749	143.342
863.461	146.245
866.173	143.594
868.883	143.956
871.592	141.407
874.3	142.356
877.006	147.751
879.712	145.911
882.415	149.619
885.118	153.589
887.819	152.347
890.519	157.693
893.218	153.307
895.914	158.255
898.611	156.602
901.306	157.147
903.999	156.507
906.692	153.64
909.382	161.181
912.072	148.208
914.761	148.848
917.447	150.484
920.133	144.138
922.818	151.401
925.501	147.068
928.183	147.82
930.864	139.156
933.543	141.255
936.221	144.018
938.898	133.276
941.574	133.91
944.248	133.967
946.921	146.811
949.593	139.655
952.263	138.928
954.932	134.678
957.6	141.327
960.267	144.755
962.932	144.933
965.597	144.427
968.26	152.525
970.922	148.789
973.581	154.214
976.241	151.678
978.898	150.685
981.555	150.674
984.21	162.527
986.864	170.248
989.517	169.923
992.169	194.677
994.819	199.66
997.468	216.352
1000.12	226.931
1002.76	250.678
1005.41	262.387
1008.05	284.546
1010.69	286.379
1013.34	285.439
1015.98	262.359
1018.61	239.128
1021.25	204.646
1023.89	179.843
1026.52	172.379
1029.16	170.416
1031.79	171.401
1034.42	165.591
1037.05	167.418
1039.68	176.315
1042.31	178.172
1044.93	176.729
1047.56	177.141
1050.18	189.298
1052.81	189.909
1055.43	189.251
1058.05	185.88
1060.67	195.28
1063.28	194.915
1065.9	186.53
1068.52	185.208
1071.13	192.194
1073.74	192.731
1076.35	193.052
1078.96	208.627
1081.57	204.921
1084.18	225.04
1086.79	237.455
1089.39	260.021
1092	278.842
1094.6	287.016
1097.2	292.198
1099.8	266.581
1102.4	245.125
1105	226.854
1107.6	220.829
1110.19	226.049
1112.79	238.596
1115.38	233.978
1117.97	238.355
1120.56	239.186
1123.15	232.833
1125.74	227.552
1128.33	221.322
1130.91	205.142
1133.5	187.871
1136.08	182.68
1138.66	176.064
1141.24	173.161
1143.82	170.156
1146.4	179.931
1148.98	179.617
1151.55	189.449
1154.13	182.144
1156.7	175.605
1159.27	164.69
1161.85	160.026
1164.42	151.956
1166.98	155.896
1169.55	153.781
1172.12	159.313
1174.68	158.233
1177.25	150.421
1179.81	146.949
1182.37	147.491
1184.93	142.637
1187.49	141.274
1190.05	140.512
1192.6	141.253
1195.16	140.571
1197.71	139.123
1200.27	131.745
1202.82	131.424
1205.37	132.614
1207.92	134.205
1210.47	123.336
1213.01	122.929
1215.56	122.38
1218.1	119.005
1220.65	124.625
1223.19	125.433
1225.73	128.921
1228.27	125.128
1230.81	128.982
1233.35	133.641
1235.88	137.526
1238.42	132.577
1240.95	127.734
1243.48	122.164
1246.02	132.929
1248.55	136.336
1251.07	138.178
1253.6	133.936
1256.13	139.989
1258.66	132.891
1261.18	137.685
1263.7	140.465
1266.22	133.34
1268.75	137.279
1271.27	135.329
1273.78	140.785
1276.3	142.9
1278.82	146.243
1281.33	138.64
1283.85	140.42
1286.36	143.867
1288.87	150.801
1291.38	153.639
1293.89	146.251
1296.4	146.383
1298.9	146.196
1301.41	141.894
1303.91	142.567
1306.41	140.578
1308.92	144.342
1311.42	146.078
1313.92	146.775
1316.42	148.029
1318.91	147.321
1321.41	149.558
1323.9	154.047
1326.4	155.128
1328.89	159.868
1331.38	154.655
1333.87	158.7
1336.36	166.1
1338.85	165.956
1341.34	161.176
1343.82	157.789
1346.31	152.044
1348.79	153.733
1351.27	156.125
1353.75	153.558
1356.23	159.82
1358.71	160.025
1361.19	163.364
1363.66	166.816
1366.14	170.607
1368.61	174.416
1371.09	185.998
1373.56	188.089
1376.03	204.045
1378.5	207.336
1380.96	219.182
1383.43	207.936
1385.9	205.404
1388.36	203.114
1390.83	191.294
1393.29	175.045
1395.75	168.434
1398.21	156.261
1400.67	147.41
1403.13	146.422
1405.58	143.712
1408.04	137.362
1410.49	136.773
1412.95	143.269
1415.4	135.311
1417.85	136.398
1420.3	141.154
1422.75	139.322
1425.2	137.802
1427.64	144.069
1430.09	134.844
1432.53	133.215
1434.97	142.273
1437.42	142.622
1439.86	133.714
1442.3	133.513
1444.73	130.512
1447.17	124.126
1449.61	126.135
1452.04	121.049
1454.48	126.458
1456.91	129.586
1459.34	122.64
1461.77	117.969
1464.2	122.387
1466.63	123.708
1469.06	118.186
1471.48	121.868
1473.91	115.391
1476.33	115.827
1478.75	115.719
1481.17	117.979
1483.6	112.468
1486.01	114.817
1488.43	111.911
1490.85	98.4023
1493.27	102.749
1495.68	103.165
1498.09	99.9426
1500.51	100.035
1502.92	106.965
1505.33	98.6085
1507.74	96.2436
1510.14	96.7109
1512.55	100.494
1514.96	96.4545
1517.36	102.327
1519.77	95.7066
1522.17	94.9978
1524.57	100.512
1526.97	101.272
1529.37	98.8803
1531.77	100.588
1534.16	101.276
1536.56	106.867
1538.95	97.4004
1541.35	99.9156
1543.74	98.5178
1546.13	103.459
1548.52	104.676
1550.91	106.416
1553.3	101.594
1555.68	103.108
1558.07	108.038
1560.45	105.76
1562.84	106.608
1565.22	100.632
1567.6	112.007
1569.98	112.467
1572.36	112.163
1574.74	109.476
1577.12	112.087
1579.49	115.609
1581.87	109.542
1584.24	106.356
1586.61	104.205
1588.98	107.069
1591.35	98.4787
1593.72	99.7635
1596.09	100.728
1598.46	100.512
1600.82	97.4035
1603.19	97.0258
1605.55	98.1966
1607.92	99.6484
1610.28	96.9933
1612.64	92.1212
1615	91.1581
1617.36	93.0844
1619.71	92.8918
1622.07	85.5049
1624.42	89.5787
1626.78	86.9672
1629.13	89.4439
1631.48	87.9147
1633.83	87.0381
1636.18	90.8248
1638.53	91.427
1640.88	85.4249
1643.22	90.3564
1645.57	86.8604
1647.91	87.3408
1650.26	89.3695
1652.6	90.9781
1654.94	86.1157
1657.28	86.4551
1659.62	83.8812
1661.96	83.1554
1664.29	81.3547
1666.63	78.738
1668.96	82.1648
1671.3	79.4977
1673.63	86.7425
1675.96	83.2815
1678.29	84.1246
1680.62	77.6889
1682.95	75.1472
1685.27	76.9418
1687.6	76.2593
1689.92	81.6776
1692.25	80.9499
1694.57	78.9131
1696.89	79.6624
1699.21	82.2938
1701.53	78.4007
1703.85	79.1396
1706.17	79.7465
1708.48	81.9607
1710.8	76.354
1713.11	79.4816
1715.43	77.9174
1717.74	79.2107
1720.05	75.6784
1722.36	75.7161
1724.67	78.7119
1726.97	78.64
1729.28	72.4165
1731.59	79.4282
1733.89	76.4931
1736.19	74.6226
1738.5	77.7959
1740.8	73.5665
1743.1	74.9022
1745.4	69.756
1747.7	74.187
1749.99	73.6069
1752.29	73.0273
1754.58	72.248
1756.88	73.5645
1759.17	77.7511
1761.46	73.519
1763.75	68.6458
1766.04	70.1998
1768.33	66.5762
1770.62	71.4173
1772.91	71.843
1775.19	69.9217
1777.48	67.1149
1779.76	70.0334
1782.04	66.7083
1784.32	68.0018
1786.6	67.823
1788.88	69.2059
1791.16	67.1368
1793.44	67.3147
1795.71	65.5928
1797.99	66.0529
1800.26	62.874
1802.54	61.6449
1804.81	64.3203
1807.08	65.0513
1809.35	68.7635
1811.62	63.8916
1813.88	66.2896
1816.15	65.5662
1818.42	62.7569
1820.68	65.7247
1822.95	66.3564
1825.21	65.0075
1827.47	64.3176
1829.73	62.3515
1831.99	60.0999
1834.25	58.7738
1836.51	61.7727
1838.76	61.9206
1841.02	60.4117
1843.27	63.1564
1845.52	58.6667
1847.78	60.0046
1850.03	58.8192
1852.28	60.7118
1854.53	58.0992
1856.78	61.152
1859.02	62.1368
1861.27	62.0071
1863.51	60.8523
1865.76	60.0819
1868	60.802
1870.24	59.9825
1872.48	56.9418
1874.72	60.4226
1876.96	59.0089
1879.2	56.1857
1881.44	59.3062
1883.67	60.0444
1885.91	62.4074
1888.14	62.7228
1890.37	59.4482
1892.61	59.4897
1894.84	59.3506
1897.07	55.4039
1899.29	60.7763
1901.52	56.5054
1903.75	61.1353
1905.97	55.0452
1908.2	54.2924
1910.42	56.153
1912.64	60.2243
1914.87	56.0101
1917.09	55.9488
1919.31	56.2717
1921.52	59.9958
1923.74	59.1782
1925.96	55.7505
1928.17	56.2129
1930.39	56.365
1932.6	52.466
1934.81	55.4325
1937.03	52.92
1939.24	59.9732
1941.45	54.3039
1943.65	52.0231
1945.86	52.2754
1948.07	51.4976
1950.27	50.7198
1952.48	53.1644
1954.68	54.4934
1956.88	54.0495
1959.08	51.365
1961.29	51.2464
1963.48	54.0242
1965.68	55.4006
1967.88	51.1624
1970.08	55.6731
1972.27	51.4703
1974.47	53.3716
1976.66	47.1597
1978.85	53.3555
1981.04	51.9165
1983.23	52.3478
1985.42	50.4665
1987.61	50.6935
1989.8	50.6246
1991.99	51.3661
1994.17	52.7135
1996.36	51.3668
1998.54	49.7896
2000.72	50.6848
2002.9	49.4902
2005.08	50.8512
2007.26	51.1212
2009.44	48.9562
2011.62	46.4331
2013.8	50.6659
2015.97	47.422
2018.15	47.6476
2020.32	47.4762
2022.49	46.3601
2024.66	48.3441
2026.83	50.57
2029	48.7505
2031.17	47.1104
2033.34	48.8618
2035.51	45.6829
2037.67	47.0225
2039.84	46.1264
2042	41.4604
2044.16	49.4551
2046.32	47.8309
2048.48	44.7266
2050.64	47.0285
2052.8	42.3634
2054.96	45.9298
2057.12	48.9591
2059.27	44.5224
2061.43	46.6272
2063.58	47.5776
2065.73	44.3289
2067.89	44.8732
2070.04	42.1643
2072.19	43.6737
2074.34	46.1687
2076.48	41.745
2078.63	43.1368
2080.78	45.1122
2082.92	46.1862
2085.07	43.2295
2087.21	48.3802
2089.35	42.0135
2091.49	45.701
2093.63	47.0106
2095.77	40.9375
2097.91	42.1704
2100.05	45.7507
2102.19	44.3048
2104.32	42.2154
2106.45	41.415
2108.59	43.8089
2110.72	40.9562
2112.85	42.4258
2114.98	37.5999
2117.11	43.1511
2119.24	44.84
2121.37	46.2091
2123.5	38.8758
2125.62	45.3048
2127.75	39.9061
2129.87	42.1353
2131.99	42.1489
2134.11	44.4079
2136.24	40.0186
2138.36	40.2244
2140.47	41.1309
2142.59	38.7217
2144.71	42.1292
2146.83	37.305
2148.94	40.4006
2151.06	41.8778
2153.17	37.7119
2155.28	40.2826
2157.39	41.3582
2159.5	40.6983
2161.61	40.9515
2163.72	36.7247
2165.83	39.5775
2167.94	37.1552
2170.04	38.0353
2172.15	35.4896
2174.25	39.4545
2176.35	37.3775
2178.45	41.6442
2180.56	41.8229
2182.66	41.04
2184.75	37.8537
2186.85	39.3265
2188.95	40.1071
2191.05	36.3326
2193.14	41.4173
2195.24	35.5445
2197.33	36.2382
2199.42	35.4824
2201.51	35.762
2203.6	34.8299
2205.69	36.7639
2207.78	35.347
2209.87	36.9978
2211.96	35.6363
2214.04	34.7756
2216.13	33.4282
2218.21	35.211
2220.29	36.9766
2222.38	39.8622
2224.46	39.5373
2226.54	33.9869
2228.62	34.0533
2230.69	35.6909
2232.77	36.0533
2234.85	36.3529
2236.92	34.8428
2239	34.1705
2241.07	35.6935
2243.15	36.4711
2245.22	37.7383
2247.29	33.9103
2249.36	32.7887
2251.43	38.3109
2253.49	33.422
2255.56	32.9888
2257.63	32.6042
2259.69	32.0751
2261.76	35.5656
2263.82	33.3619
2265.88	33.5246
2267.95	32.3312
2270.01	29.9978
2272.07	33.0877
2274.12	31.1369
2276.18	37.7832
2278.24	30.6844
2280.3	33.7922
2282.35	30.7412
2284.41	33.8881
2286.46	32.1648
2288.51	32.4974
2290.56	32.5356
2292.61	28.6968
2294.66	32.36
2296.71	32.3978
2298.76	33.6024
2300.8	33.7533
2302.85	31.3661
2304.9	32.1376
2306.94	31.0671
2308.98	32.4958
2311.03	29.2675
2313.07	31.6837
2315.11	27.7937
2317.15	29.4173
2319.19	30.233
2321.22	29.9881
2323.26	26.3354
2325.3	30.9775
2327.33	30.3422
2329.36	31.3222
2331.4	31.1528
2333.43	27.9587
2335.46	31.9375
2337.49	28.7046
2339.52	31.0778
2341.55	27.1796
2343.58	26.877
2345.6	31.0495
2347.63	40.6873
2349.65	27.8821
2351.68	30.3214
2353.7	28.4247
2355.72	27.1483
2357.74	30.5401
2359.76	29.3752
2361.78	28.9067
2363.8	32.2002
2365.82	26.7039
2367.84	30.0521
2369.85	28.063
2371.87	31.0673
2373.88	31.8155
2375.9	28.2188
2377.91	27.0532
2379.92	26.6406
2381.93	28.4533
2383.94	27.1137
2385.95	28.7161
2387.96	29.2844
2389.96	27.7247
2391.97	31.9402
2393.97	30.744
2395.98	30.2803
2397.98	29.8927
2399.98	28.7358
2401.98	25.4589
2403.99	27.9792
2405.99	26.4003
2407.98	22.4658
2409.98	29.1255
2411.98	28.2645
2413.98	24.7894
2415.97	25.1217
2417.96	25.4982
2419.96	28.5228
2421.95	24.7354
2423.94	25.0064
2425.93	26.9232
2427.92	26.2382
2429.91	29.8158
2431.9	25.9402
2433.89	23.7364
2435.87	27.1317
2437.86	28.2933
2439.84	28.8063
2441.83	23.9422
2443.81	24.6968
2445.79	26.3312
2447.77	25.7331
2449.75	28.9825
2451.73	26.0065
2453.71	26.8009
2455.69	23.5656
2457.67	23.8115
2459.64	21.3219
2461.62	24.6925
2463.59	25.8342
2465.56	24.2896
2467.54	24.6263
2469.51	24.3422
2471.48	25.6555
2473.45	25.5681
2475.42	29.891
2477.38	28.1599
2479.35	25.2243
2481.32	23.5956
2483.28	26.6352
2485.25	27.2968
2487.21	24.8757
2489.17	23.3371
2491.13	26.1281
2493.09	24.5872
2495.05	30.4117
2497.01	25.771
2498.97	25.5304
2500.93	21.9949
2502.89	24.746
2504.84	22.9156
2506.8	23.4333
2508.75	25.7658
2510.7	23.0337
2512.65	22.3355
2514.61	23.9095
2516.56	22.8009
2518.51	23.047
2520.45	21.6535
2522.4	21.3777
2524.35	26.1535
2526.29	22.995
2528.24	24.3109
2530.18	24.9218
2532.13	23.98
2534.07	27.2968
2536.01	25.0592
2537.95	24.249
2539.89	21.0779
2541.83	21.5283
2543.77	22.0779
2545.71	21.7217
2547.64	25.4079
2549.58	23.8664
2551.51	22.3493
2553.45	21.8943
2555.38	22.9422
2557.31	26.0981
2559.25	24.5798
2561.18	20.7046
2563.11	21.6301
2565.03	23.9358
2566.96	23.0674
2568.89	21.711
2570.82	23.7402
2572.74	20.9033
2574.67	22.0029
2576.59	20.519
2578.51	22.1378
2580.43	22.8036
2582.36	22.9103
2584.28	21.4958
2586.2	24.1904
2588.11	20.8299
2590.03	22.2196
2591.95	22.4159
2593.86	22.7505
2595.78	23.1713
2597.69	21.4358
2599.61	22.9005
2601.52	22.1483
2603.43	20.4314
2605.34	22.6555
2607.25	19.4888
2609.16	22.1564
2611.07	23.5847
2612.98	18.4376
2614.89	23.292
2616.79	20.8248
2618.7	18.5506
2620.6	21.0777
2622.5	21.9422
2624.41	23.6492
2626.31	20.1564
2628.21	21.0116
2630.11	20.8802
2632.01	20.9622
2633.91	23.6399
2635.8	25.5814
2637.7	19.0891
2639.6	22.1491
2641.49	19.9272
2643.39	24.4632
2645.28	30.8465
2647.17	34.0317
2649.06	32.9888
2650.95	29.0931
2652.84	23.6332
2654.73	25.7578
2656.62	25.7738
2658.51	25.0419
2660.4	25.709
2662.28	26.1281
2664.17	25.7575
2666.05	23.7293
2667.93	26.4604
2669.82	36.487
2671.7	45.5364
2673.58	67.9157
2675.46	77.3
2677.34	78.3141
2679.21	67.1361
2681.09	47.5178
2682.97	45.6845
2684.84	39.7284
2686.72	31.622
2688.59	39.5266
2690.47	63.4731
2692.34	86.0428
2694.21	217.147
2696.08	246.255
2697.95	216.713
2699.82	153.92
2701.69	80.9628
2703.56	55.4049
2705.42	48.6406
2707.29	39.2523
2709.15	35.8422
2711.02	29.4148
2712.88	28.7507
2714.75	26.3398
2716.61	26.2602
2718.47	23.8201
2720.33	20.8689
2722.19	22.8291
2724.05	20.4333
2725.9	20.8618
2727.76	21.6106
2729.62	21.2911
2731.47	20.9275
2733.33	22.1212
2735.18	22.9888
2737.03	19.2892
2738.88	21.8219
2740.73	20.0665
2742.59	19.9174
2744.43	19.9261
2746.28	19.866
2748.13	18.9668
2749.98	19.2968
2751.82	19.1776
2753.67	21.1692
2755.51	19.7118
2757.36	19.9061
2759.2	17.0022
2761.04	19.1264
2762.88	18.8115
