365.286	185.449
368.238	194.807
371.189	199.677
374.139	217.175
377.087	224.785
380.034	225.095
382.979	225.703
385.923	218.859
388.866	198.444
391.806	194.514
394.745	188.364
397.684	179.942
400.62	186.379
403.555	181.876
406.49	187.641
409.421	182.553
412.353	186.269
415.282	190.734
418.209	192.442
421.137	199.435
424.062	194.321
426.985	205.35
429.908	216.87
432.829	211.131
435.748	225.569
438.666	219.683
441.583	213.231
444.498	205.167
447.412	200.183
450.324	205.943
453.235	197.805
456.145	198.746
459.052	197.421
461.959	192.678
464.865	187.862
467.769	176.277
470.671	174.084
473.572	172.973
476.471	174.261
479.37	163.351
482.266	173.265
485.162	172.045
488.056	171.233
490.948	164.146
493.839	171.285
496.73	168.664
499.618	172.653
502.505	173.496
505.39	170.277
508.275	169.9
511.157	176.608
514.039	176.518
516.919	176.767
519.798	183.737
522.674	173.021
525.55	169.682
528.425	160.701
531.297	156.692
534.169	153.318
537.039	151.72
539.908	151.627
542.775	151.286
545.642	152.862
548.506	148.479
551.369	148.462
554.231	156.857
557.092	150.295
559.951	152.666
562.808	156.075
565.664	155.451
568.519	152.555
571.373	154.38
574.225	153.809
577.076	160.239
579.925	150.694
582.773	151.054
585.62	152.3
588.466	155.498
591.309	155.362
594.152	150.782
596.993	146.873
599.832	154.726
602.671	155.875
605.508	146.158
608.343	141.653
611.178	152.924
614.011	152.301
616.842	147.805
619.672	150.043
622.501	156.231
625.329	153.891
628.155	155.043
630.98	161.98
633.802	159.368
636.624	157.249
639.445	153.868
642.264	155.997
645.082	155.542
647.898	159.748
650.714	157.957
653.527	170.229
656.34	167.629
659.151	161.089
661.961	159.476
664.769	160.29
667.576	164.752
670.382	141.138
673.186	138.05
675.989	144.542
678.791	143.269
681.591	139.768
684.39	140.641
687.187	142.694
689.983	141.186
692.779	142.5
695.572	148.814
698.363	144.393
701.155	150.249
703.944	148.107
706.733	143.316
709.519	141.51
712.305	143.75
715.089	143.649
717.871	142.497
720.653	142.929
723.433	141.458
726.212	143.109
728.989	144.473
731.765	145.467
734.54	144.059
737.313	142.721
740.085	146.742
742.856	139.83
745.625	141.855
748.394	141.013
751.16	147.331
753.926	138.857
756.689	144.149
759.452	144.274
762.214	147.848
764.974	144.257
767.733	145.075
770.49	142.5
773.246	138.955
776.001	140.204
778.755	143.088
781.507	140.199
784.258	143.286
787.007	144.936
789.756	146.619
792.502	146
795.247	149.668
797.992	153.456
800.735	147.269
803.477	146.411
806.217	148.974
808.956	153.65
811.694	158.185
814.43	156.218
817.165	151.109
819.899	158.852
822.631	150.122
825.362	151.351
828.092	144.723
830.82	142.036
833.548	138.539
836.274	139.286
838.998	135.179
841.721	138.961
844.444	135.086
847.165	137.471
849.884	139.295
852.601	140.609
855.318	127.186
858.034	127.256
860.749	131.784
863.461	133.14
866.173	129.421
868.883	131.025
871.592	132.635
874.3	128.633
877.006	132.172
879.712	123.914
882.415	130.853
885.118	129.288
887.819	131.703
890.519	133.419
893.218	132.649
895.914	137.718
898.611	135.862
901.306	134.365
903.999	142.054
906.692	139.552
909.382	134.095
912.072	134.399
914.761	127.705
917.447	136.701
920.133	130.5
922.818	130.276
925.501	132.609
928.183	128.701
930.864	129.918
933.543	132.025
936.221	128.118
938.898	126.46
941.574	127.229
944.248	126.934
946.921	129.378
949.593	131.093
952.263	130.247
954.932	128.46
957.6	120.787
960.267	131.336
962.932	131.776
965.597	132.954
968.26	131.126
970.922	134.415
973.581	134.224
976.241	135.684
978.898	128.238
981.555	138.316
984.21	133.186
986.864	141.574
989.517	146.599
992.169	149.3
994.819	165.229
997.468	175.553
1000.12	193.625
1002.76	207.377
1005.41	219.602
1008.05	239.174
1010.69	246.063
1013.34	243.862
1015.98	229.95
1018.61	200.982
1021.25	177.218
1023.89	159.07
1026.52	148.185
1029.16	141.375
1031.79	135.809
1034.42	145.859
1037.05	142.555
1039.68	144.871
1042.31	142.666
1044.93	145.447
1047.56	145.925
1050.18	152.383
1052.81	146.218
1055.43	150.014
1058.05	145.528
1060.67	143.032
1063.28	146.092
1065.9	153.093
1068.52	144.496
1071.13	151.855
1073.74	155.76
1076.35	160.167
1078.96	163.767
1081.57	176.581
1084.18	176.302
1086.79	179.37
1089.39	189.029
1092	199.037
1094.6	205.389
1097.2	206.236
1099.8	198.147
1102.4	184.313
1105	180.413
1107.6	168.726
1110.19	172.377
1112.79	168.077
1115.38	170.601
1117.97	184.3
1120.56	186.257
1123.15	175.417
1125.74	172.368
1128.33	167.338
1130.91	159.936
1133.5	160.377
1136.08	147.592
1138.66	142.277
1141.24	144.138
1143.82	146.098
1146.4	139.174
1148.98	145.239
1151.55	145.596
1154.13	146.76
1156.7	146.208
1159.27	146.497
1161.85	140.056
1164.42	135.426
1166.98	129.895
1169.55	133.097
1172.12	125.53
1174.68	125.362
1177.25	130.98
1179.81	130.279
1182.37	131.499
1184.93	128.165
1187.49	126.331
1190.05	121.76
1192.6	125.701
1195.16	120.962
1197.71	125.349
1200.27	118.857
1202.82	119.986
1205.37	116.59
1207.92	117.243
1210.47	111.633
1213.01	109.269
1215.56	111.079
1218.1	111.796
1220.65	113.943
1223.19	109.437
1225.73	115.122
1228.27	115.821
1230.81	117.313
1233.35	117.458
1235.88	121.732
1238.42	115.11
1240.95	120.921
1243.48	117.035
1246.02	120.936
1248.55	124.005
1251.07	124.412
1253.6	117.998
1256.13	124.12
1258.66	122.961
1261.18	124.544
1263.7	121.768
1266.22	120.968
1268.75	122.687
1271.27	125.85
1273.78	127.755
1276.3	121.717
1278.82	127.942
1281.33	124.458
1283.85	127.843
1286.36	124.863
1288.87	129.785
1291.38	128.452
1293.89	126.957
1296.4	130.768
1298.9	131.388
1301.41	123.073
1303.91	128.973
1306.41	128.077
1308.92	122.853
1311.42	120.07
1313.92	124.428
1316.42	126.053
1318.91	125.721
1321.41	126.156
1323.9	126.787
1326.4	130.844
1328.89	134.283
1331.38	135.197
1333.87	131.354
1336.36	134.999
1338.85	131.968
1341.34	136.388
1343.82	134.037
1346.31	132.372
1348.79	130.34
1351.27	131.19
1353.75	134.164
1356.23	138.653
1358.71	133.964
1361.19	138.386
1363.66	146.342
1366.14	140.38
1368.61	147.891
1371.09	145.723
1373.56	151.746
1376.03	158.36
1378.5	160.831
1380.96	170.025
1383.43	176.08
1385.9	166.914
1388.36	161.76
1390.83	148.412
1393.29	143.276
1395.75	145.241
1398.21	126.583
1400.67	128.945
1403.13	122.683
1405.58	119.623
1408.04	118.202
1410.49	122.317
1412.95	122.324
1415.4	124.018
1417.85	119.229
1420.3	117.641
1422.75	127.446
1425.2	130.349
1427.64	121.387
1430.09	117.528
1432.53	122.684
1434.97	116.929
1437.42	118.079
1439.86	122.005
1442.3	113.677
1444.73	113.365
1447.17	113.571
1449.61	116.447
1452.04	109.253
1454.48	116.992
1456.91	107.941
1459.34	107.617
1461.77	107.853
1464.2	105.968
1466.63	109.521
1469.06	108.95
1471.48	109.728
1473.91	110.047
1476.33	105.251
1478.75	103.089
1481.17	104.489
1483.6	102.435
1486.01	101.267
1488.43	100.39
1490.85	99.8881
1493.27	93.2759
1495.68	98.4494
1498.09	87.8553
1500.51	95.4673
1502.92	94.9137
1505.33	89.3177
1507.74	90.2408
1510.14	95.2042
1512.55	97.4127
1514.96	92.5532
1517.36	89.7054
1519.77	89.229
1522.17	95.504
1524.57	93.0047
1526.97	95.7194
1529.37	94.3716
1531.77	90.4915
1534.16	95.0026
1536.56	98.1658
1538.95	98.6306
1541.35	91.7301
1543.74	99.7032
1546.13	96.6465
1548.52	93.3682
1550.91	101.206
1553.3	97.4104
1555.68	96.2673
1558.07	98.3313
1560.45	92.8865
1562.84	98.163
1565.22	96.7325
1567.6	109.138
1569.98	105.079
1572.36	104.91
1574.74	100.414
1577.12	108.377
1579.49	106.362
1581.87	109.068
1584.24	103.961
1586.61	100.748
1588.98	93.787
1591.35	104.619
1593.72	100.888
1596.09	101.077
1598.46	95.7963
1600.82	98.7843
1603.19	87.7119
1605.55	89.6839
1607.92	87.825
1610.28	91.5009
1612.64	89.229
1615	86.5439
1617.36	86.841
1619.71	87.0543
1622.07	85.1904
1624.42	82.957
1626.78	89.5306
1629.13	87.4372
1631.48	86.9867
1633.83	87.1087
1636.18	83.4805
1638.53	83.2041
1640.88	84.4192
1643.22	80.306
1645.57	87.0725
1647.91	79.7344
1650.26	85.0924
1652.6	86.8998
1654.94	82.896
1657.28	81.7457
1659.62	84.4672
1661.96	88.7909
1664.29	80.453
1666.63	75.0406
1668.96	80.775
1671.3	77.296
1673.63	76.5122
1675.96	78.7948
1678.29	77.4212
1680.62	77.0564
1682.95	80.5335
1685.27	78.6277
1687.6	78.6151
1689.92	78.1675
1692.25	77.3586
1694.57	79.843
1696.89	83.3851
1699.21	79.358
1701.53	76.8319
1703.85	75.2359
1706.17	74.4169
1708.48	71.8342
1710.8	78.8046
1713.11	74.156
1715.43	73.5714
1717.74	73.578
1720.05	70.8708
1722.36	72.1951
1724.67	76.2768
1726.97	71.3239
1729.28	73.324
1731.59	72.6212
1733.89	74.6101
1736.19	73.6917
1738.5	73.4557
1740.8	72.2326
1743.1	74.1071
1745.4	78.0088
1747.7	71.8417
1749.99	71.5056
1752.29	69.0206
1754.58	67.2492
1756.88	70.7703
1759.17	69.0675
1761.46	66.4054
1763.75	65.8687
1766.04	71.4435
1768.33	71.1285
1770.62	67.4367
1772.91	70.6411
1775.19	67.3562
1777.48	65.2628
1779.76	68.746
1782.04	62.3646
1784.32	69.9862
1786.6	66.8369
1788.88	67.5921
1791.16	66.4898
1793.44	66.6123
1795.71	67.3401
1797.99	61.2656
1800.26	69.5785
1802.54	64.1832
1804.81	60.5123
1807.08	65.2928
1809.35	64.6658
1811.62	64.2694
1813.88	63.6667
1816.15	65.7387
1818.42	61.6802
1820.68	62.9982
1822.95	58.7405
1825.21	68.0924
1827.47	62.4108
1829.73	60.1968
1831.99	63.4603
1834.25	63.3487
1836.51	63.2962
1838.76	63.3563
1841.02	60.8302
1843.27	62.2586
1845.52	63.1366
1847.78	57.5324
1850.03	58.7441
1852.28	60.8568
1854.53	61.1224
1856.78	59.2377
1859.02	61.3694
1861.27	62.5762
1863.51	58.739
1865.76	63.7544
1868	62.9779
1870.24	62.4584
1872.48	61.8026
1874.72	62.3333
1876.96	59.7224
1879.2	59.0705
1881.44	61.4171
1883.67	59.3562
1885.91	62.0267
1888.14	61.3469
1890.37	61.1357
1892.61	62.2763
1894.84	60.832
1897.07	62.0047
1899.29	58.9237
1901.52	59.8498
1903.75	63.2566
1905.97	55.4169
1908.2	63.7209
1910.42	56.0344
1912.64	55.0775
1914.87	55.127
1917.09	56.3508
1919.31	60.0978
1921.52	58.628
1923.74	56.9568
1925.96	54.9744
1928.17	59.1072
1930.39	56.7521
1932.6	59.528
1934.81	61.05
1937.03	56.027
1939.24	59.1281
1941.45	59.5417
1943.65	56.1264
1945.86	58.3305
1948.07	58.7399
1950.27	54.084
1952.48	59.1215
1954.68	60.8998
1956.88	56.4054
1959.08	57.6895
1961.29	54.403
1963.48	54.3519
1965.68	56.0066
1967.88	53.0252
1970.08	55.5803
1972.27	52.4419
1974.47	53.8568
1976.66	57.1862
1978.85	54.694
1981.04	57.1654
1983.23	51.9589
1985.42	55.9255
1987.61	54.3783
1989.8	57.8708
1991.99	56.8204
1994.17	52.7029
1996.36	55.1101
1998.54	49.5141
2000.72	51.0612
2002.9	50.403
2005.08	55.5101
2007.26	51.7388
2009.44	47.982
2011.62	51.4875
2013.8	52.3498
2015.97	50.728
2018.15	47.6714
2020.32	52.1949
2022.49	49.3504
2024.66	52.6841
2026.83	48.4576
2029	48.7755
2031.17	56.8435
2033.34	50.1653
2035.51	52.7319
2037.67	54.3487
2039.84	49.8881
2042	45.4963
2044.16	52.8796
2046.32	49.0545
2048.48	52.0383
2050.64	49.4808
2052.8	46.9908
2054.96	48.6916
2057.12	48.823
2059.27	46.9906
2061.43	49.7116
2063.58	49.0067
2065.73	47.6293
2067.89	45.4963
2070.04	45.6101
2072.19	49.1357
2074.34	48.7138
2076.48	50.7459
2078.63	45.6621
2080.78	47.9664
2082.92	43.9044
2085.07	54.0586
2087.21	47.4916
2089.35	47.7208
2091.49	45.9059
2093.63	45.0658
2095.77	49.0539
2097.91	45.1636
2100.05	45.0294
2102.19	44.403
2104.32	45.5574
2106.45	44.4173
2108.59	44.2129
2110.72	43.7185
2112.85	39.4788
2114.98	43.4716
2117.11	47.0859
2119.24	42.4894
2121.37	42.4421
2123.5	45.3669
2125.62	42.4739
2127.75	42.3123
2129.87	43.9161
2131.99	44.1377
2134.11	45.6186
2136.24	43.934
2138.36	43.6736
2140.47	46.4282
2142.59	41.8657
2144.71	43.5265
2146.83	39.1018
2148.94	41.0999
2151.06	43.3983
2153.17	40.943
2155.28	40.7931
2157.39	42.6417
2159.5	42.3293
2161.61	43.1017
2163.72	40.4511
2165.83	41.485
2167.94	43.0001
2170.04	40.775
2172.15	39.5691
2174.25	37.4234
2176.35	44.437
2178.45	40.2538
2180.56	39.7913
2182.66	43.7015
2184.75	41.8141
2186.85	39.839
2188.95	38.4606
2191.05	40.6187
2193.14	43.1542
2195.24	39.3014
2197.33	40.3153
2199.42	37.5622
2201.51	44.703
2203.6	38.8345
2205.69	38.8865
2207.78	41.3469
2209.87	41.4125
2211.96	45.3668
2214.04	41.8571
2216.13	42.2397
2218.21	38.682
2220.29	41.851
2222.38	40.8302
2224.46	43.3721
2226.54	36.6961
2228.62	35.6734
2230.69	38.3492
2232.77	39.9609
2234.85	38.399
2236.92	34.7387
2239	38.0292
2241.07	37.9276
2243.15	40.1455
2245.22	36.5712
2247.29	38.8317
2249.36	38.2177
2251.43	39.6276
2253.49	36.1831
2255.56	34.7591
2257.63	40.2194
2259.69	36.0998
2261.76	40.3666
2263.82	37.7913
2265.88	35.0796
2267.95	32.9744
2270.01	37.324
2272.07	38.7892
2274.12	37.1455
2276.18	37.6252
2278.24	36.6734
2280.3	34.2023
2282.35	38.0246
2284.41	34.7386
2286.46	37.6456
2288.51	34.3485
2290.56	35.546
2292.61	37.5916
2294.66	31.2066
2296.71	35.4417
2298.76	32.5463
2300.8	36.4054
2302.85	34.2064
2304.9	35.7013
2306.94	35.1138
2308.98	36.6255
2311.03	34.9002
2313.07	34.6096
2315.11	35.6261
2317.15	32.2023
2319.19	32.0428
2321.22	32.0379
2323.26	34.0344
2325.3	36.7013
2327.33	33.3605
2329.36	33.9954
2331.4	34.1564
2333.43	38.5364
2335.46	31.3876
2337.49	33.4105
2339.52	31.0449
2341.55	33.2397
2343.58	32.4557
2345.6	38.3966
2347.63	46.1903
2349.65	32.4778
2351.68	31.288
2353.7	31.7054
2355.72	31.1457
2357.74	33.8304
2359.76	32.5007
2361.78	34.0775
2363.8	29.0229
2365.82	30.1793
2367.84	31.2961
2369.85	31.685
2371.87	34.2874
2373.88	33.5141
2375.9	32.7844
2377.91	31.5323
2379.92	30.7441
2381.93	31.7194
2383.94	30.4651
2385.95	33.46
2387.96	32.3354
2389.96	31.6504
2391.97	28.4989
2393.97	30.4351
2395.98	31.9338
2397.98	31.0432
2399.98	30.1969
2401.98	27.5234
2403.99	28.0048
2405.99	31.7503
2407.98	30.9585
2409.98	27.1844
2411.98	28.4193
2413.98	29.0541
2415.97	29.6293
2417.96	27.5528
2419.96	27.4288
2421.95	30.9794
2423.94	27.6936
2425.93	25.6939
2427.92	26.4106
2429.91	27.585
2431.9	25.4691
2433.89	29.6392
2435.87	24.9414
2437.86	27.5304
2439.84	28.6504
2441.83	26.9724
2443.81	25.2195
2445.79	28.0656
2447.77	28.5512
2449.75	27.7759
2451.73	29.5094
2453.71	29.0539
2455.69	26.1901
2457.67	27.6168
2459.64	27.4447
2461.62	27.6628
2463.59	25.0113
2465.56	25.2041
2467.54	25.7211
2469.51	25.8122
2471.48	27.2568
2473.45	25.7344
2475.42	30.6415
2477.38	27.2781
2479.35	24.6961
2481.32	23.8549
2483.28	26.4969
2485.25	23.1176
2487.21	25.0153
2489.17	23.6436
2491.13	27.546
2493.09	23.7097
2495.05	24.0738
2497.01	23.6572
2498.97	26.9681
2500.93	23.6573
2502.89	22.2177
2504.84	25.633
2506.8	25.9992
2508.75	24.7323
2510.7	23.4417
2512.65	22.914
2514.61	29.7301
2516.56	25.5826
2518.51	23.5259
2520.45	25.7882
2522.4	24.3926
2524.35	25.0048
2526.29	21.996
2528.24	25.3401
2530.18	22.6081
2532.13	24.0901
2534.07	25.3861
2536.01	24.1405
2537.95	26.1901
2539.89	23.7159
2541.83	23.7165
2543.77	23.2195
2545.71	24.3307
2547.64	25.0251
2549.58	25.3968
2551.51	22.6649
2553.45	23.5462
2555.38	25.4349
2557.31	28.0473
2559.25	24.75
2561.18	22.4969
2563.11	24.2451
2565.03	22.9524
2566.96	23.5558
2568.89	23.569
2570.82	23.4304
2572.74	23.3202
2574.67	20.934
2576.59	22.0431
2578.51	24.5301
2580.43	24.7958
2582.36	21.7
2584.28	22.682
2586.2	23.6456
2588.11	21.3012
2590.03	23.1341
2591.95	22.3239
2593.86	26.0541
2595.78	25.2023
2597.69	21.6276
2599.61	23.0428
2601.52	23.3077
2603.43	26.5345
2605.34	22.1793
2607.25	20.823
2609.16	23.1284
2611.07	19.9449
2612.98	20.3469
2614.89	24.165
2616.79	22.5143
2618.7	23.0379
2620.6	22.8498
2622.5	22.7194
2624.41	23.4832
2626.31	26.1459
2628.21	21.9661
2630.11	27.0892
2632.01	25.7503
2633.91	22.3991
2635.8	24.6393
2637.7	23.3562
2639.6	22.1564
2641.49	22.9744
2643.39	26.2555
2645.28	34.3238
2647.17	30.8637
2649.06	33.5281
2650.95	28.9564
2652.84	23.1471
2654.73	26.296
2656.62	25.9744
2658.51	26.9023
2660.4	23.2995
2662.28	26.4123
2664.17	25.0068
2666.05	24.2288
2667.93	26.8974
2669.82	34.0431
2671.7	40.9925
2673.58	57.4894
2675.46	68.5808
2677.34	68.3038
2679.21	55.7684
2681.09	46.1084
2682.97	45.4609
2684.84	38.0855
2686.72	34.0472
2688.59	38.821
2690.47	58.0793
2692.34	81.5528
2694.21	182.593
2696.08	215.435
2697.95	215.562
2699.82	148.045
2701.69	85.4805
2703.56	59.8568
2705.42	47.7684
2707.29	34.9223
2709.15	33.3599
2711.02	26.0541
2712.88	25.3082
2714.75	26.4123
2716.61	22.7684
2718.47	20.821
2720.33	20.1102
2722.19	21.8633
2724.05	20.5182
2725.9	23.3562
2727.76	23.1862
2729.62	21.1264
2731.47	20.3645
2733.33	20.3562
2735.18	20.6485
2737.03	20.0409
2738.88	18.4984
2740.73	19.9041
2742.59	17.7684
2744.43	20.9135
2746.28	19.5219
2748.13	19.227
2749.98	19.1246
2751.82	18.3485
2753.67	18.6456
2755.51	16.5622
2757.36	17.7526
2759.2	18.7503
2761.04	14.2944
2762.88	15.3878
