365.286	212.635
368.238	211.713
371.189	225.79
374.139	230.016
377.087	228.378
380.034	247.775
382.979	230.39
385.923	222.71
388.866	215.493
391.806	212.907
394.745	206.848
397.684	202.433
400.62	206.228
403.555	216.88
406.49	217.116
409.421	204.564
412.353	216.575
415.282	217.63
418.209	220.065
421.137	220.008
424.062	221.246
426.985	228.553
429.908	245.486
432.829	241.617
435.748	258.556
438.666	248.675
441.583	235.312
444.498	229.519
447.412	223.385
450.324	217.301
453.235	215.09
456.145	221.361
459.052	216.334
461.959	204.82
464.865	204.549
467.769	183.481
470.671	187.547
473.572	178.729
476.471	191.778
479.37	190.672
482.266	192.33
485.162	190.248
488.056	194.578
490.948	197.289
493.839	190.811
496.73	189.264
499.618	188.274
502.505	186.036
505.39	188.362
508.275	189.824
511.157	188.827
514.039	192.561
516.919	194.607
519.798	196.646
522.674	189.905
525.55	184.607
528.425	170.786
531.297	176.303
534.169	168.984
537.039	178.316
539.908	171.051
542.775	167.556
545.642	167.254
548.506	162.472
551.369	166.343
554.231	181.289
557.092	176.828
559.951	163.932
562.808	172.998
565.664	172.294
568.519	168.498
571.373	176.773
574.225	173.558
577.076	173.868
579.925	177.608
582.773	169.797
585.62	177.746
588.466	175.466
591.309	173.654
594.152	166.259
596.993	172.211
599.832	171.69
602.671	161.579
605.508	171.693
608.343	164.742
611.178	172.173
614.011	167.227
616.842	163.835
619.672	173.047
622.501	175.282
625.329	171.723
628.155	177.676
630.98	181.99
633.802	189.146
636.624	192.299
639.445	187.754
642.264	179.685
645.082	172.104
647.898	186.13
650.714	183.61
653.527	188.801
656.34	197.613
659.151	201.074
661.961	195.767
664.769	189.213
667.576	184.171
670.382	173.572
673.186	163.538
675.989	163.474
678.791	160.176
681.591	160.845
684.39	159.028
687.187	162.429
689.983	162.184
692.779	164.09
695.572	167.827
698.363	167.852
701.155	175.973
703.944	169.978
706.733	170.582
709.519	177.24
712.305	167.771
715.089	175.116
717.871	169.113
720.653	179.503
723.433	176.603
726.212	179.085
728.989	170.564
731.765	174.582
734.54	171.602
737.313	172.051
740.085	167.057
742.856	172.134
745.625	164.004
748.394	162.546
751.16	166.43
753.926	170.753
756.689	165.785
759.452	169.543
762.214	175.765
764.974	164.507
767.733	175.37
770.49	157.739
773.246	157.933
776.001	159.55
778.755	163.675
781.507	166.492
784.258	174.716
787.007	167.958
789.756	175.166
792.502	177.045
795.247	178.445
797.992	177.553
800.735	175.059
803.477	174.536
806.217	182.049
808.956	175.129
811.694	184.146
814.43	181.65
817.165	182.122
819.899	177.435
822.631	181.271
825.362	175.36
828.092	172.381
830.82	168.63
833.548	169.288
836.274	170.647
838.998	181.357
841.721	173.941
844.444	175.176
847.165	180.316
849.884	163.689
852.601	165.135
855.318	171.602
858.034	161.686
860.749	164.582
863.461	163.306
866.173	169.368
868.883	158.463
871.592	160.277
874.3	162.485
877.006	159.355
879.712	160.651
882.415	160.027
885.118	155.095
887.819	163.23
890.519	163.231
893.218	160.514
895.914	154.375
898.611	159.138
901.306	157.463
903.999	164.885
906.692	164.503
909.382	167.292
912.072	160.847
914.761	157.225
917.447	155.809
920.133	151.507
922.818	158.133
925.501	149.628
928.183	157.498
930.864	158.759
933.543	158.014
936.221	155.524
938.898	153.902
941.574	161.454
944.248	156.555
946.921	155.019
949.593	154.519
952.263	153.141
954.932	159.012
957.6	164.413
960.267	166.308
962.932	165.37
965.597	169.404
968.26	168.112
970.922	160.238
973.581	167.509
976.241	173.912
978.898	180.24
981.555	190.314
984.21	200.952
986.864	217.024
989.517	239.986
992.169	279.462
994.819	300.277
997.468	335.637
1000.12	356.402
1002.76	381.426
1005.41	398.745
1008.05	398.112
1010.69	378.024
1013.34	347.285
1015.98	300.163
1018.61	250.003
1021.25	210.258
1023.89	191.716
1026.52	178.625
1029.16	177.339
1031.79	179.605
1034.42	186.912
1037.05	170.377
1039.68	179.902
1042.31	181.848
1044.93	190.938
1047.56	204.387
1050.18	217.175
1052.81	215.049
1055.43	213.105
1058.05	197.093
1060.67	189.531
1063.28	185.715
1065.9	181.489
1068.52	184.346
1071.13	191.084
1073.74	190.032
1076.35	196.746
1078.96	203.897
1081.57	227.02
1084.18	230.515
1086.79	234.205
1089.39	246.034
1092	233.077
1094.6	247.299
1097.2	240.383
1099.8	238.587
1102.4	219.489
1105	211.574
1107.6	212.318
1110.19	214.502
1112.79	237.14
1115.38	254.514
1117.97	255.899
1120.56	249.933
1123.15	260.254
1125.74	234.049
1128.33	229.992
1130.91	214.007
1133.5	200.282
1136.08	196.906
1138.66	198.206
1141.24	197.651
1143.82	187.925
1146.4	192.643
1148.98	197.236
1151.55	208.984
1154.13	201.599
1156.7	195.63
1159.27	194.346
1161.85	180.986
1164.42	183.837
1166.98	180.197
1169.55	173.496
1172.12	166.897
1174.68	171.054
1177.25	176.067
1179.81	165.696
1182.37	164.197
1184.93	162.595
1187.49	149.675
1190.05	155.233
1192.6	152.952
1195.16	156.88
1197.71	155.575
1200.27	151.472
1202.82	154.459
1205.37	148.209
1207.92	151.515
1210.47	153.211
1213.01	152.934
1215.56	152.071
1218.1	151.019
1220.65	151.047
1223.19	152.052
1225.73	161.688
1228.27	164.057
1230.81	156.029
1233.35	158.514
1235.88	162.274
1238.42	155.731
1240.95	159.822
1243.48	157.744
1246.02	159.582
1248.55	151.957
1251.07	151.022
1253.6	151.782
1256.13	157.488
1258.66	160.373
1261.18	155.16
1263.7	156.941
1266.22	152.5
1268.75	150.587
1271.27	147.641
1273.78	151.296
1276.3	151.25
1278.82	156.155
1281.33	158.963
1283.85	158.956
1286.36	160.94
1288.87	161.218
1291.38	158.892
1293.89	168.389
1296.4	162.386
1298.9	162.501
1301.41	163.551
1303.91	151.248
1306.41	152.129
1308.92	149.063
1311.42	153.631
1313.92	158.78
1316.42	152.963
1318.91	151.33
1321.41	154.257
1323.9	156.93
1326.4	155.55
1328.89	165.113
1331.38	161.787
1333.87	160.604
1336.36	162.924
1338.85	161.444
1341.34	157.482
1343.82	163.93
1346.31	151.717
1348.79	156.549
1351.27	157.587
1353.75	158.801
1356.23	162.24
1358.71	166.686
1361.19	175.155
1363.66	174.364
1366.14	177.543
1368.61	184.946
1371.09	188.114
1373.56	184.522
1376.03	192.973
1378.5	193.163
1380.96	198.385
1383.43	202.211
1385.9	192.984
1388.36	186.925
1390.83	175.927
1393.29	171.492
1395.75	161.157
1398.21	154.265
1400.67	151.464
1403.13	146.951
1405.58	151.859
1408.04	147.334
1410.49	144.579
1412.95	148.378
1415.4	148.747
1417.85	141.003
1420.3	144.195
1422.75	144.63
1425.2	149.292
1427.64	140.382
1430.09	141.115
1432.53	143.492
1434.97	147.621
1437.42	146.815
1439.86	142.823
1442.3	148.142
1444.73	134.769
1447.17	143.023
1449.61	133.183
1452.04	131.193
1454.48	124.471
1456.91	125.963
1459.34	129.827
1461.77	130.371
1464.2	133.918
1466.63	127.782
1469.06	138.494
1471.48	124.925
1473.91	129.71
1476.33	128.941
1478.75	130.183
1481.17	132.34
1483.6	128.543
1486.01	121.443
1488.43	124.207
1490.85	119.046
1493.27	117.272
1495.68	121.794
1498.09	115.952
1500.51	114.758
1502.92	117.512
1505.33	116.257
1507.74	113.963
1510.14	113.253
1512.55	117.788
1514.96	119.23
1517.36	113.334
1519.77	116.567
1522.17	119.086
1524.57	115.057
1526.97	124.022
1529.37	118.188
1531.77	117.003
1534.16	119.114
1536.56	124.549
1538.95	127.556
1541.35	124.674
1543.74	130.715
1546.13	130.915
1548.52	131.391
1550.91	139.941
1553.3	138.494
1555.68	138.247
1558.07	139.407
1560.45	132.557
1562.84	130.938
1565.22	134.138
1567.6	133.668
1569.98	134.313
1572.36	137.391
1574.74	140.267
1577.12	137.602
1579.49	130.43
1581.87	124.021
1584.24	125.986
1586.61	114.026
1588.98	125.552
1591.35	119.521
1593.72	121.185
1596.09	120.178
1598.46	115.412
1600.82	114.64
1603.19	114.1
1605.55	113.047
1607.92	108.521
1610.28	110.803
1612.64	108.36
1615	109.155
1617.36	111.804
1619.71	112.813
1622.07	106.277
1624.42	106.521
1626.78	106.718
1629.13	107.039
1631.48	104.225
1633.83	104.163
1636.18	96.7667
1638.53	101.41
1640.88	105.313
1643.22	94.2064
1645.57	98.729
1647.91	101.984
1650.26	97.497
1652.6	102.004
1654.94	101.137
1657.28	98.9953
1659.62	99.9654
1661.96	100.711
1664.29	98.2813
1666.63	91.0489
1668.96	98.2509
1671.3	96.8733
1673.63	92.7957
1675.96	95.3823
1678.29	96.4553
1680.62	92.5614
1682.95	100.5
1685.27	94.4915
1687.6	91.6671
1689.92	98.8985
1692.25	99.3469
1694.57	94.6823
1696.89	98.3529
1699.21	93.7584
1701.53	92.4634
1703.85	95.7578
1706.17	94.8362
1708.48	90.0909
1710.8	90.7486
1713.11	95.1364
1715.43	94.2346
1717.74	96.1727
1720.05	91.821
1722.36	91.4059
1724.67	90.6249
1726.97	91.3113
1729.28	87.1701
1731.59	90.1777
1733.89	89.6374
1736.19	88.4176
1738.5	88.4498
1740.8	93.475
1743.1	89.3644
1745.4	89.4592
1747.7	85.4615
1749.99	91.7156
1752.29	90.5991
1754.58	83.8415
1756.88	84.9506
1759.17	86.7703
1761.46	80.974
1763.75	88.6115
1766.04	84.588
1768.33	86.4042
1770.62	85.556
1772.91	86.3091
1775.19	82.8192
1777.48	84.2905
1779.76	84.3714
1782.04	85.3975
1784.32	81.3614
1786.6	84.857
1788.88	79.4606
1791.16	79.0339
1793.44	83.6857
1795.71	82.6392
1797.99	80.4735
1800.26	77.365
1802.54	77.1673
1804.81	79.7108
1807.08	82.9967
1809.35	83.1745
1811.62	82.129
1813.88	77.829
1816.15	77.494
1818.42	82.0667
1820.68	79.0318
1822.95	78.4323
1825.21	80.1115
1827.47	78.3212
1829.73	75.588
1831.99	79.6035
1834.25	77.5406
1836.51	74.0585
1838.76	73.6467
1841.02	71.864
1843.27	76.135
1845.52	74.9402
1847.78	79.4845
1850.03	77.1229
1852.28	72.6927
1854.53	74.9637
1856.78	76.4964
1859.02	78.818
1861.27	75.2708
1863.51	75.4634
1865.76	75.6999
1868	77.5944
1870.24	71.16
1872.48	71.6047
1874.72	75.5237
1876.96	70.9265
1879.2	75.2976
1881.44	74.4406
1883.67	76.5894
1885.91	80.0655
1888.14	75.3371
1890.37	72.8713
1892.61	69.7594
1894.84	73.0489
1897.07	72.9151
1899.29	72.6604
1901.52	71.8724
1903.75	78.9414
1905.97	69.0337
1908.2	68.6456
1910.42	71.8324
1912.64	62.417
1914.87	71.4887
1917.09	71.8239
1919.31	66.8448
1921.52	72.3523
1923.74	72.2664
1925.96	68.9193
1928.17	63.6303
1930.39	64.7201
1932.6	65.9018
1934.81	70.2322
1937.03	68.4196
1939.24	68.3567
1941.45	69.5309
1943.65	66.4978
1945.86	65.3204
1948.07	70.5563
1950.27	67.0792
1952.48	67.2456
1954.68	67.8838
1956.88	66.4053
1959.08	62.2623
1961.29	69.1799
1963.48	61.0513
1965.68	68.5617
1967.88	66.1392
1970.08	65.3452
1972.27	62.3073
1974.47	65.2309
1976.66	59.8034
1978.85	68.7901
1981.04	63.4677
1983.23	65.8324
1985.42	64.7503
1987.61	64.6719
1989.8	59.6824
1991.99	66.3596
1994.17	60.4929
1996.36	64.1401
1998.54	61.488
2000.72	59.9375
2002.9	59.9752
2005.08	64.7283
2007.26	64.6666
2009.44	60.99
2011.62	63.2304
2013.8	57.4196
2015.97	60.9961
2018.15	59.4016
2020.32	62.3338
2022.49	56.9181
2024.66	60.7992
2026.83	63.8351
2029	59.1402
2031.17	57.8632
2033.34	58.2329
2035.51	63.3665
2037.67	63.4391
2039.84	63.0118
2042	59.9754
2044.16	56.6029
2046.32	56.5634
2048.48	59.4405
2050.64	54.5517
2052.8	56.9074
2054.96	56.6236
2057.12	57.4449
2059.27	57.5601
2061.43	56.1673
2063.58	53.2813
2065.73	61.6045
2067.89	55.1325
2070.04	53.0416
2072.19	55.7168
2074.34	59.276
2076.48	52.9571
2078.63	57.3242
2080.78	57.6977
2082.92	58.8861
2085.07	54.759
2087.21	58.3282
2089.35	55.7948
2091.49	53.6045
2093.63	54.6719
2095.77	51.9925
2097.91	53.6948
2100.05	53.0882
2102.19	55.9909
2104.32	52.7409
2106.45	53.3775
2108.59	52.5997
2110.72	56.4551
2112.85	52.3059
2114.98	50.1426
2117.11	50.1344
2119.24	54.2565
2121.37	51.2057
2123.5	50.5919
2125.62	54.9942
2127.75	54.9122
2129.87	54.0612
2131.99	52.7913
2134.11	53.8669
2136.24	54.4099
2138.36	48.6953
2140.47	49.9543
2142.59	48.9408
2144.71	47.0106
2146.83	46.3385
2148.94	52.509
2151.06	50.2782
2153.17	52.3523
2155.28	53.7739
2157.39	50.3813
2159.5	46.0053
2161.61	48.3014
2163.72	45.1782
2165.83	49.3242
2167.94	49.1235
2170.04	48.7687
2172.15	48.1724
2174.25	49.1402
2176.35	46.0726
2178.45	48.0409
2180.56	44.9765
2182.66	46.2756
2184.75	48.4059
2186.85	47.25
2188.95	44.8713
2191.05	44.4503
2193.14	48.7099
2195.24	45.8941
2197.33	46.2171
2199.42	43.8914
2201.51	47.5679
2203.6	47.0513
2205.69	48.8941
2207.78	45.2531
2209.87	47.7479
2211.96	43.6981
2214.04	47.5243
2216.13	46.5464
2218.21	45.2474
2220.29	51.1716
2222.38	50.5517
2224.46	49.8893
2226.54	44.9452
2228.62	46.3295
2230.69	45.7628
2232.77	46.3813
2234.85	43.927
2236.92	42.4099
2239	47.7907
2241.07	45.0281
2243.15	41.3338
2245.22	42.9408
2247.29	42.8011
2249.36	43.2665
2251.43	46.8267
2253.49	45.0388
2255.56	43.6773
2257.63	40.8522
2259.69	43.7675
2261.76	42.7172
2263.82	42.3512
2265.88	43.9455
2267.95	40.1811
2270.01	43.8767
2272.07	43.1164
2274.12	41.0281
2276.18	46.1837
2278.24	40.6857
2280.3	43.3139
2282.35	41.2412
2284.41	38.5679
2286.46	42.1344
2288.51	38.5932
2290.56	43.3672
2292.61	39.7447
2294.66	40.9051
2296.71	37.8001
2298.76	40.1684
2300.8	39.2484
2302.85	42.5368
2304.9	40.1344
2306.94	37.6642
2308.98	39.2813
2311.03	40.0371
2313.07	41.1825
2315.11	41.026
2317.15	36.1072
2319.19	37.8432
2321.22	41.4854
2323.26	39.0034
2325.3	40.7043
2327.33	38.4244
2329.36	39.4701
2331.4	37.5029
2333.43	35.4876
2335.46	38.5115
2337.49	34.1511
2339.52	41.3698
2341.55	35.8473
2343.58	36.7497
2345.6	39.5866
2347.63	50.6311
2349.65	35.1389
2351.68	38.6767
2353.7	37.8826
2355.72	35.9116
2357.74	37.5035
2359.76	37.1235
2361.78	37.6004
2363.8	38.0042
2365.82	37.5537
2367.84	34.344
2369.85	32.7856
2371.87	37.4854
2373.88	35.6637
2375.9	32.6545
2377.91	35.0268
2379.92	33.4541
2381.93	36.5997
2383.94	32.4583
2385.95	33.9597
2387.96	38.9603
2389.96	31.3704
2391.97	36.8011
2393.97	33.8515
2395.98	36.8102
2397.98	36.1364
2399.98	35.5581
2401.98	36.8893
2403.99	34.1058
2405.99	34.7411
2407.98	34.2281
2409.98	33.9517
2411.98	30.2887
2413.98	33.3601
2415.97	33.1482
2417.96	32.1002
2419.96	32.8468
2421.95	30.7692
2423.94	34.9449
2425.93	30.5281
2427.92	31.8893
2429.91	31.2346
2431.9	26.6953
2433.89	33.3585
2435.87	34.651
2437.86	35.2782
2439.84	33.0207
2441.83	30.7717
2443.81	31.0207
2445.79	32.3847
2447.77	32.4487
2449.75	31.9195
2451.73	32.0737
2453.71	30.1597
2455.69	31.1645
2457.67	29.362
2459.64	31.2318
2461.62	29.0267
2463.59	31.4523
2465.56	32.1948
2467.54	33.3415
2469.51	30.0496
2471.48	29.6322
2473.45	30.9643
2475.42	33.688
2477.38	30.2039
2479.35	28.9141
2481.32	28.2539
2483.28	35.864
2485.25	28.4776
2487.21	32.8187
2489.17	27.5795
2491.13	28.3768
2493.09	34.2905
2495.05	29.3358
2497.01	30.0034
2498.97	31.3041
2500.93	30.8678
2502.89	26.6738
2504.84	31.6823
2506.8	31.3938
2508.75	30.4029
2510.7	29.1415
2512.65	27.1398
2514.61	28.9577
2516.56	30.6495
2518.51	30.9543
2520.45	26.6336
2522.4	27.5181
2524.35	29.3112
2526.29	28.1072
2528.24	30.588
2530.18	27.094
2532.13	29.2318
2534.07	26.3567
2536.01	26.2806
2537.95	26.7782
2539.89	27.8338
2541.83	25.1668
2543.77	28.5452
2545.71	30.5062
2547.64	26.9883
2549.58	27.2193
2551.51	25.2156
2553.45	26.6766
2555.38	29.4153
2557.31	27.6671
2559.25	27.8084
2561.18	25.328
2563.11	27.7606
2565.03	27.2221
2566.96	27.2528
2568.89	26.7201
2570.82	27.2923
2572.74	30.6439
2574.67	28.7447
2576.59	25.0097
2578.51	25.232
2580.43	24.1
2582.36	24.9167
2584.28	26.5735
2586.2	28.538
2588.11	25.7337
2590.03	24.7322
2591.95	28.3819
2593.86	22.6846
2595.78	26.3819
2597.69	22.9555
2599.61	24.3794
2601.52	27.5962
2603.43	26.1008
2605.34	26.3906
2607.25	27.9226
2609.16	26.4029
2611.07	23.8045
2612.98	27.8989
2614.89	27.2654
2616.79	26.7151
2618.7	27.1553
2620.6	28.5637
2622.5	27.0634
2624.41	25.7393
2626.31	26.5399
2628.21	29.4671
2630.11	27.0869
2632.01	29.1317
2633.91	24.0233
2635.8	26.3682
2637.7	26.7556
2639.6	26.7873
2641.49	25.2756
2643.39	27.7201
2645.28	32.6064
2647.17	36.3728
2649.06	38.4906
2650.95	35.4298
2652.84	31.3632
2654.73	30.0557
2656.62	26.2878
2658.51	28.5987
2660.4	27.9636
2662.28	26.6192
2664.17	27.4934
2666.05	29.0004
2667.93	33.4047
2669.82	39.6179
2671.7	49.3385
2673.58	72.8492
2675.46	86.7128
2677.34	87.1343
2679.21	74.968
2681.09	56.1825
2682.97	50.2072
2684.84	41.9204
2686.72	38.9103
2688.59	47.3332
2690.47	69.1338
2692.34	91.634
2694.21	234.87
2696.08	284.609
2697.95	245.331
2699.82	175.388
2701.69	94.0954
2703.56	73.0128
2705.42	55.1531
2707.29	44.1329
2709.15	37.0348
2711.02	31.7789
2712.88	29.6865
2714.75	29.1351
2716.61	27.8312
2718.47	28.7782
2720.33	24.4523
2722.19	28.3648
2724.05	26.5892
2725.9	26.6948
2727.76	26.0078
2729.62	25.2138
2731.47	24.1559
2733.33	25.8016
2735.18	23.2384
2737.03	22.7528
2738.88	24.1896
2740.73	23.2707
2742.59	20.2304
2744.43	24.4327
2746.28	24.6576
2748.13	23.6042
2749.98	20.3765
2751.82	23.1782
2753.67	23.454
2755.51	21.4769
2757.36	22.1645
2759.2	21.4047
2761.04	22.979
2762.88	19.0106
