365.286	209.794
368.238	213.799
371.189	222.465
374.139	233.9
377.087	255.288
380.034	255.004
382.979	248.25
385.923	229.98
388.866	216.42
391.806	204.936
394.745	205.988
397.684	208.509
400.62	212.998
403.555	209.14
406.49	211.272
409.421	207.999
412.353	210.039
415.282	211.377
418.209	220.499
421.137	214.472
424.062	224.302
426.985	225.564
429.908	243.225
432.829	250.503
435.748	255.288
438.666	242.594
441.583	238.398
444.498	237.626
447.412	233.889
450.324	227.472
453.235	224.265
456.145	236.049
459.052	229.858
461.959	228.11
464.865	201.826
467.769	199.334
470.671	193.972
473.572	194.76
476.471	189.157
479.37	194.732
482.266	190.458
485.162	184.511
488.056	190.82
490.948	193.717
493.839	192.142
496.73	193.743
499.618	194.571
502.505	192.701
505.39	193.668
508.275	189.809
511.157	194.063
514.039	198.872
516.919	200.67
519.798	202.738
522.674	201.95
525.55	189.92
528.425	182.911
531.297	174.111
534.169	175.08
537.039	171.493
539.908	171.482
542.775	174.591
545.642	169.834
548.506	166.138
551.369	165.576
554.231	179.305
557.092	176.285
559.951	181.373
562.808	177.536
565.664	176.794
568.519	183.841
571.373	181.517
574.225	175.572
577.076	185.268
579.925	166.336
582.773	173.965
585.62	170.443
588.466	166.758
591.309	167.095
594.152	170.372
596.993	168.627
599.832	166.778
602.671	166.466
605.508	172.813
608.343	171.404
611.178	164.409
614.011	161.636
616.842	166.08
619.672	157.014
622.501	170.976
625.329	170.675
628.155	179.465
630.98	177.065
633.802	172.673
636.624	169.547
639.445	168.29
642.264	169.673
645.082	171.74
647.898	168.34
650.714	178.628
653.527	186.905
656.34	183.487
659.151	181.157
661.961	180.401
664.769	170.71
667.576	171.645
670.382	156.701
673.186	160.376
675.989	159.172
678.791	156.401
681.591	156.846
684.39	150.25
687.187	153.781
689.983	161.05
692.779	163.901
695.572	151.706
698.363	164.815
701.155	154.52
703.944	149.89
706.733	152.232
709.519	153.169
712.305	153.731
715.089	163.114
717.871	152.557
720.653	160.293
723.433	161.442
726.212	160.049
728.989	157.646
731.765	153.683
734.54	158.419
737.313	158.806
740.085	150.999
742.856	153.057
745.625	150.29
748.394	149.221
751.16	152.774
753.926	151.691
756.689	158.971
759.452	158.724
762.214	150.084
764.974	158.504
767.733	153.836
770.49	160.428
773.246	154.25
776.001	155.871
778.755	154.465
781.507	153.944
784.258	156.077
787.007	160.961
789.756	160.468
792.502	154.808
795.247	156.823
797.992	158.828
800.735	154.465
803.477	156.092
806.217	161.724
808.956	165.167
811.694	169.896
814.43	168.339
817.165	158.553
819.899	162.355
822.631	158.104
825.362	154.647
828.092	152.475
830.82	147.3
833.548	159.676
836.274	151.543
838.998	153.278
841.721	156.05
844.444	150.835
847.165	145.243
849.884	141.127
852.601	144.78
855.318	144.184
858.034	143.904
860.749	138.876
863.461	141.532
866.173	145.93
868.883	138.857
871.592	141.243
874.3	141.133
877.006	140.507
879.712	140.147
882.415	139.732
885.118	141.088
887.819	145.292
890.519	145.368
893.218	142.994
895.914	151.138
898.611	151.643
901.306	152.109
903.999	151.003
906.692	146.01
909.382	145.583
912.072	152.345
914.761	139.503
917.447	142
920.133	138.368
922.818	134.839
925.501	136.647
928.183	137.087
930.864	140.562
933.543	135.703
936.221	139.945
938.898	137.605
941.574	131.503
944.248	129.482
946.921	134.783
949.593	128.302
952.263	136.824
954.932	135.509
957.6	134.993
960.267	138.91
962.932	139.953
965.597	137.845
968.26	139.887
970.922	135.855
973.581	147.098
976.241	144.126
978.898	156.558
981.555	165.495
984.21	160.471
986.864	187.075
989.517	194.895
992.169	207.145
994.819	223.421
997.468	234.257
1000.12	241.988
1002.76	252.647
1005.41	252.582
1008.05	246.37
1010.69	240.898
1013.34	226.919
1015.98	205.126
1018.61	185.89
1021.25	175.205
1023.89	156.761
1026.52	154.177
1029.16	160.828
1031.79	159.653
1034.42	153.103
1037.05	152.981
1039.68	158.457
1042.31	158.833
1044.93	166.336
1047.56	171.445
1050.18	163.081
1052.81	168.126
1055.43	178.056
1058.05	160.591
1060.67	170.482
1063.28	164.469
1065.9	165.578
1068.52	168.035
1071.13	177.536
1073.74	180.298
1076.35	184.258
1078.96	188.457
1081.57	188.136
1084.18	200.08
1086.79	221.368
1089.39	235.421
1092	247.935
1094.6	258.852
1097.2	259.802
1099.8	240.946
1102.4	229.317
1105	209.807
1107.6	203.506
1110.19	203.38
1112.79	204.589
1115.38	211.306
1117.97	214.73
1120.56	213.065
1123.15	210.284
1125.74	208.412
1128.33	187.157
1130.91	181.947
1133.5	177.054
1136.08	158.549
1138.66	154.223
1141.24	151.593
1143.82	153.138
1146.4	153.503
1148.98	151.214
1151.55	158.672
1154.13	158.147
1156.7	150.761
1159.27	148.945
1161.85	143.483
1164.42	143.771
1166.98	132.259
1169.55	138.893
1172.12	140.018
1174.68	134.58
1177.25	135.728
1179.81	136.879
1182.37	133.494
1184.93	131.168
1187.49	131.273
1190.05	131.076
1192.6	129.143
1195.16	128.135
1197.71	125.654
1200.27	119.672
1202.82	122.853
1205.37	121.067
1207.92	120.124
1210.47	115.091
1213.01	115.298
1215.56	117.989
1218.1	116.592
1220.65	123.485
1223.19	123.182
1225.73	123.367
1228.27	125.703
1230.81	127.434
1233.35	126.445
1235.88	130.996
1238.42	125.643
1240.95	119.516
1243.48	125.648
1246.02	127.602
1248.55	128.923
1251.07	127.219
1253.6	124.068
1256.13	125.577
1258.66	123.368
1261.18	128.881
1263.7	130.779
1266.22	124.466
1268.75	124.399
1271.27	142.479
1273.78	128.898
1276.3	131.812
1278.82	129.621
1281.33	129.59
1283.85	129.984
1286.36	133.734
1288.87	126.048
1291.38	137.801
1293.89	135.195
1296.4	137.67
1298.9	131.613
1301.41	126.235
1303.91	132.427
1306.41	132.675
1308.92	128.021
1311.42	123.931
1313.92	128.714
1316.42	124.204
1318.91	134.42
1321.41	132.258
1323.9	136.065
1326.4	138.343
1328.89	138.891
1331.38	143.311
1333.87	141.674
1336.36	146.709
1338.85	148.036
1341.34	150.223
1343.82	143.435
1346.31	137.664
1348.79	139.713
1351.27	139.332
1353.75	137.271
1356.23	137.339
1358.71	134.169
1361.19	140.59
1363.66	147.185
1366.14	149.938
1368.61	152.273
1371.09	161.791
1373.56	162.355
1376.03	167.865
1378.5	173.433
1380.96	167.584
1383.43	165.752
1385.9	156.444
1388.36	162.146
1390.83	143.517
1393.29	135.833
1395.75	133.057
1398.21	129.049
1400.67	130.604
1403.13	123.611
1405.58	129.821
1408.04	125.011
1410.49	126.843
1412.95	126.546
1415.4	121.346
1417.85	119.75
1420.3	119.036
1422.75	117.521
1425.2	123.668
1427.64	116.165
1430.09	117.673
1432.53	124.74
1434.97	118.617
1437.42	113.56
1439.86	114.486
1442.3	111.055
1444.73	107.734
1447.17	110.102
1449.61	104.959
1452.04	112.502
1454.48	103.636
1456.91	102.357
1459.34	102.093
1461.77	107.584
1464.2	106.447
1466.63	105.108
1469.06	110.03
1471.48	112.915
1473.91	107.75
1476.33	103.724
1478.75	106.928
1481.17	107.736
1483.6	99.8148
1486.01	99.5565
1488.43	97.0278
1490.85	96.4332
1493.27	93.2588
1495.68	91.4536
1498.09	90.4503
1500.51	93.8938
1502.92	90.5465
1505.33	86.7352
1507.74	94.6942
1510.14	92.9814
1512.55	92.2375
1514.96	88.5251
1517.36	89.9437
1519.77	91.2243
1522.17	94.9942
1524.57	96.1467
1526.97	95.8387
1529.37	90.2651
1531.77	93.6247
1534.16	95.5498
1536.56	92.0561
1538.95	91.7473
1541.35	90.1609
1543.74	96.1494
1546.13	94.2176
1548.52	93.3536
1550.91	92.8119
1553.3	91.4871
1555.68	90.8602
1558.07	94.7448
1560.45	96.219
1562.84	99.9906
1565.22	96.9354
1567.6	97.0825
1569.98	93.7923
1572.36	101.514
1574.74	97.0025
1577.12	102.861
1579.49	95.9322
1581.87	93.2128
1584.24	90.9354
1586.61	93.3023
1588.98	97.3762
1591.35	92.9197
1593.72	92.5433
1596.09	91.2017
1598.46	89.9102
1600.82	95.1074
1603.19	86.7314
1605.55	91.0241
1607.92	86.8947
1610.28	83.9197
1612.64	84.4795
1615	86.6898
1617.36	85.6554
1619.71	85.017
1622.07	78.2929
1624.42	85.5954
1626.78	76.8033
1629.13	79.9618
1631.48	82.2651
1633.83	77.6975
1636.18	80.8546
1638.53	79.5273
1640.88	79.492
1643.22	80.8186
1645.57	74.7243
1647.91	79.193
1650.26	75.5151
1652.6	79.413
1654.94	80.0643
1657.28	77.0879
1659.62	81.0035
1661.96	78.272
1664.29	70.1137
1666.63	76.7065
1668.96	80.9632
1671.3	77.8756
1673.63	74.3028
1675.96	76.9781
1678.29	78.1687
1680.62	72.491
1682.95	74.6171
1685.27	74.3003
1687.6	73.8019
1689.92	71.003
1692.25	72.6697
1694.57	71.5231
1696.89	75.8671
1699.21	71.4389
1701.53	76.0366
1703.85	73.8938
1706.17	70.5366
1708.48	70.9877
1710.8	73.8339
1713.11	72.8881
1715.43	71.6237
1717.74	69.1146
1720.05	70.4158
1722.36	67.7431
1724.67	71.6132
1726.97	73.1088
1729.28	67.6672
1731.59	68.744
1733.89	70.4503
1736.19	67.799
1738.5	70.7716
1740.8	68.7745
1743.1	70.2888
1745.4	69.5245
1747.7	68.9437
1749.99	68.4948
1752.29	70.376
1754.58	70.0721
1756.88	63.4603
1759.17	67.3243
1761.46	68.8684
1763.75	62.3909
1766.04	61.5443
1768.33	65.5996
1770.62	66.3919
1772.91	65.6793
1775.19	65.7582
1777.48	63.244
1779.76	66.7132
1782.04	64.7215
1784.32	64.0025
1786.6	60.2588
1788.88	64.5021
1791.16	63.9179
1793.44	63.299
1795.71	60.8143
1797.99	64.5984
1800.26	63.5428
1802.54	60.1066
1804.81	60.0625
1807.08	60.4552
1809.35	60.253
1811.62	60.6797
1813.88	61.4134
1816.15	60.3358
1818.42	60.7831
1820.68	59.0255
1822.95	63.244
1825.21	62.0285
1827.47	62.512
1829.73	57.5383
1831.99	60.3358
1834.25	57.937
1836.51	57.3542
1838.76	59.4647
1841.02	57.3741
1843.27	59.9479
1845.52	63.2358
1847.78	55.412
1850.03	56.5726
1852.28	56.9663
1854.53	58.287
1856.78	58.3233
1859.02	57.649
1861.27	58.4775
1863.51	55.1314
1865.76	58.7803
1868	54.7132
1870.24	56.2665
1872.48	57.8607
1874.72	56.1334
1876.96	55.4009
1879.2	51.672
1881.44	56.5954
1883.67	55.7095
1885.91	56.8694
1888.14	52.8738
1890.37	54.8334
1892.61	53.6054
1894.84	56.0729
1897.07	52.9377
1899.29	55.2803
1901.52	55.3611
1903.75	62.0053
1905.97	55.013
1908.2	59.6007
1910.42	55.8354
1912.64	55.6935
1914.87	55.4322
1917.09	58.2257
1919.31	52.7678
1921.52	50.1017
1923.74	53.4653
1925.96	55.0213
1928.17	53.0136
1930.39	52.3143
1932.6	55.232
1934.81	51.0926
1937.03	54.2582
1939.24	55.2693
1941.45	52.0356
1943.65	50.772
1945.86	51.1241
1948.07	53.2055
1950.27	50.5879
1952.48	52.5208
1954.68	54.6094
1956.88	51.2271
1959.08	54.8128
1961.29	47.1136
1963.48	51.8938
1965.68	54.2128
1967.88	52.0053
1970.08	49.9958
1972.27	48.4469
1974.47	50.1452
1976.66	53.3309
1978.85	50.976
1981.04	47.2908
1983.23	49.9165
1985.42	54.2651
1987.61	48.2655
1989.8	49.3441
1991.99	47.765
1994.17	47.5614
1996.36	49.3909
1998.54	49.6572
2000.72	48.1542
2002.9	49.8321
2005.08	51.3431
2007.26	47.0553
2009.44	50.0993
2011.62	50.2237
2013.8	50.5835
2015.97	43.9387
2018.15	49.1366
2020.32	45.2716
2022.49	46.2929
2024.66	48.4332
2026.83	44.9977
2029	49.491
2031.17	47.1912
2033.34	47.0466
2035.51	44.9622
2037.67	47.2894
2039.84	47.0796
2042	48.7655
2044.16	44.7683
2046.32	49.8051
2048.48	46.4778
2050.64	45.0681
2052.8	46.1324
2054.96	46.2573
2057.12	44.7373
2059.27	45.2894
2061.43	46.7363
2063.58	42.799
2065.73	45.5854
2067.89	43.9781
2070.04	43.9111
2072.19	46.1379
2074.34	42.4768
2076.48	43.0548
2078.63	40.717
2080.78	43.6764
2082.92	46.4316
2085.07	44.7343
2087.21	48.453
2089.35	44.6237
2091.49	45.1379
2093.63	41.9963
2095.77	43.6136
2097.91	43.6725
2100.05	43.2463
2102.19	43.1209
2104.32	40.4733
2106.45	44.7524
2108.59	43.1334
2110.72	42.2798
2112.85	39.8051
2114.98	41.2929
2117.11	42.3699
2119.24	42.5379
2121.37	40.5068
2123.5	42.4469
2125.62	43.9212
2127.75	42.5609
2129.87	41.8507
2131.99	40.957
2134.11	42.1446
2136.24	40.5824
2138.36	40.8003
2140.47	41.5649
2142.59	41.6922
2144.71	40.3772
2146.83	37.9019
2148.94	38.1732
2151.06	43.4479
2153.17	38.1113
2155.28	40.2605
2157.39	39.9377
2159.5	44.6783
2161.61	39.71
2163.72	39.5939
2165.83	36.0944
2167.94	40.936
2170.04	43.0666
2172.15	43.2559
2174.25	42.5136
2176.35	38.6764
2178.45	38.559
2180.56	37.1117
2182.66	37.8914
2184.75	40.6342
2186.85	39.2266
2188.95	41.4818
2191.05	42.4153
2193.14	40.4561
2195.24	38.7423
2197.33	35.537
2199.42	41.0025
2201.51	38.1291
2203.6	34.5614
2205.69	34.3814
2207.78	37.0621
2209.87	38.8176
2211.96	36.8684
2214.04	37.0207
2216.13	38.6122
2218.21	37.7831
2220.29	39.2467
2222.38	36.6595
2224.46	40.1494
2226.54	37.0553
2228.62	36.0136
2230.69	36.8266
2232.77	37.4373
2234.85	35.1544
2236.92	33.0697
2239	34.7793
2241.07	33.6471
2243.15	37.2132
2245.22	33.6758
2247.29	30.8266
2249.36	34.5201
2251.43	36.7613
2253.49	31.958
2255.56	36.0819
2257.63	38.457
2259.69	33.249
2261.76	33.2655
2263.82	37.5005
2265.88	34.1829
2267.95	34.6209
2270.01	32.5494
2272.07	35.4316
2274.12	34.6764
2276.18	35.5456
2278.24	30.3894
2280.3	33.5896
2282.35	33.8101
2284.41	34.6427
2286.46	32.6659
2288.51	34.2521
2290.56	34.444
2292.61	36.3201
2294.66	36.3556
2296.71	31.0494
2298.76	33.3101
2300.8	32.2996
2302.85	34.765
2304.9	29.8484
2306.94	33.1434
2308.98	32.216
2311.03	30.7582
2313.07	32.0388
2315.11	30.9593
2317.15	31.7803
2319.19	30.491
2321.22	32.5896
2323.26	31.4653
2325.3	32.9169
2327.33	30.6237
2329.36	29.7751
2331.4	31.3689
2333.43	27.9465
2335.46	32.9097
2337.49	29.5581
2339.52	29.4667
2341.55	31.9565
2343.58	29.413
2345.6	31.2027
2347.63	44.7885
2349.65	29.7803
2351.68	31.1074
2353.7	29.2798
2355.72	30.4883
2357.74	32.5136
2359.76	31.1864
2361.78	31.7032
2363.8	29.6132
2365.82	30.0944
2367.84	26.9387
2369.85	26.5092
2371.87	31.3243
2373.88	32.0255
2375.9	29.649
2377.91	26.9537
2379.92	29.8386
2381.93	30.6563
2383.94	26.5136
2385.95	29.205
2387.96	34.072
2389.96	30.0433
2391.97	27.9287
2393.97	29.457
2395.98	28.1755
2397.98	27.7766
2399.98	29.5609
2401.98	25.3441
2403.99	28.7665
2405.99	29.2894
2407.98	27.1319
2409.98	29.5614
2411.98	30.7375
2413.98	29.1577
2415.97	26.3469
2417.96	25.8891
2419.96	28.7665
2421.95	25.1209
2423.94	26.8139
2425.93	28.0672
2427.92	31.4158
2429.91	24.7017
2431.9	24.7605
2433.89	30.2578
2435.87	28.3019
2437.86	24.6539
2439.84	25.7128
2441.83	27.6544
2443.81	24.1079
2445.79	25.8403
2447.77	28.5714
2449.75	24.3205
2451.73	28.003
2453.71	26.4052
2455.69	22.9354
2457.67	26.0356
2459.64	27.0944
2461.62	27.7948
2463.59	22.4009
2465.56	26.535
2467.54	25.0394
2469.51	26.6044
2471.48	24.4722
2473.45	27.2128
2475.42	30.8597
2477.38	22.412
2479.35	24.4
2481.32	25.2023
2483.28	25.5461
2485.25	27.6222
2487.21	26.6094
2489.17	22.3061
2491.13	24.6285
2493.09	22.5609
2495.05	26.0786
2497.01	22.3611
2498.97	27.2888
2500.93	25.0053
2502.89	22.5614
2504.84	21.4575
2506.8	23.3084
2508.75	24.1655
2510.7	23.2908
2512.65	22.4052
2514.61	21.7655
2516.56	24.4785
2518.51	21.0494
2520.45	22.1477
2522.4	23.001
2524.35	23.4722
2526.29	22.4383
2528.24	21.3051
2530.18	24.0218
2532.13	23.5638
2534.07	25.5768
2536.01	23.4493
2537.95	23.5528
2539.89	23.3386
2541.83	20.9047
2543.77	21.8276
2545.71	23.216
2547.64	23.8339
2549.58	23.367
2551.51	24.3496
2553.45	21.5163
2555.38	25.8454
2557.31	22.777
2559.25	22.3311
2561.18	23.5704
2563.11	22.0498
2565.03	22.3881
2566.96	26.1011
2568.89	21.4503
2570.82	23.7237
2572.74	23.3464
2574.67	19.4025
2576.59	20.1682
2578.51	23.5025
2580.43	23.2057
2582.36	23.4753
2584.28	22.5231
2586.2	21.945
2588.11	21.8827
2590.03	21.3271
2591.95	18.8914
2593.86	21.6572
2595.78	21.7505
2597.69	20.5316
2599.61	25.55
2601.52	22.264
2603.43	20.3872
2605.34	20.472
2607.25	20.2808
2609.16	20.989
2611.07	23.036
2612.98	22.4653
2614.89	21.3546
2616.79	23.2094
2618.7	21.7655
2620.6	20.7165
2622.5	22.1044
2624.41	21.7722
2626.31	18.9332
2628.21	23.1136
2630.11	22.6908
2632.01	24.1084
2633.91	22.7205
2635.8	25.4422
2637.7	24.479
2639.6	23.4072
2641.49	22.8551
2643.39	28.8335
2645.28	31.4322
2647.17	32.2651
2649.06	34.0762
2650.95	28.503
2652.84	24.6912
2654.73	26.8076
2656.62	23.9839
2658.51	28.0609
2660.4	25.6802
2662.28	25.4816
2664.17	23.7678
2666.05	23.5088
2667.93	27.3949
2669.82	32.2247
2671.7	45.1434
2673.58	73.4757
2675.46	86.923
2677.34	90.4107
2679.21	66.9488
2681.09	58.1509
2682.97	48.721
2684.84	37.6739
2686.72	34.1724
2688.59	40.4249
2690.47	68.473
2692.34	86.7745
2694.21	243.998
2696.08	276.018
2697.95	240.046
2699.82	166.013
2701.69	89.4077
2703.56	64.8387
2705.42	55.7095
2707.29	39.0098
2709.15	35.4422
2711.02	31.559
2712.88	24.6352
2714.75	25.5977
2716.61	26.0709
2718.47	25.1017
2720.33	25.5764
2722.19	21.0025
2724.05	22.2057
2725.9	25.5494
2727.76	23.99
2729.62	20.5465
2731.47	21.2266
2733.33	25.8617
2735.18	21.8847
2737.03	21.0691
2738.88	19.957
2740.73	18.4259
2742.59	18.9097
2744.43	20.8276
2746.28	19.6241
2748.13	19.0136
2749.98	19.2798
2751.82	21.3666
2753.67	18.6837
2755.51	17.6516
2757.36	18.3008
2759.2	19.0951
2761.04	17.6319
2762.88	18.4025
