365.286	239.989
368.238	251.248
371.189	256.31
374.139	268.875
377.087	285.025
380.034	286.598
382.979	278.494
385.923	266.855
388.866	253.281
391.806	230.738
394.745	249.498
397.684	234.066
400.62	246.084
403.555	232.902
406.49	242.87
409.421	248.438
412.353	250.489
415.282	247.473
418.209	248.653
421.137	246.264
424.062	248.286
426.985	262.4
429.908	268.605
432.829	269.461
435.748	287.033
438.666	274.247
441.583	260.97
444.498	265.532
447.412	247.821
450.324	255.567
453.235	257.693
456.145	255.28
459.052	249.808
461.959	251.382
464.865	234.504
467.769	223.571
470.671	223.409
473.572	218.715
476.471	223.136
479.37	216.015
482.266	216.915
485.162	216.187
488.056	215.937
490.948	225.922
493.839	212.326
496.73	225.315
499.618	225.488
502.505	220.145
505.39	223.504
508.275	230.862
511.157	224.093
514.039	230.443
516.919	225.934
519.798	226.442
522.674	225.751
525.55	213.976
528.425	214.173
531.297	212.131
534.169	208.084
537.039	203.599
539.908	203.329
542.775	201.223
545.642	204.238
548.506	205.685
551.369	208.155
554.231	200.437
557.092	205.511
559.951	207.57
562.808	222.537
565.664	201.637
568.519	213.825
571.373	211.631
574.225	205.683
577.076	209.138
579.925	199.767
582.773	209.973
585.62	203.292
588.466	204.043
591.309	213.415
594.152	207.466
596.993	205.613
599.832	196.621
602.671	199.351
605.508	207.252
608.343	200.6
611.178	203.511
614.011	199.505
616.842	206.581
619.672	205.955
622.501	200.381
625.329	202.809
628.155	204.999
630.98	201.649
633.802	210.364
636.624	217.066
639.445	213.642
642.264	208.719
645.082	198.28
647.898	208.565
650.714	210.426
653.527	216.711
656.34	222.217
659.151	217.298
661.961	226.446
664.769	213.52
667.576	206.207
670.382	195.593
673.186	193.632
675.989	194.349
678.791	189.4
681.591	188.196
684.39	192.854
687.187	182.385
689.983	190.809
692.779	196.428
695.572	187.659
698.363	197.563
701.155	188.633
703.944	198.582
706.733	197.273
709.519	195.243
712.305	194.03
715.089	200.742
717.871	199.966
720.653	196.305
723.433	201.632
726.212	197.776
728.989	194.555
731.765	205.194
734.54	190.31
737.313	191.648
740.085	199.308
742.856	190.488
745.625	197.025
748.394	199.453
751.16	198.129
753.926	194.455
756.689	194.954
759.452	190.354
762.214	192.556
764.974	194.317
767.733	195.691
770.49	196.823
773.246	198.089
776.001	194.622
778.755	188.071
781.507	197.68
784.258	191.657
787.007	200.169
789.756	200.634
792.502	205.574
795.247	204.922
797.992	196.866
800.735	201.493
803.477	201.326
806.217	204.24
808.956	204.899
811.694	212.072
814.43	211.645
817.165	214.719
819.899	206.428
822.631	198.743
825.362	197.025
828.092	202.96
830.82	191.37
833.548	199.398
836.274	195.226
838.998	195.292
841.721	198.727
844.444	195.112
847.165	194.695
849.884	190.561
852.601	192.886
855.318	184.295
858.034	190.848
860.749	183.093
863.461	190.587
866.173	190.103
868.883	189.012
871.592	183.855
874.3	189.979
877.006	188.28
879.712	185.493
882.415	191.249
885.118	192.486
887.819	188.906
890.519	180.861
893.218	191.095
895.914	197.868
898.611	192.931
901.306	195.812
903.999	190.982
906.692	190.016
909.382	191.63
912.072	190.025
914.761	197.172
917.447	187.949
920.133	184.847
922.818	180.636
925.501	190.489
928.183	189.829
930.864	185.102
933.543	191.333
936.221	188.31
938.898	180.03
941.574	186.892
944.248	191.425
946.921	181.11
949.593	183.501
952.263	181.399
954.932	178.778
957.6	190.582
960.267	187.878
962.932	182.823
965.597	180.728
968.26	196.144
970.922	190.126
973.581	187.346
976.241	186.914
978.898	189.339
981.555	204.749
984.21	198.82
986.864	205.97
989.517	214.409
992.169	232.159
994.819	244.994
997.468	246.415
1000.12	265.887
1002.76	284.908
1005.41	308.941
1008.05	309.91
1010.69	310.845
1013.34	299.616
1015.98	269.938
1018.61	241.136
1021.25	215.298
1023.89	213.975
1026.52	205.855
1029.16	199.457
1031.79	204.093
1034.42	200.298
1037.05	202.887
1039.68	196.454
1042.31	196.992
1044.93	206.052
1047.56	209.922
1050.18	209.287
1052.81	213.548
1055.43	219.392
1058.05	218.11
1060.67	205.187
1063.28	215.805
1065.9	218.3
1068.52	212.666
1071.13	221.124
1073.74	221.815
1076.35	226.902
1078.96	228.725
1081.57	236.68
1084.18	243.266
1086.79	251.317
1089.39	268.649
1092	280.358
1094.6	293.442
1097.2	283.358
1099.8	268.06
1102.4	261.808
1105	247.621
1107.6	239.536
1110.19	250.487
1112.79	241.171
1115.38	243.632
1117.97	250.37
1120.56	246.202
1123.15	248.55
1125.74	241.344
1128.33	235.393
1130.91	227.549
1133.5	214.878
1136.08	207.106
1138.66	203.426
1141.24	207.128
1143.82	201.537
1146.4	204.266
1148.98	211.069
1151.55	208.7
1154.13	207.732
1156.7	198.477
1159.27	207.183
1161.85	192.929
1164.42	195.385
1166.98	194.216
1169.55	191.594
1172.12	192.081
1174.68	195.135
1177.25	186.114
1179.81	191.378
1182.37	190.965
1184.93	184.7
1187.49	186.488
1190.05	186.664
1192.6	184.775
1195.16	169.665
1197.71	172.999
1200.27	178.861
1202.82	177.139
1205.37	169.258
1207.92	171.049
1210.47	176.283
1213.01	166.04
1215.56	169.557
1218.1	177.622
1220.65	170.826
1223.19	169.442
1225.73	176.154
1228.27	174.62
1230.81	173.582
1233.35	178.938
1235.88	174.421
1238.42	176.743
1240.95	173.397
1243.48	178.709
1246.02	175.025
1248.55	174.532
1251.07	176.633
1253.6	171.917
1256.13	174.526
1258.66	173.647
1261.18	177.683
1263.7	176.026
1266.22	170.787
1268.75	184.894
1271.27	188.332
1273.78	187.076
1276.3	185.998
1278.82	180.232
1281.33	186.821
1283.85	176.571
1286.36	189.218
1288.87	187.654
1291.38	186.198
1293.89	184.907
1296.4	182.284
1298.9	186.112
1301.41	186.281
1303.91	186.568
1306.41	181.65
1308.92	179.961
1311.42	176.787
1313.92	183.397
1316.42	185.545
1318.91	188.022
1321.41	188.845
1323.9	181.076
1326.4	190.504
1328.89	190.52
1331.38	182.573
1333.87	184.139
1336.36	194.775
1338.85	188.35
1341.34	192.425
1343.82	188.87
1346.31	188.452
1348.79	187.092
1351.27	181.854
1353.75	188.737
1356.23	192.283
1358.71	190.883
1361.19	191.691
1363.66	193.811
1366.14	193.539
1368.61	194.298
1371.09	201.288
1373.56	207.95
1376.03	202.596
1378.5	215.408
1380.96	222.976
1383.43	211.553
1385.9	209.937
1388.36	208.27
1390.83	205.849
1393.29	198.688
1395.75	177.777
1398.21	172.97
1400.67	176.255
1403.13	169.453
1405.58	170.859
1408.04	160.737
1410.49	164.778
1412.95	164.465
1415.4	164.2
1417.85	163.022
1420.3	164.215
1422.75	165.917
1425.2	167.647
1427.64	168.127
1430.09	165.777
1432.53	166.445
1434.97	163.01
1437.42	155.397
1439.86	165.712
1442.3	157.687
1444.73	151.727
1447.17	153.633
1449.61	151.254
1452.04	145.461
1454.48	154.301
1456.91	150.847
1459.34	150.033
1461.77	146.382
1464.2	148.854
1466.63	150.933
1469.06	142.445
1471.48	150.289
1473.91	149.334
1476.33	148.976
1478.75	144.113
1481.17	152.181
1483.6	145.071
1486.01	139.192
1488.43	142.572
1490.85	132.343
1493.27	137.283
1495.68	140.061
1498.09	139.814
1500.51	131.626
1502.92	132.958
1505.33	136.062
1507.74	137.97
1510.14	139.355
1512.55	138.437
1514.96	133.674
1517.36	139.502
1519.77	128.308
1522.17	140.553
1524.57	130.443
1526.97	137.71
1529.37	125.965
1531.77	133.981
1534.16	128.421
1536.56	131.767
1538.95	143.584
1541.35	135.06
1543.74	133.488
1546.13	132.39
1548.52	131.141
1550.91	134.463
1553.3	133.504
1555.68	131.537
1558.07	130.955
1560.45	135.332
1562.84	139.742
1565.22	142.742
1567.6	142.282
1569.98	139.141
1572.36	146.954
1574.74	145.457
1577.12	144.036
1579.49	140.233
1581.87	138.709
1584.24	141.835
1586.61	143.445
1588.98	144.398
1591.35	136.804
1593.72	135.129
1596.09	137.376
1598.46	138.254
1600.82	136.894
1603.19	131.349
1605.55	127.377
1607.92	123.809
1610.28	132.283
1612.64	129.377
1615	125.732
1617.36	126.276
1619.71	130.479
1622.07	126.921
1624.42	123.659
1626.78	120.358
1629.13	122.164
1631.48	122.609
1633.83	121.477
1636.18	120.081
1638.53	119.431
1640.88	119.346
1643.22	120.917
1645.57	122.992
1647.91	117.428
1650.26	117.256
1652.6	118.515
1654.94	117.85
1657.28	119.901
1659.62	119.433
1661.96	119.877
1664.29	117.929
1666.63	118.512
1668.96	114.536
1671.3	115.076
1673.63	117.238
1675.96	112.825
1678.29	112.36
1680.62	116.551
1682.95	114.334
1685.27	118.1
1687.6	116.901
1689.92	111.836
1692.25	118.043
1694.57	112.802
1696.89	114.338
1699.21	117.23
1701.53	111.85
1703.85	110.96
1706.17	112.349
1708.48	111.374
1710.8	114.669
1713.11	110.504
1715.43	112.904
1717.74	109.642
1720.05	105.932
1722.36	108.054
1724.67	107.728
1726.97	114.79
1729.28	108.516
1731.59	111.556
1733.89	110.944
1736.19	110.736
1738.5	108.667
1740.8	105.662
1743.1	107.837
1745.4	101.342
1747.7	104.399
1749.99	109.632
1752.29	101.426
1754.58	106.38
1756.88	107.276
1759.17	105.077
1761.46	100.615
1763.75	103.395
1766.04	106.415
1768.33	99.2048
1770.62	101.781
1772.91	102.778
1775.19	103.699
1777.48	106.645
1779.76	98.7597
1782.04	103.342
1784.32	99.3281
1786.6	98.7883
1788.88	103.551
1791.16	103.599
1793.44	100.377
1795.71	98.6153
1797.99	95.6947
1800.26	103.182
1802.54	98.532
1804.81	97.5153
1807.08	94.948
1809.35	97.2071
1811.62	93.0482
1813.88	97.7428
1816.15	97.4533
1818.42	97.6643
1820.68	98.1503
1822.95	97.0265
1825.21	94.3853
1827.47	95.8025
1829.73	95.1115
1831.99	96.9347
1834.25	98.0762
1836.51	97.8988
1838.76	91.6989
1841.02	91.6089
1843.27	89.6914
1845.52	93.2348
1847.78	92.2311
1850.03	91.0591
1852.28	90.1543
1854.53	93.1988
1856.78	91.1819
1859.02	88.2821
1861.27	92.85
1863.51	89.9771
1865.76	88.0492
1868	88.079
1870.24	96.7933
1872.48	91.2229
1874.72	90.9497
1876.96	91.7868
1879.2	90.2652
1881.44	90.1105
1883.67	89.5952
1885.91	89.8252
1888.14	89.5749
1890.37	89.2861
1892.61	85.1545
1894.84	86.5562
1897.07	91.2048
1899.29	90.0474
1901.52	86.182
1903.75	86.7432
1905.97	88.0715
1908.2	87.2842
1910.42	86.2983
1912.64	92.2153
1914.87	87.8841
1917.09	92.51
1919.31	87.1543
1921.52	85.2983
1923.74	80.2107
1925.96	90.5661
1928.17	85.5834
1930.39	89.1356
1932.6	88.0777
1934.81	84.3889
1937.03	86.2661
1939.24	84.2228
1941.45	84.7113
1943.65	83.4719
1945.86	88.4275
1948.07	81.7258
1950.27	84.0482
1952.48	83.7423
1954.68	85.3822
1956.88	79.9614
1959.08	84.727
1961.29	84.5503
1963.48	81.707
1965.68	78.6328
1967.88	81.5374
1970.08	83.855
1972.27	84.4704
1974.47	82.5084
1976.66	81.4452
1978.85	81.8949
1981.04	80.5972
1983.23	77.8025
1985.42	79.8381
1987.61	85.0247
1989.8	80.1058
1991.99	80.9732
1994.17	84.4707
1996.36	80.234
1998.54	74.0789
2000.72	82.4418
2002.9	75.1925
2005.08	79.7274
2007.26	76.5301
2009.44	79.548
2011.62	75.3422
2013.8	77.506
2015.97	78.778
2018.15	75.4195
2020.32	77.548
2022.49	75.599
2024.66	78.6866
2026.83	76.1287
2029	75.8503
2031.17	72.9762
2033.34	71.8364
2035.51	74.5703
2037.67	70.7702
2039.84	72.1926
2042	67.8538
2044.16	73.649
2046.32	74.8825
2048.48	74.3698
2050.64	69.2661
2052.8	72.4251
2054.96	71.7866
2057.12	68.8025
2059.27	72.2153
2061.43	74.1954
2063.58	73.9323
2065.73	70.6979
2067.89	67.9923
2070.04	75.8055
2072.19	70.948
2074.34	67.0176
2076.48	69.5362
2078.63	68.9597
2080.78	71.7738
2082.92	73.2286
2085.07	71.6344
2087.21	70.3098
2089.35	71.117
2091.49	68.7169
2093.63	69.5036
2095.77	67.7577
2097.91	69.1216
2100.05	68.8863
2102.19	70.696
2104.32	66.5586
2106.45	68.0433
2108.59	63.1265
2110.72	67.1185
2112.85	64.9733
2114.98	69.6673
2117.11	59.9151
2119.24	63.2182
2121.37	59.8879
2123.5	62.5153
2125.62	66.5527
2127.75	66.5978
2129.87	63.0159
2131.99	64.1569
2134.11	61.1535
2136.24	59.052
2138.36	62.0548
2140.47	65.2639
2142.59	63.4094
2144.71	63.1275
2146.83	63.4294
2148.94	63.6941
2151.06	66.5557
2153.17	63.4967
2155.28	64.2707
2157.39	62.1216
2159.5	62.5832
2161.61	59.1357
2163.72	60.3049
2165.83	61.462
2167.94	58.2947
2170.04	63.0148
2172.15	57.9134
2174.25	57.1819
2176.35	61.4447
2178.45	59.8077
2180.56	60.5558
2182.66	59.4964
2184.75	55.599
2186.85	59.9089
2188.95	60.9648
2191.05	61.7439
2193.14	58.7635
2195.24	59.1659
2197.33	56.731
2199.42	58.3104
2201.51	59.7866
2203.6	59.0707
2205.69	57.707
2207.78	57.718
2209.87	58.1872
2211.96	56.0586
2214.04	56.139
2216.13	53.3306
2218.21	56.8298
2220.29	57.3012
2222.38	60.4301
2224.46	59.0707
2226.54	59.0598
2228.62	59.1216
2230.69	58.537
2232.77	58.2827
2234.85	54.537
2236.92	52.8116
2239	54.9322
2241.07	56.6106
2243.15	55.5646
2245.22	58.5217
2247.29	53.6619
2249.36	53.9545
2251.43	52.1806
2253.49	51.7539
2255.56	53.3455
2257.63	56.1213
2259.69	52.0239
2261.76	51.6615
2263.82	52.7258
2265.88	49.5677
2267.95	53.9136
2270.01	50.7101
2272.07	51.6315
2274.12	53.1983
2276.18	53.4693
2278.24	49.855
2280.3	48.5802
2282.35	53.6718
2284.41	51.9218
2286.46	51.628
2288.51	51.2987
2290.56	49.1099
2292.61	50.3772
2294.66	46.6315
2296.71	49.9409
2298.76	47.8766
2300.8	47.4965
2302.85	47.8328
2304.9	44.9201
2306.94	50.6615
2308.98	48.6603
2311.03	47.1773
2313.07	47.8327
2315.11	50.3609
2317.15	46.2995
2319.19	46.553
2321.22	49.728
2323.26	45.2639
2325.3	48.2587
2327.33	44.0789
2329.36	43.8328
2331.4	46.9439
2333.43	44.3883
2335.46	41.2142
2337.49	48.4364
2339.52	49.8423
2341.55	47.3819
2343.58	46.664
2345.6	48.8812
2347.63	59.0328
2349.65	45.6905
2351.68	46.5649
2353.7	43.1539
2355.72	40.4435
2357.74	40.64
2359.76	41.6399
2361.78	40.8841
2363.8	46.7868
2365.82	45.3497
2367.84	41.844
2369.85	43.4122
2371.87	44.7457
2373.88	41.9668
2375.9	44.4919
2377.91	40.6497
2379.92	42.145
2381.93	41.6552
2383.94	40.3281
2385.95	42.375
2387.96	41.8211
2389.96	40.2522
2391.97	38.5802
2393.97	41.7852
2395.98	36.0276
2397.98	39.7605
2399.98	41.9931
2401.98	39.7997
2403.99	40.0947
2405.99	40.9439
2407.98	41.1113
2409.98	40.0763
2411.98	41.9714
2413.98	37.8557
2415.97	37.0301
2417.96	39.0924
2419.96	40.6123
2421.95	38.582
2423.94	38.6636
2425.93	39.9497
2427.92	36.2866
2429.91	33.4807
2431.9	41.0277
2433.89	40.8216
2435.87	38.7591
2437.86	41.1511
2439.84	37.0856
2441.83	39.0148
2443.81	37.2995
2445.79	35.6822
2447.77	37.283
2449.75	34.2931
2451.73	37.1988
2453.71	36.6669
2455.69	34.4028
2457.67	36.9224
2459.64	36.4995
2461.62	35.4123
2463.59	33.6913
2465.56	35.1767
2467.54	35.5802
2469.51	34.1826
2471.48	34.6462
2473.45	33.0329
2475.42	38.7101
2477.38	32.8557
2479.35	35.6772
2481.32	33.8977
2483.28	36.7999
2485.25	33.8712
2487.21	32.9766
2489.17	31.4563
2491.13	33.6655
2493.09	34.421
2495.05	33.5815
2497.01	38.2585
2498.97	34.9053
2500.93	32.7217
2502.89	31.1376
2504.84	34.6597
2506.8	36.4265
2508.75	32.9597
2510.7	34.0996
2512.65	35.6192
2514.61	35.7925
2516.56	27.9439
2518.51	32.0417
2520.45	28.7101
2522.4	32.462
2524.35	31.1719
2526.29	30.5496
2528.24	29.4878
2530.18	30.4095
2532.13	31.0362
2534.07	28.5557
2536.01	29.9852
2537.95	31.6195
2539.89	32.0877
2541.83	27.2327
2543.77	30.4259
2545.71	30.3431
2547.64	31.901
2549.58	27.4807
2551.51	28.8071
2553.45	30.2294
2555.38	31.5052
2557.31	33.5683
2559.25	27.9377
2561.18	26.5614
2563.11	27.628
2565.03	27.4995
2566.96	28.3321
2568.89	28.3593
2570.82	26.5064
2572.74	28.2398
2574.67	29.917
2576.59	26.599
2578.51	25.283
2580.43	29.2917
2582.36	25.4683
2584.28	27.0299
2586.2	26.2487
2588.11	25.844
2590.03	30.2656
2591.95	28.6785
2593.86	26.055
2595.78	27.1715
2597.69	28.7083
2599.61	30.0176
2601.52	27.7573
2603.43	27.4058
2605.34	29.4417
2607.25	26.9849
2609.16	25.7591
2611.07	26.9947
2612.98	27.2983
2614.89	27.717
2616.79	27.8841
2618.7	26.2327
2620.6	26.9134
2622.5	29.1549
2624.41	27.2725
2626.31	28.8382
2628.21	25.5731
2630.11	25.8105
2632.01	27.7556
2633.91	23.0565
2635.8	30.055
2637.7	28.3452
2639.6	22.5049
2641.49	23.7391
2643.39	33.1557
2645.28	31.055
2647.17	35.8385
2649.06	38.5731
2650.95	31.4835
2652.84	29.3011
2654.73	29.5891
2656.62	31.2726
2658.51	29.2099
2660.4	31.9526
2662.28	30.0725
2664.17	26.9497
2666.05	32.7659
2667.93	30.9182
2669.82	32.9936
2671.7	44.9219
2673.58	57.4626
2675.46	72.1685
2677.34	77.283
2679.21	63.8828
2681.09	56.8333
2682.97	50.2071
2684.84	42.5558
2686.72	35.6503
2688.59	47.7217
2690.47	66.0396
2692.34	85.676
2694.21	186.439
2696.08	240.997
2697.95	203.032
2699.82	148.16
2701.69	75.5334
2703.56	57.9493
2705.42	48.1836
2707.29	38.0662
2709.15	31.8194
2711.02	30.3867
2712.88	29.7491
2714.75	24.516
2716.61	28.9036
2718.47	27.0906
2720.33	27.828
2722.19	26.4294
2724.05	25.2386
2725.9	25.7274
2727.76	24.9497
2729.62	26.1719
2731.47	24.3423
2733.33	23.0608
2735.18	24.9335
2737.03	23.4878
2738.88	25.455
2740.73	23.9015
2742.59	22.0669
2744.43	25.4638
2746.28	23.4116
2748.13	24.6316
2749.98	21.3779
2751.82	23.2196
2753.67	19.7286
2755.51	21.6607
2757.36	20.4692
2759.2	20.1872
2761.04	20.7287
2762.88	20.4112
