365.286	406.995
368.238	412.529
371.189	411.006
374.139	435.169
377.087	449.219
380.034	458.804
382.979	449.516
385.923	423.181
388.866	413.507
391.806	401.3
394.745	394.199
397.684	393.978
400.62	402.222
403.555	407.04
406.49	394.606
409.421	404.478
412.353	403.462
415.282	410.572
418.209	418.451
421.137	416.65
424.062	426.966
426.985	422.438
429.908	428.34
432.829	443.422
435.748	453.433
438.666	438.449
441.583	427.02
444.498	421.815
447.412	415.561
450.324	414.96
453.235	404.521
456.145	410.058
459.052	404.705
461.959	395.461
464.865	384.377
467.769	362.866
470.671	370.84
473.572	359.779
476.471	357.966
479.37	357.003
482.266	361.65
485.162	370.445
488.056	362.169
490.948	377.806
493.839	374.655
496.73	359.139
499.618	363.177
502.505	370.012
505.39	364.41
508.275	375.7
511.157	369.618
514.039	366.616
516.919	375.662
519.798	369.351
522.674	379.878
525.55	369.717
528.425	357.795
531.297	348.206
534.169	339.737
537.039	343.84
539.908	342.622
542.775	340.166
545.642	343.726
548.506	337.633
551.369	347.589
554.231	336.396
557.092	337.35
559.951	344.533
562.808	330.333
565.664	337.672
568.519	339.644
571.373	333.655
574.225	342.317
577.076	334.316
579.925	333.008
582.773	329.515
585.62	341.41
588.466	334.667
591.309	326.7
594.152	329.629
596.993	327.818
599.832	323.51
602.671	330.526
605.508	336.561
608.343	325
611.178	327.177
614.011	329.917
616.842	325.333
619.672	323.387
622.501	332.094
625.329	331.037
628.155	317
630.98	335
633.802	331.884
636.624	337.92
639.445	335.556
642.264	331.394
645.082	330.855
647.898	338.748
650.714	331.966
653.527	358.956
656.34	368.803
659.151	363.194
661.961	362.699
664.769	352.561
667.576	342.385
670.382	322.151
673.186	321.299
675.989	317.162
678.791	313.428
681.591	306.119
684.39	313.227
687.187	310.784
689.983	309.066
692.779	318.194
695.572	322.323
698.363	319.205
701.155	321.322
703.944	330.533
706.733	319.099
709.519	328.31
712.305	320.973
715.089	332.218
717.871	323.755
720.653	315.165
723.433	328.773
726.212	318.89
728.989	321.972
731.765	319.91
734.54	319.323
737.313	323.607
740.085	314.321
742.856	317.346
745.625	322.977
748.394	308.632
751.16	322.454
753.926	329.595
756.689	327.305
759.452	329.199
762.214	325.632
764.974	327.405
767.733	320.499
770.49	319.977
773.246	316.287
776.001	331.64
778.755	329.515
781.507	329.058
784.258	328.655
787.007	336.199
789.756	328.311
792.502	332.526
795.247	339.618
797.992	338.335
800.735	331.21
803.477	343.839
806.217	333.667
808.956	339.988
811.694	346.733
814.43	360.031
817.165	354.943
819.899	353.399
822.631	344.872
825.362	328.954
828.092	321.98
830.82	320.592
833.548	313.732
836.274	321.148
838.998	318.151
841.721	328.752
844.444	326.05
847.165	316.828
849.884	307.001
852.601	315.966
855.318	313.017
858.034	307.45
860.749	320.679
863.461	306.734
866.173	314.606
868.883	301.616
871.592	302.609
874.3	299.153
877.006	307.766
879.712	301.943
882.415	297.778
885.118	298.165
887.819	287.551
890.519	305.621
893.218	305.085
895.914	301.978
898.611	306.016
901.306	305.227
903.999	308.434
906.692	310.059
909.382	303.954
912.072	308.179
914.761	305.638
917.447	301.133
920.133	306.877
922.818	303.323
925.501	291.711
928.183	300.114
930.864	300.737
933.543	304.222
936.221	305.039
938.898	302.655
941.574	304.839
944.248	303.207
946.921	301.374
949.593	307.533
952.263	301.639
954.932	297.821
957.6	301.04
960.267	297.897
962.932	300.1
965.597	308.544
968.26	306.163
970.922	306.834
973.581	307.917
976.241	318.129
978.898	323.151
981.555	318.105
984.21	334.735
986.864	350.662
989.517	363.744
992.169	375.199
994.819	399.445
997.468	424.017
1000.12	440.673
1002.76	478.714
1005.41	500.774
1008.05	516.761
1010.69	537.449
1013.34	515.167
1015.98	479.966
1018.61	431.763
1021.25	380.365
1023.89	362.633
1026.52	332.077
1029.16	323.233
1031.79	336.496
1034.42	317.575
1037.05	322.81
1039.68	324.94
1042.31	319.107
1044.93	328.779
1047.56	335.26
1050.18	330.143
1052.81	336.222
1055.43	332.638
1058.05	337.618
1060.67	328.019
1063.28	322.584
1065.9	324.362
1068.52	332.922
1071.13	336.966
1073.74	328.74
1076.35	350.848
1078.96	346.815
1081.57	356.8
1084.18	358.723
1086.79	372.415
1089.39	372.411
1092	384.712
1094.6	378.527
1097.2	386.208
1099.8	378.983
1102.4	368.725
1105	365.798
1107.6	353.441
1110.19	355.452
1112.79	370.446
1115.38	361.384
1117.97	371.965
1120.56	373.995
1123.15	381.158
1125.74	378.348
1128.33	372.632
1130.91	363.843
1133.5	359.285
1136.08	345.633
1138.66	344.633
1141.24	339.906
1143.82	337.698
1146.4	341.983
1148.98	350.901
1151.55	347.148
1154.13	352.128
1156.7	339.809
1159.27	338.952
1161.85	338.296
1164.42	325.416
1166.98	326.763
1169.55	321.98
1172.12	325.501
1174.68	318.889
1177.25	318.284
1179.81	327.052
1182.37	311.61
1184.93	312.513
1187.49	308.546
1190.05	304.384
1192.6	311.198
1195.16	312.401
1197.71	293.558
1200.27	295.4
1202.82	304.979
1205.37	303.088
1207.92	286.099
1210.47	300.135
1213.01	283.916
1215.56	288.415
1218.1	279.743
1220.65	294.195
1223.19	289.655
1225.73	293.922
1228.27	288.424
1230.81	299.866
1233.35	305.259
1235.88	294.123
1238.42	295.389
1240.95	306.518
1243.48	299.974
1246.02	302.112
1248.55	303.066
1251.07	291.007
1253.6	308.151
1256.13	292.062
1258.66	307.877
1261.18	303.768
1263.7	311.63
1266.22	310.41
1268.75	313.007
1271.27	311.86
1273.78	310.971
1276.3	305.877
1278.82	311.071
1281.33	310.991
1283.85	307.404
1286.36	304.902
1288.87	306.399
1291.38	303.077
1293.89	303.737
1296.4	311.991
1298.9	302.193
1301.41	306.148
1303.91	302.473
1306.41	296.432
1308.92	297.911
1311.42	300.534
1313.92	305.996
1316.42	298.926
1318.91	298.544
1321.41	294.239
1323.9	310.422
1326.4	295.421
1328.89	296.572
1331.38	306.15
1333.87	304.446
1336.36	313.218
1338.85	295.954
1341.34	297.995
1343.82	299.526
1346.31	301.507
1348.79	296.723
1351.27	296.228
1353.75	307.907
1356.23	309.706
1358.71	303.304
1361.19	316.445
1363.66	329.022
1366.14	317.814
1368.61	329.378
1371.09	349.113
1373.56	356.92
1376.03	355.031
1378.5	363.748
1380.96	374.264
1383.43	363.761
1385.9	355.218
1388.36	356.235
1390.83	344.394
1393.29	335.457
1395.75	317.077
1398.21	303.99
1400.67	296.37
1403.13	286.574
1405.58	283.129
1408.04	281.966
1410.49	283.399
1412.95	280.637
1415.4	292.967
1417.85	285.392
1420.3	289.572
1422.75	291.284
1425.2	294.128
1427.64	287.985
1430.09	292.13
1432.53	294.39
1434.97	280.638
1437.42	280.806
1439.86	284.381
1442.3	268.107
1444.73	270.351
1447.17	279.455
1449.61	269.346
1452.04	276.906
1454.48	280.674
1456.91	281.35
1459.34	276.24
1461.77	283.877
1464.2	289.413
1466.63	282.896
1469.06	287.373
1471.48	273.656
1473.91	286.54
1476.33	275.674
1478.75	281.171
1481.17	275.915
1483.6	266.506
1486.01	263.513
1488.43	259.761
1490.85	257.871
1493.27	252.616
1495.68	258.432
1498.09	248.81
1500.51	237.129
1502.92	254.194
1505.33	245.064
1507.74	247.962
1510.14	245.761
1512.55	241.987
1514.96	243.478
1517.36	235.806
1519.77	243.473
1522.17	240.551
1524.57	246.463
1526.97	246.667
1529.37	236.728
1531.77	245.473
1534.16	241.066
1536.56	244.773
1538.95	248.785
1541.35	240.689
1543.74	247.274
1546.13	244.614
1548.52	253.233
1550.91	249.657
1553.3	254.718
1555.68	266.326
1558.07	266.04
1560.45	264.021
1562.84	254.374
1565.22	260.254
1567.6	253.599
1569.98	255.64
1572.36	267.017
1574.74	265.965
1577.12	255.808
1579.49	253.872
1581.87	249.896
1584.24	250.097
1586.61	246.296
1588.98	243.527
1591.35	239.258
1593.72	240.872
1596.09	231.268
1598.46	234.106
1600.82	239.935
1603.19	237.783
1605.55	228.863
1607.92	224.675
1610.28	220.935
1612.64	219.148
1615	223.905
1617.36	214.735
1619.71	215.197
1622.07	213.48
1624.42	217.14
1626.78	214.466
1629.13	212.273
1631.48	205.786
1633.83	203.954
1636.18	210.692
1638.53	206.08
1640.88	205.213
1643.22	206.879
1645.57	204.641
1647.91	200.113
1650.26	200.225
1652.6	198.751
1654.94	198.128
1657.28	203.917
1659.62	201.113
1661.96	196.529
1664.29	195.762
1666.63	189.6
1668.96	200.413
1671.3	189.475
1673.63	192.496
1675.96	188.084
1678.29	193.056
1680.62	190.979
1682.95	192.464
1685.27	176.707
1687.6	182.706
1689.92	189.623
1692.25	187.863
1694.57	194.507
1696.89	190.595
1699.21	192.848
1701.53	190.163
1703.85	181.632
1706.17	189.194
1708.48	189.596
1710.8	185.318
1713.11	179.609
1715.43	186.896
1717.74	180.369
1720.05	184.54
1722.36	177.573
1724.67	178.974
1726.97	181.652
1729.28	176.292
1731.59	185.136
1733.89	177.939
1736.19	177.922
1738.5	176.418
1740.8	178.835
1743.1	180.564
1745.4	176.05
1747.7	170.796
1749.99	178.709
1752.29	179.485
1754.58	167.707
1756.88	162.461
1759.17	164.797
1761.46	168.883
1763.75	166.258
1766.04	163.566
1768.33	167.812
1770.62	175.917
1772.91	166.883
1775.19	162.509
1777.48	167.912
1779.76	163.7
1782.04	167.193
1784.32	158.568
1786.6	162.829
1788.88	156.768
1791.16	158.93
1793.44	158.567
1795.71	159.546
1797.99	152.251
1800.26	162.652
1802.54	160.255
1804.81	161.772
1807.08	158.555
1809.35	149.484
1811.62	154.119
1813.88	154.851
1816.15	148.795
1818.42	159.354
1820.68	158.555
1822.95	151.339
1825.21	154.228
1827.47	158.632
1829.73	158.591
1831.99	150.662
1834.25	151.469
1836.51	149.112
1838.76	151.335
1841.02	150.595
1843.27	159.702
1845.52	156.223
1847.78	147.805
1850.03	144.768
1852.28	153.239
1854.53	144.917
1856.78	150.567
1859.02	144.913
1861.27	143.549
1863.51	152.451
1865.76	144.879
1868	148.404
1870.24	147.003
1872.48	144.152
1874.72	151.652
1876.96	142.102
1879.2	145.398
1881.44	145.668
1883.67	143.962
1885.91	150.853
1888.14	152.701
1890.37	145.862
1892.61	145.013
1894.84	148.469
1897.07	142.213
1899.29	145.306
1901.52	146.439
1903.75	148.886
1905.97	140.324
1908.2	140.863
1910.42	139.862
1912.64	145.99
1914.87	138.798
1917.09	138.996
1919.31	139.285
1921.52	146.957
1923.74	135.258
1925.96	144.483
1928.17	143.384
1930.39	138.818
1932.6	138.62
1934.81	129.003
1937.03	138.515
1939.24	139.011
1941.45	142.041
1943.65	138.775
1945.86	141.146
1948.07	134.505
1950.27	136.317
1952.48	134.068
1954.68	138.859
1956.88	136.743
1959.08	134.68
1961.29	141.036
1963.48	139.392
1965.68	118.213
1967.88	140.256
1970.08	134.832
1972.27	141.083
1974.47	133.791
1976.66	127.173
1978.85	133.079
1981.04	137.369
1983.23	132.879
1985.42	130.656
1987.61	132.336
1989.8	128.416
1991.99	131.179
1994.17	131.69
1996.36	130.595
1998.54	134.341
2000.72	134.02
2002.9	130.933
2005.08	138.43
2007.26	129.464
2009.44	131.372
2011.62	125.768
2013.8	130.879
2015.97	127.973
2018.15	125.551
2020.32	116.773
2022.49	126.247
2024.66	124.122
2026.83	127.347
2029	127.136
2031.17	124.55
2033.34	122.291
2035.51	124.64
2037.67	121.675
2039.84	128.64
2042	130.256
2044.16	123.002
2046.32	123.6
2048.48	126.64
2050.64	121.715
2052.8	121.036
2054.96	124.415
2057.12	119.196
2059.27	123.686
2061.43	120.314
2063.58	116.656
2065.73	117.797
2067.89	124.162
2070.04	122.558
2072.19	118.672
2074.34	124.125
2076.48	119.974
2078.63	119.1
2080.78	119.636
2082.92	114.615
2085.07	116.848
2087.21	117.862
2089.35	116.925
2091.49	120.656
2093.63	114.668
2095.77	118.358
2097.91	111.591
2100.05	113.324
2102.19	118.224
2104.32	115.002
2106.45	113.686
2108.59	113.323
2110.72	114.418
2112.85	116.78
2114.98	113.578
2117.11	112.127
2119.24	111.195
2121.37	111.854
2123.5	117.763
2125.62	105.396
2127.75	112.648
2129.87	106.879
2131.99	110.024
2134.11	109.558
2136.24	101.58
2138.36	107.862
2140.47	110.768
2142.59	112.091
2144.71	108.99
2146.83	109.936
2148.94	109.568
2151.06	107.211
2153.17	106.791
2155.28	105.828
2157.39	108.813
2159.5	105.019
2161.61	105.358
2163.72	103.591
2165.83	102.702
2167.94	108.957
2170.04	106.925
2172.15	104.692
2174.25	111.98
2176.35	108.958
2178.45	100.884
2180.56	105.464
2182.66	104.957
2184.75	104.768
2186.85	102.364
2188.95	106.813
2191.05	105.13
2193.14	104.595
2195.24	101.735
2197.33	105.464
2199.42	106.418
2201.51	107.024
2203.6	102.735
2205.69	103.284
2207.78	98.6571
2209.87	92.8167
2211.96	98.7682
2214.04	102.234
2216.13	96.6571
2218.21	103.434
2220.29	102.44
2222.38	102.595
2224.46	102.341
2226.54	103.419
2228.62	101.797
2230.69	97.8473
2232.77	98.131
2234.85	97.629
2236.92	100.884
2239	97.6404
2241.07	100.258
2243.15	99.2539
2245.22	96.7509
2247.29	93.1303
2249.36	91.2421
2251.43	98.6743
2253.49	97.7142
2255.56	91.6312
2257.63	97.2247
2259.69	96.1187
2261.76	97.2414
2263.82	100.985
2265.88	91.862
2267.95	90.6692
2270.01	92.2465
2272.07	95.5042
2274.12	91.1361
2276.18	88.2127
2278.24	96.5527
2280.3	89.8482
2282.35	93.8793
2284.41	93.7024
2286.46	91.7976
2288.51	86.0243
2290.56	82.1354
2292.61	85.5067
2294.66	88.3238
2296.71	87.6622
2298.76	88.7075
2300.8	89.1428
2302.85	91.7436
2304.9	83.9904
2306.94	92.7457
2308.98	88.3525
2311.03	86.7682
2313.07	86.1009
2315.11	90.0842
2317.15	85.6029
2319.19	86.7676
2321.22	85.3532
2323.26	84.9904
2325.3	78.5179
2327.33	84.4755
2329.36	84.8167
2331.4	86.5748
2333.43	88.144
2335.46	82.4342
2337.49	78.2414
2339.52	82.0192
2341.55	81.4688
2343.58	81.212
2345.6	86.3231
2347.63	96.3064
2349.65	83.8844
2351.68	86.1303
2353.7	86.091
2355.72	82.235
2357.74	81.5286
2359.76	80.7676
2361.78	76.0684
2363.8	84.2127
2365.82	80.0629
2367.84	78.1016
2369.85	75.9081
2371.87	79.797
2373.88	80.7311
2375.9	74.4342
2377.91	77.0192
2379.92	78.8135
2381.93	79.9081
2383.94	74.5454
2385.95	79.5089
2387.96	72.723
2389.96	76.1901
2391.97	77.212
2393.97	74.9904
2395.98	79.5286
2397.98	75.2421
2399.98	75.5799
2401.98	74.4029
2403.99	75.0137
2405.99	72.8965
2407.98	71.2465
2409.98	68.0842
2411.98	73.9533
2413.98	68.212
2415.97	73.7676
2417.96	69.0192
2419.96	69.797
2421.95	68.797
2423.94	66.8082
2425.93	66.6865
2427.92	67.3504
2429.91	71.3984
2431.9	71.797
2433.89	65.6571
2435.87	69.3231
2437.86	68.9081
2439.84	66.3576
2441.83	65.735
2443.81	67.4688
2445.79	69.0796
2447.77	62.0684
2449.75	66.4637
2451.73	67.9081
2453.71	65.7017
2455.69	58.4636
2457.67	64.1194
2459.64	68.9645
2461.62	62.0243
2463.59	73.8914
2465.56	62.8135
2467.54	64.2533
2469.51	66.7948
2471.48	61.3282
2473.45	62.0192
2475.42	64.9132
2477.38	61.9898
2479.35	63.4017
2481.32	58.9285
2483.28	65.5748
2485.25	61.2414
2487.21	63.6565
2489.17	63.3956
2491.13	64.4663
2493.09	65.5945
2495.05	62.6571
2497.01	57.629
2498.97	67.5748
2500.93	61.797
2502.89	56.0645
2504.84	64.9448
2506.8	61.797
2508.75	59.5128
2510.7	60.131
2512.65	54.6859
2514.61	61.4643
2516.56	59.2247
2518.51	52.6859
2520.45	53.9905
2522.4	56.9246
2524.35	55.2573
2526.29	56.9017
2528.24	59.862
2530.18	63.2414
2532.13	58.9533
2534.07	57.7509
2536.01	59.9898
2537.95	55.7024
2539.89	62.212
2541.83	57.7788
2543.77	50.2127
2545.71	52.4342
2547.64	54.212
2549.58	56.5748
2551.51	52.6859
2553.45	56.0502
2555.38	56.3525
2557.31	55.1016
2559.25	54.9898
2561.18	51.9731
2563.11	53.9898
2565.03	54.3723
2566.96	54.1501
2568.89	54.9278
2570.82	49.2718
2572.74	51.5748
2574.67	54.3525
2576.59	56.5748
2578.51	52.4636
2580.43	53.3755
2582.36	54.9533
2584.28	53.3231
2586.2	48.6859
2588.11	46.5748
2590.03	51.6251
2591.95	52.4636
2593.86	54.62
2595.78	51.8021
2597.69	55.6683
2599.61	56.4551
2601.52	52.0243
2603.43	46.5748
2605.34	50.697
2607.25	52.2414
2609.16	51.2421
2611.07	53.8787
2612.98	48.4017
2614.89	47.4636
2616.79	51.3525
2618.7	52.3238
2620.6	47.735
2622.5	49.4342
2624.41	49.797
2626.31	45.7311
2628.21	49.1016
2630.11	48.4123
2632.01	49.8082
2633.91	49.4636
2635.8	51.6859
2637.7	48.3978
2639.6	50.7682
2641.49	49.4636
2643.39	54.8082
2645.28	52.7676
2647.17	60.6859
2649.06	63.6239
2650.95	54.514
2652.84	52.3238
2654.73	49.0025
2656.62	50.1303
2658.51	51.0512
2660.4	48.7682
2662.28	51.3525
2664.17	47.3231
2666.05	48.2298
2667.93	53.4636
2669.82	56.5748
2671.7	72.6616
2673.58	98.5064
2675.46	110.366
2677.34	118.591
2679.21	102.495
2681.09	79.9904
2682.97	70.5945
2684.84	65.797
2686.72	63.5748
2688.59	68.1303
2690.47	85.5581
2692.34	117.306
2694.21	266.803
2696.08	312.312
2697.95	299.113
2699.82	219.857
2701.69	117.558
2703.56	83.6239
2705.42	80.4964
2707.29	63.5632
2709.15	59.954
2711.02	52.0842
2712.88	47.3576
2714.75	46.797
2716.61	47.735
2718.47	47.6859
2720.33	43.0192
2722.19	46.5089
2724.05	42.2414
2725.9	40.3231
2727.76	46.9081
2729.62	41.3525
2731.47	38.6565
2733.33	40.2414
2735.18	39.7976
2737.03	39.6859
2738.88	36.1303
2740.73	37.6251
2742.59	43.0076
2744.43	37.5748
2746.28	36.1303
2748.13	35.7676
2749.98	38.797
2751.82	38.6565
2753.67	37.4342
2755.51	35.3231
2757.36	37.5748
2759.2	36.9645
2761.04	31.5748
2762.88	29.4636
