365.286	251.7
368.238	253.207
371.189	267.234
374.139	268.646
377.087	286.901
380.034	298.988
382.979	287.736
385.923	272.307
388.866	263.088
391.806	249.21
394.745	245.675
397.684	247.001
400.62	251.167
403.555	252.733
406.49	249.174
409.421	248.83
412.353	255.282
415.282	253.453
418.209	259.005
421.137	271.417
424.062	267.177
426.985	275.424
429.908	286.184
432.829	292.074
435.748	303.545
438.666	294.679
441.583	292.249
444.498	267.553
447.412	273.32
450.324	278.587
453.235	271.619
456.145	270.862
459.052	276.511
461.959	265.618
464.865	252.32
467.769	244.46
470.671	236.289
473.572	232.886
476.471	228.399
479.37	234.945
482.266	238.407
485.162	244.205
488.056	237.14
490.948	239.052
493.839	236.869
496.73	232.445
499.618	235.195
502.505	242.664
505.39	242.871
508.275	241.287
511.157	243.376
514.039	244.882
516.919	255.564
519.798	248.864
522.674	249.384
525.55	228.898
528.425	219.073
531.297	220.983
534.169	217.525
537.039	219.944
539.908	216.106
542.775	217.195
545.642	214.66
548.506	215.744
551.369	217.251
554.231	220.091
557.092	214.174
559.951	209.9
562.808	220.399
565.664	220.314
568.519	224.901
571.373	216.291
574.225	221.459
577.076	215.643
579.925	213.496
582.773	212.862
585.62	213.112
588.466	210.03
591.309	207.342
594.152	210.629
596.993	213.181
599.832	205.011
602.671	207.83
605.508	213.224
608.343	202.847
611.178	210.512
614.011	210.402
616.842	209.231
619.672	208.291
622.501	209.618
625.329	215.647
628.155	213.191
630.98	226.633
633.802	226.231
636.624	220.402
639.445	213.438
642.264	221.342
645.082	208.216
647.898	211.84
650.714	229.208
653.527	225.538
656.34	227.887
659.151	223.75
661.961	225.979
664.769	214.227
667.576	207.077
670.382	209.417
673.186	212.324
675.989	203.091
678.791	200.638
681.591	201.327
684.39	190.886
687.187	198.664
689.983	193.893
692.779	197.859
695.572	198.579
698.363	193.246
701.155	192.525
703.944	189.74
706.733	193.678
709.519	200.644
712.305	200.422
715.089	199.427
717.871	201.195
720.653	209.675
723.433	204.3
726.212	199.675
728.989	203.39
731.765	198.597
734.54	196.679
737.313	193.754
740.085	200.198
742.856	205.36
745.625	195.292
748.394	195.671
751.16	198.511
753.926	198.771
756.689	197.241
759.452	202.549
762.214	198.697
764.974	206.115
767.733	203.303
770.49	195.321
773.246	197.527
776.001	196.863
778.755	197.434
781.507	195.453
784.258	190.851
787.007	197.882
789.756	202.636
792.502	202.009
795.247	194.1
797.992	206.553
800.735	200.316
803.477	201.873
806.217	205.008
808.956	209.893
811.694	212.886
814.43	208.403
817.165	215.278
819.899	203.988
822.631	198.969
825.362	199.79
828.092	193.564
830.82	195.091
833.548	199.41
836.274	195.871
838.998	206.401
841.721	197.775
844.444	196.6
847.165	190.863
849.884	190.174
852.601	182.399
855.318	185.442
858.034	187.004
860.749	188.22
863.461	192.527
866.173	191.184
868.883	179.751
871.592	182.418
874.3	183.084
877.006	189.522
879.712	181.64
882.415	188.549
885.118	186.675
887.819	182.403
890.519	188.858
893.218	192.131
895.914	197.718
898.611	193.151
901.306	193.607
903.999	188.535
906.692	193.029
909.382	184.772
912.072	192.661
914.761	189.084
917.447	185.518
920.133	187.407
922.818	183.794
925.501	181.162
928.183	182.097
930.864	183.226
933.543	182.518
936.221	185.278
938.898	182.227
941.574	183.934
944.248	181.287
946.921	184.326
949.593	183.955
952.263	176.08
954.932	184.421
957.6	174.123
960.267	177.421
962.932	178.629
965.597	184.309
968.26	190
970.922	190.647
973.581	186.281
976.241	189.851
978.898	199.063
981.555	203.782
984.21	210.682
986.864	222.913
989.517	240.269
992.169	257.067
994.819	279.022
997.468	284.4
1000.12	303.662
1002.76	323.88
1005.41	329.81
1008.05	313.202
1010.69	305.526
1013.34	285.723
1015.98	264.771
1018.61	236.381
1021.25	218.157
1023.89	214.945
1026.52	204.091
1029.16	201.997
1031.79	193.646
1034.42	203.273
1037.05	201.375
1039.68	205.526
1042.31	208.199
1044.93	207.709
1047.56	215.575
1050.18	215.511
1052.81	211.428
1055.43	213.983
1058.05	211.403
1060.67	203.189
1063.28	206.698
1065.9	205.672
1068.52	206.624
1071.13	207.198
1073.74	221.564
1076.35	217.1
1078.96	223.402
1081.57	238.865
1084.18	244.873
1086.79	255.753
1089.39	262.866
1092	278.751
1094.6	277.414
1097.2	278.274
1099.8	261.344
1102.4	256.187
1105	232.341
1107.6	240.414
1110.19	238.439
1112.79	244.285
1115.38	248.747
1117.97	253.658
1120.56	265.307
1123.15	252.747
1125.74	241.733
1128.33	233.356
1130.91	228.207
1133.5	210.754
1136.08	206.187
1138.66	198.507
1141.24	197.353
1143.82	199.08
1146.4	206.629
1148.98	205.987
1151.55	206.401
1154.13	205.062
1156.7	199.69
1159.27	197.175
1161.85	192.105
1164.42	181.687
1166.98	184.119
1169.55	178.322
1172.12	186.233
1174.68	183.602
1177.25	178.771
1179.81	178.693
1182.37	178.202
1184.93	174.419
1187.49	176.471
1190.05	169.962
1192.6	169.611
1195.16	170.342
1197.71	166.328
1200.27	169.342
1202.82	166.736
1205.37	156.823
1207.92	161.782
1210.47	167.604
1213.01	160.431
1215.56	154.983
1218.1	163.127
1220.65	167.838
1223.19	162.317
1225.73	168.246
1228.27	164.396
1230.81	173.64
1233.35	166.862
1235.88	164.765
1238.42	172.254
1240.95	162.958
1243.48	167.238
1246.02	168.095
1248.55	162.797
1251.07	165.171
1253.6	163.322
1256.13	166.518
1258.66	169.877
1261.18	163.442
1263.7	171.21
1266.22	171.039
1268.75	166.095
1271.27	177.407
1273.78	169.106
1276.3	172.17
1278.82	169.618
1281.33	172.798
1283.85	173.983
1286.36	170.622
1288.87	173.98
1291.38	181.374
1293.89	177.338
1296.4	178.898
1298.9	165.525
1301.41	171.73
1303.91	166.782
1306.41	171.442
1308.92	173.331
1311.42	173.855
1313.92	171.262
1316.42	172.321
1318.91	175.93
1321.41	173.016
1323.9	175.392
1326.4	169.313
1328.89	178.31
1331.38	182.406
1333.87	183.886
1336.36	186.267
1338.85	177.418
1341.34	184.856
1343.82	172.531
1346.31	172.618
1348.79	176.442
1351.27	174.951
1353.75	175.289
1356.23	173.836
1358.71	175.651
1361.19	181.94
1363.66	186.956
1366.14	185.256
1368.61	183.754
1371.09	198.976
1373.56	199.489
1376.03	203.18
1378.5	213.886
1380.96	213.206
1383.43	207.235
1385.9	202.767
1388.36	199.528
1390.83	179.511
1393.29	177.403
1395.75	170.923
1398.21	166.883
1400.67	159.858
1403.13	159.194
1405.58	158.735
1408.04	161.807
1410.49	155.415
1412.95	154.629
1415.4	153.955
1417.85	153.622
1420.3	157.529
1422.75	153.445
1425.2	151.193
1427.64	151.005
1430.09	150.543
1432.53	150.691
1434.97	151.644
1437.42	147.736
1439.86	152.162
1442.3	140.635
1444.73	146.952
1447.17	144.285
1449.61	145.744
1452.04	143.909
1454.48	139.404
1456.91	143.084
1459.34	135.71
1461.77	144.768
1464.2	135.851
1466.63	133.754
1469.06	136.794
1471.48	134.378
1473.91	138.4
1476.33	140.247
1478.75	136.496
1481.17	134.74
1483.6	138.299
1486.01	134.059
1488.43	122.527
1490.85	130.084
1493.27	127.682
1495.68	123.518
1498.09	121.898
1500.51	118.84
1502.92	120.098
1505.33	119.819
1507.74	126.415
1510.14	119.456
1512.55	127.483
1514.96	121.83
1517.36	122.087
1519.77	121.904
1522.17	122.185
1524.57	125.998
1526.97	127.719
1529.37	127.873
1531.77	119.929
1534.16	120.93
1536.56	126.879
1538.95	122.049
1541.35	124.897
1543.74	128.873
1546.13	128.83
1548.52	130.07
1550.91	127.178
1553.3	130.227
1555.68	131.956
1558.07	134.401
1560.45	132.205
1562.84	131.858
1565.22	128.504
1567.6	140.085
1569.98	134.259
1572.36	129.736
1574.74	136.647
1577.12	144.467
1579.49	135.952
1581.87	133.955
1584.24	136.443
1586.61	126.83
1588.98	131.194
1591.35	127.532
1593.72	131.367
1596.09	124.861
1598.46	124.549
1600.82	118.905
1603.19	120.413
1605.55	124.174
1607.92	118.295
1610.28	115.75
1612.64	120.46
1615	112.313
1617.36	112.205
1619.71	113.209
1622.07	112.941
1624.42	110.65
1626.78	114.76
1629.13	111.705
1631.48	107.651
1633.83	108.973
1636.18	114.285
1638.53	106.897
1640.88	109.4
1643.22	104.282
1645.57	106.442
1647.91	107.722
1650.26	110.431
1652.6	108.991
1654.94	109.378
1657.28	101.194
1659.62	109.167
1661.96	109.12
1664.29	101.815
1666.63	103.553
1668.96	102.227
1671.3	103.401
1673.63	104.483
1675.96	101.274
1678.29	107.014
1680.62	100.083
1682.95	103.865
1685.27	97.8823
1687.6	97.5157
1689.92	99.8735
1692.25	97.1667
1694.57	99.8515
1696.89	102.264
1699.21	98.414
1701.53	97.063
1703.85	92.3099
1706.17	95.5425
1708.48	94.7288
1710.8	95.5222
1713.11	95.1633
1715.43	95.6423
1717.74	98.855
1720.05	96.4162
1722.36	96.1633
1724.67	96.8933
1726.97	98.6389
1729.28	91.1092
1731.59	96.2996
1733.89	98.0887
1736.19	95.4729
1738.5	92.4275
1740.8	93.8674
1743.1	91.2227
1745.4	95.0088
1747.7	91.9481
1749.99	95.6259
1752.29	88.4157
1754.58	94.5004
1756.88	84.2943
1759.17	86.194
1761.46	89.0494
1763.75	90.8979
1766.04	89.5464
1768.33	88.9476
1770.62	89.1199
1772.91	88.2895
1775.19	88.069
1777.48	87.3538
1779.76	91.1585
1782.04	89.8304
1784.32	87.9756
1786.6	88.2161
1788.88	86.518
1791.16	86.8295
1793.44	87.4842
1795.71	85.4319
1797.99	87.189
1800.26	85.676
1802.54	85.194
1804.81	84.6547
1807.08	84.5331
1809.35	83.0837
1811.62	78.5004
1813.88	83.8466
1816.15	84.0801
1818.42	90.7219
1820.68	81.701
1822.95	81.3089
1825.21	83.676
1827.47	84.617
1829.73	81.879
1831.99	81.7223
1834.25	78.8649
1836.51	84.6736
1838.76	78.9204
1841.02	78.2024
1843.27	79.6286
1845.52	86.547
1847.78	73.0521
1850.03	79.4313
1852.28	83.2954
1854.53	84.8338
1856.78	83.3785
1859.02	79.1772
1861.27	81.0232
1863.51	78.4426
1865.76	83.1025
1868	79.6863
1870.24	79.7231
1872.48	82.7193
1874.72	81.1273
1876.96	77.0915
1879.2	78.6151
1881.44	74.9445
1883.67	79.8584
1885.91	76.7549
1888.14	83.3133
1890.37	80.7254
1892.61	76.1874
1894.84	73.5163
1897.07	79.8728
1899.29	71.6246
1901.52	75.8334
1903.75	82.2853
1905.97	78.056
1908.2	75.5357
1910.42	74.098
1912.64	72.8692
1914.87	76.372
1917.09	74.5998
1919.31	77.2916
1921.52	77.7753
1923.74	71.0671
1925.96	75.5936
1928.17	74.3245
1930.39	71.998
1932.6	74.7048
1934.81	75.8451
1937.03	75.3242
1939.24	75.7563
1941.45	70.6006
1943.65	72.8471
1945.86	65.0867
1948.07	69.4957
1950.27	68.7996
1952.48	73.7692
1954.68	71.2897
1956.88	72.0806
1959.08	73.0773
1961.29	66.3133
1963.48	70.8482
1965.68	70.3165
1967.88	68.4422
1970.08	69.056
1972.27	70.1395
1974.47	67.421
1976.66	71.5574
1978.85	68.8294
1981.04	68.8758
1983.23	64.8831
1985.42	72.2646
1987.61	65.3678
1989.8	68.2133
1991.99	69.7539
1994.17	66.7183
1996.36	68.9584
1998.54	69.0741
2000.72	71.2744
2002.9	63.2673
2005.08	66.385
2007.26	65.9411
2009.44	67.5138
2011.62	65.392
2013.8	65.9025
2015.97	62.9874
2018.15	67.5639
2020.32	68.937
2022.49	63.9652
2024.66	63.0494
2026.83	60.3051
2029	61.1829
2031.17	60.8228
2033.34	61.6279
2035.51	65.738
2037.67	60.7538
2039.84	66.1955
2042	61.8052
2044.16	65.6578
2046.32	63.418
2048.48	57.8594
2050.64	59.0981
2052.8	58.5382
2054.96	62.74
2057.12	59.2857
2059.27	59.8715
2061.43	59.1633
2063.58	62.4938
2065.73	66.6228
2067.89	56.7755
2070.04	57.865
2072.19	56.6535
2074.34	57.2524
2076.48	61.198
2078.63	55.5536
2080.78	58.195
2082.92	58.2093
2085.07	57.2136
2087.21	58.0867
2089.35	57.6611
2091.49	54.4869
2093.63	54.0731
2095.77	53.5251
2097.91	58.7603
2100.05	52.3028
2102.19	54.9069
2104.32	52.8542
2106.45	56.1063
2108.59	54.6076
2110.72	56.6356
2112.85	53.4568
2114.98	56.5901
2117.11	59.7539
2119.24	54.9874
2121.37	52.2673
2123.5	54.4938
2125.62	54.8981
2127.75	55.3676
2129.87	56.8451
2131.99	52.9801
2134.11	57.7824
2136.24	56.8159
2138.36	54.6151
2140.47	56.2985
2142.59	56.4244
2144.71	55.288
2146.83	54.997
2148.94	54.976
2151.06	53.0985
2153.17	55.2767
2155.28	53.8649
2157.39	53.4246
2159.5	48.3311
2161.61	50.549
2163.72	52.3623
2165.83	49.584
2167.94	49.2857
2170.04	50.4782
2172.15	51.2986
2174.25	46.8542
2176.35	50.6185
2178.45	49.5207
2180.56	48.9896
2182.66	51.9977
2184.75	49.7692
2186.85	53.8509
2188.95	49.5352
2191.05	50.9297
2193.14	48.2782
2195.24	49.941
2197.33	49.7473
2199.42	51.3095
2201.51	53.0202
2203.6	50.3099
2205.69	48.1913
2207.78	47.256
2209.87	49.4002
2211.96	48.0494
2214.04	44.0829
2216.13	49.0985
2218.21	47.8229
2220.29	48.5069
2222.38	50.2561
2224.46	54.7617
2226.54	50.2916
2228.62	50.1668
2230.69	47.6072
2232.77	49.2726
2234.85	48.1884
2236.92	46.9301
2239	46.0802
2241.07	49.3095
2243.15	48.5565
2245.22	44.8579
2247.29	48.8714
2249.36	53.4462
2251.43	47.9383
2253.49	44.7183
2255.56	43.5964
2257.63	42.9934
2259.69	44.8001
2261.76	45.2852
2263.82	46.42
2265.88	45.5967
2267.95	44.1198
2270.01	44.9863
2272.07	44.202
2274.12	43.866
2276.18	42.1824
2278.24	46.417
2280.3	46.6392
2282.35	48.3625
2284.41	45.7788
2286.46	44.3059
2288.51	39.8645
2290.56	43.3133
2292.61	43.2703
2294.66	45.1702
2296.71	37.0985
2298.76	44.263
2300.8	42.3248
2302.85	42.9914
2304.9	43.5251
2306.94	43.1492
2308.98	42.8584
2311.03	43.739
2313.07	45.4313
2315.11	44.9297
2317.15	41.0522
2319.19	38.5766
2321.22	41.7716
2323.26	41.8338
2325.3	41.1799
2327.33	40.9874
2329.36	40.6951
2331.4	42.5901
2333.43	38.7189
2335.46	41.4896
2337.49	40.3671
2339.52	41.424
2341.55	39.6011
2343.58	40.6428
2345.6	41.0829
2347.63	51.7473
2349.65	38.4006
2351.68	39.9622
2353.7	38.4095
2355.72	37.8111
2357.74	39.5694
2359.76	38.7117
2361.78	40.0713
2363.8	39.4825
2365.82	40.2134
2367.84	37.6468
2369.85	41.1782
2371.87	39.8674
2373.88	39.6049
2375.9	35.6362
2377.91	35.8416
2379.92	39.6423
2381.93	37.063
2383.94	34.2946
2385.95	40.0486
2387.96	38.0731
2389.96	36.49
2391.97	35.4389
2393.97	35.531
2395.98	37.7431
2397.98	33.3701
2399.98	37.414
2401.98	36.9513
2403.99	37.0381
2405.99	37.2204
2407.98	38.8303
2409.98	33.8228
2411.98	36.4107
2413.98	32.675
2415.97	35.0985
2417.96	33.3851
2419.96	38.2333
2421.95	39.5289
2423.94	36.6581
2425.93	31.3095
2427.92	33.0368
2429.91	34.5802
2431.9	32.4271
2433.89	33.0943
2435.87	40.1912
2437.86	34.8471
2439.84	35.8228
2441.83	35.4244
2443.81	33.6268
2445.79	35.5224
2447.77	36.0224
2449.75	35.4065
2451.73	31.4319
2453.71	34.9191
2455.69	32.0724
2457.67	32.0806
2459.64	33.5317
2461.62	29.8645
2463.59	30.1671
2465.56	31.385
2467.54	33.289
2469.51	32.1492
2471.48	31.4248
2473.45	31.2943
2475.42	36.1441
2477.38	34.3423
2479.35	32.5354
2481.32	33.0629
2483.28	32.0522
2485.25	31.5314
2487.21	30.9868
2489.17	31.8536
2491.13	30.7722
2493.09	34.7261
2495.05	29.7428
2497.01	31.4938
2498.97	30.9562
2500.93	30.6579
2502.89	29.2782
2504.84	32.2943
2506.8	33.976
2508.75	31.858
2510.7	30.3311
2512.65	29.8428
2514.61	27.0844
2516.56	28.9339
2518.51	29.2603
2520.45	30.8407
2522.4	26.42
2524.35	32.7012
2526.29	33.3444
2528.24	27.3095
2530.18	29.7539
2532.13	30.3104
2534.07	29.0105
2536.01	29.7566
2537.95	30.7446
2539.89	34.0688
2541.83	32.0512
2543.77	30.5117
2545.71	26.8121
2547.64	28.3311
2549.58	27.761
2551.51	25.3985
2553.45	28.865
2555.38	30.2916
2557.31	26.8451
2559.25	29.4359
2561.18	28.3028
2563.11	26.9564
2565.03	28.5044
2566.96	25.6466
2568.89	31.8759
2570.82	30.6362
2572.74	29.2312
2574.67	25.0456
2576.59	28.3248
2578.51	29.3557
2580.43	29.8622
2582.36	27.8338
2584.28	27.1361
2586.2	24.3991
2588.11	25.6213
2590.03	25.7259
2591.95	26.7189
2593.86	29.7184
2595.78	27.6497
2597.69	26.1984
2599.61	29.4895
2601.52	26.5132
2603.43	26.0052
2605.34	29.063
2607.25	24.5677
2609.16	28.4491
2611.07	27.5898
2612.98	25.0802
2614.89	26.873
2616.79	27.6228
2618.7	29.6579
2620.6	30.0501
2622.5	27.9546
2624.41	26.8304
2626.31	26.8647
2628.21	27.2024
2630.11	29.6049
2632.01	27.8866
2633.91	24.6535
2635.8	30.623
2637.7	28.4284
2639.6	25.5468
2641.49	24.6385
2643.39	29.0877
2645.28	33.13
2647.17	36.231
2649.06	38.0833
2650.95	35.2822
2652.84	30.2024
2654.73	30.4006
2656.62	25.6115
2658.51	31.6112
2660.4	28.5117
2662.28	28.4734
2664.17	33.0522
2666.05	26.8451
2667.93	26.7712
2669.82	33.1948
2671.7	45.959
2673.58	65.1842
2675.46	81.8982
2677.34	89.4182
2679.21	77.8378
2681.09	57.4246
2682.97	53.013
2684.84	41.5094
2686.72	36.1522
2688.59	43.1469
2690.47	60.3648
2692.34	85.4008
2694.21	180.393
2696.08	240.077
2697.95	284.514
2699.82	200.293
2701.69	107.056
2703.56	64.2625
2705.42	55.1815
2707.29	44.5901
2709.15	37.8229
2711.02	36.0829
2712.88	28.4042
2714.75	26.2095
2716.61	27.5779
2718.47	26.3135
2720.33	26.2941
2722.19	26.216
2724.05	25.2161
2725.9	27.4027
2727.76	26.2946
2729.62	24.2678
2731.47	24.7818
2733.33	26.4206
2735.18	22.6389
2737.03	24.0673
2738.88	27.654
2740.73	22.4021
2742.59	22.06
2744.43	21.8763
2746.28	23.2026
2748.13	22.2926
2749.98	22.2096
2751.82	20.5157
2753.67	21.1605
2755.51	23.3202
2757.36	20.0688
2759.2	21.5251
2761.04	20.4021
2762.88	22.4882
