365.286	213.856
368.238	220.13
371.189	230.186
374.139	251.683
377.087	264.654
380.034	278.123
382.979	257.392
385.923	249.199
388.866	220.767
391.806	213.792
394.745	207.361
397.684	201.999
400.62	206.987
403.555	212.98
406.49	213.234
409.421	208.035
412.353	204.754
415.282	203.803
418.209	208.461
421.137	217.412
424.062	212.021
426.985	227.856
429.908	242.015
432.829	242.548
435.748	250.545
438.666	250.141
441.583	239.21
444.498	239.833
447.412	224.34
450.324	219.98
453.235	229.434
456.145	231.95
459.052	236.193
461.959	221.35
464.865	205.579
467.769	194.649
470.671	193.286
473.572	190.03
476.471	189.17
479.37	191.938
482.266	196.231
485.162	190.681
488.056	194.784
490.948	185.052
493.839	191.388
496.73	196.81
499.618	190.372
502.505	191.488
505.39	195.643
508.275	193.04
511.157	194.877
514.039	210.017
516.919	214.479
519.798	205.155
522.674	208.439
525.55	196.777
528.425	182.735
531.297	181.711
534.169	176.745
537.039	178.348
539.908	173.726
542.775	175.949
545.642	181.508
548.506	170.57
551.369	176.02
554.231	173.385
557.092	171.87
559.951	176.338
562.808	172.647
565.664	172.785
568.519	177.503
571.373	170.637
574.225	174.153
577.076	168.619
579.925	170.792
582.773	169.835
585.62	161.709
588.466	168.11
591.309	166.192
594.152	165.97
596.993	170.333
599.832	168.523
602.671	174.959
605.508	166.795
608.343	163.885
611.178	171.781
614.011	162.637
616.842	168.229
619.672	172.041
622.501	165.095
625.329	161.246
628.155	168.75
630.98	163.233
633.802	170.6
636.624	171.461
639.445	162.411
642.264	160.553
645.082	163.811
647.898	160.139
650.714	166.368
653.527	174.062
656.34	179.575
659.151	177.405
661.961	171.079
664.769	176.866
667.576	163.846
670.382	160.731
673.186	151.404
675.989	150.563
678.791	156.145
681.591	147.483
684.39	155.605
687.187	151.217
689.983	152.219
692.779	154.462
695.572	150.952
698.363	156.057
701.155	153.075
703.944	152.822
706.733	153.518
709.519	150.972
712.305	151.288
715.089	156.626
717.871	159.355
720.653	156.326
723.433	160.276
726.212	156.633
728.989	154.943
731.765	152.927
734.54	156.501
737.313	148.229
740.085	152.229
742.856	149.943
745.625	146.373
748.394	153.22
751.16	147.528
753.926	148.846
756.689	154.559
759.452	152.145
762.214	151.857
764.974	153.812
767.733	155.553
770.49	150.663
773.246	150.175
776.001	149.797
778.755	155.861
781.507	154.338
784.258	152.777
787.007	155.679
789.756	158.924
792.502	154.696
795.247	158.338
797.992	157.199
800.735	162.523
803.477	157.575
806.217	163.573
808.956	159.259
811.694	162.957
814.43	167.767
817.165	170.632
819.899	173.751
822.631	165.964
825.362	157.444
828.092	152.129
830.82	149.777
833.548	148.912
836.274	148.945
838.998	150.053
841.721	146.856
844.444	146.239
847.165	145.181
849.884	146.758
852.601	144.279
855.318	145.745
858.034	140.98
860.749	144.079
863.461	145.949
866.173	142.928
868.883	138.607
871.592	140.95
874.3	137.192
877.006	144.861
879.712	138.368
882.415	147.468
885.118	149.182
887.819	152.459
890.519	144.143
893.218	144.652
895.914	157.273
898.611	153.505
901.306	151.575
903.999	151.036
906.692	147.919
909.382	147.577
912.072	147.009
914.761	152.346
917.447	137.725
920.133	143.609
922.818	139.627
925.501	139.313
928.183	135.484
930.864	140.326
933.543	139.952
936.221	140.886
938.898	139.9
941.574	134.957
944.248	136.913
946.921	134.132
949.593	137.128
952.263	134.286
954.932	140.912
957.6	136.297
960.267	142.468
962.932	139.506
965.597	145.328
968.26	142.128
970.922	144.51
973.581	144.913
976.241	139.968
978.898	146.244
981.555	141.454
984.21	146.589
986.864	149.909
989.517	158.25
992.169	168.844
994.819	172.518
997.468	182.037
1000.12	197.481
1002.76	203.162
1005.41	220.737
1008.05	236.412
1010.69	247.635
1013.34	237.708
1015.98	225.202
1018.61	203.676
1021.25	180.297
1023.89	174.299
1026.52	161.131
1029.16	151.132
1031.79	157.552
1034.42	159.842
1037.05	151.703
1039.68	154.138
1042.31	155.701
1044.93	161.506
1047.56	160.797
1050.18	163.573
1052.81	163.901
1055.43	171.432
1058.05	173.41
1060.67	159.99
1063.28	156.323
1065.9	166.745
1068.52	174.745
1071.13	167.301
1073.74	167.921
1076.35	175.528
1078.96	184.822
1081.57	189.741
1084.18	195.666
1086.79	202.37
1089.39	216.572
1092	230.414
1094.6	244.355
1097.2	235.912
1099.8	228.923
1102.4	217.57
1105	213.326
1107.6	202.468
1110.19	204.344
1112.79	200.435
1115.38	203.908
1117.97	211.185
1120.56	201.565
1123.15	210.51
1125.74	212.058
1128.33	193.612
1130.91	184.312
1133.5	170.132
1136.08	166.572
1138.66	157.851
1141.24	154.684
1143.82	153.316
1146.4	157.589
1148.98	161.41
1151.55	160.496
1154.13	165.1
1156.7	164.834
1159.27	161.019
1161.85	152.389
1164.42	151.859
1166.98	149.748
1169.55	144.888
1172.12	144.949
1174.68	142.557
1177.25	140.193
1179.81	138.458
1182.37	145.022
1184.93	143.185
1187.49	139.432
1190.05	130.185
1192.6	132.179
1195.16	132.68
1197.71	128.498
1200.27	134.775
1202.82	127.491
1205.37	130.921
1207.92	123.637
1210.47	122.703
1213.01	125.397
1215.56	122.162
1218.1	126.36
1220.65	128.809
1223.19	125.355
1225.73	127.252
1228.27	123.167
1230.81	126.03
1233.35	131.367
1235.88	135.391
1238.42	132.486
1240.95	127.213
1243.48	126.215
1246.02	130.375
1248.55	131.474
1251.07	130.588
1253.6	127.146
1256.13	131.131
1258.66	129.709
1261.18	129.634
1263.7	131.404
1266.22	135.593
1268.75	136.197
1271.27	138.283
1273.78	133.17
1276.3	130.013
1278.82	139.814
1281.33	135.363
1283.85	132.632
1286.36	134.479
1288.87	137.994
1291.38	138.703
1293.89	142.394
1296.4	140.758
1298.9	129.532
1301.41	135.101
1303.91	137.73
1306.41	128.139
1308.92	131.044
1311.42	135.277
1313.92	135.176
1316.42	137.464
1318.91	132.585
1321.41	135.21
1323.9	142.221
1326.4	141.35
1328.89	149.97
1331.38	145.697
1333.87	145.91
1336.36	155.618
1338.85	143.059
1341.34	152.019
1343.82	149.367
1346.31	149.486
1348.79	140.036
1351.27	141.197
1353.75	143.026
1356.23	147.19
1358.71	145.324
1361.19	147.946
1363.66	152.058
1366.14	156.732
1368.61	154.498
1371.09	163.805
1373.56	169.291
1376.03	182.903
1378.5	180.34
1380.96	190.743
1383.43	193.802
1385.9	182.424
1388.36	170.755
1390.83	166.46
1393.29	166.194
1395.75	151.831
1398.21	140.729
1400.67	138.239
1403.13	133.083
1405.58	128.9
1408.04	122.808
1410.49	126.234
1412.95	120.859
1415.4	129.748
1417.85	132.33
1420.3	125.353
1422.75	122.131
1425.2	129.659
1427.64	124.704
1430.09	121.024
1432.53	124.555
1434.97	126.97
1437.42	125.455
1439.86	122.835
1442.3	119.64
1444.73	118.216
1447.17	117.524
1449.61	122.132
1452.04	118.743
1454.48	118.664
1456.91	114.015
1459.34	118.062
1461.77	111.688
1464.2	114.301
1466.63	117.881
1469.06	117.448
1471.48	116.835
1473.91	120.374
1476.33	111.45
1478.75	111.37
1481.17	112.684
1483.6	113.666
1486.01	106.751
1488.43	107.525
1490.85	105.781
1493.27	99.4417
1495.68	102.923
1498.09	98.6983
1500.51	100.252
1502.92	99.4584
1505.33	94.782
1507.74	93.1682
1510.14	94.9034
1512.55	95.9523
1514.96	94.5626
1517.36	96.007
1519.77	94.3978
1522.17	90.6194
1524.57	93.1678
1526.97	95.3368
1529.37	93.6347
1531.77	97.7296
1534.16	93.2728
1536.56	99.0237
1538.95	98.7971
1541.35	96.3846
1543.74	96.2801
1546.13	101.953
1548.52	96.8688
1550.91	104.422
1553.3	97.7968
1555.68	97.5322
1558.07	91.9395
1560.45	99.2313
1562.84	100.192
1565.22	99.9698
1567.6	104.859
1569.98	104.794
1572.36	103.211
1574.74	106.523
1577.12	107.064
1579.49	102.976
1581.87	102.239
1584.24	99.4165
1586.61	101.158
1588.98	100.276
1591.35	94.8636
1593.72	98.8222
1596.09	97.1324
1598.46	95.7276
1600.82	93.799
1603.19	93.1922
1605.55	90.5697
1607.92	95.4192
1610.28	87.4712
1612.64	90.5872
1615	91.0574
1617.36	90.0556
1619.71	89.9704
1622.07	93.2021
1624.42	88.1617
1626.78	82.7018
1629.13	84.2293
1631.48	88.1926
1633.83	86.8382
1636.18	87.7616
1638.53	79.2559
1640.88	86.0297
1643.22	84.9309
1645.57	82.3294
1647.91	82.6817
1650.26	89.7879
1652.6	84.0617
1654.94	84.737
1657.28	82.5745
1659.62	87.359
1661.96	87.1795
1664.29	79.6726
1666.63	82.7107
1668.96	83.5012
1671.3	73.6299
1673.63	82.0495
1675.96	79.3676
1678.29	78.8481
1680.62	81.929
1682.95	79.5524
1685.27	75.8852
1687.6	77.7928
1689.92	78.5975
1692.25	77.8394
1694.57	77.3899
1696.89	80.4437
1699.21	82.8395
1701.53	82.7435
1703.85	76.6573
1706.17	77.6366
1708.48	80.4097
1710.8	77.7538
1713.11	77.7043
1715.43	83.0939
1717.74	77.6433
1720.05	76.4127
1722.36	74.8442
1724.67	80.2325
1726.97	78.9701
1729.28	78.4988
1731.59	75.5451
1733.89	73.5329
1736.19	75.0684
1738.5	75.0243
1740.8	75.9973
1743.1	71.0347
1745.4	82.2559
1747.7	73.3699
1749.99	74.5379
1752.29	74.9699
1754.58	72.9058
1756.88	74.0012
1759.17	71.8318
1761.46	72.4781
1763.75	71.9657
1766.04	70.9671
1768.33	72.2783
1770.62	72.5659
1772.91	66.138
1775.19	68.8318
1777.48	70.849
1779.76	69.1814
1782.04	67.5284
1784.32	70.5255
1786.6	72.5385
1788.88	68.6944
1791.16	65.899
1793.44	68.1495
1795.71	68.8522
1797.99	70.2168
1800.26	68.6252
1802.54	68.6659
1804.81	65.7543
1807.08	65.2886
1809.35	65.0384
1811.62	69.8863
1813.88	66.2836
1816.15	66.2392
1818.42	71.6324
1820.68	66.1389
1822.95	62.4614
1825.21	69.4244
1827.47	65.989
1829.73	67.3033
1831.99	66.1261
1834.25	70.972
1836.51	64.6213
1838.76	61.7751
1841.02	63.8584
1843.27	62.4536
1845.52	70.6737
1847.78	64.1795
1850.03	67.6776
1852.28	65.2788
1854.53	61.5628
1856.78	62.1344
1859.02	64.4616
1861.27	63.6466
1863.51	61.3167
1865.76	60.1304
1868	64.4389
1870.24	62.5829
1872.48	57.7882
1874.72	61.9596
1876.96	63.627
1879.2	62.5024
1881.44	63.5078
1883.67	59.9907
1885.91	60.9011
1888.14	62.1123
1890.37	59.2986
1892.61	60.4768
1894.84	60.7543
1897.07	62.0103
1899.29	59.0071
1901.52	55.1409
1903.75	67.7473
1905.97	56.0703
1908.2	59.8688
1910.42	58.7671
1912.64	61.5705
1914.87	57.8637
1917.09	62.8154
1919.31	54.9058
1921.52	60.5254
1923.74	60.9299
1925.96	56.0571
1928.17	55.3504
1930.39	56.639
1932.6	58.064
1934.81	57.2056
1937.03	57.1825
1939.24	56.7636
1941.45	56.0831
1943.65	55.2592
1945.86	57.8015
1948.07	59.1892
1950.27	57.627
1952.48	55.8881
1954.68	54.6837
1956.88	57.6146
1959.08	52.5284
1961.29	54.0444
1963.48	55.4634
1965.68	55.7968
1967.88	53.7977
1970.08	54.1008
1972.27	53.6365
1974.47	54.8949
1976.66	56.1734
1978.85	55.9232
1981.04	49.7296
1983.23	53.3009
1985.42	55.7948
1987.61	55.487
1989.8	52.7064
1991.99	54.1408
1994.17	51.5901
1996.36	52.0444
1998.54	53.3839
2000.72	55.7038
2002.9	53.2459
2005.08	53.4854
2007.26	53.1281
2009.44	48.0811
2011.62	55.2925
2013.8	52.3053
2015.97	52.8352
2018.15	51.9079
2020.32	49.3034
2022.49	50.694
2024.66	47.4417
2026.83	52.3874
2029	50.0437
2031.17	47.7577
2033.34	50.4417
2035.51	47.7179
2037.67	51.0278
2039.84	51.5994
2042	50.5507
2044.16	50.8197
2046.32	49.3474
2048.48	51.0748
2050.64	51.622
2052.8	48.9162
2054.96	45.5024
2057.12	50.9083
2059.27	46.6804
2061.43	47.8619
2063.58	45.4077
2065.73	48.9059
2067.89	49.8863
2070.04	47.1092
2072.19	44.9676
2074.34	50.5653
2076.48	47.4619
2078.63	46.0101
2080.78	44.6804
2082.92	46.768
2085.07	50.3526
2087.21	48.4714
2089.35	45.3497
2091.49	46.602
2093.63	44.8588
2095.77	44.7588
2097.91	43.2593
2100.05	47.9553
2102.19	46.091
2104.32	47.5232
2106.45	43.3258
2108.59	45.3503
2110.72	48.9059
2112.85	44.9838
2114.98	44.5994
2117.11	47.9506
2119.24	42.3522
2121.37	45.0768
2123.5	45.69
2125.62	49.0169
2127.75	42.9602
2129.87	47.3167
2131.99	43.5898
2134.11	44.5294
2136.24	45.7131
2138.36	41.7752
2140.47	44.4125
2142.59	42.9097
2144.71	42.8655
2146.83	44.2392
2148.94	45.1475
2151.06	40.9992
2153.17	41.9572
2155.28	43.3033
2157.39	43.7033
2159.5	44.5932
2161.61	39.3546
2163.72	43.6348
2165.83	41.1502
2167.94	43.2638
2170.04	41.5789
2172.15	42.6525
2174.25	41.1184
2176.35	41.1879
2178.45	44.8569
2180.56	44.4511
2182.66	42.3798
2184.75	40.5255
2186.85	41.0377
2188.95	42.7229
2191.05	41.3819
2193.14	40.1795
2195.24	40.41
2197.33	41.6191
2199.42	44.3724
2201.51	41.5994
2203.6	41.967
2205.69	38.7684
2207.78	43.3533
2209.87	41.8222
2211.96	41.4615
2214.04	40.3904
2216.13	37.5255
2218.21	38.4418
2220.29	41.348
2222.38	42.5562
2224.46	42.3943
2226.54	35.7303
2228.62	37.4046
2230.69	38.7435
2232.77	38.3003
2234.85	38.5102
2236.92	40.219
2239	41.881
2241.07	36.2784
2243.15	38.371
2245.22	36.664
2247.29	38.892
2249.36	36.4787
2251.43	38.014
2253.49	36.6505
2255.56	34.0151
2257.63	37.7662
2259.69	36.4036
2261.76	38.8949
2263.82	34.3436
2265.88	36.0965
2267.95	38.0614
2270.01	35.0763
2272.07	34.249
2274.12	35.9931
2276.18	39.0934
2278.24	37.4368
2280.3	32.0268
2282.35	34.962
2284.41	32.6771
2286.46	36.856
2288.51	32.7077
2290.56	34.5731
2292.61	36.3522
2294.66	36.7809
2296.71	35.8655
2298.76	33.9058
2300.8	31.1143
2302.85	29.324
2304.9	34.3212
2306.94	33.3978
2308.98	30.1378
2311.03	34.3987
2313.07	36.9699
2315.11	36.0744
2317.15	30.5966
2319.19	31.0713
2321.22	33.6841
2323.26	32.6563
2325.3	32.365
2327.33	35.3798
2329.36	32.1456
2331.4	32.0336
2333.43	35.2392
2335.46	33.62
2337.49	32.8315
2339.52	32.3532
2341.55	30.1478
2343.58	33.1074
2345.6	35.5931
2347.63	42.2221
2349.65	32.37
2351.68	34.8422
2353.7	29.9252
2355.72	27.7104
2357.74	29.5501
2359.76	32.9029
2361.78	31.7655
2363.8	33.6808
2365.82	31.1902
2367.84	33.8522
2369.85	29.3828
2371.87	30.4017
2373.88	31.061
2375.9	29.7501
2377.91	31.2489
2379.92	28.9234
2381.93	29.8485
2383.94	31.215
2385.95	29.0365
2387.96	31.1859
2389.96	29.4072
2391.97	27.3602
2393.97	32.2589
2395.98	29.5745
2397.98	29.1301
2399.98	27.566
2401.98	29.5192
2403.99	29.4047
2405.99	30.1475
2407.98	29.1726
2409.98	28.3685
2411.98	29.9125
2413.98	27.2687
2415.97	28.3326
2417.96	28.1301
2419.96	27.2961
2421.95	28.4072
2423.94	26.0684
2425.93	31.3229
2427.92	28.0969
2429.91	27.6263
2431.9	29.6798
2433.89	26.7228
2435.87	24.1301
2437.86	26.1922
2439.84	27.135
2441.83	30.7605
2443.81	27.5873
2445.79	27.6904
2447.77	27.7018
2449.75	24.3523
2451.73	25.017
2453.71	25.5062
2455.69	26.4835
2457.67	26.5218
2459.64	27.0806
2461.62	27.1775
2463.59	26.6194
2465.56	26.5015
2467.54	27.5725
2469.51	24.5872
2471.48	25.8862
2473.45	25.1476
2475.42	29.293
2477.38	22.1961
2479.35	26.0791
2481.32	25.3326
2483.28	24.4121
2485.25	27.086
2487.21	25.381
2489.17	24.4594
2491.13	27.5658
2493.09	24.9702
2495.05	25.1976
2497.01	21.7588
2498.97	26.2613
2500.93	24.3137
2502.89	24.3033
2504.84	25.73
2506.8	26.2326
2508.75	23.4781
2510.7	20.6342
2512.65	25.131
2514.61	25.899
2516.56	25.266
2518.51	21.9255
2520.45	23.2146
2522.4	23.205
2524.35	23.9375
2526.29	25.0257
2528.24	23.1007
2530.18	24.0437
2532.13	22.0703
2534.07	22.3276
2536.01	21.9527
2537.95	24.1576
2539.89	23.8318
2541.83	22.9479
2543.77	21.5275
2545.71	22.1878
2547.64	24.6259
2549.58	19.6857
2551.51	27.0703
2553.45	24.7976
2555.38	24.2559
2557.31	24.9724
2559.25	24.2546
2561.18	21.5693
2563.11	26.1329
2565.03	23.0103
2566.96	23.1261
2568.89	23.0738
2570.82	23.5102
2572.74	23.6776
2574.67	24.9875
2576.59	22.1549
2578.51	20.7135
2580.43	23.1521
2582.36	21.9963
2584.28	22.6343
2586.2	23.2363
2588.11	22.637
2590.03	21.7038
2591.95	21.2691
2593.86	22.0617
2595.78	21.9057
2597.69	20.1344
2599.61	24.1654
2601.52	22.5764
2603.43	23.8747
2605.34	22.0091
2607.25	23.8727
2609.16	22.8175
2611.07	22.7303
2612.98	23.2905
2614.89	21.5745
2616.79	22.9677
2618.7	24.1329
2620.6	22.5986
2622.5	21.8566
2624.41	23.7458
2626.31	24.3924
2628.21	25.0066
2630.11	24.2858
2632.01	21.5157
2633.91	21.983
2635.8	25.725
2637.7	23.1988
2639.6	24.1893
2641.49	21.8481
2643.39	28.6591
2645.28	28.3257
2647.17	34.2363
2649.06	35.7818
2650.95	30.3502
2652.84	28.6966
2654.73	25.1463
2656.62	25.9083
2658.51	25.3033
2660.4	26.7179
2662.28	26.1081
2664.17	24.0395
2666.05	27.5107
2667.93	29.9384
2669.82	36.4389
2671.7	48.4387
2673.58	69.0579
2675.46	82.9236
2677.34	81.8021
2679.21	75.9256
2681.09	54.1725
2682.97	52.9479
2684.84	37.6201
2686.72	34.25
2688.59	46.9636
2690.47	61.6139
2692.34	90.2954
2694.21	225.624
2696.08	253.528
2697.95	192.273
2699.82	138.866
2701.69	79.0233
2703.56	57.772
2705.42	48.4883
2707.29	37.725
2709.15	34.4548
2711.02	27.8637
2712.88	24.8368
2714.75	27.9676
2716.61	28.088
2718.47	23.9405
2720.33	23.8461
2722.19	26.7435
2724.05	21.6061
2725.9	21.2924
2727.76	23.9542
2729.62	21.4476
2731.47	20.6934
2733.33	22.8339
2735.18	20.15
2737.03	20.1989
2738.88	20.8852
2740.73	18.0364
2742.59	21.1007
2744.43	21.1794
2746.28	20.4106
2748.13	21.9217
2749.98	20.0645
2751.82	21.8234
2753.67	18.421
2755.51	19.7014
2757.36	21.2118
2759.2	21.2961
2761.04	17.153
2762.88	18.5853
