365.286	239.016
368.238	243.509
371.189	249.988
374.139	258.516
377.087	267.433
380.034	275.793
382.979	256.06
385.923	252.877
388.866	247.099
391.806	236.332
394.745	239.351
397.684	240.895
400.62	247.368
403.555	246.856
406.49	260.229
409.421	260.639
412.353	259.378
415.282	256.203
418.209	264.804
421.137	271.778
424.062	283.628
426.985	292.111
429.908	301.915
432.829	317.495
435.748	299.645
438.666	291.94
441.583	283.555
444.498	268.725
447.412	247.349
450.324	248.664
453.235	249.276
456.145	260.21
459.052	250.628
461.959	234.203
464.865	228.907
467.769	215.771
470.671	222.942
473.572	218.601
476.471	209.256
479.37	213.37
482.266	211.392
485.162	218.244
488.056	215.406
490.948	212.652
493.839	209.61
496.73	211.183
499.618	208.949
502.505	210.509
505.39	223.184
508.275	217.942
511.157	218.79
514.039	222.743
516.919	224.727
519.798	222.15
522.674	210.616
525.55	211.036
528.425	209.103
531.297	199.296
534.169	196.653
537.039	196.337
539.908	191.93
542.775	191.221
545.642	191.62
548.506	194.231
551.369	188.676
554.231	190.463
557.092	189.68
559.951	201.226
562.808	199.875
565.664	196.813
568.519	193.727
571.373	194.464
574.225	206.449
577.076	195.832
579.925	198.756
582.773	198.119
585.62	195.341
588.466	187.852
591.309	189.292
594.152	199.367
596.993	194.772
599.832	187.055
602.671	189.837
605.508	185.877
608.343	188.405
611.178	195.875
614.011	186.893
616.842	186.893
619.672	191.032
622.501	191.837
625.329	198.81
628.155	203.759
630.98	209.21
633.802	217.295
636.624	212.089
639.445	193.877
642.264	202.349
645.082	196.653
647.898	195.907
650.714	209.961
653.527	212.59
656.34	211.3
659.151	221.822
661.961	216.437
664.769	219.228
667.576	209.75
670.382	203.933
673.186	196.123
675.989	194.587
678.791	188.926
681.591	197.693
684.39	194.575
687.187	189.165
689.983	188.832
692.779	189.02
695.572	196.84
698.363	194.291
701.155	190.164
703.944	198.183
706.733	196.628
709.519	197.548
712.305	197.305
715.089	198.647
717.871	203.333
720.653	197.61
723.433	198.138
726.212	188.275
728.989	192.092
731.765	187.176
734.54	186.008
737.313	185.175
740.085	184.583
742.856	181.828
745.625	182.045
748.394	184.813
751.16	187.842
753.926	187.877
756.689	193.369
759.452	196.321
762.214	191.694
764.974	194.119
767.733	197.844
770.49	197.942
773.246	194.737
776.001	196.859
778.755	201.359
781.507	204.111
784.258	210.191
787.007	202.137
789.756	199.731
792.502	198.332
795.247	189.997
797.992	196.92
800.735	191.924
803.477	188.371
806.217	197.558
808.956	193.536
811.694	202.924
814.43	192.87
817.165	198.027
819.899	197.166
822.631	189.299
825.362	193.262
828.092	196.432
830.82	190.499
833.548	186.201
836.274	183.842
838.998	194.843
841.721	190.854
844.444	186.981
847.165	191.975
849.884	192.1
852.601	183.295
855.318	181.591
858.034	176.33
860.749	178.673
863.461	179.065
866.173	174.731
868.883	187.842
871.592	179.934
874.3	178.318
877.006	178.343
879.712	164.897
882.415	166.218
885.118	173.799
887.819	167.51
890.519	169.931
893.218	171.544
895.914	167.211
898.611	173.56
901.306	175.7
903.999	182.148
906.692	169.613
909.382	176.259
912.072	172.221
914.761	166.891
917.447	170.771
920.133	161.92
922.818	167.542
925.501	173.901
928.183	160.555
930.864	167.614
933.543	162.849
936.221	164.713
938.898	158.162
941.574	169.759
944.248	170.839
946.921	169.793
949.593	176.142
952.263	170.165
954.932	172.648
957.6	173.863
960.267	171.881
962.932	177.314
965.597	182.804
968.26	186.936
970.922	195.039
973.581	189.392
976.241	210.026
978.898	217.717
981.555	234.934
984.21	268.701
986.864	309.823
989.517	356.606
992.169	382.889
994.819	420.183
997.468	435.183
1000.12	458.379
1002.76	449.555
1005.41	432.333
1008.05	389.405
1010.69	358.426
1013.34	318.49
1015.98	276.829
1018.61	252.1
1021.25	221.828
1023.89	213.891
1026.52	204.4
1029.16	200.659
1031.79	202.145
1034.42	210.303
1037.05	200.287
1039.68	213.703
1042.31	227.472
1044.93	246.472
1047.56	256.318
1050.18	252.943
1052.81	234.476
1055.43	218.916
1058.05	213.749
1060.67	212.712
1063.28	203.734
1065.9	217.771
1068.52	208.661
1071.13	224.694
1073.74	230.45
1076.35	245.562
1078.96	268.087
1081.57	268.384
1084.18	262.359
1086.79	251.777
1089.39	255.96
1092	259.694
1094.6	267.977
1097.2	257.276
1099.8	256.56
1102.4	255.843
1105	249.528
1107.6	259.601
1110.19	276.2
1112.79	284.471
1115.38	308.85
1117.97	307.805
1120.56	289.089
1123.15	287.667
1125.74	276.267
1128.33	256.556
1130.91	248.877
1133.5	237.006
1136.08	230.721
1138.66	219.905
1141.24	221.601
1143.82	210.526
1146.4	211.794
1148.98	215.018
1151.55	219.637
1154.13	223.072
1156.7	211.46
1159.27	203.465
1161.85	202.911
1164.42	201.85
1166.98	197.61
1169.55	193.71
1172.12	178.571
1174.68	186.304
1177.25	186.276
1179.81	178.042
1182.37	178.273
1184.93	180.027
1187.49	172.698
1190.05	174.407
1192.6	178.704
1195.16	172.193
1197.71	176.698
1200.27	170.371
1202.82	169.119
1205.37	172.698
1207.92	168.415
1210.47	168.425
1213.01	173.572
1215.56	175.394
1218.1	179.066
1220.65	181.756
1223.19	197.061
1225.73	193.229
1228.27	188.886
1230.81	195.165
1233.35	197.195
1235.88	190.861
1238.42	193.1
1240.95	190.675
1243.48	185.726
1246.02	182.12
1248.55	179.169
1251.07	179.948
1253.6	182.682
1256.13	180.882
1258.66	180.271
1261.18	180.627
1263.7	177.851
1266.22	189.667
1268.75	191.62
1271.27	196.184
1273.78	191.961
1276.3	197.367
1278.82	195.378
1281.33	197.089
1283.85	196.86
1286.36	191.639
1288.87	194.981
1291.38	193.588
1293.89	197.054
1296.4	193.971
1298.9	198.675
1301.41	193.648
1303.91	197.228
1306.41	193.309
1308.92	189.687
1311.42	187.491
1313.92	190.4
1316.42	180.942
1318.91	185.165
1321.41	192.268
1323.9	189.666
1326.4	190.472
1328.89	194.119
1331.38	193.647
1333.87	189.519
1336.36	196.248
1338.85	193.472
1341.34	190.555
1343.82	191.537
1346.31	192.231
1348.79	197.862
1351.27	205.339
1353.75	208
1356.23	215.975
1358.71	212.496
1361.19	213.306
1363.66	227.974
1366.14	227.787
1368.61	223.628
1371.09	230.204
1373.56	232.758
1376.03	234.961
1378.5	233.943
1380.96	228.046
1383.43	221.275
1385.9	217.426
1388.36	217.24
1390.83	208.674
1393.29	201.537
1395.75	193.275
1398.21	187.805
1400.67	181.572
1403.13	183.054
1405.58	184.491
1408.04	184.454
1410.49	183.694
1412.95	190.823
1415.4	188.406
1417.85	181.759
1420.3	175.491
1422.75	182.721
1425.2	189.477
1427.64	179.981
1430.09	182.924
1432.53	168.897
1434.97	184.026
1437.42	175.637
1439.86	179.028
1442.3	172.582
1444.73	162.12
1447.17	160.185
1449.61	162.92
1452.04	163.196
1454.48	150.702
1456.91	156.924
1459.34	151.591
1461.77	154.415
1464.2	156.62
1466.63	155.17
1469.06	157.342
1471.48	162.305
1473.91	157.315
1476.33	153.296
1478.75	154.986
1481.17	149.924
1483.6	143.224
1486.01	146.23
1488.43	150.56
1490.85	144.472
1493.27	137.231
1495.68	146.148
1498.09	137.618
1500.51	141.94
1502.92	139.946
1505.33	143.876
1507.74	144.222
1510.14	145.848
1512.55	142.21
1514.96	148.694
1517.36	155.882
1519.77	157.555
1522.17	159.541
1524.57	164.156
1526.97	163.972
1529.37	166.731
1531.77	168.321
1534.16	167.877
1536.56	164.665
1538.95	170.961
1541.35	178.647
1543.74	179.248
1546.13	181.528
1548.52	187.267
1550.91	187.083
1553.3	182.444
1555.68	171.045
1558.07	168.261
1560.45	166.949
1562.84	175.267
1565.22	180.184
1567.6	184.766
1569.98	197.805
1572.36	187.601
1574.74	187.961
1577.12	183.794
1579.49	183.844
1581.87	177.406
1584.24	170.86
1586.61	173.766
1588.98	177.934
1591.35	170.387
1593.72	167.61
1596.09	161.388
1598.46	154.444
1600.82	156.823
1603.19	153.472
1605.55	147.433
1607.92	148.34
1610.28	148.295
1612.64	149.111
1615	145.342
1617.36	139.568
1619.71	142.244
1622.07	133.687
1624.42	137.656
1626.78	131.926
1629.13	129.583
1631.48	133.332
1633.83	132.22
1636.18	125.096
1638.53	125.461
1640.88	125.373
1643.22	121.948
1645.57	132.188
1647.91	125.281
1650.26	120.432
1652.6	116.888
1654.94	122.464
1657.28	121.096
1659.62	122.509
1661.96	118.681
1664.29	117.254
1666.63	113.119
1668.96	119.609
1671.3	113.469
1673.63	106.929
1675.96	109.752
1678.29	114.882
1680.62	119.377
1682.95	110.282
1685.27	116.541
1687.6	110.769
1689.92	113.676
1692.25	115.099
1694.57	109.292
1696.89	119.07
1699.21	112.42
1701.53	110.373
1703.85	106.595
1706.17	112.43
1708.48	110.02
1710.8	105.745
1713.11	104.698
1715.43	104.152
1717.74	107.268
1720.05	105.067
1722.36	107.447
1724.67	101.856
1726.97	105.067
1729.28	107.403
1731.59	102.197
1733.89	100.737
1736.19	103.373
1738.5	97.929
1740.8	99.8039
1743.1	100.463
1745.4	98.1038
1747.7	99.7197
1749.99	98.125
1752.29	99.268
1754.58	90.5676
1756.88	95.9988
1759.17	95.7523
1761.46	97.9741
1763.75	99.0374
1766.04	91.4111
1768.33	96.4117
1770.62	92.5114
1772.91	93.7031
1775.19	96.3139
1777.48	91.7476
1779.76	93.9741
1782.04	87.807
1784.32	94.1315
1786.6	90.7252
1788.88	91.1302
1791.16	87.5228
1793.44	87.6594
1795.71	88.1976
1797.99	90.2858
1800.26	86.5555
1802.54	88.6673
1804.81	89.229
1807.08	88.9558
1809.35	82.7784
1811.62	87.4659
1813.88	86.8408
1816.15	87.3124
1818.42	83.4659
1820.68	90.8185
1822.95	81.9567
1825.21	87.2409
1827.47	79.3459
1829.73	81.6463
1831.99	81.9469
1834.25	83.9341
1836.51	82.1967
1838.76	74.9791
1841.02	83.3019
1843.27	80.4185
1845.52	80.7959
1847.78	83.9889
1850.03	82.1963
1852.28	79.0006
1854.53	81.7716
1856.78	80.5915
1859.02	79.3924
1861.27	78.195
1863.51	80.2615
1865.76	74.9988
1868	76.4355
1870.24	78.0188
1872.48	79.1237
1874.72	80.0458
1876.96	75.1889
1879.2	77.1565
1881.44	78.0744
1883.67	80.0852
1885.91	75.5681
1888.14	81.7303
1890.37	77.5411
1892.61	80.4189
1894.84	73.2891
1897.07	73.4417
1899.29	76.1747
1901.52	76.3569
1903.75	86.5809
1905.97	74.7584
1908.2	76.425
1910.42	74.0407
1912.64	77.2518
1914.87	80.2692
1917.09	76.6008
1919.31	74.9999
1921.52	83.0215
1923.74	78.0407
1925.96	74.8717
1928.17	71.2458
1930.39	73.2676
1932.6	75.733
1934.81	71.9944
1937.03	73.2581
1939.24	76.1233
1941.45	72.9281
1943.65	70.7721
1945.86	77.3321
1948.07	72.7523
1950.27	72.59
1952.48	73.5704
1954.68	71.3787
1956.88	71.0865
1959.08	72.5948
1961.29	67.0865
1963.48	73.4433
1965.68	66.8638
1967.88	71.5957
1970.08	69.1298
1972.27	71.2946
1974.47	69.3145
1976.66	67.4512
1978.85	71.4892
1981.04	69.3786
1983.23	68.8956
1985.42	72.7179
1987.61	72.7234
1989.8	66.7845
1991.99	64.0902
1994.17	66.9253
1996.36	61.7584
1998.54	67.2013
2000.72	68.268
2002.9	66.4898
2005.08	65.907
2007.26	63.6911
2009.44	66.2753
2011.62	63.2348
2013.8	66.7019
2015.97	68.0801
2018.15	64.6191
2020.32	64.1508
2022.49	62.8061
2024.66	64.9728
2026.83	64.5465
2029	62.3732
2031.17	62.5283
2033.34	61.704
2035.51	60.1298
2037.67	67.1686
2039.84	61.0636
2042	61.5079
2044.16	60.4748
2046.32	65.9336
2048.48	63.3401
2050.64	64.0067
2052.8	61.4249
2054.96	62.7954
2057.12	61.6853
2059.27	62.1178
2061.43	59.9988
2063.58	62.2032
2065.73	61.0073
2067.89	58.2676
2070.04	58.3401
2072.19	60.7568
2074.34	58.8684
2076.48	60.8893
2078.63	57.9336
2080.78	57.6848
2082.92	58.9558
2085.07	57.0724
2087.21	59.268
2089.35	56.6577
2091.49	57.4512
2093.63	57.5168
2095.77	53.7059
2097.91	60.1476
2100.05	55.3321
2102.19	56.2587
2104.32	57.5623
2106.45	53.7518
2108.59	54.7031
2110.72	54.279
2112.85	55.3401
2114.98	52.472
2117.11	59.3409
2119.24	53.373
2121.37	57.9602
2123.5	55.3583
2125.62	58.6191
2127.75	56.0739
2129.87	53.147
2131.99	56.0724
2134.11	51.3124
2136.24	52.496
2138.36	53.268
2140.47	54.2676
2142.59	51.3321
2144.71	50.2472
2146.83	48.8556
2148.94	52.2505
2151.06	54.0636
2153.17	52.4898
2155.28	49.1364
2157.39	55.0081
2159.5	49.0724
2161.61	51.0397
2163.72	49.5544
2165.83	47.907
2167.94	47.7751
2170.04	48.0067
2172.15	51.5809
2174.25	48.1564
2176.35	51.8965
2178.45	49.5628
2180.56	49.8685
2182.66	45.2027
2184.75	49.3332
2186.85	47.6363
2188.95	50.5623
2191.05	50.5423
2193.14	43.3677
2195.24	50.3908
2197.33	47.907
2199.42	47.0636
2201.51	50.6739
2203.6	46.9525
2205.69	46.462
2207.78	46.2012
2209.87	44.5257
2211.96	42.5637
2214.04	44.8688
2216.13	45.1178
2218.21	44.5893
2220.29	46.256
2222.38	46.2872
2224.46	51.7119
2226.54	45.4057
2228.62	46.7197
2230.69	44.7667
2232.77	44.1178
2234.85	42.9336
2236.92	45.0353
2239	43.5544
2241.07	44.1835
2243.15	43.1021
2245.22	47.8423
2247.29	42.9233
2249.36	41.6462
2251.43	42.5445
2253.49	43.9226
2255.56	45.1178
2257.63	39.7303
2259.69	44.6556
2261.76	47.229
2263.82	41.4689
2265.88	42.1564
2267.95	40.0067
2270.01	43.2575
2272.07	42.2752
2274.12	40.4892
2276.18	40.5357
2278.24	39.3014
2280.3	40.0061
2282.35	39.1172
2284.41	39.6734
2286.46	39.2466
2288.51	37.0458
2290.56	41.0729
2292.61	33.7119
2294.66	38.2675
2296.71	38.4511
2298.76	39.5346
2300.8	37.9165
2302.85	39.496
2304.9	38.0004
2306.94	37.1564
2308.98	37.7296
2311.03	38.4512
2313.07	36.4072
2315.11	37.1632
2317.15	38.5543
2319.19	37.1627
2321.22	38.9419
2323.26	37.5622
2325.3	37.1835
2327.33	39.0344
2329.36	38.1364
2331.4	34.739
2333.43	34.5466
2335.46	38.5737
2337.49	39.3786
2339.52	37.0452
2341.55	37.7125
2343.58	38.1449
2345.6	39.0066
2347.63	46.0452
2349.65	34.4063
2351.68	33.9889
2353.7	38.184
2355.72	35.0344
2357.74	33.34
2359.76	34.496
2361.78	34.5622
2363.8	37.7667
2365.82	34.0067
2367.84	34.0452
2369.85	36.7004
2371.87	33.7667
2373.88	32.57
2375.9	32.9341
2377.91	32.8778
2379.92	33.0344
2381.93	34.9889
2383.94	31.0337
2385.95	33.8956
2387.96	36.2112
2389.96	35.3786
2391.97	31.4512
2393.97	34.4512
2395.98	28.5731
2397.98	30.9519
2399.98	32.58
2401.98	32.0984
2403.99	31.9226
2405.99	30.3577
2407.98	34.3677
2409.98	30.0801
2411.98	31.2858
2413.98	32.0244
2415.97	31.2738
2417.96	32.3691
2419.96	32.1172
2421.95	30.0901
2423.94	29.4897
2425.93	28.5237
2427.92	27.6279
2429.91	31.229
2431.9	26.7025
2433.89	28.59
2435.87	27.9226
2437.86	31.0344
2439.84	30.3128
2441.83	28.9404
2443.81	30.2951
2445.79	28.7182
2447.77	29.3201
2449.75	28.5094
2451.73	26.4334
2453.71	29.823
2455.69	29.7667
2457.67	28.7004
2459.64	30.352
2461.62	29.2566
2463.59	27.4782
2465.56	27.0458
2467.54	29.7573
2469.51	30.9033
2471.48	26.8757
2473.45	30.6462
2475.42	29.2012
2477.38	28.5622
2479.35	25.8413
2481.32	31.2676
2483.28	30.452
2485.25	29.4897
2487.21	27.3849
2489.17	26.9404
2491.13	23.7844
2493.09	26.378
2495.05	25.7845
2497.01	27.6348
2498.97	30.4505
2500.93	25.3849
2502.89	26.7182
2504.84	23.7197
2506.8	24.857
2508.75	25.7182
2510.7	23.2288
2512.65	25.4512
2514.61	25.7845
2516.56	24.8679
2518.51	24.6462
2520.45	24.4505
2522.4	25.4897
2524.35	25.229
2526.29	25.7182
2528.24	24.1355
2530.18	25.5175
2532.13	22.8115
2534.07	23.9791
2536.01	23.8956
2537.95	24.7667
2539.89	26.6733
2541.83	24.7459
2543.77	23.0337
2545.71	27.0337
2547.64	22.6348
2549.58	23.1361
2551.51	26.7922
2553.45	25.2952
2555.38	25.0729
2557.31	26.9596
2559.25	22.4057
2561.18	23.6739
2563.11	22.5622
2565.03	24.7579
2566.96	24.0515
2568.89	25.0724
2570.82	25.9796
2572.74	21.5616
2574.67	22.9341
2576.59	23.6285
2578.51	24.0792
2580.43	21.6086
2582.36	24.1903
2584.28	23.7004
2586.2	23.5616
2588.11	23.535
2590.03	24.8115
2591.95	23.9681
2593.86	25.9418
2595.78	21.3401
2597.69	24.5237
2599.61	23.0337
2601.52	20.3014
2603.43	21.664
2605.34	22.8115
2607.25	25.1172
2609.16	21.3791
2611.07	23.0244
2612.98	21.3849
2614.89	22.0813
2616.79	23.0067
2618.7	22.7004
2620.6	23.8293
2622.5	21.859
2624.41	23.3394
2626.31	22.4782
2628.21	23.1172
2630.11	19.5237
2632.01	24.9404
2633.91	19.1361
2635.8	24.8956
2637.7	22.823
2639.6	22.3677
2641.49	23.0344
2643.39	27.5805
2645.28	30.8778
2647.17	30.5528
2649.06	32.5616
2650.95	27.0792
2652.84	27.34
2654.73	24.9253
2656.62	25.4046
2658.51	27.0061
2660.4	26.5908
2662.28	25.3786
2664.17	22.9226
2666.05	24.0515
2667.93	27.184
2669.82	30.2112
2671.7	41.0515
2673.58	55.6285
2675.46	69.5731
2677.34	66.1742
2679.21	56.8293
2681.09	47.9226
2682.97	43.739
2684.84	35.8679
2686.72	35.8293
2688.59	39.58
2690.47	54.184
2692.34	78.6071
2694.21	179.289
2696.08	213.915
2697.95	204.562
2699.82	145.079
2701.69	76.1084
2703.56	56.7119
2705.42	49.1287
2707.29	34.4334
2709.15	32.3786
2711.02	29.5168
2712.88	24.2566
2714.75	19.5237
2716.61	25.7004
2718.47	23.8685
2720.33	21.2857
2722.19	18.6285
2724.05	22.2012
2725.9	22.5157
2727.76	24.785
2729.62	20.7004
2731.47	21.969
2733.33	18.7004
2735.18	18.5893
2737.03	21.4511
2738.88	21.7004
2740.73	18.248
2742.59	18.3401
2744.43	17.9796
2746.28	17.7567
2748.13	21.2288
2749.98	20.8115
2751.82	16.1449
2753.67	15.9404
2755.51	18.8413
2757.36	16.7459
2759.2	21.4782
2761.04	19.4505
2762.88	19.8955
