365.286	819.888
368.238	806.332
371.189	799.876
374.139	803.923
377.087	820.585
380.034	816.099
382.979	817.696
385.923	825.354
388.866	843.585
391.806	870.231
394.745	915.738
397.684	960.747
400.62	1027.25
403.555	1065.46
406.49	1085.38
409.421	1114.23
412.353	1189.86
415.282	1297.35
418.209	1437.79
421.137	1547.41
424.062	1493.75
426.985	1359.75
429.908	1283.79
432.829	1258.37
435.748	1262.91
438.666	1252.18
441.583	1198.05
444.498	1077.6
447.412	948.976
450.324	859.943
453.235	827.275
456.145	828.196
459.052	802.099
461.959	790.276
464.865	792.707
467.769	805.353
470.671	785.485
473.572	735.719
476.471	745.497
479.37	782.497
482.266	797.341
485.162	772.73
488.056	755.888
490.948	742.096
493.839	727.701
496.73	726.72
499.618	691.099
502.505	666.321
505.39	651.709
508.275	667.645
511.157	650.2
514.039	647.376
516.919	648.932
519.798	645.243
522.674	640.423
525.55	665.798
528.425	722.429
531.297	765.786
534.169	744.277
537.039	669.196
539.908	596.534
542.775	595.054
545.642	583.312
548.506	605.099
551.369	645.83
554.231	703.481
557.092	693.341
559.951	658.497
562.808	600.655
565.664	583.909
568.519	579.901
571.373	562.756
574.225	575.932
577.076	569.145
579.925	577.034
582.773	588.59
585.62	590.145
588.466	626.21
591.309	681.623
594.152	711.833
596.993	639.898
599.832	597.154
602.671	585.432
605.508	568.487
608.343	583.789
611.178	597.83
614.011	607.175
616.842	601.373
619.672	587.932
622.501	584.089
625.329	622.598
628.155	634.478
630.98	684.034
633.802	719.812
636.624	750.355
639.445	715.62
642.264	680.756
645.082	663.043
647.898	668.876
650.714	682.521
653.527	741.6
656.34	802.397
659.151	807.165
661.961	795.637
664.769	800.106
667.576	782.778
670.382	729.489
673.186	722.727
675.989	725.793
678.791	783.395
681.591	807.427
684.39	726.894
687.187	719.087
689.983	696.418
692.779	686.648
695.572	683.469
698.363	677.204
701.155	651.645
703.944	636.169
706.733	623.312
709.519	619.645
712.305	616.756
715.089	648.288
717.871	671.545
720.653	730.032
723.433	772.508
726.212	781.19
728.989	775.635
731.765	760.301
734.54	731.619
737.313	675.73
740.085	628.865
742.856	599.243
745.625	604.709
748.394	608.154
751.16	594.867
753.926	578.534
756.689	579.154
759.452	584.978
762.214	611.265
764.974	612.867
767.733	623.709
770.49	640.021
773.246	648.312
776.001	680.487
778.755	666.709
781.507	677.043
784.258	678.376
787.007	671.478
789.756	685.756
792.502	666.909
795.247	675.363
797.992	688.423
800.735	687.756
803.477	702.376
806.217	717.21
808.956	742.752
811.694	745.252
814.43	765.919
817.165	729.798
819.899	710.085
822.631	698.845
825.362	689.645
828.092	661.393
830.82	667.645
833.548	681.145
836.274	693.2
838.998	703.478
841.721	714.923
844.444	719.227
847.165	734.384
849.884	719.1
852.601	749.989
855.318	761.701
858.034	797.307
860.749	821.29
863.461	810.512
866.173	788.29
868.883	771.451
871.592	771.734
874.3	767.179
877.006	766.952
879.712	778.888
882.415	803.145
885.118	810.145
887.819	823.256
890.519	821.447
893.218	815.32
895.914	768.242
898.611	759.399
901.306	720.019
903.999	748.066
906.692	747.639
909.382	758.891
912.072	729.242
914.761	714.024
917.447	697.797
920.133	672.566
922.818	667.976
925.501	676.61
928.183	692.165
930.864	692.766
933.543	714.332
936.221	733.777
938.898	744.221
941.574	753.999
944.248	733.079
946.921	716.198
949.593	683.833
952.263	683.882
954.932	695.243
957.6	694.044
960.267	703.254
962.932	722.155
965.597	744.11
968.26	787.666
970.922	810.443
973.581	855.827
976.241	913.5
978.898	976.194
981.555	1096.56
984.21	1258.17
986.864	1437.68
989.517	1604.95
992.169	1744.84
994.819	1834.67
997.468	1884.64
1000.12	1884.91
1002.76	1857.78
1005.41	1775.66
1008.05	1692.33
1010.69	1541.3
1013.34	1344.48
1015.98	1155.97
1018.61	1007.31
1021.25	929.246
1023.89	856.61
1026.52	831.721
1029.16	846.952
1031.79	834.219
1034.42	840.005
1037.05	837.95
1039.68	842.987
1042.31	872.709
1044.93	948.8
1047.56	1054.13
1050.18	1116.46
1052.81	1085.37
1055.43	1078.74
1058.05	1053.79
1060.67	1052.08
1063.28	1097.79
1065.9	1158.13
1068.52	1190.91
1071.13	1241.24
1073.74	1264.86
1076.35	1390.53
1078.96	1569.55
1081.57	1744.44
1084.18	1849.35
1086.79	1845.13
1089.39	1905.02
1092	2021.92
1094.6	2237.24
1097.2	2374.27
1099.8	2274.27
1102.4	2007.27
1105	1787.8
1107.6	1680.38
1110.19	1677.24
1112.79	1750.07
1115.38	1804.92
1117.97	1819.7
1120.56	1823.37
1123.15	1770.57
1125.74	1785.57
1128.33	1776.81
1130.91	1735.57
1133.5	1655.07
1136.08	1524.27
1138.66	1380.27
1141.24	1252.72
1143.82	1166.89
1146.4	1112.57
1148.98	1077.84
1151.55	1071.7
1154.13	1055.89
1156.7	1060.14
1159.27	1091.37
1161.85	1103.91
1164.42	1104.91
1166.98	1118.81
1169.55	1104.38
1172.12	1059.37
1174.68	1015.37
1177.25	975.7
1179.81	917.145
1182.37	895.478
1184.93	867.654
1187.49	842.478
1190.05	831.654
1192.6	836.431
1195.16	830.777
1197.71	840.922
1200.27	848.399
1202.82	881.56
1205.37	911.367
1207.92	959.367
1210.47	1006.67
1213.01	1044.43
1215.56	1073.57
1218.1	1135.68
1220.65	1140.49
1223.19	1154.94
1225.73	1154.62
1228.27	1186.49
1230.81	1195.51
1233.35	1173.51
1235.88	1176.09
1238.42	1196.19
1240.95	1172.17
1243.48	1145.51
1246.02	1117.13
1248.55	1093.68
1251.07	1076.46
1253.6	1083.3
1256.13	1124.57
1258.66	1191.68
1261.18	1278.13
1263.7	1427.91
1266.22	1651.68
1268.75	1826.48
1271.27	1825.72
1273.78	1678.16
1276.3	1554.83
1278.82	1449.6
1281.33	1329.7
1283.85	1256.14
1286.36	1201.37
1288.87	1127.61
1291.38	1101.72
1293.89	1111.37
1296.4	1122.81
1298.9	1127.7
1301.41	1153.78
1303.91	1165.61
1306.41	1210.3
1308.92	1273.24
1311.42	1296.79
1313.92	1291.73
1316.42	1179.27
1318.91	1042.94
1321.41	957.558
1323.9	932.686
1326.4	922.778
1328.89	918.088
1331.38	894.353
1333.87	897.398
1336.36	880.797
1338.85	911.889
1341.34	951.666
1343.82	954.666
1346.31	978.222
1348.79	1023.92
1351.27	1030.23
1353.75	1055.37
1356.23	1081.78
1358.71	1099.12
1361.19	1109.97
1363.66	1097.78
1366.14	1078.11
1368.61	1079.89
1371.09	1063.44
1373.56	1100.33
1376.03	1051.35
1378.5	1071.59
1380.96	1051.79
1383.43	1038.03
1385.9	1027.81
1388.36	1031.91
1390.83	1037.02
1393.29	1076.92
1395.75	1098.68
1398.21	1092.79
1400.67	1071.02
1403.13	1032.7
1405.58	1047.5
1408.04	1026.94
1410.49	1016.68
1412.95	1015.97
1415.4	991.478
1417.85	956.162
1420.3	931.145
1422.75	887.589
1425.2	872.399
1427.64	842.972
1430.09	821.069
1432.53	833.513
1434.97	862.308
1437.42	869.18
1439.86	847.513
1442.3	863.402
1444.73	827.846
1447.17	821.291
1449.61	799.889
1452.04	795
1454.48	802.748
1456.91	791.177
1459.34	802.128
1461.77	799.51
1464.2	805.256
1466.63	802.307
1469.06	813.53
1471.48	810.324
1473.91	814.863
1476.33	824.547
1478.75	811.658
1481.17	828.547
1483.6	836.418
1486.01	850.213
1488.43	901.016
1490.85	960.7
1493.27	1050.13
1495.68	1143.91
1498.09	1265.79
1500.51	1340.7
1502.92	1351.95
1505.33	1262.94
1507.74	1201.51
1510.14	1116.02
1512.55	1097.29
1514.96	1060.05
1517.36	1042.24
1519.77	979.558
1522.17	952.336
1524.57	930.049
1526.97	918.797
1529.37	920.844
1531.77	928.871
1534.16	921.95
1536.56	960.172
1538.95	985.412
1541.35	1035.51
1543.74	1065.28
1546.13	1158.63
1548.52	1205.06
1550.91	1213.86
1553.3	1172.11
1555.68	1146.09
1558.07	1082.94
1560.45	1091.53
1562.84	1148.24
1565.22	1203.17
1567.6	1254.16
1569.98	1242.51
1572.36	1198.56
1574.74	1180.49
1577.12	1133.38
1579.49	1092.73
1581.87	1033.84
1584.24	974.69
1586.61	946.117
1588.98	881.673
1591.35	829.592
1593.72	785.367
1596.09	752.995
1598.46	688.884
1600.82	653.329
1603.19	619.561
1605.55	600.771
1607.92	579.839
1610.28	573.44
1612.64	562.149
1615	544.685
1617.36	532.995
1619.71	541.137
1622.07	513.742
1624.42	501.781
1626.78	474.645
1629.13	474.725
1631.48	469.884
1633.83	463.154
1636.18	441.409
1638.53	439.773
1640.88	445.187
1643.22	433.075
1645.57	429.995
1647.91	428.362
1650.26	418.821
1652.6	411.742
1654.94	403.836
1657.28	409.964
1659.62	399.631
1661.96	401.362
1664.29	396.329
1666.63	398.428
1668.96	403.742
1671.3	393.949
1673.63	387.807
1675.96	386.085
1678.29	384.451
1680.62	393.545
1682.95	389.229
1685.27	392.915
1687.6	401.962
1689.92	402.784
1692.25	397.627
1694.57	415.057
1696.89	423.073
1699.21	428.86
1701.53	434.915
1703.85	439.549
1706.17	436.272
1708.48	450.207
1710.8	452.706
1713.11	459.502
1715.43	441.651
1717.74	436.189
1720.05	426.473
1722.36	419.154
1724.67	406.654
1726.97	394.526
1729.28	373.83
1731.59	359.631
1733.89	360.068
1736.19	343.696
1738.5	355.029
1740.8	329.918
1743.1	326.473
1745.4	329.901
1747.7	324.567
1749.99	316.614
1752.29	315.392
1754.58	307.584
1756.88	312.473
1759.17	303.918
1761.46	297.807
1763.75	302.836
1766.04	291.123
1768.33	290.742
1770.62	290.187
1772.91	291.918
1775.19	290.362
1777.48	286.584
1779.76	274.473
1782.04	283.409
1784.32	281.696
1786.6	278.52
1788.88	281.631
1791.16	277.696
1793.44	277.696
1795.71	275.473
1797.99	265.029
1800.26	266.187
1802.54	257.251
1804.81	260.029
1807.08	265.029
1809.35	271.14
1811.62	260.251
1813.88	260.029
1816.15	263.631
1818.42	269.696
1820.68	270.473
1822.95	259.14
1825.21	254.362
1827.47	263.029
1829.73	262.696
1831.99	256.14
1834.25	262.14
1836.51	255.696
1838.76	247.362
1841.02	235.696
1843.27	247.473
1845.52	248.631
1847.78	247.696
1850.03	242.298
1852.28	247.584
1854.53	244.14
1856.78	235.473
1859.02	234.029
1861.27	231.187
1863.51	236.584
1865.76	235.362
1868	234.918
1870.24	231.631
1872.48	236.584
1874.72	231.918
1876.96	226.918
1879.2	229.807
1881.44	237.473
1883.67	226.918
1885.91	231.14
1888.14	229.473
1890.37	238.473
1892.61	228.631
1894.84	229.918
1897.07	223.409
1899.29	230.456
1901.52	221.362
1903.75	234.807
1905.97	224.918
1908.2	217.789
1910.42	221.584
1912.64	223.075
1914.87	216.918
1917.09	220.075
1919.31	226.298
1921.52	217.807
1923.74	210.742
1925.96	207.14
1928.17	200.029
1930.39	203.584
1932.6	200.298
1934.81	202.584
1937.03	203.742
1939.24	208.362
1941.45	201.029
1943.65	205.473
1945.86	192.187
1948.07	204.696
1950.27	202.807
1952.48	193.251
1954.68	193.029
1956.88	192.251
1959.08	187.584
1961.29	203.029
1963.48	191.918
1965.68	198.473
1967.88	191.251
1970.08	191.029
1972.27	186.251
1974.47	172.473
1976.66	177.14
1978.85	191.14
1981.04	191.964
1983.23	185.742
1985.42	187.52
1987.61	178.362
1989.8	179.251
1991.99	177.584
1994.17	175.251
1996.36	168.473
1998.54	169.807
2000.72	173.696
2002.9	161.807
2005.08	168.584
2007.26	174.362
2009.44	170.14
2011.62	169.584
2013.8	165.584
2015.97	153.362
2018.15	154.029
2020.32	153.473
2022.49	158.251
2024.66	166.807
2026.83	147.473
2029	150.918
2031.17	158.918
2033.34	152.918
2035.51	154.14
2037.67	148.473
2039.84	136.14
2042	148.029
2044.16	147.918
2046.32	138.696
2048.48	139.584
2050.64	135.473
2052.8	138.473
2054.96	135.362
2057.12	148.473
2059.27	137.029
2061.43	132.918
2063.58	142.029
2065.73	137.362
2067.89	139.362
2070.04	127.584
2072.19	133.696
2074.34	131.251
2076.48	125.362
2078.63	128.14
2080.78	128.584
2082.92	133.696
2085.07	131.918
2087.21	122.362
2089.35	129.029
2091.49	133.362
2093.63	124.029
2095.77	126.696
2097.91	123.696
2100.05	134.14
2102.19	128.918
2104.32	133.473
2106.45	125.918
2108.59	132.075
2110.72	115.807
2112.85	121.807
2114.98	123.584
2117.11	118.807
2119.24	113.807
2121.37	112.362
2123.5	113.362
2125.62	112.473
2127.75	116.473
2129.87	118.029
2131.99	119.473
2134.11	118.029
2136.24	122.696
2138.36	113.807
2140.47	115.807
2142.59	116.584
2144.71	112.14
2146.83	113.696
2148.94	121.14
2151.06	113.807
2153.17	112.918
2155.28	120.029
2157.39	115.473
2159.5	123.473
2161.61	113.362
2163.72	106.473
2165.83	109.964
2167.94	120.14
2170.04	110.473
2172.15	111.807
2174.25	111.251
2176.35	109.584
2178.45	109.473
2180.56	112.473
2182.66	107.473
2184.75	112.029
2186.85	109.473
2188.95	109.584
2191.05	104.029
2193.14	108.473
2195.24	109.918
2197.33	102.251
2199.42	115.029
2201.51	97.8066
2203.6	109.473
2205.69	100.029
2207.78	91.14
2209.87	98.0289
2211.96	93.0289
2214.04	100.473
2216.13	107.14
2218.21	98.4733
2220.29	101.918
2222.38	95.8066
2224.46	99.14
2226.54	101.947
2228.62	93.9178
2230.69	98.4733
2232.77	91.5844
2234.85	90.6955
2236.92	90.8066
2239	90.8066
2241.07	94.2511
2243.15	87.6955
2245.22	85.3622
2247.29	88.9178
2249.36	92.2511
2251.43	84.2511
2253.49	86.2511
2255.56	78.14
2257.63	83.14
2259.69	80.4733
2261.76	80.3622
2263.82	79.5844
2265.88	80.2511
2267.95	78.0289
2270.01	83.14
2272.07	77.14
2274.12	77.14
2276.18	77.9178
2278.24	72.3622
2280.3	75.2511
2282.35	76.14
2284.41	77.3622
2286.46	76.6955
2288.51	62.4733
2290.56	73.5844
2292.61	76.4733
2294.66	72.8066
2296.71	65.14
2298.76	70.0289
2300.8	76.5844
2302.85	64.2511
2304.9	65.14
2306.94	71.4733
2308.98	70.0289
2311.03	64.2511
2313.07	66.0289
2315.11	68.4733
2317.15	62.5844
2319.19	67.2511
2321.22	62.9178
2323.26	62.3622
2325.3	56.3622
2327.33	60.4733
2329.36	63.4733
2331.4	62.0289
2333.43	60.14
2335.46	57.3622
2337.49	62.14
2339.52	57.14
2341.55	56.6955
2343.58	55.5844
2345.6	60.0289
2347.63	70.6955
2349.65	56.2511
2351.68	51.3622
2353.7	48.4733
2355.72	56.8066
2357.74	57.9178
2359.76	55.14
2361.78	53.4733
2363.8	53.8066
2365.82	49.2511
2367.84	53.4733
2369.85	52.0289
2371.87	49.9178
2373.88	54.8066
2375.9	46.5844
2377.91	47.5844
2379.92	46.8066
2381.93	48.14
2383.94	47.6955
2385.95	47.4733
2387.96	45.3622
2389.96	50.2339
2391.97	40.3622
2393.97	42.3622
2395.98	45.9178
2397.98	44.3622
2399.98	42.9178
2401.98	46.2511
2403.99	43.4733
2405.99	34.2511
2407.98	42.3622
2409.98	40.8066
2411.98	40.14
2413.98	40.9178
2415.97	42.9178
2417.96	41.8066
2419.96	37.8066
2421.95	38.3622
2423.94	36.4733
2425.93	42.9178
2427.92	39.9178
2429.91	41.5844
2431.9	34.8066
2433.89	35.5844
2435.87	36.14
2437.86	39.5844
2439.84	36.9178
2441.83	35.5844
2443.81	37.0289
2445.79	30.9178
2447.77	36.2511
2449.75	33.3622
2451.73	34.6955
2453.71	36.9178
2455.69	31.6955
2457.67	26.5844
2459.64	29.8066
2461.62	32.14
2463.59	35.9178
2465.56	31.2511
2467.54	31.8066
2469.51	28.9178
2471.48	29.14
2473.45	31.2511
2475.42	34.8066
2477.38	33.3622
2479.35	28.4733
2481.32	29.14
2483.28	32.9177
2485.25	28.5844
2487.21	31.0289
2489.17	24.6955
2491.13	24.0289
2493.09	25.9178
2495.05	19.9178
2497.01	24.3622
2498.97	27.0289
2500.93	22.0289
2502.89	18.5844
2504.84	16.2511
2506.8	21.9178
2508.75	18.8066
2510.7	12.5844
2512.65	18.6138
2514.61	20.6955
2516.56	23.2511
2518.51	14.2511
2520.45	21.2511
2522.4	20.0289
2524.35	19.4733
2526.29	16.3622
2528.24	15.9178
2530.18	16.0289
2532.13	10.9178
2534.07	15.2511
2536.01	17.9178
2537.95	13.14
2539.89	15.4733
2541.83	10.4733
2543.77	14.4733
2545.71	10.2511
2547.64	13.0289
2549.58	16.14
2551.51	14.0289
2553.45	11.6955
2555.38	15.14
2557.31	10.5844
2559.25	4.58442
2561.18	7.80664
2563.11	5.02886
2565.03	7.58442
2566.96	12.0289
2568.89	4.69553
2570.82	9.58442
2572.74	7.58442
2574.67	11.3622
2576.59	7.47331
2578.51	9.47331
2580.43	3.69553
2582.36	7.13997
2584.28	11.14
2586.2	9.13997
2588.11	5.80664
2590.03	3.13997
2591.95	1.47331
2593.86	3.3622
2595.78	1.3622
2597.69	1.13997
2599.61	3.47331
2601.52	2.69553
2603.43	4.02886
2605.34	-0.971137
2607.25	3.02886
2609.16	-1.97114
2611.07	2.47331
2612.98	-1.08225
2614.89	-0.860026
2616.79	1.02886
2618.7	3.02886
2620.6	-3.97114
2622.5	-6.19336
2624.41	-1.08225
2626.31	-1.6378
2628.21	0.917752
2630.11	-3.52669
2632.01	-1.52669
2633.91	-3.19336
2635.8	1.25108
2637.7	-0.860026
2639.6	-1.97114
2641.49	-7.08225
2643.39	-3.08225
2645.28	3.47331
2647.17	8.91775
2649.06	9.80664
2650.95	5.47331
2652.84	1.47331
2654.73	-2.19336
2656.62	-4.52669
2658.51	4.3622
2660.4	3.91775
2662.28	-3.52669
2664.17	-1.74891
2666.05	-2.86003
2667.93	-3.41558
2669.82	4.13997
2671.7	16.6955
2673.58	40.4733
2675.46	56.8532
2677.34	64.6955
2679.21	40.6955
2681.09	29.6955
2682.97	24.14
2684.84	11.4733
2686.72	3.58442
2688.59	11.8066
2690.47	25.14
2692.34	61.9178
2694.21	204.362
2696.08	263.473
2697.95	254.362
2699.82	169.473
2701.69	69.2511
2703.56	30.0289
2705.42	22.8066
2707.29	7.02886
2709.15	5.02886
2711.02	-8.6378
2712.88	-5.41558
2714.75	-10.7489
2716.61	-10.86
2718.47	-10.86
2720.33	-12.0822
2722.19	-12.3045
2724.05	-11.3045
2725.9	-13.3045
2727.76	-12.1934
2729.62	-16.4156
2731.47	-15.4156
2733.33	-20.9711
2735.18	-13.3045
2737.03	-15.5267
2738.88	-15.7489
2740.73	-12.86
2742.59	-17.7489
2744.43	-18.5267
2746.28	-19.86
2748.13	-17.0822
2749.98	-15.7489
2751.82	-23.5267
2753.67	-23.7489
2755.51	-19.7489
2757.36	-16.4156
2759.2	-20.5267
2761.04	-26.3045
2762.88	-23.7489
