365.286	249.99
368.238	257.628
371.189	262.398
374.139	272.501
377.087	286.31
380.034	295.215
382.979	288.948
385.923	277.292
388.866	255.898
391.806	247.018
394.745	234.714
397.684	241.105
400.62	244.007
403.555	246.269
406.49	243.977
409.421	233.556
412.353	247.907
415.282	244.24
418.209	253.206
421.137	257.151
424.062	262.373
426.985	272.714
429.908	284.661
432.829	280.637
435.748	286.327
438.666	287.224
441.583	272.803
444.498	264.692
447.412	260.027
450.324	265.755
453.235	264.119
456.145	255.817
459.052	264.246
461.959	252.622
464.865	239.315
467.769	226.522
470.671	227.833
473.572	217.842
476.471	219.851
479.37	219.267
482.266	222.104
485.162	227.018
488.056	223.36
490.948	220.002
493.839	224.501
496.73	220.502
499.618	220.693
502.505	215.939
505.39	224.681
508.275	226.863
511.157	229.27
514.039	235.158
516.919	233.468
519.798	231.969
522.674	221.404
525.55	222.299
528.425	217.287
531.297	209.129
534.169	213.429
537.039	205.801
539.908	201.058
542.775	199.334
545.642	200.174
548.506	202.233
551.369	199.723
554.231	205.509
557.092	200.707
559.951	204.595
562.808	204.868
565.664	203.046
568.519	200.952
571.373	204.124
574.225	205.405
577.076	200.28
579.925	204.048
582.773	208.65
585.62	198.416
588.466	199.978
591.309	198.035
594.152	206.612
596.993	203.764
599.832	193.046
602.671	198.373
605.508	196.58
608.343	205.682
611.178	193.056
614.011	189.804
616.842	204.483
619.672	202.006
622.501	200.619
625.329	201.596
628.155	205.236
630.98	202.395
633.802	199.633
636.624	204.586
639.445	211.227
642.264	207.671
645.082	207.05
647.898	203.993
650.714	208.112
653.527	219.023
656.34	218.558
659.151	211.194
661.961	212.495
664.769	203.279
667.576	196.558
670.382	191.089
673.186	196.73
675.989	187.581
678.791	183.801
681.591	188.92
684.39	179.232
687.187	183.983
689.983	187.451
692.779	189.937
695.572	183.605
698.363	183.732
701.155	186.868
703.944	185.477
706.733	180.061
709.519	186.827
712.305	186.515
715.089	181.08
717.871	192.534
720.653	191.817
723.433	195.836
726.212	186.591
728.989	190.312
731.765	187.176
734.54	176.91
737.313	185.073
740.085	182.343
742.856	186.737
745.625	187.71
748.394	191.262
751.16	185.714
753.926	186.456
756.689	181.668
759.452	184.567
762.214	186.305
764.974	191.617
767.733	189.686
770.49	192.454
773.246	187.421
776.001	191.135
778.755	196.298
781.507	185.912
784.258	191.97
787.007	184.007
789.756	193.023
792.502	191.38
795.247	195.447
797.992	183.38
800.735	190.057
803.477	192.326
806.217	191.612
808.956	193.368
811.694	192.468
814.43	197.413
817.165	197.135
819.899	190.181
822.631	184.603
825.362	186.42
828.092	182.243
830.82	180.189
833.548	177.778
836.274	178.54
838.998	182.129
841.721	183.578
844.444	180.527
847.165	180.669
849.884	171.194
852.601	175.707
855.318	182.625
858.034	175.117
860.749	179.626
863.461	171.518
866.173	184.858
868.883	172.76
871.592	172.611
874.3	174.914
877.006	165.035
879.712	173.503
882.415	175.007
885.118	175.281
887.819	169.952
890.519	180.429
893.218	175.495
895.914	186.367
898.611	176.033
901.306	182.712
903.999	180.041
906.692	183.559
909.382	172.802
912.072	174.803
914.761	177.549
917.447	178.375
920.133	171.248
922.818	182.752
925.501	173.509
928.183	177.334
930.864	177.651
933.543	168.295
936.221	172.667
938.898	169.191
941.574	168.872
944.248	169.493
946.921	171.572
949.593	169.824
952.263	172.509
954.932	164.469
957.6	175.392
960.267	169.446
962.932	173.328
965.597	180.834
968.26	179.397
970.922	174.717
973.581	184.715
976.241	184.223
978.898	175.333
981.555	196.128
984.21	204.154
986.864	196.682
989.517	210.612
992.169	223.936
994.819	235.779
997.468	247.524
1000.12	255.027
1002.76	270.708
1005.41	268.437
1008.05	274.714
1010.69	269.649
1013.34	249.693
1015.98	238.104
1018.61	221.483
1021.25	209.376
1023.89	186.467
1026.52	191.715
1029.16	179.87
1031.79	182.787
1034.42	190.736
1037.05	179.608
1039.68	191.6
1042.31	191.7
1044.93	200.712
1047.56	192.336
1050.18	198.701
1052.81	202.809
1055.43	198.264
1058.05	200.255
1060.67	199.292
1063.28	191.706
1065.9	197.863
1068.52	198.269
1071.13	207.38
1073.74	204.239
1076.35	216.471
1078.96	222.612
1081.57	220.356
1084.18	227.556
1086.79	240.413
1089.39	241.467
1092	262.168
1094.6	270.204
1097.2	262.712
1099.8	251.928
1102.4	236.875
1105	232.379
1107.6	231.661
1110.19	233.976
1112.79	227.986
1115.38	230.201
1117.97	238.359
1120.56	237.981
1123.15	235.879
1125.74	227.514
1128.33	219.767
1130.91	212.776
1133.5	197.838
1136.08	194.368
1138.66	183.349
1141.24	181.567
1143.82	192.505
1146.4	193.611
1148.98	193.704
1151.55	195.04
1154.13	194.981
1156.7	195.606
1159.27	179.939
1161.85	180.591
1164.42	177.366
1166.98	176.372
1169.55	167.819
1172.12	171.126
1174.68	165.712
1177.25	173.142
1179.81	176.768
1182.37	170.452
1184.93	169.652
1187.49	164.612
1190.05	166.912
1192.6	156.861
1195.16	162.439
1197.71	158.11
1200.27	156.501
1202.82	155.58
1205.37	150.069
1207.92	157.158
1210.47	155.501
1213.01	151.808
1215.56	145.834
1218.1	152.404
1220.65	154.214
1223.19	158.938
1225.73	150.66
1228.27	160.438
1230.81	153.138
1233.35	160.138
1235.88	158.884
1238.42	161.249
1240.95	153.347
1243.48	155.506
1246.02	158.157
1248.55	153.232
1251.07	165.384
1253.6	162.372
1256.13	154.701
1258.66	151.041
1261.18	165.581
1263.7	168.257
1266.22	162.151
1268.75	164.319
1271.27	166.279
1273.78	159.528
1276.3	164.172
1278.82	169.093
1281.33	165.907
1283.85	166.46
1286.36	168.326
1288.87	169.783
1291.38	173.611
1293.89	170.087
1296.4	163.866
1298.9	165.046
1301.41	161.932
1303.91	165.877
1306.41	167.144
1308.92	156.158
1311.42	162.413
1313.92	161.211
1316.42	166.146
1318.91	160.538
1321.41	170.223
1323.9	162.394
1326.4	170.692
1328.89	176.465
1331.38	178.651
1333.87	177.841
1336.36	188.534
1338.85	180.939
1341.34	181.455
1343.82	175.112
1346.31	174.839
1348.79	185.305
1351.27	184.245
1353.75	177.096
1356.23	173.137
1358.71	174.018
1361.19	175.945
1363.66	188.732
1366.14	186.03
1368.61	190.416
1371.09	190.907
1373.56	196.816
1376.03	194.585
1378.5	206.973
1380.96	207.492
1383.43	206.946
1385.9	200.921
1388.36	192.366
1390.83	197.722
1393.29	188.937
1395.75	172.722
1398.21	163.612
1400.67	164.163
1403.13	157.406
1405.58	160.776
1408.04	164.734
1410.49	154.259
1412.95	156.801
1415.4	155.811
1417.85	154.039
1420.3	150.813
1422.75	155.015
1425.2	157.456
1427.64	164.314
1430.09	149.035
1432.53	151.057
1434.97	151.706
1437.42	152.952
1439.86	143.744
1442.3	140.341
1444.73	143.509
1447.17	139.692
1449.61	151.363
1452.04	145.498
1454.48	144.657
1456.91	142.603
1459.34	137.49
1461.77	139.5
1464.2	135.421
1466.63	143.76
1469.06	143.552
1471.48	141.587
1473.91	140.712
1476.33	144.427
1478.75	145.833
1481.17	138.493
1483.6	140.522
1486.01	130.094
1488.43	131.501
1490.85	133.086
1493.27	128.061
1495.68	126.389
1498.09	122.492
1500.51	129.139
1502.92	122.706
1505.33	128.969
1507.74	125.69
1510.14	126.98
1512.55	122.931
1514.96	127.308
1517.36	125.718
1519.77	122.275
1522.17	120.311
1524.57	126.548
1526.97	130.555
1529.37	127.658
1531.77	127.603
1534.16	132.458
1536.56	128.66
1538.95	120.49
1541.35	124.072
1543.74	130.442
1546.13	124.902
1548.52	131.598
1550.91	125.501
1553.3	123.398
1555.68	132.635
1558.07	128.539
1560.45	128.492
1562.84	131.828
1565.22	125.595
1567.6	129.2
1569.98	136.174
1572.36	131.802
1574.74	139.796
1577.12	139.343
1579.49	138.033
1581.87	135.966
1584.24	134.262
1586.61	128.447
1588.98	135.515
1591.35	129.96
1593.72	126.138
1596.09	128.506
1598.46	121.975
1600.82	130.524
1603.19	125.427
1605.55	126.934
1607.92	125.707
1610.28	122.014
1612.64	118.683
1615	126.714
1617.36	126.017
1619.71	118.49
1622.07	117.958
1624.42	114.257
1626.78	115.125
1629.13	116.961
1631.48	119.261
1633.83	114.471
1636.18	114.155
1638.53	110.855
1640.88	116.983
1643.22	115.397
1645.57	112.374
1647.91	115.913
1650.26	116.372
1652.6	111.914
1654.94	112.095
1657.28	114.437
1659.62	111.953
1661.96	115.524
1664.29	106.595
1666.63	111.096
1668.96	114.481
1671.3	109.747
1673.63	110.171
1675.96	108.559
1678.29	107.828
1680.62	104.142
1682.95	111.326
1685.27	103.576
1687.6	107.323
1689.92	108.481
1692.25	105.182
1694.57	107.191
1696.89	108.538
1699.21	100.52
1701.53	104.969
1703.85	98.0694
1706.17	102.983
1708.48	103.595
1710.8	107.611
1713.11	99.841
1715.43	105.359
1717.74	103.552
1720.05	103.808
1722.36	100.745
1724.67	101.851
1726.97	98.3722
1729.28	101.394
1731.59	101.054
1733.89	99.426
1736.19	105.861
1738.5	99.1263
1740.8	96.3061
1743.1	101.257
1745.4	100.923
1747.7	98.1175
1749.99	101.892
1752.29	102.167
1754.58	99.5021
1756.88	98.0433
1759.17	99.5359
1761.46	96.3467
1763.75	96.0021
1766.04	95.4478
1768.33	96.2127
1770.62	98.1687
1772.91	92.0576
1775.19	95.6833
1777.48	99.6885
1779.76	96.9728
1782.04	92.0702
1784.32	96.1245
1786.6	93.071
1788.88	97.0033
1791.16	95.3703
1793.44	87.9637
1795.71	95.7272
1797.99	92.3277
1800.26	98.6137
1802.54	91.2997
1804.81	97.3032
1807.08	94.378
1809.35	92.74
1811.62	91.475
1813.88	93.8901
1816.15	94.0839
1818.42	97.7101
1820.68	91.3691
1822.95	93.9451
1825.21	91.543
1827.47	89.9323
1829.73	92.0779
1831.99	94.5224
1834.25	91.0602
1836.51	93.2594
1838.76	89.4277
1841.02	91.9737
1843.27	89.4145
1845.52	92.1175
1847.78	87.2828
1850.03	87.4419
1852.28	92.1399
1854.53	87.7143
1856.78	95.2956
1859.02	89.5826
1861.27	93.1251
1863.51	86.7192
1865.76	84.3467
1868	81.17
1870.24	88.891
1872.48	87.1523
1874.72	83.9651
1876.96	87.0595
1879.2	86.7772
1881.44	87.4209
1883.67	86.5154
1885.91	88.3372
1888.14	86.8779
1890.37	86.8332
1892.61	85.9599
1894.84	86.2777
1897.07	82.5479
1899.29	84.6559
1901.52	87.659
1903.75	90.9599
1905.97	82.0779
1908.2	84.2375
1910.42	87.7918
1912.64	88.8533
1914.87	82.4918
1917.09	85.4817
1919.31	84.9788
1921.52	85.7248
1923.74	83.0602
1925.96	84.0915
1928.17	81.6494
1930.39	82.9406
1932.6	78.32
1934.81	78.9261
1937.03	78.543
1939.24	81.0396
1941.45	83.5034
1943.65	81.0856
1945.86	77.7243
1948.07	79.3928
1950.27	79.8117
1952.48	80.6324
1954.68	83.2824
1956.88	86.9465
1959.08	78.2695
1961.29	79.7823
1963.48	80.5806
1965.68	83.9572
1967.88	77.0122
1970.08	79.9963
1972.27	81.3895
1974.47	81.1967
1976.66	80.7605
1978.85	85.7452
1981.04	73.7811
1983.23	81.9299
1985.42	79.1666
1987.61	80.9069
1989.8	79.193
1991.99	80.6719
1994.17	79.7567
1996.36	80.2581
1998.54	79.2426
2000.72	79.6367
2002.9	81.4976
2005.08	78.3952
2007.26	76.4248
2009.44	75.3048
2011.62	77.6233
2013.8	78.3385
2015.97	76.2332
2018.15	75.7918
2020.32	77.4478
2022.49	74.2216
2024.66	70.8396
2026.83	76.0372
2029	76.7658
2031.17	78.633
2033.34	80.3366
2035.51	76.4043
2037.67	76.5108
2039.84	73.3001
2042	77.1545
2044.16	72.4153
2046.32	81.9259
2048.48	78.0525
2050.64	75.6789
2052.8	72.7701
2054.96	75.9957
2057.12	72.4337
2059.27	74.2167
2061.43	75.9234
2063.58	75.2274
2065.73	71.15
2067.89	71.5282
2070.04	79.2886
2072.19	78.6731
2074.34	68.625
2076.48	74.891
2078.63	73.9146
2080.78	74.6541
2082.92	75.8028
2085.07	68.5677
2087.21	70.0128
2089.35	75.8474
2091.49	72.0876
2093.63	72.9957
2095.77	67.5283
2097.91	70.1246
2100.05	72.659
2102.19	69.2695
2104.32	72.2492
2106.45	69.1635
2108.59	63.7438
2110.72	74.958
2112.85	68.4367
2114.98	69.3936
2117.11	66.7269
2119.24	70.622
2121.37	70.6807
2123.5	62.7995
2125.62	69.7376
2127.75	69.7734
2129.87	66.6571
2131.99	68.8008
2134.11	69.7025
2136.24	67.2727
2138.36	66.9498
2140.47	69.6495
2142.59	71.8716
2144.71	70.0856
2146.83	64.9324
2148.94	69.0691
2151.06	69.9
2153.17	68.7039
2155.28	61.5128
2157.39	63.8941
2159.5	66.3604
2161.61	65.656
2163.72	64.74
2165.83	66.5684
2167.94	64.1285
2170.04	63.8473
2172.15	66.546
2174.25	65.4817
2176.35	62.9797
2178.45	62.8251
2180.56	65.5499
2182.66	66.6795
2184.75	65.3308
2186.85	62.5135
2188.95	65.3768
2191.05	66.2439
2193.14	64.1163
2195.24	57.5264
2197.33	60.9668
2199.42	67.5589
2201.51	62.329
2203.6	61.3123
2205.69	60.5371
2207.78	64.6324
2209.87	58.306
2211.96	60.4273
2214.04	58.3041
2216.13	61.4497
2218.21	62.9817
2220.29	63.3161
2222.38	68.6412
2224.46	63.543
2226.54	59.2688
2228.62	58.2096
2230.69	57.8711
2232.77	60.071
2234.85	58.8136
2236.92	58.4962
2239	55.979
2241.07	61.5589
2243.15	58.0768
2245.22	57.8461
2247.29	59.3997
2249.36	53.6021
2251.43	58.3799
2253.49	61.2983
2255.56	58.2918
2257.63	60.3328
2259.69	55.6029
2261.76	58.9299
2263.82	61.17
2265.88	54.502
2267.95	56.034
2270.01	58.1322
2272.07	53.0812
2274.12	58.9945
2276.18	54.79
2278.24	54.2747
2280.3	59.1004
2282.35	58.2784
2284.41	55.7408
2286.46	53.1967
2288.51	54.9874
2290.56	53.0838
2292.61	55.4023
2294.66	54.2841
2296.71	51.9261
2298.76	54.1879
2300.8	55.4273
2302.85	54.6247
2304.9	53.1329
2306.94	56.4809
2308.98	51.3743
2311.03	52.0985
2313.07	52.4999
2315.11	50.3768
2317.15	51.9336
2319.19	49.5479
2321.22	54.9089
2323.26	50.4036
2325.3	53.5047
2327.33	53.9657
2329.36	53.8546
2331.4	51.4319
2333.43	53.6021
2335.46	51.1713
2337.49	54.1285
2339.52	49.8117
2341.55	54.7107
2343.58	48.1649
2345.6	46.0589
2347.63	65.7652
2349.65	50.173
2351.68	49.9277
2353.7	46.1483
2355.72	46.1105
2357.74	46.2396
2359.76	45.6948
2361.78	50.092
2363.8	47.8615
2365.82	46.6777
2367.84	44.4597
2369.85	45.7269
2371.87	47.2516
2373.88	43.9708
2375.9	46.9277
2377.91	49.3888
2379.92	48.7269
2381.93	47.0741
2383.94	47.7126
2385.95	45.4969
2387.96	47.1002
2389.96	48.4319
2391.97	43.4803
2393.97	45.3251
2395.98	44.6239
2397.98	45.4029
2399.98	44.0985
2401.98	46.3041
2403.99	44.8404
2405.99	43.8487
2407.98	44.7243
2409.98	43.193
2411.98	44.4892
2413.98	40.7575
2415.97	45.9425
2417.96	44.7478
2419.96	41.9507
2421.95	42.9918
2423.94	42.2932
2425.93	44.2268
2427.92	42.2758
2429.91	40.7269
2431.9	42.2019
2433.89	41.0589
2435.87	45.244
2437.86	40.6547
2439.84	38.5357
2441.83	41.274
2443.81	42.0928
2445.79	42.3881
2447.77	39.2038
2449.75	41.3278
2451.73	35.1545
2453.71	41.2669
2455.69	42.1417
2457.67	38.0908
2459.64	37.3162
2461.62	40.0768
2463.59	39.9163
2465.56	38.6565
2467.54	38.7652
2469.51	40.8238
2471.48	42.8071
2473.45	37.0819
2475.42	43.9491
2477.38	40.2096
2479.35	39.7575
2481.32	37.1814
2483.28	39.2669
2485.25	39.9515
2487.21	38.1584
2489.17	40.583
2491.13	40.958
2493.09	39.585
2495.05	39.5229
2497.01	37.0703
2498.97	39.9
2500.93	41.6016
2502.89	37.4579
2504.84	38.4172
2506.8	36.258
2508.75	39.8562
2510.7	35.3379
2512.65	38.212
2514.61	37.979
2516.56	37.9654
2518.51	38.2906
2520.45	37.0525
2522.4	33.3526
2524.35	40.094
2526.29	34.3936
2528.24	37.0819
2530.18	33.0819
2532.13	35.2918
2534.07	36.6104
2536.01	36.94
2537.95	36.3972
2539.89	38.5307
2541.83	34.4668
2543.77	37.7594
2545.71	38.4272
2547.64	34.0153
2549.58	33.0595
2551.51	35.8028
2553.45	36.3207
2555.38	38.0784
2557.31	37.7203
2559.25	36.8353
2561.18	33.6623
2563.11	34.5709
2565.03	37.0985
2566.96	30.8442
2568.89	34.7593
2570.82	33.8136
2572.74	35.1145
2574.67	34.0618
2576.59	33.1086
2578.51	35.0382
2580.43	34.8481
2582.36	33.4833
2584.28	36.682
2586.2	32.5895
2588.11	36.2217
2590.03	32.555
2591.95	33.5047
2593.86	34.6789
2595.78	31.0388
2597.69	34.1068
2599.61	31.4725
2601.52	31.4497
2603.43	31.0691
2605.34	33.8059
2607.25	33.2127
2609.16	34.979
2611.07	30.7486
2612.98	31.3936
2614.89	32.7432
2616.79	30.1481
2618.7	29.0985
2620.6	29.5709
2622.5	29.9491
2624.41	30.714
2626.31	30.9348
2628.21	29.9923
2630.11	33.9673
2632.01	32.9592
2633.91	30.2012
2635.8	36.7823
2637.7	31.7676
2639.6	31.1609
2641.49	32.2925
2643.39	32.2824
2645.28	38.4826
2647.17	41.5209
2649.06	43.426
2650.95	38.0447
2652.84	35.4668
2654.73	36.3545
2656.62	33.1451
2658.51	32.9673
2660.4	34.9336
2662.28	35.55
2664.17	33.7772
2666.05	35.3851
2667.93	36.8805
2669.82	38.8473
2671.7	50.0153
2673.58	74.1002
2675.46	89.7676
2677.34	85.9042
2679.21	71.7593
2681.09	58.1002
2682.97	54.4597
2684.84	46.7269
2686.72	45.8627
2688.59	52.4796
2690.47	68.3251
2692.34	94.1974
2694.21	222.234
2696.08	251.654
2697.95	214.356
2699.82	152.927
2701.69	83.1002
2703.56	68.9425
2705.42	59.1264
2707.29	46.7606
2709.15	43.228
2711.02	36.7343
2712.88	32.329
2714.75	31.917
2716.61	33.3633
2718.47	33.3149
2720.33	30.7114
2722.19	28.7451
2724.05	26.4567
2725.9	30.8481
2727.76	31.5709
2729.62	30.7261
2731.47	32.0153
2733.33	26.5357
2735.18	28.1636
2737.03	29.1086
2738.88	26.6418
2740.73	25.0034
2742.59	31.5384
2744.43	25.9515
2746.28	28.7331
2748.13	26.0212
2749.98	31.6073
2751.82	28.313
2753.67	26.6131
2755.51	24.4891
2757.36	24.9329
2759.2	23.4962
2761.04	24.7835
2762.88	23.6807
