365.286	305.437
368.238	310.423
371.189	323.158
374.139	329.338
377.087	349.182
380.034	350.954
382.979	358.965
385.923	334.716
388.866	315.851
391.806	312.05
394.745	322.624
397.684	321.632
400.62	312.91
403.555	320.38
406.49	330.306
409.421	328.241
412.353	329.743
415.282	338.863
418.209	341.77
421.137	339.77
424.062	344.577
426.985	338.003
429.908	362.409
432.829	365.474
435.748	373.51
438.666	371.685
441.583	355.897
444.498	352.502
447.412	334.355
450.324	331.342
453.235	334.155
456.145	334.059
459.052	320.362
461.959	324.51
464.865	312.648
467.769	304.182
470.671	303.631
473.572	297.834
476.471	300.48
479.37	294.295
482.266	285.151
485.162	287.44
488.056	291.202
490.948	295.907
493.839	292.948
496.73	296.16
499.618	294.582
502.505	298.659
505.39	301.577
508.275	297.273
511.157	300.793
514.039	298.528
516.919	295.639
519.798	294.213
522.674	286.374
525.55	279.083
528.425	280.14
531.297	269.6
534.169	269.107
537.039	264.878
539.908	269.336
542.775	268.925
545.642	263.714
548.506	262.164
551.369	271.303
554.231	274.294
557.092	277.207
559.951	273.832
562.808	277.158
565.664	275.688
568.519	270.044
571.373	273.406
574.225	269.864
577.076	267.009
579.925	275.032
582.773	270.738
585.62	266.943
588.466	259.195
591.309	282.114
594.152	267.55
596.993	259.953
599.832	259.321
602.671	261.626
605.508	260.401
608.343	256.621
611.178	260.01
614.011	261.998
616.842	268.863
619.672	261.793
622.501	262.346
625.329	266.271
628.155	268.232
630.98	267.822
633.802	281.271
636.624	275.406
639.445	278.68
642.264	272.557
645.082	279.344
647.898	274.632
650.714	284.349
653.527	292.184
656.34	300.6
659.151	308.872
661.961	294.096
664.769	279.195
667.576	275.021
670.382	260.787
673.186	248.758
675.989	245.623
678.791	243.973
681.591	243.521
684.39	254.557
687.187	259.067
689.983	256.018
692.779	262.679
695.572	254.691
698.363	260.196
701.155	256.965
703.944	258.248
706.733	252.675
709.519	259.065
712.305	253.382
715.089	258.155
717.871	257.584
720.653	262.204
723.433	262.898
726.212	255.362
728.989	249.545
731.765	249.288
734.54	249.561
737.313	241.215
740.085	247.218
742.856	241.697
745.625	248.362
748.394	235.59
751.16	243.621
753.926	241.861
756.689	243.584
759.452	248.579
762.214	259.206
764.974	247.393
767.733	254.892
770.49	244.979
773.246	250.781
776.001	250.654
778.755	247.603
781.507	244.653
784.258	250.234
787.007	257.853
789.756	256.24
792.502	264.851
795.247	262.984
797.992	269.065
800.735	257.403
803.477	269.588
806.217	279.375
808.956	275.612
811.694	275.862
814.43	283.788
817.165	280.933
819.899	268.196
822.631	263.965
825.362	258.872
828.092	238.388
830.82	251.271
833.548	244.065
836.274	244.448
838.998	244.077
841.721	239.029
844.444	244.023
847.165	238.787
849.884	244.621
852.601	235.743
855.318	233.647
858.034	231.545
860.749	228.639
863.461	231.16
866.173	228.965
868.883	220.725
871.592	220.852
874.3	220.401
877.006	218.338
879.712	226.018
882.415	221.993
885.118	222.171
887.819	225.928
890.519	228.111
893.218	226.411
895.914	224.688
898.611	224.69
901.306	224.237
903.999	228.146
906.692	221.356
909.382	228.892
912.072	233.129
914.761	224.621
917.447	226.559
920.133	222.432
922.818	216.353
925.501	228.688
928.183	224.964
930.864	220.102
933.543	226.018
936.221	221.589
938.898	209.514
941.574	214.521
944.248	220.878
946.921	219.315
949.593	220.46
952.263	214.218
954.932	215.956
957.6	211.595
960.267	211.241
962.932	219.395
965.597	216.897
968.26	232.521
970.922	225.694
973.581	228.763
976.241	222.329
978.898	231.423
981.555	245.367
984.21	262.876
986.864	267.637
989.517	295.851
992.169	309.782
994.819	326.659
997.468	368.989
1000.12	390.271
1002.76	417.41
1005.41	462.949
1008.05	485.936
1010.69	483.463
1013.34	454.881
1015.98	406.473
1018.61	359.047
1021.25	306.601
1023.89	269.825
1026.52	247.519
1029.16	250.992
1031.79	240.943
1034.42	240.424
1037.05	233.869
1039.68	243.459
1042.31	244.546
1044.93	256.125
1047.56	260.344
1050.18	261.734
1052.81	265.329
1055.43	247.882
1058.05	247.788
1060.67	240.793
1063.28	238.257
1065.9	237.918
1068.52	243.041
1071.13	252.808
1073.74	248.943
1076.35	258.993
1078.96	263.225
1081.57	273.534
1084.18	276.557
1086.79	276.758
1089.39	287.963
1092	295.604
1094.6	306.876
1097.2	300.021
1099.8	291.743
1102.4	293.551
1105	279.386
1107.6	271.377
1110.19	265.628
1112.79	278.129
1115.38	275.394
1117.97	283.777
1120.56	285.688
1123.15	279.146
1125.74	274.485
1128.33	266.109
1130.91	262.965
1133.5	240.642
1136.08	241.55
1138.66	235.548
1141.24	233.186
1143.82	234.714
1146.4	239.659
1148.98	242.759
1151.55	236.47
1154.13	235.56
1156.7	245.078
1159.27	233.251
1161.85	235.535
1164.42	226.268
1166.98	228.547
1169.55	225.437
1172.12	217.584
1174.68	219.249
1177.25	219.196
1179.81	218.662
1182.37	216.69
1184.93	220.111
1187.49	211.429
1190.05	211.996
1192.6	205.985
1195.16	205.324
1197.71	199.368
1200.27	193.822
1202.82	200.528
1205.37	195.384
1207.92	191.395
1210.47	192.235
1213.01	183.685
1215.56	189.263
1218.1	190.332
1220.65	196.178
1223.19	198.563
1225.73	205.708
1228.27	196.577
1230.81	196.499
1233.35	198.597
1235.88	204.102
1238.42	200.993
1240.95	197.026
1243.48	195.936
1246.02	202.166
1248.55	192.259
1251.07	192.716
1253.6	192.146
1256.13	193.702
1258.66	192.076
1261.18	199.837
1263.7	194.344
1266.22	199.088
1268.75	206.704
1271.27	198.035
1273.78	204.862
1276.3	205.192
1278.82	198.215
1281.33	209.138
1283.85	204.187
1286.36	205.655
1288.87	209.01
1291.38	202.227
1293.89	207.293
1296.4	211.041
1298.9	211.003
1301.41	209.246
1303.91	209.918
1306.41	206.215
1308.92	209.172
1311.42	201.644
1313.92	207.642
1316.42	203.472
1318.91	206.776
1321.41	200.799
1323.9	203.319
1326.4	205.566
1328.89	206.084
1331.38	215.437
1333.87	215.257
1336.36	210.406
1338.85	209.359
1341.34	217.159
1343.82	209.049
1346.31	215.606
1348.79	213.36
1351.27	221.458
1353.75	215.792
1356.23	223.029
1358.71	225.373
1361.19	221.51
1363.66	230.845
1366.14	230.435
1368.61	239.046
1371.09	246.476
1373.56	246.158
1376.03	262.602
1378.5	273.471
1380.96	272.184
1383.43	276.542
1385.9	265.077
1388.36	254.059
1390.83	240.836
1393.29	229.866
1395.75	220.632
1398.21	210.937
1400.67	202.444
1403.13	197.329
1405.58	190.022
1408.04	187.971
1410.49	196.742
1412.95	180.895
1415.4	187.083
1417.85	187.373
1420.3	187.828
1422.75	198.35
1425.2	195.88
1427.64	193.362
1430.09	195.548
1432.53	195.041
1434.97	193.067
1437.42	188.845
1439.86	188.436
1442.3	178.023
1444.73	186.638
1447.17	176.998
1449.61	174.683
1452.04	165.855
1454.48	170.996
1456.91	173.845
1459.34	167.559
1461.77	164.224
1464.2	169.001
1466.63	175.155
1469.06	166.677
1471.48	168.904
1473.91	168.125
1476.33	159.384
1478.75	165.228
1481.17	163.639
1483.6	155.159
1486.01	156.948
1488.43	150.16
1490.85	146.344
1493.27	147.676
1495.68	143.813
1498.09	149.819
1500.51	152.088
1502.92	141.495
1505.33	141.486
1507.74	148.056
1510.14	147.858
1512.55	141.345
1514.96	142.368
1517.36	139.233
1519.77	132.559
1522.17	145.153
1524.57	142.425
1526.97	147.843
1529.37	144.875
1531.77	141.965
1534.16	149.424
1536.56	144.04
1538.95	146.626
1541.35	145.088
1543.74	146.493
1546.13	151.172
1548.52	152.061
1550.91	148.77
1553.3	147.697
1555.68	153.901
1558.07	152.279
1560.45	157.776
1562.84	148.328
1565.22	167.968
1567.6	163.003
1569.98	177.729
1572.36	176.782
1574.74	174.962
1577.12	170.871
1579.49	172.988
1581.87	163.892
1584.24	162.236
1586.61	160.604
1588.98	155.277
1591.35	152.274
1593.72	145.749
1596.09	147.379
1598.46	148.636
1600.82	146.012
1603.19	143.179
1605.55	137.147
1607.92	135.597
1610.28	133.576
1612.64	126.834
1615	127.897
1617.36	124.486
1619.71	126.173
1622.07	125.356
1624.42	125.914
1626.78	117.27
1629.13	121.685
1631.48	122.838
1633.83	123.102
1636.18	122.273
1638.53	117.501
1640.88	117.836
1643.22	123.131
1645.57	116.3
1647.91	112.952
1650.26	119.811
1652.6	115.97
1654.94	116.248
1657.28	119.695
1659.62	118.605
1661.96	118.618
1664.29	107.147
1666.63	115.689
1668.96	113.06
1671.3	112.39
1673.63	115.954
1675.96	112.693
1678.29	110.889
1680.62	109.495
1682.95	110.578
1685.27	110.455
1687.6	108.557
1689.92	107.973
1692.25	110.548
1694.57	108.036
1696.89	112.875
1699.21	108.696
1701.53	107.881
1703.85	106.142
1706.17	106.633
1708.48	107.542
1710.8	104.062
1713.11	107.445
1715.43	110.271
1717.74	101.393
1720.05	105.047
1722.36	107.178
1724.67	105.688
1726.97	102.499
1729.28	105.107
1731.59	100.03
1733.89	103.455
1736.19	105.749
1738.5	100.333
1740.8	99.6738
1743.1	97.1675
1745.4	103.574
1747.7	98.2254
1749.99	106.307
1752.29	96.5634
1754.58	96.3164
1756.88	101.114
1759.17	99.7015
1761.46	96.382
1763.75	96.6756
1766.04	96.2356
1768.33	97.5555
1770.62	93.0787
1772.91	96.8049
1775.19	94.8696
1777.48	95.0369
1779.76	94.6895
1782.04	94.4109
1784.32	97.7549
1786.6	94.2515
1788.88	91.3635
1791.16	91.6593
1793.44	95.6317
1795.71	90.4477
1797.99	86.3074
1800.26	93.8064
1802.54	92.7091
1804.81	92.1229
1807.08	88.4551
1809.35	86.7807
1811.62	89.5676
1813.88	81.9146
1816.15	84.8554
1818.42	87.4564
1820.68	83.2577
1822.95	86.0907
1825.21	85.0029
1827.47	82.3639
1829.73	87.6593
1831.99	84.6413
1834.25	84.3315
1836.51	86.6745
1838.76	89.1723
1841.02	88.1779
1843.27	87.326
1845.52	83.7912
1847.78	84.3988
1850.03	85.102
1852.28	82.7427
1854.53	86.6225
1856.78	82.1966
1859.02	78.1675
1861.27	80.4364
1863.51	84.0489
1865.76	84.8685
1868	84.1731
1870.24	81.9958
1872.48	83.6254
1874.72	82.5904
1876.96	80.4153
1879.2	80.7777
1881.44	85.875
1883.67	82.111
1885.91	79.6891
1888.14	76.5529
1890.37	76.2591
1892.61	84.3895
1894.84	79.953
1897.07	81.8813
1899.29	83.3894
1901.52	81.2283
1903.75	84.0013
1905.97	80.5924
1908.2	80.1505
1910.42	76.3899
1912.64	79.3395
1914.87	80.2021
1917.09	78.3363
1919.31	78.9453
1921.52	74.7232
1923.74	81.5224
1925.96	76.8747
1928.17	74.6973
1930.39	73.7485
1932.6	71.5068
1934.81	75.2694
1937.03	75.7516
1939.24	80.5037
1941.45	77.4661
1943.65	73.8832
1945.86	78.0155
1948.07	75.618
1950.27	70.9451
1952.48	73.5357
1954.68	72.065
1956.88	74.5206
1959.08	70.364
1961.29	73.9009
1963.48	69.7276
1965.68	68.7552
1967.88	72.0675
1970.08	73.6869
1972.27	76.5225
1974.47	67.123
1976.66	70.6075
1978.85	71.5298
1981.04	69.2252
1983.23	72.5375
1985.42	65.7286
1987.61	73.5036
1989.8	69.4313
1991.99	67.639
1994.17	67.9513
1996.36	65.6467
1998.54	73.659
2000.72	71.1055
2002.9	66.5271
2005.08	67.7843
2007.26	66.1673
2009.44	67.6286
2011.62	68.8133
2013.8	65.9864
2015.97	71.0124
2018.15	66.7591
2020.32	66.9146
2022.49	66.8918
2024.66	67.8612
2026.83	66.5434
2029	70.0062
2031.17	69.3317
2033.34	67.3895
2035.51	65.073
2037.67	66.8147
2039.84	68.7291
2042	61.0819
2044.16	63.788
2046.32	68.1197
2048.48	63.5919
2050.64	59.846
2052.8	63.2632
2054.96	67.02
2057.12	62.4425
2059.27	59.5554
2061.43	66.5849
2063.58	63.2301
2065.73	61.3136
2067.89	61.6175
2070.04	64.548
2072.19	63.2784
2074.34	60.5009
2076.48	64.2708
2078.63	64.6028
2080.78	63.5876
2082.92	60.1752
2085.07	64.4546
2087.21	62.5479
2089.35	60.7777
2091.49	61.2879
2093.63	58.9013
2095.77	60.8219
2097.91	62.3566
2100.05	59.501
2102.19	59.7016
2104.32	56.4491
2106.45	55.2967
2108.59	60.7777
2110.72	57.0061
2112.85	55.6237
2114.98	63.168
2117.11	58.5811
2119.24	58.1761
2121.37	53.151
2123.5	58.2676
2125.62	57.6175
2127.75	60.9708
2129.87	54.1113
2131.99	61.2493
2134.11	54.5649
2136.24	55.0475
2138.36	54.0472
2140.47	54.8905
2142.59	57.501
2144.71	51.2971
2146.83	50.062
2148.94	53.0545
2151.06	53.2708
2153.17	51.228
2155.28	57.1293
2157.39	50.6316
2159.5	54.5889
2161.61	55.2584
2163.72	49.0882
2165.83	55.0029
2167.94	54.9863
2170.04	53.7791
2172.15	53.6406
2174.25	55.171
2176.35	53.2849
2178.45	53.387
2180.56	53.4474
2182.66	51.8663
2184.75	49.3562
2186.85	55.0592
2188.95	51.0072
2191.05	49.798
2193.14	52.5506
2195.24	46.1368
2197.33	52.3743
2199.42	50.0483
2201.51	49.4841
2203.6	49.4565
2205.69	50.8798
2207.78	52.3988
2209.87	50.4562
2211.96	50.0487
2214.04	52.9066
2216.13	49.2842
2218.21	49.1735
2220.29	54.7702
2222.38	55.0624
2224.46	48.7335
2226.54	50.1144
2228.62	52.8809
2230.69	50.4627
2232.77	46.7363
2234.85	48.0717
2236.92	46.2786
2239	43.6849
2241.07	48.3277
2243.15	46.6922
2245.22	45.3454
2247.29	48.7286
2249.36	47.2586
2251.43	45.2846
2253.49	44.131
2255.56	49.0834
2257.63	49.3697
2259.69	46.3018
2261.76	43.6666
2263.82	46.0201
2265.88	47.6696
2267.95	44.3757
2270.01	45.3816
2272.07	41.8446
2274.12	43.5225
2276.18	48.0029
2278.24	42.4443
2280.3	44.9281
2282.35	45.3983
2284.41	41.2021
2286.46	40.7229
2288.51	44.0285
2290.56	36.6375
2292.61	41.6953
2294.66	41.8133
2296.71	44.1673
2298.76	38.0361
2300.8	42.5424
2302.85	40.834
2304.9	41.2832
2306.94	43.4443
2308.98	37.7486
2311.03	42.1673
2313.07	41.648
2315.11	41.0306
2317.15	33.4388
2319.19	39.8405
2321.22	41.8049
2323.26	41.6118
2325.3	37.6953
2327.33	38.8342
2329.36	38.2252
2331.4	37.3073
2333.43	37.6868
2335.46	38.6411
2337.49	37.6175
2339.52	35.5475
2341.55	37.2783
2343.58	37.8114
2345.6	41.9508
2347.63	51.5264
2349.65	39.1823
2351.68	37.0545
2353.7	40.082
2355.72	38.6924
2357.74	36.7646
2359.76	37.178
2361.78	36.4855
2363.8	39.7959
2365.82	40.9396
2367.84	39.4443
2369.85	37.9196
2371.87	34.1183
2373.88	34.0078
2375.9	35.8064
2377.91	35.9539
2379.92	35.7884
2381.93	36.4307
2383.94	35.9091
2385.95	38.3515
2387.96	36.7317
2389.96	34.6666
2391.97	40.0537
2393.97	36.9071
2395.98	33.0365
2397.98	34.8141
2399.98	34.4002
2401.98	36.122
2403.99	34.9543
2405.99	33.1931
2407.98	34.9925
2409.98	33.5554
2411.98	34.2479
2413.98	35.1368
2415.97	35.0569
2417.96	33.1521
2419.96	35.1876
2421.95	34.5969
2423.94	33.6666
2425.93	34.1418
2427.92	33.7321
2429.91	35.1594
2431.9	32.0336
2433.89	34.362
2435.87	32.1673
2437.86	31.749
2439.84	33.4627
2441.83	31.7291
2443.81	32.1656
2445.79	30.5007
2447.77	32.4746
2449.75	29.6375
2451.73	30.0595
2453.71	31.8125
2455.69	31.9091
2457.67	30.6382
2459.64	30.5209
2461.62	32.3332
2463.59	33.3789
2465.56	30.7228
2467.54	31.5419
2469.51	28.5483
2471.48	30.8558
2473.45	33.0569
2475.42	33.9508
2477.38	26.9771
2479.35	29.8982
2481.32	30.3925
2483.28	29.6425
2485.25	28.7794
2487.21	29.7752
2489.17	29.114
2491.13	26.4114
2493.09	30.0561
2495.05	31.1222
2497.01	26.9607
2498.97	27.7702
2500.93	29.8253
2502.89	28.798
2504.84	32.7791
2506.8	29.3745
2508.75	28.0913
2510.7	25.7077
2512.65	26.9091
2514.61	29.3898
2516.56	27.7156
2518.51	26.3057
2520.45	25.992
2522.4	28.1175
2524.35	29.2146
2526.29	24.8141
2528.24	28.0882
2530.18	24.7646
2532.13	28.4258
2534.07	25.5968
2536.01	23.5482
2537.95	27.4565
2539.89	28.3562
2541.83	26.0592
2543.77	26.5499
2545.71	26.91
2547.64	27.3044
2549.58	28.0562
2551.51	26.6696
2553.45	28.338
2555.38	28.8065
2557.31	29.1735
2559.25	23.8918
2561.18	24.1707
2563.11	28.4201
2565.03	26.7777
2566.96	29.6148
2568.89	26.5007
2570.82	28.0624
2572.74	24.7976
2574.67	24.5862
2576.59	23.5064
2578.51	23.8633
2580.43	24.7286
2582.36	24.7231
2584.28	28.0013
2586.2	22.945
2588.11	24.7549
2590.03	26.5554
2591.95	27.1891
2593.86	27.6586
2595.78	25.379
2597.69	22.2846
2599.61	24.8339
2601.52	25.5679
2603.43	24.0119
2605.34	25.8764
2607.25	27.9222
2609.16	25.1035
2611.07	25.123
2612.98	25.2509
2614.89	25.0365
2616.79	23.8601
2618.7	25.0779
2620.6	24.5327
2622.5	24.3639
2624.41	22.7501
2626.31	28.3957
2628.21	26.1873
2630.11	28.0668
2632.01	23.6865
2633.91	25.5113
2635.8	26.4702
2637.7	23.781
2639.6	23.2783
2641.49	28.0834
2643.39	29.9813
2645.28	31.8339
2647.17	33.8194
2649.06	37.0199
2650.95	26.3332
2652.84	29.3899
2654.73	25.7501
2656.62	26.6836
2658.51	26.5754
2660.4	24.4443
2662.28	25.4215
2664.17	27.0202
2666.05	30.5418
2667.93	29.6117
2669.82	37.5482
2671.7	43.4244
2673.58	66.7614
2675.46	83.1266
2677.34	79.6375
2679.21	69.9299
2681.09	53.4746
2682.97	46.4475
2684.84	42.1444
2686.72	37.2421
2688.59	44.3043
2690.47	60.6696
2692.34	88.9085
2694.21	225.254
2696.08	258.75
2697.95	227.966
2699.82	163.259
2701.69	96.3882
2703.56	70.4565
2705.42	53.825
2707.29	44.4038
2709.15	38.4962
2711.02	31.4388
2712.88	23.9944
2714.75	26.7721
2716.61	24.8582
2718.47	25.0271
2720.33	25.3819
2722.19	27.4474
2724.05	25.2784
2725.9	23.5585
2727.76	23.8832
2729.62	25.9668
2731.47	27.1829
2733.33	22.0561
2735.18	22.2512
2737.03	21.7882
2738.88	21.3091
2740.73	19.992
2742.59	21.4443
2744.43	22.9944
2746.28	19.9451
2748.13	17.4702
2749.98	20.6376
2751.82	19.7807
2753.67	23.3104
2755.51	21.367
2757.36	19.6043
2759.2	19.0911
2761.04	19.834
2762.88	18.5813
