178.677	602
181.278	597.778
183.879	606.222
186.48	601.778
189.078	603.333
191.677	617.333
194.275	614.889
196.871	623.111
199.467	628.667
202.061	641.111
204.656	632.444
207.248	647.556
209.841	637.111
212.431	641.556
215.022	648.667
217.613	648
220.201	651.333
222.789	651.333
225.375	654.667
227.962	657.778
230.547	657.778
233.13	655.778
235.714	655.333
238.296	657.778
240.879	663.333
243.459	669.556
246.04	667.111
248.618	661.778
251.196	656.222
253.774	660
256.35	657.778
258.927	645.333
261.501	645.333
264.074	629.333
266.648	634.667
269.22	634.667
271.791	628
274.362	621.778
276.931	610.667
279.5	619.556
282.069	616
284.635	598.444
287.201	604.889
289.766	593.111
292.331	598.222
294.894	590.444
297.457	594
300.018	588.222
302.58	582.889
305.14	597.333
307.699	592.222
310.257	589.778
312.814	571.555
315.372	584.444
317.928	591.778
320.482	583.333
323.036	585.556
325.589	577.333
328.142	593.778
330.693	590.667
333.243	585.333
335.795	581.556
338.343	583.111
340.891	596
343.439	590.667
345.985	584
348.53	584.667
351.075	597.556
353.619	595.333
356.162	598
358.704	590.444
361.245	601.778
363.786	602
366.325	606.667
368.864	598.444
371.402	587.111
373.939	596.889
376.475	608
379.011	611.111
381.545	617.778
384.079	607.111
386.612	586.889
389.144	603.778
391.674	587.333
394.204	594
396.734	587.111
399.263	592.889
401.791	593.333
404.318	588.444
406.844	608.222
409.368	597.778
411.893	593.333
414.417	602.889
416.94	607.778
419.462	605.333
421.982	594
424.502	602.889
427.022	599.111
429.541	604.667
432.057	616.889
434.574	616.667
437.091	612.445
439.606	618.222
442.12	621.778
444.634	615.556
447.147	617.111
449.657	605.556
452.169	608
454.68	609.778
457.188	613.333
459.697	626.889
462.205	621.111
464.711	606.222
467.217	612
469.722	595.556
472.227	605.111
474.731	604.444
477.232	609.111
479.735	605.778
482.235	611.778
484.736	624.667
487.234	620.889
489.734	617.555
492.23	613.778
494.728	620
497.223	623.556
499.719	620.444
502.213	611.556
504.707	611.111
507.199	613.111
509.692	608.667
512.182	616.444
514.673	621.111
517.162	610.444
519.65	630.889
522.139	616.667
524.625	618
527.112	616.444
529.597	620.889
532.081	605.556
534.565	614.444
537.047	616
539.529	615.111
542.011	626.444
544.491	612.667
546.97	622
549.45	615.333
551.927	611.111
554.404	620.667
556.88	614.667
559.356	618.222
561.831	618.667
564.304	628.667
566.777	621.333
569.25	624.667
571.721	621.111
574.191	628.444
576.661	618.889
579.129	628
581.599	618.889
584.066	619.556
586.532	620.444
588.997	622.222
591.462	613.556
593.926	609.778
596.389	623.333
598.851	612.444
601.314	619.778
603.775	611.778
606.235	618.889
608.694	618.889
611.152	628
613.609	612.889
616.066	622.222
618.522	626.667
620.977	614.444
623.431	615.778
625.885	624
628.338	627.556
630.79	619.111
633.241	623.778
635.691	626.667
638.141	622.889
640.589	624.222
643.036	623.556
645.483	628.667
647.929	619.333
650.375	636.889
652.82	629.111
655.264	630.222
657.707	613.556
660.149	620
662.59	630.889
665.031	628.222
667.471	617.111
669.91	612.444
672.349	630.889
674.786	614
677.222	621.111
679.658	628.222
682.093	628.444
684.528	616.444
686.96	619.778
689.393	620
691.826	621.111
694.256	623.333
696.686	626.889
699.116	629.778
701.545	628.222
703.972	630.889
706.4	619.111
708.826	628.222
711.251	622.444
713.676	623.333
716.099	623.111
718.523	634.889
720.946	623.778
723.366	623.778
725.788	617.556
728.207	627.778
730.627	621.556
733.044	617.556
735.462	612.222
737.88	626.444
740.295	612
742.711	623.111
745.125	605.111
747.539	614.222
749.951	621.556
752.363	618.222
754.775	624.667
757.185	612.889
759.595	623.778
762.003	604.667
764.412	619.111
766.819	606.667
769.225	628.889
771.632	623.778
774.036	609.333
776.441	622
778.844	621.333
781.246	623.556
783.649	621.111
786.05	612.889
788.449	628.889
790.85	623.778
793.248	623.555
795.646	614.889
798.042	614.444
800.44	618.222
802.835	624.889
805.23	608.444
807.623	612.889
810.018	613.111
812.41	624.889
814.801	619.333
817.192	611.556
819.582	622.222
821.972	619.111
824.361	614.222
826.748	605.333
829.135	616.222
831.521	613.111
833.907	617.111
836.291	606
838.675	609.111
841.059	618.667
843.442	611.556
845.823	618.445
848.204	619.333
850.584	624.444
852.963	614.222
855.342	600.222
857.72	610.445
860.097	600
862.473	616
864.848	632.222
867.223	614.222
869.597	609.111
871.97	623.778
874.343	616.889
876.714	612.667
879.084	615.778
881.454	612
883.824	610
886.192	623.333
888.56	622.444
890.927	614
893.294	623.333
895.66	614.222
898.023	628.889
900.387	617.333
902.751	608.667
905.114	614.444
907.476	604.889
909.835	607.556
912.196	615.778
914.555	610.222
916.914	622.667
919.271	601.556
921.629	614.667
923.985	601.333
926.341	605.778
928.695	603.778
931.05	611.333
933.404	608.222
935.755	608.222
938.107	605.556
940.459	596.889
942.808	616.222
945.158	603.333
947.508	600.222
949.855	603.778
952.202	609.778
954.548	609.778
956.894	607.556
959.239	623.111
961.583	608.889
963.928	610.667
966.27	612.222
968.612	596
970.953	621.778
973.294	611.556
975.633	621.556
977.972	614.889
980.31	604.667
982.647	618.222
984.984	613.778
987.32	609.111
989.656	611.111
991.989	602
994.324	622.889
996.656	609.111
998.988	631.556
1001.32	615.778
1003.65	634.222
1005.98	663.111
1008.31	670.889
1010.64	686.889
1012.97	691.333
1015.29	667.111
1017.62	635.556
1019.94	632.444
1022.27	626.667
1024.59	620
1026.92	614.444
1029.24	606.667
1031.56	625.556
1033.88	634
1036.2	650
1038.52	654
1040.84	641.555
1043.16	635.778
1045.48	626.889
1047.79	616.222
1050.11	612
1052.42	619.111
1054.74	621.111
1057.05	630.667
1059.36	617.556
1061.67	631.556
1063.99	617.111
1066.3	625.111
1068.61	624.444
1070.92	622.889
1073.22	622.222
1075.53	617.778
1077.84	628.222
1080.15	622
1082.45	621.778
1084.76	630.889
1087.06	622
1089.36	642.222
1091.66	648.889
1093.97	650.222
1096.27	651.111
1098.57	668.889
1100.87	646.667
1103.17	644.222
1105.46	634.222
1107.76	620.222
1110.06	643.556
1112.35	627.778
1114.65	639.556
1116.94	636.222
1119.24	644.222
1121.53	650.889
1123.82	638
1126.11	653.333
1128.4	633.111
1130.7	627.111
1132.98	626.667
1135.27	616.889
1137.56	622
1139.85	624.222
1142.13	601.556
1144.42	620
1146.71	624
1148.99	623.556
1151.27	615.111
1153.56	634.222
1155.84	615.333
1158.12	624.889
1160.4	620.444
1162.68	619.778
1164.96	614.444
1167.24	602.222
1169.51	608.222
1171.79	612.889
1174.07	599.778
1176.34	603.778
1178.62	611.333
1180.89	602.889
1183.17	603.778
1185.44	588
1187.71	591.111
1189.98	590.444
1192.25	602.667
1194.52	592.667
1196.79	593.111
1199.06	588.889
1201.33	601.333
1203.59	583.778
1205.86	595.778
1208.12	595.333
1210.39	599.778
1212.65	609.111
1214.92	593.111
1217.18	604.222
1219.44	602.445
1221.7	594.667
1223.96	591.333
1226.22	593.556
1228.48	594
1230.74	605.778
1233	593.778
1235.25	605.778
1237.51	592.667
1239.77	600.889
1242.02	592.667
1244.27	594.222
1246.53	606
1248.78	612
1251.03	602.222
1253.28	597.556
1255.53	605.333
1257.78	607.111
1260.03	600.444
1262.28	601.111
1264.53	611.778
1266.78	610
1269.02	592
1271.27	593.556
1273.51	591.778
1275.76	608.667
1278	604
1280.24	599.778
1282.48	604.222
1284.72	598.667
1286.97	603.555
1289.21	600.444
1291.44	605.333
1293.68	595.111
1295.92	602.889
1298.16	602
1300.39	604
1302.63	604.444
1304.86	599.333
1307.1	603.778
1309.33	605.778
1311.56	607.111
1313.8	613.333
1316.03	608.889
1318.26	605.778
1320.49	607.333
1322.72	607.333
1324.95	606.445
1327.17	604.222
1329.4	615.111
1331.63	616
1333.85	617.333
1336.08	604.444
1338.3	608.222
1340.53	618.444
1342.75	613.333
1344.97	610.444
1347.19	607.333
1349.41	607.556
1351.63	596.889
1353.85	614.667
1356.07	601.111
1358.29	614.222
1360.51	608
1362.72	612.889
1364.94	617.111
1367.16	619.778
1369.37	618.889
1371.58	618.667
1373.8	623.556
1376.01	595.333
1378.22	612.444
1380.43	621.556
1382.64	616.889
1384.85	599.778
1387.06	623.556
1389.27	599.111
1391.48	602.222
1393.68	591.778
1395.89	602.667
1398.1	602.444
1400.3	590.444
1402.51	589.556
1404.71	598.667
1406.91	592.667
1409.11	586.222
1411.32	594.222
1413.52	595.778
1415.72	585.556
1417.92	600.444
1420.11	588.889
1422.31	578
1424.51	583.778
1426.71	579.111
1428.9	584.667
1431.1	581.778
1433.29	581.333
1435.49	575.333
1437.68	580
1439.87	579.778
1442.06	587.778
1444.25	591.556
1446.45	580
1448.64	580.222
1450.82	583.778
1453.01	576.667
1455.2	584.667
1457.39	593.333
1459.57	579.778
1461.76	581.333
1463.94	585.111
1466.13	587.778
1468.31	589.778
1470.5	584.444
1472.68	583.111
1474.86	572.667
1477.04	573.778
1479.22	585.111
1481.4	582.667
1483.58	581.333
1485.76	589.333
1487.94	581.111
1490.11	575.778
1492.29	571.556
1494.46	577.111
1496.64	564
1498.81	569.556
1500.99	566.667
1503.16	572.444
1505.33	568.889
1507.5	575.333
1509.67	559.556
1511.84	567.556
1514.01	560.222
1516.18	571.333
1518.35	565.778
1520.52	566.667
1522.68	566.222
1524.85	570.889
1527.02	568.667
1529.18	573.778
1531.35	561.556
1533.51	562.222
1535.67	569.111
1537.83	562.889
1539.99	566.889
1542.16	565.333
1544.31	561.111
1546.47	568.222
1548.63	570.889
1550.79	575.778
1552.95	566.222
1555.11	562.667
1557.26	568.444
1559.42	573.111
1561.57	571.778
1563.73	564.889
1565.88	564.222
1568.03	562.667
1570.18	572.889
1572.34	575.556
1574.49	569.111
1576.64	572.222
1578.79	570.444
1580.93	568.444
1583.08	577.111
1585.23	565.556
1587.38	570.445
1589.52	571.111
1591.67	572.889
1593.81	573.778
1595.96	567.778
1598.1	586
1600.24	573.556
1602.38	558
1604.53	572.889
1606.67	563.111
1608.81	564.667
1610.95	559.778
1613.09	564.667
1615.22	567.778
1617.36	567.778
1619.5	552.667
1621.63	558.222
1623.77	550.444
1625.9	551.333
1628.04	550.445
1630.17	546
1632.3	548.667
1634.44	543.333
1636.57	544.889
1638.7	540.444
1640.83	550.889
1642.96	547.111
1645.09	545.778
1647.22	537.556
1649.34	546.445
1651.47	543.778
1653.6	540.667
1655.72	539.555
1657.85	542.889
1659.97	543.778
1662.1	532.222
1664.22	529.111
1666.34	529.111
1668.46	537.111
1670.58	535.778
1672.7	539.778
1674.82	531.111
1676.94	529.333
1679.06	533.778
1681.18	529.556
1683.3	526.889
1685.41	536
1687.53	533.778
1689.64	534.222
1691.76	530.667
1693.87	518
1695.99	533.778
1698.1	530
1700.21	517.556
1702.32	526
1704.43	527.111
1706.54	515.333
1708.65	521.111
1710.76	521.111
1712.87	520.444
1714.98	518.889
1717.08	516.889
1719.19	515.333
1721.29	522
1723.4	520.889
1725.5	518.667
1727.61	510.444
1729.71	513.778
1731.81	513.556
1733.91	512.222
1736.02	506.889
1738.12	504.444
1740.22	501.111
1742.31	517.778
1744.41	501.333
1746.51	508.667
1748.61	508
1750.7	508.222
1752.8	506
1754.9	503.333
1756.99	504.667
1759.08	510.222
1761.18	498.222
1763.27	502
1765.36	502.444
1767.45	498.444
1769.54	512
1771.63	502.889
1773.72	489.111
1775.81	501.111
1777.9	508
1779.99	490.222
1782.08	516
1784.16	500
1786.25	498.222
1788.33	497.556
1790.42	497.333
1792.5	498.889
1794.58	499.111
1796.67	496.667
1798.75	491.778
1800.83	492.667
1802.91	493.333
1804.99	502.889
1807.07	497.333
1809.15	507.556
1811.23	499.333
1813.3	495.111
1815.38	499.111
1817.46	486
1819.53	496.444
1821.61	496.667
1823.68	505.778
1825.75	490.222
1827.83	490.222
1829.9	488.222
1831.97	501.556
1834.04	494.444
1836.11	486.667
1838.18	483.333
1840.25	483.556
1842.32	490.889
1844.39	482.444
1846.46	478.889
1848.52	484.222
1850.59	488.889
1852.65	484.222
1854.72	482
1856.78	489.111
1858.85	475.778
1860.91	475.556
1862.97	473.111
1865.03	483.333
1867.09	476.889
1869.16	477.778
1871.22	484.222
1873.27	467.778
1875.33	474.444
1877.39	472.889
1879.45	480.222
1881.51	469.111
1883.56	480.889
1885.62	476.222
1887.67	470.667
1889.73	477.333
1891.78	473.111
1893.83	472.444
1895.89	475.778
1897.94	472
1899.99	465.333
1902.04	474.667
1904.09	463.556
1906.14	478
1908.19	474.444
1910.23	478
1912.28	475.111
1914.33	470.222
1916.37	452.444
1918.42	480.889
1920.46	459.556
1922.51	467.778
1924.55	466.222
1926.6	466.222
1928.64	464.889
1930.68	465.111
1932.72	458.222
1934.76	468.667
1936.8	456
1938.84	462.444
1940.88	467.556
1942.92	467.778
1944.96	457.778
1946.99	454.667
1949.03	464
1951.06	465.778
1953.1	454.222
1955.13	457.333
1957.17	469.778
1959.2	451.778
1961.23	451.556
1963.27	453.111
1965.3	452.444
1967.33	444.889
1969.36	442.667
1971.39	447.333
1973.42	452.222
1975.44	458
1977.47	439.778
1979.5	440.444
1981.53	454.667
1983.55	447.111
1985.58	451.333
1987.6	454
1989.63	448.222
1991.65	443.333
1993.67	440.222
1995.69	451.556
1997.72	439.556
1999.74	437.778
2001.76	437.111
2003.78	447.556
2005.8	446.667
2007.82	448
2009.83	447.556
2011.85	440.444
2013.87	433.778
2015.88	449.778
2017.9	441.778
2019.91	445.778
2021.93	442
2023.94	446.444
2025.96	439.111
2027.97	431.333
2029.98	433.333
2031.99	436
2034	438.444
2036.01	432.667
2038.02	432.222
2040.03	432.889
2042.04	444.444
2044.05	440.444
2046.05	428.889
2048.06	432.222
2050.07	430.667
2052.07	439.111
2054.08	439.333
2056.08	427.556
2058.08	430.889
2060.09	436.444
2062.09	432.667
2064.09	436.889
2066.09	429.778
2068.09	420.444
2070.09	433.333
2072.09	424
2074.09	432.222
2076.09	424.667
2078.09	432.667
2080.08	433.556
2082.08	425.333
2084.08	429.556
2086.07	442.444
2088.07	421.778
2090.06	416.889
2092.05	429.333
2094.05	417.556
2096.04	422.889
2098.03	419.556
2100.02	425.111
2102.01	411.778
2104	418.667
2105.99	421.556
2107.98	427.778
2109.97	414.222
2111.95	413.333
2113.94	416.889
2115.93	422
2117.91	413.111
2119.9	409.111
2121.88	420.444
2123.87	415.778
2125.85	414.222
2127.83	411.333
2129.81	421.111
2131.8	410
2133.78	413.333
2135.76	406.444
2137.74	403.333
2139.72	410.667
2141.69	412
2143.67	410.667
2145.65	410
2147.63	412.444
2149.6	413.111
2151.58	414
2153.55	419.333
2155.53	412.222
2157.5	406.444
2159.48	410.444
2161.45	407.556
2163.42	402.889
2165.39	404.444
2167.36	398.444
2169.33	406.222
2171.3	399.333
2173.27	398
2175.24	396.667
2177.21	390.889
2179.18	392.889
2181.14	387.333
2183.11	394.444
2185.07	390.444
2187.04	393.111
2189	396.667
2190.97	384.889
2192.93	386.222
2194.89	389.111
2196.86	382.222
2198.82	394.222
2200.78	382.444
2202.74	386.222
2204.7	379.333
2206.66	384.222
2208.62	385.556
2210.57	376.444
2212.53	380.667
2214.49	384.222
2216.45	381.778
2218.4	392.444
2220.36	391.111
2222.31	378.667
2224.27	377.111
2226.22	390.222
2228.17	380.889
2230.12	379.778
2232.08	378.667
2234.03	376
2235.98	385.556
2237.93	376.889
2239.88	374.889
2241.83	374.222
2243.78	383.556
2245.72	377.111
2247.67	385.111
2249.62	374.667
2251.56	378
2253.51	374
2255.45	376.667
2257.4	372.889
2259.34	371.778
2261.28	368.222
2263.23	369.333
2265.17	365.333
2267.11	376.889
2269.05	373.111
2270.99	374
2272.93	365.556
2274.87	368.667
2276.81	365.111
2278.75	358
2280.68	371.333
2282.62	366.667
2284.56	361.111
2286.49	366.222
2288.43	351.111
2290.36	366
2292.3	356.444
2294.23	363.556
2296.16	354.667
2298.09	357.333
2300.03	360.444
2301.96	362.222
2303.89	361.111
2305.82	362.444
2307.75	357.111
2309.68	360.667
2311.6	350.222
2313.53	355.778
2315.46	351.111
2317.39	350.444
2319.31	347.111
2321.24	354.667
2323.16	360.444
2325.09	345.333
2327.01	355.333
2328.93	356.667
2330.86	347.556
2332.78	347.778
2334.7	350.667
2336.62	350.444
2338.54	344
2340.46	353.333
2342.38	352.889
2344.3	337.778
2346.22	348.444
2348.14	342.667
2350.05	353.556
2351.97	346.444
2353.89	346.889
2355.8	334
2357.71	345.333
2359.63	350.667
2361.54	342
2363.46	339.333
2365.37	331.778
2367.28	336.222
2369.19	351.778
2371.1	344.444
2373.01	337.778
2374.92	339.333
2376.83	340
2378.74	330
2380.65	319.111
2382.56	338.444
2384.46	331.556
2386.37	332.667
2388.27	329.556
2390.18	333.333
2392.08	323.333
2393.99	327.111
2395.89	339.333
2397.8	333.111
2399.7	331.333
2401.6	324.444
2403.5	333.778
2405.4	333.111
2407.3	334
2409.2	338.667
2411.1	335.111
2413	328.222
2414.9	324.444
2416.8	322
2418.69	326
2420.59	322.444
2422.48	324.667
2424.38	321.111
2426.28	322
2428.17	318
2430.06	318.889
2431.96	330.222
2433.85	321.556
2435.74	324
2437.63	320.444
2439.52	315.333
2441.41	323.556
2443.3	326
2445.19	321.111
2447.08	324.222
