178.677	761.556
181.278	774.667
183.879	776.444
186.48	780.889
189.078	788
191.677	793.333
194.275	801.333
196.871	797.556
199.467	805.111
202.061	805.556
204.656	826.667
207.248	829.333
209.841	824.889
212.431	834.667
215.022	843.111
217.613	842.222
220.201	834.889
222.789	842.667
225.375	828.222
227.962	849.111
230.547	831.556
233.13	863.111
235.714	855.556
238.296	856
240.879	856.667
243.459	857.111
246.04	839.333
248.618	838.667
251.196	835.333
253.774	819.111
256.35	818.667
258.927	811.111
261.501	803.778
264.074	810
266.648	788.222
269.22	777.333
271.791	766.889
274.362	779.778
276.931	760.667
279.5	765.556
282.069	761.111
284.635	759.333
287.201	748.222
289.766	750
292.331	744.222
294.894	735.778
297.457	735.556
300.018	734.889
302.58	734.222
305.14	743.333
307.699	725.111
310.257	737.333
312.814	734.444
315.372	719.333
317.928	733.778
320.482	712.889
323.036	730.444
325.589	728.222
328.142	729.333
330.693	730.445
333.243	742.889
335.795	716.222
338.343	731.111
340.891	726.889
343.439	735.778
345.985	739.555
348.53	734.444
351.075	730
353.619	725.111
356.162	727.111
358.704	727.333
361.245	728.222
363.786	729.556
366.325	739.111
368.864	738
371.402	745.111
373.939	751.778
376.475	750.667
379.011	780.667
381.545	774.444
384.079	764.667
386.612	761.111
389.144	735.778
391.674	730.444
394.204	707.111
396.734	732.444
399.263	730.889
401.791	735.555
404.318	742.667
406.844	731.111
409.368	737.333
411.893	744
414.417	752.444
416.94	736
419.462	741.556
421.982	755.555
424.502	744
427.022	751.555
429.541	746.222
432.057	778.667
434.574	770.667
437.091	772
439.606	771.556
442.12	779.333
444.634	776.667
447.147	775.556
449.657	745.333
452.169	755.111
454.68	768.889
457.188	772
459.697	780.667
462.205	777.111
464.711	765.111
467.217	770.222
469.722	765.111
472.227	751.556
474.731	766.667
477.232	764.667
479.735	774
482.235	767.778
484.736	781.111
487.234	787.556
489.734	775.556
492.23	787.111
494.728	777.778
497.223	771.111
499.719	787.556
502.213	763.111
504.707	785.778
507.199	757.333
509.692	772.889
512.182	772.222
514.673	778.444
517.162	777.111
519.65	790
522.139	770.667
524.625	762
527.112	764
529.597	772.889
532.081	765.556
534.565	773.556
537.047	768.444
539.529	755.111
542.011	767.333
544.491	770.667
546.97	759.556
549.45	769.556
551.927	774.889
554.404	771.333
556.88	770.889
559.356	758.444
561.831	779.778
564.304	778
566.777	776.222
569.25	767.556
571.721	758.667
574.191	782.222
576.661	772.444
579.129	776.222
581.599	766.222
584.066	779.556
586.532	773.778
588.997	759.333
591.462	781.111
593.926	772.667
596.389	781.111
598.851	769.333
601.314	777.556
603.775	771.111
606.235	783.333
608.694	767.111
611.152	797.111
613.609	781.111
616.066	779.778
618.522	800.222
620.977	773.556
623.431	804.889
625.885	786.889
628.338	795.556
630.79	792
633.241	808.222
635.691	802.222
638.141	795.778
640.589	786.889
643.036	792.222
645.483	794.667
647.929	785.333
650.375	788
652.82	795.333
655.264	783.333
657.707	783.333
660.149	782.445
662.59	769.556
665.031	787.556
667.471	777.111
669.91	775.333
672.349	772.889
674.786	779.778
677.222	785.778
679.658	781.111
682.093	784.667
684.528	786.445
686.96	780.222
689.393	779.556
691.826	786.222
694.256	791.778
696.686	787.111
699.116	793.111
701.545	786.667
703.972	811.778
706.4	809.778
708.826	813.333
711.251	807.111
713.676	779.333
716.099	800.444
718.523	800.667
720.946	808
723.366	792.667
725.788	798.889
728.207	802.889
730.627	793.333
733.044	799.111
735.462	797.778
737.88	790.667
740.295	779.333
742.711	782.222
745.125	770
747.539	775.778
749.951	775.556
752.363	769.333
754.775	778
757.185	786
759.595	783.333
762.003	776.444
764.412	769.556
766.819	774.444
769.225	771.778
771.632	780
774.036	774.889
776.441	779.333
778.844	779.333
781.246	789.778
783.649	786.889
786.05	786.222
788.449	779.556
790.85	781.111
793.248	797.556
795.646	789.111
798.042	784
800.44	781.556
802.835	773.333
805.23	786.444
807.623	779.556
810.018	792
812.41	793.556
814.801	778.889
817.192	791.778
819.582	783.556
821.972	797.778
824.361	803.556
826.748	817.778
829.135	800.667
831.521	783.333
833.907	776.222
836.291	787.111
838.675	785.778
841.059	772.889
843.442	780.889
845.823	768.889
848.204	783.556
850.584	773.333
852.963	781.778
855.342	775.778
857.72	785.333
860.097	781.778
862.473	785.333
864.848	769.778
867.223	770.222
869.597	777.111
871.97	764.667
874.343	783.556
876.714	777.111
879.084	773.333
881.454	778
883.824	784
886.192	775.778
888.56	782.222
890.927	774.444
893.294	791.111
895.66	784.444
898.023	780.667
900.387	772.444
902.751	777.556
905.114	775.333
907.476	775.556
909.835	778.444
912.196	780.889
914.555	766.889
916.914	758.667
919.271	771.111
921.629	762.222
923.985	758.667
926.341	769.778
928.695	765.333
931.05	766.222
933.404	754.222
935.755	757.555
938.107	758.667
940.459	755.333
942.808	777.111
945.158	769.556
947.508	773.556
949.855	771.111
952.202	776
954.548	781.111
956.894	772
959.239	782
961.583	779.556
963.928	783.778
966.27	777.333
968.612	780.889
970.953	782
973.294	800.889
975.633	774
977.972	777.556
980.31	782.889
982.647	779.778
984.984	782
987.32	771.556
989.656	793.111
991.989	776.889
994.324	792
996.656	789.556
998.988	801.333
1001.32	821.111
1003.65	836.444
1005.98	883.111
1008.31	908.222
1010.64	911.778
1012.97	915.333
1015.29	863.111
1017.62	822.444
1019.94	804.444
1022.27	804
1024.59	822.444
1026.92	818
1029.24	822.444
1031.56	826.222
1033.88	844
1036.2	869.778
1038.52	859.333
1040.84	833.778
1043.16	815.778
1045.48	821.778
1047.79	815.333
1050.11	820.222
1052.42	819.111
1054.74	808.444
1057.05	808.222
1059.36	811.111
1061.67	813.778
1063.99	834.222
1066.3	844.667
1068.61	857.556
1070.92	848.222
1073.22	843.333
1075.53	823.111
1077.84	812.222
1080.15	817.555
1082.45	808.445
1084.76	822.667
1087.06	813.556
1089.36	828
1091.66	836.889
1093.97	870.444
1096.27	873.778
1098.57	880.222
1100.87	850.889
1103.17	830
1105.46	822
1107.76	808.444
1110.06	806
1112.35	823.556
1114.65	833.556
1116.94	830.222
1119.24	832.222
1121.53	838.222
1123.82	824.222
1126.11	842
1128.4	831.111
1130.7	814.889
1132.98	808.444
1135.27	798.667
1137.56	786.444
1139.85	794
1142.13	788.444
1144.42	795.556
1146.71	790.444
1148.99	804.222
1151.27	794
1153.56	805.333
1155.84	797.333
1158.12	792
1160.4	780.889
1162.68	785.333
1164.96	786.889
1167.24	791.778
1169.51	782
1171.79	785.111
1174.07	788.222
1176.34	781.333
1178.62	778.222
1180.89	788
1183.17	779.556
1185.44	791.778
1187.71	778.667
1189.98	786
1192.25	788.222
1194.52	794
1196.79	792.222
1199.06	806.444
1201.33	812.667
1203.59	808.667
1205.86	804.667
1208.12	788
1210.39	800.889
1212.65	795.778
1214.92	801.111
1217.18	808.667
1219.44	809.111
1221.7	799.778
1223.96	814.222
1226.22	834.444
1228.48	817.111
1230.74	841.333
1233	837.556
1235.25	836.444
1237.51	829.778
1239.77	836
1242.02	815.556
1244.27	830
1246.53	839.333
1248.78	827.111
1251.03	808.667
1253.28	812.889
1255.53	817.333
1257.78	828.222
1260.03	840.444
1262.28	861.778
1264.53	858.222
1266.78	845.556
1269.02	821.333
1271.27	815.111
1273.51	804.444
1275.76	806
1278	789.111
1280.24	789.333
1282.48	820.667
1284.72	804.444
1286.97	803.333
1289.21	805.111
1291.44	814
1293.68	803.556
1295.92	820
1298.16	811.778
1300.39	823.556
1302.63	813.556
1304.86	807.333
1307.1	808
1309.33	820.222
1311.56	814.222
1313.8	807.111
1316.03	831.556
1318.26	824
1320.49	841.778
1322.72	845.556
1324.95	865.111
1327.17	839.111
1329.4	828.222
1331.63	828.889
1333.85	834.444
1336.08	853.111
1338.3	851.111
1340.53	848.222
1342.75	869.111
1344.97	870.222
1347.19	874.667
1349.41	870.222
1351.63	858.444
1353.85	866
1356.07	838.445
1358.29	856.667
1360.51	836.667
1362.72	828
1364.94	840.222
1367.16	832.889
1369.37	852
1371.58	866.444
1373.8	880
1376.01	856.889
1378.22	844.889
1380.43	845.333
1382.64	847.556
1384.85	820
1387.06	828.889
1389.27	827.778
1391.48	804.889
1393.68	816.889
1395.89	812.889
1398.1	812.222
1400.3	796.444
1402.51	781.333
1404.71	788
1406.91	795.778
1409.11	810.889
1411.32	800.222
1413.52	802.222
1415.72	779.555
1417.92	801.111
1420.11	801.333
1422.31	813.778
1424.51	810.222
1426.71	807.778
1428.9	806.667
1431.1	803.333
1433.29	796.444
1435.49	795.778
1437.68	779.556
1439.87	803.333
1442.06	794.222
1444.25	797.556
1446.45	794
1448.64	807.111
1450.82	786.222
1453.01	792.889
1455.2	780.667
1457.39	792
1459.57	784.222
1461.76	782
1463.94	790
1466.13	785.111
1468.31	788
1470.5	786.444
1472.68	809.333
1474.86	808.889
1477.04	803.333
1479.22	814.667
1481.4	819.555
1483.58	826.667
1485.76	821.778
1487.94	819.555
1490.11	834.222
1492.29	824
1494.46	827.556
1496.64	841.778
1498.81	825.333
1500.99	840.444
1503.16	849.778
1505.33	848
1507.5	860.444
1509.67	867.111
1511.84	872.222
1514.01	874.667
1516.18	875.778
1518.35	859.333
1520.52	883.333
1522.68	873.111
1524.85	865.556
1527.02	851.556
1529.18	851.111
1531.35	819.556
1533.51	831.111
1535.67	834
1537.83	820.889
1539.99	816.889
1542.16	831.556
1544.31	811.556
1546.47	815.778
1548.63	818
1550.79	826.889
1552.95	828.222
1555.11	839.333
1557.26	837.556
1559.42	828.444
1561.57	839.111
1563.73	828.889
1565.88	837.111
1568.03	826.889
1570.18	830
1572.34	823.778
1574.49	810.222
1576.64	818.444
1578.79	816.222
1580.93	811.333
1583.08	806.444
1585.23	823.556
1587.38	827.111
1589.52	819.556
1591.67	822.222
1593.81	824.222
1595.96	821.333
1598.1	819.111
1600.24	821.556
1602.38	821.556
1604.53	822.444
1606.67	823.333
1608.81	814.222
1610.95	812.444
1613.09	813.778
1615.22	804.667
1617.36	799.778
1619.5	820
1621.63	788.444
1623.77	794.444
1625.9	775.556
1628.04	757.555
1630.17	756
1632.3	761.556
1634.44	751.778
1636.57	751.111
1638.7	740.667
1640.83	736.222
1642.96	733.556
1645.09	728.222
1647.22	737.778
1649.34	726.222
1651.47	733.778
1653.6	708.889
1655.72	717.111
1657.85	716.222
1659.97	704
1662.1	694
1664.22	706.222
1666.34	685.333
1668.46	704.889
1670.58	694.222
1672.7	690.222
1674.82	677.556
1676.94	700.667
1679.06	688.889
1681.18	688.889
1683.3	682.667
1685.41	703.556
1687.53	677.778
1689.64	685.556
1691.76	688.222
1693.87	677.556
1695.99	684.444
1698.1	687.333
1700.21	681.333
1702.32	674
1704.43	678.222
1706.54	666
1708.65	664.222
1710.76	673.778
1712.87	660.222
1714.98	656
1717.08	668.889
1719.19	661.778
1721.29	666.889
1723.4	667.778
1725.5	662.222
1727.61	658
1729.71	681.556
1731.81	658.889
1733.91	660
1736.02	655.111
1738.12	672
1740.22	648.444
1742.31	642.444
1744.41	661.111
1746.51	656
1748.61	638.444
1750.7	641.556
1752.8	653.333
1754.9	635.333
1756.99	654.444
1759.08	655.333
1761.18	651.111
1763.27	642.889
1765.36	645.778
1767.45	646
1769.54	646.222
1771.63	638.667
1773.72	632
1775.81	635.778
1777.9	649.111
1779.99	647.556
1782.08	634.667
1784.16	634
1786.25	631.333
1788.33	634.889
1790.42	630.444
1792.5	643.778
1794.58	625.778
1796.67	638.889
1798.75	636
1800.83	629.111
1802.91	624
1804.99	634
1807.07	617.778
1809.15	628.444
1811.23	615.111
1813.3	616.889
1815.38	613.556
1817.46	614.222
1819.53	621.778
1821.61	614.222
1823.68	608.667
1825.75	608.222
1827.83	609.111
1829.9	611.111
1831.97	605.333
1834.04	612.222
1836.11	609.333
1838.18	609.333
1840.25	598
1842.32	604.889
1844.39	603.111
1846.46	606.889
1848.52	602
1850.59	597.556
1852.65	599.333
1854.72	599.111
1856.78	599.778
1858.85	594.889
1860.91	600.222
1862.97	602.444
1865.03	594.222
1867.09	606.444
1869.16	597.778
1871.22	591.556
1873.27	595.778
1875.33	589.333
1877.39	598.444
1879.45	592.444
1881.51	592.889
1883.56	591.111
1885.62	593.556
1887.67	577.778
1889.73	592
1891.78	599.111
1893.83	584
1895.89	595.111
1897.94	587.556
1899.99	588.222
1902.04	590
1904.09	573.333
1906.14	585.778
1908.19	586.444
1910.23	590.222
1912.28	588.667
1914.33	577.556
1916.37	577.333
1918.42	593.778
1920.46	584.889
1922.51	588.222
1924.55	587.556
1926.6	578.444
1928.64	578.222
1930.68	574.889
1932.72	569.111
1934.76	571.333
1936.8	574.889
1938.84	561.778
1940.88	570.667
1942.92	576.889
1944.96	570.889
1946.99	566
1949.03	566.222
1951.06	564.889
1953.1	554
1955.13	553.778
1957.17	564
1959.2	560.444
1961.23	542.889
1963.27	550.667
1965.3	550.667
1967.33	567.556
1969.36	553.333
1971.39	556
1973.42	548.445
1975.44	547.778
1977.47	553.778
1979.5	554.889
1981.53	555.778
1983.55	542.889
1985.58	549.111
1987.6	545.778
1989.63	549.556
1991.65	555.778
1993.67	544
1995.69	547.556
1997.72	546.889
1999.74	544
2001.76	552.667
2003.78	543.556
2005.8	544.889
2007.82	540.444
2009.83	547.778
2011.85	537.778
2013.87	544.222
2015.88	556.667
2017.9	540.222
2019.91	545.111
2021.93	550.667
2023.94	545.778
2025.96	545.111
2027.97	543.333
2029.98	534.222
2031.99	546.667
2034	545.556
2036.01	552
2038.02	542.667
2040.03	540.667
2042.04	538.444
2044.05	528.889
2046.05	540
2048.06	528.445
2050.07	537.556
2052.07	528.444
2054.08	524.222
2056.08	537.333
2058.08	530.889
2060.09	532.667
2062.09	539.556
2064.09	525.556
2066.09	521.111
2068.09	532
2070.09	531.778
2072.09	531.556
2074.09	528
2076.09	524.667
2078.09	536.222
2080.08	515.555
2082.08	522.889
2084.08	523.111
2086.07	512.889
2088.07	522.667
2090.06	514
2092.05	518.889
2094.05	515.111
2096.04	517.556
2098.03	512.667
2100.02	509.111
2102.01	509.111
2104	520.222
2105.99	508.667
2107.98	513.111
2109.97	518.222
2111.95	513.556
2113.94	517.333
2115.93	512
2117.91	516.667
2119.9	511.778
2121.88	498.222
2123.87	510
2125.85	510.444
2127.83	518
2129.81	504.889
2131.8	510.889
2133.78	502.222
2135.76	516.667
2137.74	507.333
2139.72	504.222
2141.69	504
2143.67	518.222
2145.65	498.889
2147.63	499.778
2149.6	493.333
2151.58	480
2153.55	494.667
2155.53	495.333
2157.5	494.444
2159.48	492
2161.45	481.111
2163.42	491.333
2165.39	487.111
2167.36	482.889
2169.33	494.444
2171.3	488.889
2173.27	484.889
2175.24	480.667
2177.21	481.333
2179.18	478.444
2181.14	480
2183.11	477.778
2185.07	475.556
2187.04	483.778
2189	485.556
2190.97	475.111
2192.93	473.333
2194.89	472.444
2196.86	483.778
2198.82	471.778
2200.78	472.889
2202.74	462.889
2204.7	463.111
2206.66	469.778
2208.62	475.333
2210.57	473.778
2212.53	480.444
2214.49	462.667
2216.45	462.222
2218.4	463.111
2220.36	460.222
2222.31	452.222
2224.27	455.333
2226.22	459.778
2228.17	455.333
2230.12	464.444
2232.08	455.778
2234.03	455.333
2235.98	456.889
2237.93	462.889
2239.88	454
2241.83	455.778
2243.78	470.889
2245.72	455.778
2247.67	446.444
2249.62	464.444
2251.56	455.556
2253.51	466
2255.45	446.444
2257.4	443.111
2259.34	438.222
2261.28	451.778
2263.23	442.222
2265.17	451.556
2267.11	443.778
2269.05	425.111
2270.99	438.667
2272.93	441.333
2274.87	445.778
2276.81	443.333
2278.75	431.556
2280.68	436.444
2282.62	429.333
2284.56	435.111
2286.49	436
2288.43	445.778
2290.36	432
2292.3	433.333
2294.23	428.667
2296.16	430.222
2298.09	433.556
2300.03	426.667
2301.96	424.667
2303.89	424.889
2305.82	429.778
2307.75	428
2309.68	416
2311.6	427.111
2313.53	424
2315.46	426.667
2317.39	413.111
2319.31	427.111
2321.24	420.667
2323.16	425.556
2325.09	423.778
2327.01	425.556
2328.93	419.333
2330.86	431.333
2332.78	421.333
2334.7	419.556
2336.62	417.111
2338.54	417.778
2340.46	412.667
2342.38	420.889
2344.3	409.333
2346.22	410.667
2348.14	406.667
2350.05	402.667
2351.97	411.111
2353.89	402.222
2355.8	410.444
2357.71	405.111
2359.63	405.333
2361.54	407.778
2363.46	391.556
2365.37	399.333
2367.28	398.444
2369.19	393.333
2371.1	394.889
2373.01	406.889
2374.92	398.889
2376.83	394.222
2378.74	400.667
2380.65	399.333
2382.56	398
2384.46	403.556
2386.37	400.444
2388.27	390
2390.18	407.556
2392.08	392.889
2393.99	397.111
2395.89	394.889
2397.8	386.667
2399.7	394.444
2401.6	396.222
2403.5	388.222
2405.4	387.556
2407.3	384.222
2409.2	386.667
2411.1	390.667
2413	382.222
2414.9	388.667
2416.8	392.222
2418.69	391.333
2420.59	386.222
2422.48	381.333
2424.38	382.444
2426.28	383.556
2428.17	389.111
2430.06	387.556
2431.96	382.889
2433.85	380
2435.74	390.222
2437.63	387.111
2439.52	388
2441.41	381.778
2443.3	375.778
2445.19	371.778
2447.08	372
