178.677	698
181.278	692.889
183.879	698.444
186.48	708.889
189.078	694.889
191.677	694
194.275	718
196.871	716.444
199.467	733.111
202.061	734.889
204.656	738.444
207.248	739.555
209.841	746.222
212.431	735.556
215.022	749.111
217.613	756.445
220.201	752.889
222.789	759.111
225.375	763.778
227.962	757.111
230.547	761.333
233.13	771.556
235.714	764.222
238.296	765.778
240.879	777.556
243.459	772.222
246.04	761.556
248.618	770.889
251.196	767.333
253.774	764
256.35	747.778
258.927	750
261.501	742.222
264.074	739.111
266.648	738.444
269.22	722.889
271.791	721.111
274.362	710.889
276.931	706.889
279.5	704.667
282.069	702.222
284.635	693.778
287.201	685.778
289.766	694.667
292.331	677.778
294.894	686.444
297.457	682.667
300.018	681.556
302.58	679.556
305.14	676.222
307.699	678
310.257	674
312.814	670
315.372	676.889
317.928	663.778
320.482	655.556
323.036	671.333
325.589	674.222
328.142	673.333
330.693	680.667
333.243	686.222
335.795	663.778
338.343	671.556
340.891	671.778
343.439	674.444
345.985	687.556
348.53	685.556
351.075	676.222
353.619	682.222
356.162	692.444
358.704	680.667
361.245	687.111
363.786	690
366.325	694.889
368.864	693.778
371.402	685.111
373.939	705.111
376.475	695.556
379.011	707.778
381.545	715.556
384.079	700
386.612	692.444
389.144	681.556
391.674	675.778
394.204	668.667
396.734	673.333
399.263	683.778
401.791	683.111
404.318	679.556
406.844	659.778
409.368	693.556
411.893	686.889
414.417	674
416.94	684.889
419.462	682
421.982	687.556
424.502	699.333
427.022	689.111
429.541	695.111
432.057	701.333
434.574	705.333
437.091	709.556
439.606	710.667
442.12	701.556
444.634	698
447.147	702.667
449.657	699.556
452.169	700
454.68	688.444
457.188	707.111
459.697	705.333
462.205	701.333
464.711	690.889
467.217	699.111
469.722	691.333
472.227	692.889
474.731	706.667
477.232	690.222
479.735	705.778
482.235	692.445
484.736	706
487.234	710.667
489.734	695.778
492.23	708.667
494.728	706.445
497.223	706
499.719	705.778
502.213	692.667
504.707	694.222
507.199	698.667
509.692	694.889
512.182	695.556
514.673	700.222
517.162	690.444
519.65	716.667
522.139	714.667
524.625	701.778
527.112	702.667
529.597	685.778
532.081	692.667
534.565	688.889
537.047	698.222
539.529	690.444
542.011	699.556
544.491	688.222
546.97	710
549.45	698.444
551.927	702.222
554.404	703.333
556.88	701.778
559.356	707.556
561.831	705.778
564.304	704
566.777	716.222
569.25	704.444
571.721	704.889
574.191	699.333
576.661	699.556
579.129	694
581.599	702.889
584.066	690.889
586.532	701.778
588.997	706.889
591.462	704.445
593.926	713.333
596.389	698.889
598.851	696.222
601.314	699.556
603.775	696.667
606.235	700.444
608.694	701.556
611.152	717.111
613.609	703.778
616.066	705.778
618.522	710.667
620.977	711.111
623.431	716.667
625.885	706.667
628.338	708.444
630.79	712
633.241	709.556
635.691	712.444
638.141	705.111
640.589	708.667
643.036	714.222
645.483	724
647.929	710.222
650.375	717.333
652.82	717.556
655.264	703.333
657.707	702.222
660.149	700.222
662.59	709.111
665.031	694
667.471	700.667
669.91	702.889
672.349	709.778
674.786	707.556
677.222	703.556
679.658	718.222
682.093	704.889
684.528	699.556
686.96	700
689.393	700.667
691.826	709.778
694.256	708.889
696.686	703.333
699.116	707.111
701.545	702.667
703.972	706
706.4	706.667
708.826	704.222
711.251	704
713.676	701.333
716.099	703.111
718.523	705.778
720.946	717.778
723.366	705.778
725.788	708
728.207	700.889
730.627	704.889
733.044	698.222
735.462	694.667
737.88	689.333
740.295	701.556
742.711	693.778
745.125	690.889
747.539	694.444
749.951	698.667
752.363	702.222
754.775	703.333
757.185	690
759.595	706
762.003	699.556
764.412	695.111
766.819	696
769.225	697.333
771.632	691.111
774.036	691.333
776.441	690.444
778.844	703.333
781.246	702.889
783.649	709.333
786.05	693.778
788.449	705.111
790.85	700.667
793.248	709.555
795.646	703.333
798.042	704.444
800.44	711.111
802.835	704.889
805.23	694.444
807.623	703.111
810.018	704.444
812.41	701.111
814.801	700.222
817.192	705.333
819.582	698.667
821.972	703.333
824.361	694.444
826.748	692.889
829.135	693.556
831.521	700.222
833.907	695.111
836.291	701.778
838.675	696.889
841.059	697.333
843.442	698.667
845.823	698.222
848.204	688.667
850.584	708
852.963	701.111
855.342	683.333
857.72	689.111
860.097	701.333
862.473	696
864.848	692.667
867.223	705.111
869.597	693.111
871.97	687.556
874.343	694.222
876.714	699.556
879.084	693.778
881.454	697.111
883.824	711.778
886.192	698.667
888.56	702.222
890.927	707.111
893.294	708
895.66	699.556
898.023	696
900.387	701.333
902.751	707.111
905.114	703.778
907.476	683.778
909.835	694.667
912.196	698
914.555	679.556
916.914	693.556
919.271	685.556
921.629	687.111
923.985	696.444
926.341	696.667
928.695	697.778
931.05	684.889
933.404	696
935.755	679.111
938.107	687.556
940.459	696.667
942.808	680.667
945.158	686
947.508	684.889
949.855	691.333
952.202	683.778
954.548	703.111
956.894	689.556
959.239	709.333
961.583	700.444
963.928	694.444
966.27	698
968.612	695.111
970.953	692
973.294	694
975.633	702.222
977.972	703.556
980.31	694.444
982.647	686.222
984.984	704.889
987.32	692
989.656	707.111
991.989	704
994.324	698.667
996.656	713.333
998.988	710.444
1001.32	713.556
1003.65	717.556
1005.98	743.778
1008.31	757.111
1010.64	766.889
1012.97	754.222
1015.29	733.111
1017.62	713.556
1019.94	707.556
1022.27	706
1024.59	702.667
1026.92	705.333
1029.24	704.667
1031.56	698.444
1033.88	717.556
1036.2	744
1038.52	740
1040.84	712.444
1043.16	700.667
1045.48	702.667
1047.79	700
1050.11	705.778
1052.42	712.667
1054.74	713.778
1057.05	713.778
1059.36	715.111
1061.67	705.556
1063.99	711.333
1066.3	707.111
1068.61	713.111
1070.92	722.222
1073.22	706
1075.53	705.333
1077.84	709.556
1080.15	700.222
1082.45	715.778
1084.76	721.111
1087.06	721.333
1089.36	737.333
1091.66	738.667
1093.97	755.555
1096.27	782
1098.57	786.667
1100.87	756.667
1103.17	751.333
1105.46	730.444
1107.76	719.333
1110.06	729.333
1112.35	725.111
1114.65	734.667
1116.94	743.333
1119.24	738
1121.53	740
1123.82	745.778
1126.11	739.333
1128.4	730
1130.7	715.111
1132.98	707.556
1135.27	712.444
1137.56	711.111
1139.85	698.667
1142.13	699.778
1144.42	697.111
1146.71	693.556
1148.99	691.333
1151.27	708.667
1153.56	725.556
1155.84	706.444
1158.12	709.778
1160.4	705.333
1162.68	700.667
1164.96	700.889
1167.24	702.222
1169.51	697.111
1171.79	705.111
1174.07	694.889
1176.34	685.555
1178.62	680
1180.89	683.333
1183.17	691.556
1185.44	683.111
1187.71	687.111
1189.98	683.333
1192.25	681.556
1194.52	684.444
1196.79	685.111
1199.06	692.889
1201.33	682.444
1203.59	684.889
1205.86	685.778
1208.12	669.333
1210.39	681.778
1212.65	676.222
1214.92	667.556
1217.18	682.667
1219.44	678.667
1221.7	687.333
1223.96	683.333
1226.22	674.444
1228.48	686
1230.74	691.333
1233	689.111
1235.25	690.667
1237.51	699.333
1239.77	696
1242.02	680.667
1244.27	679.778
1246.53	688.667
1248.78	692.444
1251.03	677.778
1253.28	686.889
1255.53	676.444
1257.78	685.778
1260.03	690
1262.28	696.667
1264.53	684.889
1266.78	698.889
1269.02	692
1271.27	691.778
1273.51	699.556
1275.76	694.222
1278	698
1280.24	691.778
1282.48	682.444
1284.72	682.444
1286.97	689.778
1289.21	684.667
1291.44	696.444
1293.68	700.889
1295.92	707.111
1298.16	699.778
1300.39	696.889
1302.63	691.778
1304.86	688.444
1307.1	700.222
1309.33	705.111
1311.56	690.667
1313.8	703.556
1316.03	697.556
1318.26	694.889
1320.49	702.444
1322.72	699.556
1324.95	703.111
1327.17	706.222
1329.4	713.333
1331.63	717.778
1333.85	707.556
1336.08	708.667
1338.3	715.778
1340.53	711.111
1342.75	701.778
1344.97	701.556
1347.19	703.333
1349.41	706.222
1351.63	699.333
1353.85	687.778
1356.07	703.556
1358.29	696.222
1360.51	708.667
1362.72	703.556
1364.94	698
1367.16	700.667
1369.37	695.111
1371.58	715.556
1373.8	708.889
1376.01	713.333
1378.22	724.889
1380.43	718.667
1382.64	705.333
1384.85	710
1387.06	692.667
1389.27	691.333
1391.48	683.111
1393.68	685.556
1395.89	692.444
1398.1	681.556
1400.3	701.333
1402.51	674.222
1404.71	678.667
1406.91	680.222
1409.11	676.667
1411.32	680.222
1413.52	682.889
1415.72	680
1417.92	678
1420.11	686.667
1422.31	671.333
1424.51	692.667
1426.71	674.444
1428.9	661.111
1431.1	677.111
1433.29	668.667
1435.49	674.444
1437.68	664
1439.87	677.556
1442.06	670.667
1444.25	667.778
1446.45	680.889
1448.64	670.444
1450.82	675.778
1453.01	672.889
1455.2	672
1457.39	680.667
1459.57	672.445
1461.76	661.556
1463.94	669.778
1466.13	683.556
1468.31	676.444
1470.5	684.222
1472.68	676.222
1474.86	673.111
1477.04	662.889
1479.22	673.778
1481.4	682.667
1483.58	671.111
1485.76	672.667
1487.94	656.222
1490.11	656.444
1492.29	666.444
1494.46	649.333
1496.64	660.889
1498.81	663.333
1500.99	661.111
1503.16	662.889
1505.33	658.889
1507.5	668.667
1509.67	654.667
1511.84	663.111
1514.01	656
1516.18	664.222
1518.35	656
1520.52	671.333
1522.68	666
1524.85	660.222
1527.02	666.667
1529.18	674
1531.35	666.444
1533.51	674
1535.67	658
1537.83	658.889
1539.99	652.444
1542.16	659.556
1544.31	660.667
1546.47	677.333
1548.63	667.333
1550.79	675.111
1552.95	666
1555.11	664
1557.26	659.111
1559.42	668.222
1561.57	660
1563.73	658.222
1565.88	676
1568.03	663.333
1570.18	662.222
1572.34	659.333
1574.49	675.111
1576.64	664.444
1578.79	655.778
1580.93	665.111
1583.08	668.667
1585.23	667.333
1587.38	658.222
1589.52	664
1591.67	665.778
1593.81	666.667
1595.96	665.333
1598.1	653.778
1600.24	656.889
1602.38	652.889
1604.53	663.111
1606.67	657.556
1608.81	654
1610.95	653.778
1613.09	653.333
1615.22	650.222
1617.36	668.667
1619.5	654.222
1621.63	651.778
1623.77	648
1625.9	641.333
1628.04	640.222
1630.17	646.889
1632.3	632
1634.44	639.778
1636.57	635.333
1638.7	638.444
1640.83	632
1642.96	620.444
1645.09	622
1647.22	621.111
1649.34	630
1651.47	619.333
1653.6	612.889
1655.72	624.444
1657.85	617.778
1659.97	609.556
1662.1	613.111
1664.22	604.444
1666.34	598
1668.46	607.111
1670.58	606.222
1672.7	604.444
1674.82	605.778
1676.94	599.333
1679.06	604.222
1681.18	602.222
1683.3	603.778
1685.41	596.889
1687.53	615.556
1689.64	596.222
1691.76	601.111
1693.87	595.778
1695.99	585.111
1698.1	594.889
1700.21	605.333
1702.32	593.111
1704.43	594.667
1706.54	596
1708.65	599.333
1710.76	595.333
1712.87	600
1714.98	591.333
1717.08	587.111
1719.19	593.556
1721.29	591.111
1723.4	592.667
1725.5	594.222
1727.61	589.333
1729.71	599.556
1731.81	580.889
1733.91	571.555
1736.02	585.556
1738.12	588.889
1740.22	592.667
1742.31	584.667
1744.41	580
1746.51	574.889
1748.61	584.444
1750.7	572.444
1752.8	573.556
1754.9	567.556
1756.99	572
1759.08	574.667
1761.18	581.556
1763.27	573.556
1765.36	566.667
1767.45	570.667
1769.54	574.667
1771.63	564.445
1773.72	572.444
1775.81	559.778
1777.9	559.555
1779.99	573.778
1782.08	567.778
1784.16	575.333
1786.25	571.778
1788.33	567.556
1790.42	575.778
1792.5	565.778
1794.58	559.333
1796.67	559.778
1798.75	571.556
1800.83	560.444
1802.91	562.222
1804.99	560.889
1807.07	569.111
1809.15	552.222
1811.23	558.889
1813.3	560.444
1815.38	562.444
1817.46	572.222
1819.53	571.556
1821.61	559.556
1823.68	559.111
1825.75	558.444
1827.83	559.778
1829.9	558
1831.97	553.333
1834.04	561.778
1836.11	561.333
1838.18	546.667
1840.25	552.889
1842.32	546.667
1844.39	548.667
1846.46	551.111
1848.52	560.889
1850.59	558.222
1852.65	546.222
1854.72	546
1856.78	552.222
1858.85	548
1860.91	546.222
1862.97	538.444
1865.03	540.222
1867.09	545.333
1869.16	548.222
1871.22	536.889
1873.27	542.667
1875.33	521.778
1877.39	531.556
1879.45	541.556
1881.51	530.444
1883.56	533.333
1885.62	534.444
1887.67	538.444
1889.73	526.222
1891.78	547.778
1893.83	534.445
1895.89	538.889
1897.94	545.778
1899.99	533.778
1902.04	533.111
1904.09	538.667
1906.14	532.444
1908.19	533.111
1910.23	548.889
1912.28	528.444
1914.33	531.333
1916.37	537.556
1918.42	542.667
1920.46	533.778
1922.51	529.556
1924.55	536
1926.6	525.111
1928.64	540.445
1930.68	537.333
1932.72	530.222
1934.76	524.667
1936.8	526.444
1938.84	531.778
1940.88	524
1942.92	521.556
1944.96	521.333
1946.99	516.667
1949.03	518.889
1951.06	522.222
1953.1	514.222
1955.13	514.222
1957.17	524.444
1959.2	516.889
1961.23	519.333
1963.27	507.778
1965.3	512.889
1967.33	511.778
1969.36	511.556
1971.39	508.444
1973.42	514
1975.44	513.111
1977.47	513.778
1979.5	508.667
1981.53	500
1983.55	503.333
1985.58	507.778
1987.6	515.111
1989.63	502.222
1991.65	512.667
1993.67	501.778
1995.69	501.111
1997.72	511.778
1999.74	510.667
2001.76	506.667
2003.78	506.889
2005.8	499.778
2007.82	507.778
2009.83	503.556
2011.85	496.889
2013.87	506
2015.88	503.111
2017.9	510.444
2019.91	493.556
2021.93	501.556
2023.94	494.222
2025.96	502.222
2027.97	494.667
2029.98	492.889
2031.99	486.444
2034	490.667
2036.01	508.889
2038.02	502
2040.03	493.556
2042.04	497.111
2044.05	500
2046.05	488.222
2048.06	491.333
2050.07	493.333
2052.07	500
2054.08	493.556
2056.08	494
2058.08	492.222
2060.09	490.667
2062.09	491.556
2064.09	503.111
2066.09	496
2068.09	489.333
2070.09	498
2072.09	487.111
2074.09	485.333
2076.09	488.667
2078.09	487.333
2080.08	484.889
2082.08	481.111
2084.08	494.889
2086.07	487.778
2088.07	482
2090.06	475.778
2092.05	479.556
2094.05	479.556
2096.04	483.111
2098.03	482
2100.02	480.444
2102.01	475.778
2104	477.111
2105.99	483.556
2107.98	482.889
2109.97	488.222
2111.95	478
2113.94	477.333
2115.93	480.889
2117.91	483.778
2119.9	477.556
2121.88	472.444
2123.87	475.556
2125.85	461.778
2127.83	481.111
2129.81	475.778
2131.8	462.889
2133.78	480.444
2135.76	465.111
2137.74	464.222
2139.72	470
2141.69	469.333
2143.67	468
2145.65	466.444
2147.63	468.444
2149.6	470.222
2151.58	468.222
2153.55	455.111
2155.53	460
2157.5	448
2159.48	464.667
2161.45	464.444
2163.42	459.778
2165.39	450.889
2167.36	464.444
2169.33	459.556
2171.3	451.778
2173.27	457.333
2175.24	448.444
2177.21	462.222
2179.18	451.778
2181.14	449.556
2183.11	445.556
2185.07	450.444
2187.04	449.111
2189	456.889
2190.97	455.333
2192.93	447.111
2194.89	440.222
2196.86	452.444
2198.82	450.889
2200.78	434.222
2202.74	436.667
2204.7	441.778
2206.66	437.111
2208.62	446.889
2210.57	442.667
2212.53	439.333
2214.49	438.889
2216.45	437.111
2218.4	439.111
2220.36	440.889
2222.31	434.667
2224.27	428.444
2226.22	433.333
2228.17	443.333
2230.12	440.889
2232.08	428.444
2234.03	442.889
2235.98	438.889
2237.93	424.889
2239.88	431.333
2241.83	438.889
2243.78	432.889
2245.72	438.667
2247.67	429.556
2249.62	427.556
2251.56	416
2253.51	429.778
2255.45	436.889
2257.4	424.444
2259.34	424
2261.28	424
2263.23	416.889
2265.17	432.667
2267.11	414.444
2269.05	423.556
2270.99	418.667
2272.93	428.444
2274.87	426
2276.81	417.556
2278.75	419.333
2280.68	417.778
2282.62	413.111
2284.56	414.667
2286.49	410.222
2288.43	412.889
2290.36	411.111
2292.3	416.444
2294.23	412.444
2296.16	412.444
2298.09	408
2300.03	410.667
2301.96	402.889
2303.89	408.222
2305.82	408.889
2307.75	406
2309.68	407.778
2311.6	401.556
2313.53	405.111
2315.46	403.778
2317.39	409.333
2319.31	409.556
2321.24	401.111
2323.16	404
2325.09	408.889
2327.01	399.778
2328.93	391.778
2330.86	396.222
2332.78	396.667
2334.7	392.222
2336.62	403.778
2338.54	396.222
2340.46	401.111
2342.38	408
2344.3	401.556
2346.22	393.778
2348.14	388.444
2350.05	397.556
2351.97	390.667
2353.89	385.778
2355.8	391.778
2357.71	387.556
2359.63	392
2361.54	386.222
2363.46	393.556
2365.37	384.889
2367.28	387.778
2369.19	382.667
2371.1	384.222
2373.01	380.889
2374.92	382.444
2376.83	378.222
2378.74	381.333
2380.65	388.889
2382.56	384.222
2384.46	378
2386.37	387.111
2388.27	382.222
2390.18	383.333
2392.08	375.556
2393.99	374.889
2395.89	381.111
2397.8	376.222
2399.7	383.778
2401.6	384.889
2403.5	372.222
2405.4	377.778
2407.3	371.333
2409.2	370.222
2411.1	365.778
2413	374.667
2414.9	370
2416.8	378.222
2418.69	376.667
2420.59	369.111
2422.48	368
2424.38	377.333
2426.28	367.778
2428.17	368.444
2430.06	372.667
2431.96	367.333
2433.85	360.444
2435.74	375.778
2437.63	374.444
2439.52	375.333
2441.41	360.667
2443.3	364.444
2445.19	364.889
2447.08	362.222
