186.85	511.111
189.449	504
192.047	520.222
194.645	510.667
197.241	510.889
199.837	518.889
202.431	512
205.025	518.667
207.619	507.556
210.21	521.333
212.802	516.444
215.392	508.667
217.982	515.333
220.57	511.778
223.158	516.889
225.744	512
228.331	522
230.915	522.889
233.5	519.556
236.083	520.444
238.666	526
241.247	540.444
243.827	533.333
246.408	526.222
248.986	534.444
251.565	532.444
254.142	538.222
256.719	538.444
259.294	530.444
261.868	526
264.443	538.444
267.015	538.444
269.587	535.778
272.159	532.444
274.729	535.778
277.298	545.111
279.867	552.444
282.435	541.333
285.001	549.778
287.568	547.556
290.133	566.222
292.697	576
295.26	564
297.824	579.333
300.385	570.444
302.945	570
305.505	576.667
308.064	571.778
310.623	573.333
313.18	578.667
315.737	576.444
318.292	582.444
320.847	576.667
323.402	583.778
325.955	582.444
328.507	611.778
331.058	615.778
333.609	616.889
336.158	618.889
338.707	608.444
341.255	604
343.802	609.333
346.349	608.889
348.895	613.778
351.439	609.556
353.983	616.444
356.526	603.556
359.068	605.556
361.609	594.667
364.149	603.778
366.689	596
369.227	607.556
371.765	601.111
374.302	602.222
376.838	611.556
379.374	624.222
381.908	633.333
384.442	618.667
386.973	597.556
389.505	606.222
392.036	593.556
394.567	597.333
397.096	594.889
399.625	595.333
402.153	600.889
404.68	603.778
407.206	599.333
409.73	601.556
412.254	611.778
414.778	602.444
417.301	611.556
419.823	617.555
422.343	603.333
424.863	617.778
427.383	607.333
429.901	606.444
432.418	626.889
434.935	629.333
437.451	637.333
439.966	633.333
442.48	629.333
444.993	625.333
447.506	623.111
450.019	622.222
452.528	620.444
455.039	627.556
457.549	623.333
460.056	619.111
462.564	630.667
465.07	604.222
467.576	608.667
470.082	618.889
472.585	607.778
475.089	624.667
477.591	611.778
480.093	624.222
482.595	624.444
485.094	629.111
487.594	619.111
490.091	625.333
492.59	625.333
495.086	636.889
497.582	626.889
500.076	634
502.571	644.667
505.064	648.667
507.558	651.333
510.049	664.222
512.54	675.555
515.03	669.556
517.518	688.667
520.008	699.778
522.495	693.556
524.983	704
527.468	686.444
529.954	673.556
532.438	670
534.921	654.222
537.404	656.667
539.886	637.333
542.366	648.667
544.848	647.556
547.327	644.889
549.805	627.778
552.284	621.111
554.76	632.222
557.236	628.889
559.711	623.333
562.186	632.889
564.66	641.556
567.132	633.778
569.604	631.778
572.076	636.667
574.547	630.667
577.016	624
579.484	628.445
581.952	628.444
584.419	625.111
586.887	630.889
589.352	622.889
591.816	629.111
594.28	620.667
596.743	628
599.205	632.889
601.667	624.222
604.127	620.444
606.588	621.778
609.047	630.444
611.505	630.889
613.963	635.556
616.419	645.556
618.875	637.778
621.33	632.667
623.784	627.778
626.238	622.667
628.69	648
631.142	641.556
633.593	646.667
636.043	639.333
638.493	640.444
640.941	639.556
643.389	636.222
645.835	629.778
648.281	633.111
650.727	637.778
653.171	638.889
655.615	632.667
658.058	639.111
660.501	623.778
662.942	625.778
665.382	642.444
667.822	638.222
670.261	633.556
672.699	643.111
675.137	650.667
677.574	640.667
680.008	638
682.443	654
684.878	655.333
687.312	656.889
689.743	664.222
692.175	670.667
694.607	671.555
697.037	677.111
699.466	662.222
701.895	651.778
704.323	653.778
706.749	637.778
709.175	638.222
711.601	645.778
714.025	631.333
716.449	633.111
718.871	644
721.294	651.556
723.716	638.889
726.136	637.111
728.556	635.778
730.975	634.222
733.394	640.444
735.812	638.222
738.228	634.889
740.644	630.667
743.058	627.333
745.473	635.778
747.886	636.222
750.3	638.444
752.711	634
755.123	635.333
757.533	624
759.942	631.111
762.351	632.667
764.759	636.222
767.167	636.889
769.573	634.222
771.979	633.778
774.383	644.889
776.787	645.111
779.191	626.889
781.593	640
783.994	634.222
786.396	641.556
788.796	656.444
791.195	640
793.595	645.778
795.992	661.111
798.389	661.333
800.786	671.111
803.181	667.778
805.576	660
807.969	654
810.363	658.889
812.755	642.889
815.147	649.555
817.537	641.778
819.927	646.889
822.318	642.667
824.706	629.556
827.093	632.444
829.48	644.222
831.866	642.889
834.251	639.333
836.636	630
839.021	636
841.404	631.555
843.786	628
846.167	635.111
848.548	640
850.928	643.778
853.307	656.667
855.685	634.222
858.063	635.333
860.44	628.889
862.816	653.333
865.192	634.889
867.566	629.111
869.94	628.444
872.313	642.444
874.685	632.222
877.057	635.556
879.428	629.333
881.798	630.222
884.167	637.778
886.536	652.667
888.902	630.667
891.269	630.444
893.636	633.778
896.001	630.889
898.366	636.667
900.73	633.556
903.094	628.889
905.455	643.333
907.817	632.444
910.178	634.889
912.538	634.222
914.898	639.778
917.255	635.556
919.613	636
921.971	625.556
924.327	622
926.682	626.889
929.037	626.444
931.391	629.333
933.744	614.667
936.096	623.333
938.449	622.222
940.799	627.778
943.149	627.111
945.499	628.667
947.847	629.333
950.195	627.111
952.542	631.556
954.889	633.778
957.235	632.222
959.579	628.444
961.924	627.333
964.266	624.222
966.609	644.222
968.951	640.222
971.292	626.444
973.632	630.667
975.972	637.111
978.31	627.778
980.649	626.889
982.986	630
985.323	621.333
987.659	624.889
989.994	640.222
992.328	630.444
994.662	631.333
996.995	647.111
999.326	651.111
1001.66	632.889
1003.99	639.111
1006.32	642
1008.65	632
1010.98	648.222
1013.3	642
1015.63	634.222
1017.96	650.889
1020.28	651.333
1022.61	647.778
1024.93	638.444
1027.25	639.111
1029.58	651.333
1031.9	646.444
1034.22	645.111
1036.54	658
1038.86	666.889
1041.18	661.556
1043.49	658.222
1045.81	646.667
1048.13	672
1050.44	672.222
1052.76	687.778
1055.07	694.667
1057.39	702.667
1059.7	717.333
1062.01	726.222
1064.32	781.778
1066.63	837.778
1068.94	905.333
1071.25	1006.44
1073.56	1099.11
1075.87	1178
1078.17	1210.89
1080.48	1175.56
1082.79	1074
1085.09	963.111
1087.39	857.556
1089.7	796
1092	756
1094.3	761.111
1096.6	738.667
1098.9	733.111
1101.2	699.111
1103.5	684
1105.8	680
1108.1	673.778
1110.39	680.667
1112.69	670.667
1114.98	680.667
1117.28	690.222
1119.57	676.222
1121.86	676.222
1124.16	693.111
1126.45	683.778
1128.74	678.889
1131.03	668.667
1133.32	666.222
1135.61	658.889
1137.89	668.444
1140.18	651.111
1142.47	641.556
1144.75	652.444
1147.04	651.333
1149.32	648.889
1151.61	649.333
1153.89	651.111
1156.17	657.778
1158.45	651.556
1160.73	644.889
1163.01	650.222
1165.29	639.111
1167.57	657.333
1169.85	656.667
1172.12	656.667
1174.4	686.889
1176.68	687.333
1178.95	707.556
1181.22	697.111
1183.5	687.778
1185.77	675.111
1188.04	659.333
1190.31	646.889
1192.58	632.889
1194.85	618
1197.12	622.667
1199.39	626.889
1201.66	634
1203.92	608.889
1206.19	620.889
1208.45	620
1210.72	618.444
1212.98	622.444
1215.25	631.111
1217.51	622.444
1219.77	621.778
1222.03	630.222
1224.29	633.556
1226.55	630.222
1228.81	633.556
1231.07	635.111
1233.33	638.445
1235.58	656
1237.84	642
1240.09	647.333
1242.35	627.556
1244.6	654.889
1246.86	649.556
1249.11	638.222
1251.36	648.667
1253.61	648.889
1255.86	652.445
1258.11	644.444
1260.36	635.778
1262.61	655.111
1264.86	652.222
1267.1	646.444
1269.35	649.333
1271.6	644
1273.84	664.444
1276.08	663.111
1278.33	673.556
1280.57	654.222
1282.81	662.889
1285.05	654
1287.29	659.333
1289.53	658.444
1291.77	652.667
1294.01	656.889
1296.25	638.889
1298.48	649.111
1300.72	655.778
1302.96	646.889
1305.19	642.889
1307.42	647.778
1309.66	640.667
1311.89	640.222
1314.12	644
1316.35	646.222
1318.58	649.555
1320.81	637.556
1323.04	643.778
1325.27	640.444
1327.5	638.444
1329.73	641.333
1331.95	629.333
1334.18	635.778
1336.4	634.667
1338.63	645.111
1340.85	638.667
1343.08	638.889
1345.3	629.778
1347.52	626.667
1349.74	625.778
1351.96	621.556
1354.18	622.667
1356.4	611.333
1358.61	625.556
1360.83	624.667
1363.05	626.444
1365.27	614.889
1367.48	630.889
1369.69	634.444
1371.91	639.333
1374.12	639.556
1376.33	637.333
1378.55	647.778
1380.76	636.667
1382.97	641.333
1385.18	635.778
1387.39	636.889
1389.59	633.556
1391.8	628.667
1394.01	634.667
1396.21	627.111
1398.42	612.667
1400.63	614.889
1402.83	617.333
1405.03	636.222
1407.24	617.778
1409.44	603.556
1411.64	618.889
1413.84	622
1416.04	619.111
1418.24	608.667
1420.44	612
1422.64	602.222
1424.83	616.444
1427.03	602.667
1429.23	602.889
1431.42	598
1433.62	608.667
1435.81	594.667
1438	600.444
1440.19	608.222
1442.39	601.111
1444.58	600.667
1446.77	601.333
1448.96	598.444
1451.15	600.889
1453.34	594.222
1455.52	596.222
1457.71	602.889
1459.9	604.444
1462.08	606.444
1464.27	607.778
1466.45	597.778
1468.64	604.667
1470.82	597.556
1473	604.667
1475.18	612.889
1477.36	620
1479.54	636
1481.72	640
1483.9	630
1486.08	628.889
1488.26	609.778
1490.43	601.778
1492.61	599.333
1494.78	585.556
1496.96	587.333
1499.13	585.778
1501.31	585.333
1503.48	583.333
1505.65	572.667
1507.82	579.111
1509.99	584.889
1512.16	586
1514.33	577.778
1516.5	587.333
1518.67	579.333
1520.84	589.333
1523	585.778
1525.17	581.778
1527.34	587.111
1529.5	578.889
1531.66	584.445
1533.83	596.667
1535.99	596.222
1538.15	583.556
1540.31	577.556
1542.47	586.444
1544.63	592.889
1546.79	592.889
1548.95	586.444
1551.11	592.222
1553.27	598.667
1555.42	605.778
1557.58	615.111
1559.73	612.222
1561.89	616
1564.04	617.333
1566.2	613.778
1568.35	632.222
1570.5	641.556
1572.65	648.222
1574.8	667.333
1576.95	712.444
1579.1	764
1581.25	848.667
1583.4	967.111
1585.55	1093.56
1587.69	1209.11
1589.84	1293.56
1591.99	1283.78
1594.13	1143.11
1596.27	987.778
1598.42	838.444
1600.56	782.889
1602.7	721.333
1604.84	695.556
1606.98	671.333
1609.12	657.778
1611.26	653.555
1613.4	644.222
1615.54	633.778
1617.68	624.667
1619.81	614.222
1621.95	619.556
1624.08	616.222
1626.22	613.111
1628.35	611.778
1630.49	598.222
1632.62	599.556
1634.75	598
1636.88	604
1639.01	600
1641.14	605.556
1643.27	599.778
1645.4	604.667
1647.53	597.111
1649.66	586.667
1651.79	599.778
1653.91	602.222
1656.04	605.111
1658.16	603.111
1660.29	592.889
1662.41	605.111
1664.53	592.444
1666.66	596.444
1668.78	589.333
1670.9	591.556
1673.02	596.667
1675.14	583.778
1677.26	597.111
1679.38	590
1681.49	592.444
1683.61	600.667
1685.73	582.889
1687.84	593.333
1689.96	596.444
1692.07	602.444
1694.19	597.111
1696.3	607.778
1698.41	590.222
1700.52	595.778
1702.64	595.556
1704.75	592.222
1706.86	580.444
1708.97	585.556
1711.07	573.333
1713.18	577.778
1715.29	567.333
1717.4	574.667
1719.5	566.444
1721.61	564.222
1723.71	554
1725.82	556.667
1727.92	555.333
1730.02	537.333
1732.12	544.444
1734.23	531.778
1736.33	534.222
1738.43	515.556
1740.53	525.556
1742.63	526.222
1744.72	513.556
1746.82	514
1748.92	518.444
1751.02	513.333
1753.11	509.778
1755.21	510.444
1757.3	502.667
1759.4	516.889
1761.49	504
1763.58	500
1765.67	507.333
1767.76	510.444
1769.86	504
1771.95	512.222
1774.03	499.333
1776.12	502
1778.21	501.778
1780.3	503.778
1782.39	500.667
1784.47	499.111
1786.56	504.889
1788.64	494.444
1790.73	505.778
1792.81	508.667
1794.89	499.778
1796.98	491.333
1799.06	493.778
1801.14	503.556
1803.22	480.667
1805.3	490.667
1807.38	500.667
1809.46	502.444
1811.54	484.889
1813.61	494.889
1815.69	486.222
1817.77	490
1819.84	481.333
1821.92	490
1823.99	493.778
1826.06	487.333
1828.14	480.889
1830.21	494.444
1832.28	491.111
1834.35	475.778
1836.42	478.667
1838.49	492.889
1840.56	480.889
1842.63	486.667
1844.7	484
1846.77	479.333
1848.83	472.222
1850.9	485.111
1852.96	477.778
1855.03	470.889
1857.09	482
1859.15	474.889
1861.22	473.556
1863.28	466.667
1865.34	471.333
1867.4	464
1869.46	476.667
1871.52	475.556
1873.58	472.222
1875.64	466.444
1877.7	467.111
1879.76	461.333
1881.81	472.222
1883.87	463.111
1885.92	464.889
1887.98	465.778
1890.03	466.444
1892.09	466.889
1894.14	472.889
1896.19	459.778
1898.24	463.556
1900.29	463.556
1902.34	472.444
1904.4	465.556
1906.44	462.667
1908.49	462.889
1910.54	472.667
1912.59	464.444
1914.63	453.333
1916.68	468
1918.73	459.111
1920.77	461.556
1922.81	449.556
1924.86	462.222
1926.9	463.111
1928.94	465.333
1930.99	454.667
1933.03	446.222
1935.07	460.667
1937.11	453.556
1939.15	454.444
1941.19	456.444
1943.22	443.778
1945.26	456.444
1947.3	452
1949.33	446.222
1951.37	440.667
1953.4	446.889
1955.44	432.889
1957.47	443.333
1959.51	446.889
1961.54	442.889
1963.57	446.889
1965.6	449.333
1967.63	440.444
1969.66	442.667
1971.69	434.444
1973.72	440.889
1975.75	440
1977.78	439.111
1979.8	430.889
1981.83	439.778
1983.86	436.222
1985.88	437.111
1987.91	432
1989.93	430.889
1991.95	425.556
1993.98	426.667
1996	435.556
1998.02	428.889
2000.04	439.778
2002.06	423.778
2004.08	434.667
2006.1	443.111
2008.12	429.556
2010.14	434.889
2012.15	430.444
2014.17	429.778
2016.19	430.667
2018.2	429.778
2020.22	432.889
2022.23	436.667
2024.25	425.333
2026.26	430.667
2028.27	433.333
2030.28	428.444
2032.29	428.889
2034.3	434
2036.32	434.889
2038.32	433.778
2040.33	423.556
2042.34	425.111
2044.35	428
2046.36	427.556
2048.36	425.333
2050.37	420.667
2052.37	421.778
2054.38	426.222
2056.38	431.556
2058.39	431.556
2060.39	422
2062.39	422.444
2064.39	426.444
2066.39	418.667
2068.39	408.667
2070.39	424.667
2072.39	406.889
2074.39	417.778
2076.39	420
2078.39	415.333
2080.39	410.222
2082.38	412.667
2084.38	411.778
2086.37	414.667
2088.37	407.111
2090.36	410.889
2092.35	404.667
2094.35	404.667
2096.34	402.667
2098.33	402.444
2100.32	406.667
2102.31	412.222
2104.3	402.889
2106.29	402.444
2108.28	402
2110.27	401.778
2112.25	398.667
2114.24	411.333
2116.23	403.333
2118.21	408
2120.2	411.111
2122.18	400.667
2124.17	399.333
2126.15	406.667
2128.13	405.556
2130.11	403.111
2132.09	396.667
2134.08	400.667
2136.06	400.222
2138.04	402.667
2140.02	404.667
2141.99	400
2143.97	392.667
2145.95	405.556
2147.93	398.667
2149.9	396.889
2151.88	397.111
2153.85	385.333
2155.83	395.111
2157.8	396.222
2159.77	385.778
2161.75	392.667
2163.72	387.778
2165.69	384.889
2167.66	387.111
2169.63	392.444
2171.6	383.778
2173.57	384.222
2175.54	382
2177.51	386.444
2179.47	382
2181.44	388.222
2183.41	379.778
2185.37	380.222
2187.34	384.667
2189.3	380
2191.27	378.444
2193.23	371.333
2195.19	379.333
2197.15	377.556
2199.11	367.778
2201.08	372.889
2203.04	372.222
2205	363.778
2206.96	367.111
2208.91	363.778
2210.87	369.333
2212.83	369.333
2214.79	371.333
2216.74	370.667
2218.7	377.333
2220.65	374.444
2222.61	366.667
2224.56	370
2226.52	372.667
2228.47	371.778
2230.42	371.111
2232.37	369.111
2234.32	373.778
2236.27	364.444
2238.22	366.667
2240.17	356.444
2242.12	363.333
2244.07	360.667
2246.02	365.111
2247.97	365.111
2249.91	362.222
2251.86	356.444
2253.8	356.889
2255.75	359.778
2257.69	355.778
2259.64	364.889
2261.58	352.444
2263.52	360.444
2265.46	361.778
2267.4	350
2269.35	360
2271.29	354
2273.23	349.778
2275.16	355.778
2277.1	352.889
2279.04	345.556
2280.98	346.667
2282.92	347.333
2284.85	344.444
2286.79	350.667
2288.72	341.111
2290.66	341.111
2292.59	339.778
2294.52	354.222
2296.46	348.889
2298.39	346.444
2300.32	349.556
2302.25	342.889
2304.18	334.222
2306.11	341.778
2308.04	342.667
2309.97	340.667
2311.9	344.889
2313.83	333.333
2315.75	336.889
2317.68	340.889
2319.61	349.111
2321.53	333.778
2323.46	340.667
2325.38	335.111
2327.3	329.111
2329.23	334.667
2331.15	334.444
2333.07	337.111
2334.99	340.667
2336.91	328.444
2338.83	327.778
2340.75	339.333
2342.67	320.667
2344.59	332.667
2346.51	326.889
2348.43	325.556
2350.35	326.667
2352.26	328.222
2354.18	323.778
2356.09	330.444
2358.01	322
2359.92	323.333
2361.83	331.778
2363.75	319.556
2365.66	320.889
2367.57	323.333
2369.48	318.889
2371.39	320.222
2373.31	324.667
2375.21	323.111
2377.12	328.667
2379.03	319.333
2380.94	319.333
2382.85	321.333
2384.76	317.111
2386.66	316.667
2388.57	313.556
2390.47	312
2392.38	318.444
2394.28	314.667
2396.18	305.778
2398.09	314.444
2399.99	322
2401.89	313.333
2403.79	311.556
2405.69	314.222
2407.59	310.444
2409.49	316.444
2411.39	307.778
2413.29	304.889
2415.19	315.111
2417.09	307.333
2418.98	312
2420.88	311.111
2422.78	306.667
2424.67	306
2426.57	308
2428.46	306.222
2430.35	309.556
2432.25	303.556
2434.14	310.444
2436.03	306.889
2437.92	309.778
2439.81	302
2441.7	307.556
2443.59	299.778
2445.48	311.778
2447.37	302.889
2449.26	299.556
2451.15	304.444
2453.03	300.444
