186.85	454.444
189.449	433.556
192.047	440.444
194.645	442.889
197.241	450.222
199.837	448.889
202.431	440.667
205.025	457.111
207.619	459.556
210.21	450.444
212.802	454.889
215.392	445.556
217.982	447.556
220.57	458.667
223.158	444.889
225.744	448
228.331	450.667
230.915	453.556
233.5	453.778
236.083	455.333
238.666	453.333
241.247	449.111
243.827	464
246.408	457.333
248.986	457.556
251.565	458.889
254.142	459.556
256.719	465.111
259.294	465.778
261.868	466.889
264.443	459.778
267.015	460.222
269.587	463.556
272.159	459.111
274.729	466.889
277.298	460.889
279.867	472.222
282.435	467.333
285.001	474.889
287.568	478.667
290.133	479.778
292.697	487.556
295.26	497.556
297.824	495.778
300.385	492.222
302.945	489.111
305.505	499.556
308.064	493.111
310.623	502.222
313.18	500.667
315.737	489.111
318.292	495.778
320.847	508
323.402	515.333
325.955	517.556
328.507	527.111
331.058	537.556
333.609	535.111
336.158	537.778
338.707	530.667
341.255	528.667
343.802	523.111
346.349	528.889
348.895	533.333
351.439	525.778
353.983	522
356.526	520.444
359.068	509.778
361.609	504.222
364.149	522.222
366.689	510
369.227	508.889
371.765	507.333
374.302	511.778
376.838	528.444
379.374	520.444
381.908	527.556
384.442	510.222
386.973	514.444
389.505	513.556
392.036	508.444
394.567	496.667
397.096	498.667
399.625	509.333
402.153	513.111
404.68	512
407.206	514.889
409.73	515.778
412.254	520.444
414.778	512
417.301	508.889
419.823	512.444
422.343	514.222
424.863	505.333
427.383	508
429.901	514.444
432.418	522.889
434.935	525.778
437.451	527.333
439.966	537.778
442.48	522.667
444.993	510
447.506	519.111
450.019	522.444
452.528	515.778
455.039	516
457.549	523.556
460.056	535.333
462.564	526.889
465.07	528
467.576	525.556
470.082	511.778
472.585	529.333
475.089	533.778
477.591	523.778
480.093	545.111
482.595	527.111
485.094	533.111
487.594	532.444
490.091	520.444
492.59	538.444
495.086	534.222
497.582	547.778
500.076	549.778
502.571	559.111
505.064	568
507.558	580.444
510.049	594
512.54	588.222
515.03	598.889
517.518	611.556
520.008	607.556
522.495	618.444
524.983	614.444
527.468	602.222
529.954	600
532.438	584.444
534.921	577.556
537.404	567.333
539.886	554
542.366	551.333
544.848	556
547.327	550
549.805	545.556
552.284	544
554.76	539.111
557.236	542.222
559.711	540.889
562.186	535.556
564.66	523.333
567.132	533.111
569.604	541.111
572.076	526.444
574.547	542.222
577.016	531.333
579.484	543.111
581.952	529.778
584.419	531.111
586.887	530.444
589.352	527.333
591.816	522.667
594.28	541.556
596.743	536.667
599.205	531.333
601.667	525.111
604.127	527.111
606.588	527.778
609.047	539.111
611.505	529.778
613.963	538.889
616.419	542.222
618.875	527.333
621.33	542.667
623.784	541.556
626.238	541.333
628.69	546.222
631.142	561.556
633.593	545.556
636.043	537.778
638.493	542
640.941	542.889
643.389	539.333
645.835	542.667
648.281	549.333
650.727	543.111
653.171	543.778
655.615	538.222
658.058	545.333
660.501	544.889
662.942	541.333
665.382	536.889
667.822	548.222
670.261	534
672.699	552.444
675.137	552
677.574	547.111
680.008	551.111
682.443	568
684.878	571.556
687.312	572.667
689.743	584.667
692.175	597.333
694.607	596
697.037	576.889
699.466	573.111
701.895	564.222
704.323	554.444
706.749	550
709.175	549.556
711.601	554.667
714.025	546.667
716.449	558.444
718.871	560.889
721.294	546.444
723.716	552
726.136	547.111
728.556	548.444
730.975	540.444
733.394	556.667
735.812	546
738.228	549.778
740.644	544.667
743.058	540
745.473	541.556
747.886	547.778
750.3	536.667
752.711	536
755.123	542.889
757.533	556.889
759.942	557.333
762.351	553.333
764.759	544
767.167	549.778
769.573	544.222
771.979	548.889
774.383	544.889
776.787	550.667
779.191	550.667
781.593	557.111
783.994	541.778
786.396	549.333
788.796	546.222
791.195	568.889
793.595	568.667
795.992	579.111
798.389	577.778
800.786	572.222
803.181	570.444
805.576	569.111
807.969	571.778
810.363	555.556
812.755	558.667
815.147	562.444
817.537	556.889
819.927	552.667
822.318	554.444
824.706	541.333
827.093	560.444
829.48	554.222
831.866	542.667
834.251	547.556
836.636	550
839.021	547.111
841.404	538.444
843.786	555.111
846.167	556
848.548	555.333
850.928	554.889
853.307	557.111
855.685	557.778
858.063	567.111
860.44	551.111
862.816	548
865.192	538.444
867.566	560.222
869.94	546.222
872.313	551.556
874.685	550.889
877.057	554.889
879.428	541.556
881.798	558.889
884.167	545.556
886.536	552.667
888.902	557.111
891.269	554.667
893.636	552.444
896.001	553.778
898.366	549.333
900.73	540.444
903.094	543.111
905.455	558.222
907.817	554
910.178	547.556
912.538	554.889
914.898	536.222
917.255	538.222
919.613	541.778
921.971	538.889
924.327	530
926.682	536
929.037	536.667
931.391	539.111
933.744	539.556
936.096	534.222
938.449	545.333
940.799	545.556
943.149	538.444
945.499	546.889
947.847	539.111
950.195	550.667
952.542	551.333
954.889	542.667
957.235	549.111
959.579	553.333
961.924	551.333
964.266	551.556
966.609	544.444
968.951	549.111
971.292	562
973.632	536.444
975.972	547.333
978.31	551.555
980.649	538.444
982.986	549.778
985.323	542
987.659	538.667
989.994	550.667
992.328	550
994.662	546.667
996.995	552
999.326	556.444
1001.66	558
1003.99	561.556
1006.32	556.222
1008.65	558.889
1010.98	567.333
1013.3	578.222
1015.63	570.889
1017.96	575.556
1020.28	562.889
1022.61	551.333
1024.93	562.444
1027.25	558
1029.58	556.444
1031.9	567.556
1034.22	570.667
1036.54	573.556
1038.86	581.111
1041.18	573.111
1043.49	582
1045.81	589.111
1048.13	587.778
1050.44	607.778
1052.76	611.778
1055.07	625.778
1057.39	642.444
1059.7	657.111
1062.01	700.444
1064.32	755.556
1066.63	843.778
1068.94	929.111
1071.25	1068.22
1073.56	1212.67
1075.87	1271.56
1078.17	1269.78
1080.48	1170.67
1082.79	1028.67
1085.09	884.222
1087.39	791.333
1089.7	700.667
1092	670.889
1094.3	660.222
1096.6	646.222
1098.9	633.333
1101.2	615.111
1103.5	599.778
1105.8	589.555
1108.1	592.667
1110.39	586.889
1112.69	596.222
1114.98	593.778
1117.28	606.444
1119.57	596
1121.86	590.889
1124.16	600.889
1126.45	578.444
1128.74	584.889
1131.03	588.222
1133.32	581.111
1135.61	584
1137.89	581.778
1140.18	586.667
1142.47	572.667
1144.75	571.333
1147.04	575.111
1149.32	564.889
1151.61	580.222
1153.89	568.889
1156.17	584.889
1158.45	586.667
1160.73	586.222
1163.01	587.555
1165.29	601.111
1167.57	601.778
1169.85	610.889
1172.12	626.444
1174.4	637.778
1176.68	657.111
1178.95	665.778
1181.22	654.222
1183.5	635.333
1185.77	619.556
1188.04	581.111
1190.31	570.444
1192.58	570.444
1194.85	562.667
1197.12	552.889
1199.39	566
1201.66	555.556
1203.92	570.222
1206.19	548.667
1208.45	556.222
1210.72	559.778
1212.98	557.333
1215.25	558.889
1217.51	569.333
1219.77	558.889
1222.03	562.222
1224.29	560.889
1226.55	579.111
1228.81	577.778
1231.07	579.111
1233.33	569.556
1235.58	581.778
1237.84	576
1240.09	584.889
1242.35	584.889
1244.6	576
1246.86	576.667
1249.11	580.444
1251.36	591.556
1253.61	580.445
1255.86	587.556
1258.11	581.333
1260.36	593.111
1262.61	597.333
1264.86	591.111
1267.1	600.889
1269.35	595.778
1271.6	583.333
1273.84	600
1276.08	601.778
1278.33	596.444
1280.57	597.333
1282.81	608.222
1285.05	594.222
1287.29	600
1289.53	606.667
1291.77	603.555
1294.01	588.889
1296.25	594.889
1298.48	590.445
1300.72	588.667
1302.96	577.111
1305.19	585.556
1307.42	575.333
1309.66	584
1311.89	587.111
1314.12	581.111
1316.35	581.778
1318.58	584.667
1320.81	572.222
1323.04	575.556
1325.27	582.889
1327.5	571.556
1329.73	574.444
1331.95	567.778
1334.18	575.111
1336.4	563.556
1338.63	579.556
1340.85	574.222
1343.08	574.444
1345.3	564.889
1347.52	563.111
1349.74	563.111
1351.96	559.778
1354.18	576.222
1356.4	572.889
1358.61	564
1360.83	565.778
1363.05	565.778
1365.27	577.111
1367.48	577.333
1369.69	583.555
1371.91	568.667
1374.12	569.556
1376.33	567.778
1378.55	577.111
1380.76	581.111
1382.97	581.778
1385.18	582.889
1387.39	570.444
1389.59	575.111
1391.8	580.222
1394.01	574
1396.21	577.111
1398.42	574
1400.63	574.667
1402.83	563.333
1405.03	562
1407.24	567.778
1409.44	567.778
1411.64	570.444
1413.84	572.444
1416.04	553.333
1418.24	557.111
1420.44	550.444
1422.64	550.444
1424.83	554
1427.03	543.333
1429.23	548
1431.42	553.333
1433.62	555.111
1435.81	542.222
1438	535.333
1440.19	543.111
1442.39	543.333
1444.58	536.667
1446.77	546.222
1448.96	538.889
1451.15	548.444
1453.34	547.333
1455.52	557.111
1457.71	549.556
1459.9	557.333
1462.08	552.444
1464.27	540
1466.45	548.889
1468.64	555.111
1470.82	556.667
1473	571.556
1475.18	568.889
1477.36	592.444
1479.54	611.111
1481.72	607.556
1483.9	595.111
1486.08	582.444
1488.26	572.444
1490.43	556.889
1492.61	546.889
1494.78	549.333
1496.96	551.333
1499.13	556.222
1501.31	547.333
1503.48	553.111
1505.65	550.444
1507.82	544
1509.99	554
1512.16	554.889
1514.33	559.333
1516.5	548
1518.67	549.778
1520.84	557.111
1523	559.111
1525.17	552.889
1527.34	561.556
1529.5	559.778
1531.66	564.889
1533.83	569.556
1535.99	576.444
1538.15	568.222
1540.31	572.222
1542.47	574
1544.63	561.778
1546.79	573.556
1548.95	568.667
1551.11	575.111
1553.27	582.444
1555.42	575.556
1557.58	598.222
1559.73	584.444
1561.89	587.778
1564.04	595.111
1566.2	596.444
1568.35	608.445
1570.5	637.111
1572.65	667.778
1574.8	713.111
1576.95	760.667
1579.1	845.333
1581.25	974.222
1583.4	1111.33
1585.55	1270.67
1587.69	1386.22
1589.84	1430.67
1591.99	1302.89
1594.13	1150.89
1596.27	959.111
1598.42	813.556
1600.56	758.889
1602.7	692.667
1604.84	671.333
1606.98	650.889
1609.12	638.889
1611.26	620.889
1613.4	618
1615.54	597.778
1617.68	584.889
1619.81	578.222
1621.95	572.889
1624.08	574.667
1626.22	568.222
1628.35	572.444
1630.49	570.889
1632.62	567.778
1634.75	561.333
1636.88	561.778
1639.01	561.333
1641.14	562.889
1643.27	549.111
1645.4	551.333
1647.53	542.667
1649.66	546.889
1651.79	557.556
1653.91	555.111
1656.04	560.222
1658.16	558.222
1660.29	558.667
1662.41	550.222
1664.53	558.222
1666.66	553.333
1668.78	549.333
1670.9	541.333
1673.02	549.333
1675.14	553.111
1677.26	540
1679.38	558
1681.49	554
1683.61	548.222
1685.73	544.889
1687.84	545.333
1689.96	544.889
1692.07	541.778
1694.19	552.444
1696.3	544.444
1698.41	533.111
1700.52	546.222
1702.64	534.222
1704.75	545.556
1706.86	543.778
1708.97	526.667
1711.07	538.444
1713.18	522.667
1715.29	532.444
1717.4	520.444
1719.5	522
1721.61	517.111
1723.71	518.222
1725.82	515.778
1727.92	513.778
1730.02	508.667
1732.12	495.778
1734.23	489.111
1736.33	490.444
1738.43	488.889
1740.53	467.778
1742.63	470.444
1744.72	468.222
1746.82	461.778
1748.92	454
1751.02	456
1753.11	451.778
1755.21	458
1757.3	452
1759.4	454.889
1761.49	453.778
1763.58	457.556
1765.67	456.667
1767.76	449.556
1769.86	440.222
1771.95	452.667
1774.03	444.444
1776.12	458.444
1778.21	428.667
1780.3	448.889
1782.39	452.667
1784.47	446.444
1786.56	438
1788.64	446.444
1790.73	450.222
1792.81	439.778
1794.89	446.667
1796.98	443.111
1799.06	444.667
1801.14	439.778
1803.22	442.222
1805.3	431.333
1807.38	434.444
1809.46	447.333
1811.54	441.556
1813.61	437.333
1815.69	435.778
1817.77	438.667
1819.84	440.667
1821.92	438
1823.99	438.444
1826.06	426.222
1828.14	434.889
1830.21	436.444
1832.28	436.222
1834.35	429.556
1836.42	424
1838.49	432
1840.56	429.111
1842.63	434.444
1844.7	419.556
1846.77	429.111
1848.83	433.778
1850.9	424.222
1852.96	425.556
1855.03	428.667
1857.09	430.222
1859.15	432.222
1861.22	424.222
1863.28	413.556
1865.34	411.556
1867.4	418.667
1869.46	416.222
1871.52	416.222
1873.58	416
1875.64	425.111
1877.7	422.667
1879.76	419.111
1881.81	409.778
1883.87	412.889
1885.92	416
1887.98	411.556
1890.03	406
1892.09	415.111
1894.14	411.333
1896.19	413.333
1898.24	413.778
1900.29	411.556
1902.34	416.667
1904.4	415.778
1906.44	417.556
1908.49	405.333
1910.54	420.889
1912.59	413.333
1914.63	406.889
1916.68	413.556
1918.73	403.333
1920.77	413.333
1922.81	411.556
1924.86	406
1926.9	405.111
1928.94	407.111
1930.99	402.444
1933.03	404.889
1935.07	403.778
1937.11	406.667
1939.15	398
1941.19	396.889
1943.22	411.333
1945.26	405.778
1947.3	396.889
1949.33	400.889
1951.37	401.111
1953.4	402.444
1955.44	389.556
1957.47	392.889
1959.51	395.556
1961.54	397.111
1963.57	398.667
1965.6	391.333
1967.63	393.333
1969.66	395.111
1971.69	390.667
1973.72	390
1975.75	388.889
1977.78	388
1979.8	386.667
1981.83	401.333
1983.86	384.889
1985.88	388.889
1987.91	393.556
1989.93	386.444
1991.95	391.111
1993.98	395.778
1996	380.222
1998.02	380.444
2000.04	380.222
2002.06	392.889
2004.08	378.889
2006.1	386.222
2008.12	388
2010.14	385.778
2012.15	380.222
2014.17	384.222
2016.19	382.444
2018.2	394
2020.22	384.889
2022.23	375.556
2024.25	379.556
2026.26	383.778
2028.27	389.111
2030.28	392.889
2032.29	376.222
2034.3	383.556
2036.32	386
2038.32	380
2040.33	379.778
2042.34	379.111
2044.35	385.556
2046.36	392.222
2048.36	384
2050.37	371.778
2052.37	387.556
2054.38	371.556
2056.38	382
2058.39	377.111
2060.39	375.556
2062.39	376.889
2064.39	377.556
2066.39	373.111
2068.39	370.222
2070.39	367.111
2072.39	374.889
2074.39	369.333
2076.39	366
2078.39	369.111
2080.39	372
2082.38	369.778
2084.38	376.889
2086.37	368.444
2088.37	375.111
2090.36	367.778
2092.35	366.444
2094.35	364.222
2096.34	365.111
2098.33	367.333
2100.32	368.667
2102.31	359.778
2104.3	363.111
2106.29	368.444
2108.28	355.333
2110.27	366.222
2112.25	370.222
2114.24	360.667
2116.23	357.111
2118.21	360.667
2120.2	360.444
2122.18	367.778
2124.17	365.778
2126.15	366.889
2128.13	362.444
2130.11	356
2132.09	360.889
2134.08	360
2136.06	364.444
2138.04	362.222
2140.02	361.333
2141.99	361.778
2143.97	363.556
2145.95	359.778
2147.93	358.444
2149.9	362
2151.88	360.222
2153.85	360.889
2155.83	360.222
2157.8	356.222
2159.77	348.889
2161.75	342
2163.72	348
2165.69	348.889
2167.66	348.667
2169.63	344.889
2171.6	348.889
2173.57	346.667
2175.54	343.111
2177.51	347.111
2179.47	347.556
2181.44	342.222
2183.41	340.889
2185.37	341.111
2187.34	334.222
2189.3	335.333
2191.27	334.889
2193.23	331.778
2195.19	336.667
2197.15	334.222
2199.11	334.889
2201.08	332.222
2203.04	335.778
2205	334.222
2206.96	339.556
2208.91	336.889
2210.87	334.222
2212.83	330.889
2214.79	329.556
2216.74	338.889
2218.7	332.222
2220.65	334.222
2222.61	332.667
2224.56	337.333
2226.52	338.667
2228.47	324.222
2230.42	328.667
2232.37	326.889
2234.32	322.889
2236.27	323.556
2238.22	324.222
2240.17	332.444
2242.12	323.111
2244.07	322.889
2246.02	325.333
2247.97	324.222
2249.91	330.222
2251.86	324.222
2253.8	320
2255.75	322.667
2257.69	318
2259.64	323.333
2261.58	319.111
2263.52	326
2265.46	316.444
2267.4	319.778
2269.35	319.556
2271.29	320.889
2273.23	323.111
2275.16	318.444
2277.1	313.111
2279.04	324.444
2280.98	314.222
2282.92	316.444
2284.85	318.667
2286.79	317.333
2288.72	307.333
2290.66	306.889
2292.59	310.889
2294.52	314.444
2296.46	313.778
2298.39	309.111
2300.32	317.778
2302.25	315.556
2304.18	312.444
2306.11	309.556
2308.04	310.667
2309.97	301.556
2311.9	310.667
2313.83	304.667
2315.75	308.222
2317.68	295.556
2319.61	311.333
2321.53	303.778
2323.46	303.778
2325.38	307.333
2327.3	303.556
2329.23	302.889
2331.15	307.778
2333.07	309.556
2334.99	296
2336.91	300
2338.83	305.333
2340.75	299.556
2342.67	305.778
2344.59	292.667
2346.51	303.556
2348.43	300.444
2350.35	291.556
2352.26	294.222
2354.18	296.889
2356.09	294
2358.01	301.333
2359.92	290.444
2361.83	297.111
2363.75	299.333
2365.66	291.778
2367.57	293.556
2369.48	286
2371.39	291.333
2373.31	291.778
2375.21	286.444
2377.12	296.889
2379.03	294.222
2380.94	287.556
2382.85	295.556
2384.76	291.778
2386.66	281.778
2388.57	286.889
2390.47	290.667
2392.38	282.444
2394.28	292.222
2396.18	288.444
2398.09	287.556
2399.99	292.222
2401.89	288.444
2403.79	284
2405.69	287.778
2407.59	284.889
2409.49	275.111
2411.39	286.444
2413.29	289.333
2415.19	282.667
2417.09	283.111
2418.98	284.444
2420.88	282.667
2422.78	276.222
2424.67	283.333
2426.57	281.333
2428.46	277.111
2430.35	274.889
2432.25	279.556
2434.14	281.333
2436.03	273.333
2437.92	281.778
2439.81	275.333
2441.7	275.778
2443.59	284
2445.48	281.556
2447.37	286.222
2449.26	275.778
2451.15	277.556
2453.03	275.778
