186.85	464.222
189.449	448.667
192.047	466.222
194.645	458.222
197.241	458.667
199.837	464.889
202.431	458.889
205.025	459.778
207.619	477.556
210.21	466.222
212.802	470
215.392	476
217.982	472.667
220.57	469.333
223.158	475.778
225.744	466.444
228.331	470.889
230.915	477.111
233.5	467.778
236.083	480.222
238.666	478
241.247	479.333
243.827	484.222
246.408	476.444
248.986	483.111
251.565	485.111
254.142	486.889
256.719	487.556
259.294	499.111
261.868	486.222
264.443	488.667
267.015	492.444
269.587	488
272.159	484
274.729	493.778
277.298	486.667
279.867	493.333
282.435	492
285.001	496.667
287.568	502.222
290.133	509.111
292.697	512
295.26	510.444
297.824	511.111
300.385	514
302.945	526
305.505	526.222
308.064	523.778
310.623	517.778
313.18	528.222
315.737	523.111
318.292	523.778
320.847	516.667
323.402	532.444
325.955	549.778
328.507	539.778
331.058	557.556
333.609	554.444
336.158	548.889
338.707	554
341.255	556.889
343.802	558.444
346.349	548.444
348.895	560.889
351.439	544.222
353.983	547.333
356.526	553.556
359.068	549.556
361.609	541.556
364.149	540
366.689	542.889
369.227	536.667
371.765	545.556
374.302	552.667
376.838	561.111
379.374	579.333
381.908	572.889
384.442	562.667
386.973	552.222
389.505	550.444
392.036	535.556
394.567	539.778
397.096	533.111
399.625	527.111
402.153	551.333
404.68	550.444
407.206	536.444
409.73	546.222
412.254	541.778
414.778	542.889
417.301	550.222
419.823	556.667
422.343	551.556
424.863	551.778
427.383	548
429.901	557.333
432.418	560.445
434.935	569.778
437.451	576.444
439.966	571.333
442.48	555.111
444.993	563.556
447.506	552
450.019	556
452.528	560.444
455.039	563.333
457.549	567.111
460.056	563.333
462.564	572.444
465.07	563.556
467.576	552.889
470.082	564.889
472.585	566.889
475.089	556.889
477.591	569.333
480.093	551.333
482.595	565.778
485.094	568.667
487.594	576.889
490.091	567.111
492.59	560.889
495.086	564.667
497.582	568.667
500.076	576.444
502.571	576.667
505.064	580.444
507.558	587.111
510.049	588.889
512.54	598.667
515.03	602.667
517.518	621.778
520.008	619.555
522.495	630
524.983	614.222
527.468	598.667
529.954	594.222
532.438	586.667
534.921	577.778
537.404	583.555
539.886	583.778
542.366	568.889
544.848	575.111
547.327	567.778
549.805	564
552.284	569.111
554.76	564.889
557.236	567.333
559.711	570.444
562.186	574.222
564.66	570.444
567.132	562.222
569.604	566
572.076	571.556
574.547	571.556
577.016	570.444
579.484	572
581.952	567.333
584.419	576.889
586.887	562.667
589.352	571.333
591.816	556.889
594.28	566.222
596.743	565.778
599.205	568.444
601.667	572.444
604.127	560
606.588	567.333
609.047	568.222
611.505	572.444
613.963	570.667
616.419	575.333
618.875	568
621.33	568.444
623.784	574
626.238	571.778
628.69	578.667
631.142	577.778
633.593	571.333
636.043	579.555
638.493	588.667
640.941	576
643.389	581.111
645.835	573.333
648.281	565.556
650.727	574
653.171	574.667
655.615	571.333
658.058	573.333
660.501	566.445
662.942	572.444
665.382	557.556
667.822	576.222
670.261	577.111
672.699	569.778
675.137	573.556
677.574	572.667
680.008	581.111
682.443	582.444
684.878	588.667
687.312	590.667
689.743	590.889
692.175	596
694.607	600.667
697.037	597.556
699.466	602
701.895	593.111
704.323	590
706.749	575.111
709.175	586.444
711.601	584.222
714.025	574.445
716.449	561.778
718.871	579.778
721.294	585.556
723.716	570.444
726.136	578.222
728.556	571.333
730.975	566
733.394	568.889
735.812	566
738.228	572.667
740.644	566.889
743.058	564.889
745.473	570.445
747.886	567.778
750.3	570.667
752.711	569.778
755.123	570.889
757.533	567.333
759.942	574.444
762.351	575.111
764.759	571.333
767.167	578
769.573	572.444
771.979	567.111
774.383	564.444
776.787	570.222
779.191	576.222
781.593	573.333
783.994	582.444
786.396	592
788.796	580.444
791.195	581.333
793.595	587.778
795.992	591.778
798.389	586.889
800.786	584.445
803.181	586
805.576	588.222
807.969	584.889
810.363	582.444
812.755	588
815.147	573.778
817.537	579.778
819.927	566
822.318	572.667
824.706	568.889
827.093	578.222
829.48	564.889
831.866	560.444
834.251	566.667
836.636	568.667
839.021	567.778
841.404	566.667
843.786	573.778
846.167	580.667
848.548	573.333
850.928	560
853.307	562.222
855.685	572.222
858.063	566
860.44	565.111
862.816	572.667
865.192	565.778
867.566	571.111
869.94	567.333
872.313	571.111
874.685	573.333
877.057	571.778
879.428	570.889
881.798	572
884.167	579.556
886.536	575.111
888.902	570.444
891.269	567.778
893.636	574.444
896.001	579.778
898.366	573.556
900.73	572.222
903.094	574.889
905.455	575.111
907.817	568.222
910.178	559.778
912.538	557.111
914.898	571.333
917.255	566.444
919.613	557.333
921.971	565.111
924.327	561.333
926.682	553.556
929.037	555.556
931.391	551.111
933.744	566.889
936.096	557.778
938.449	559.778
940.799	568.667
943.149	559.333
945.499	564.444
947.847	560.889
950.195	564.444
952.542	563.556
954.889	559.556
957.235	565.778
959.579	564.222
961.924	569.111
964.266	555.333
966.609	564.667
968.951	567.333
971.292	576
973.632	568.222
975.972	569.778
978.31	569.556
980.649	564.444
982.986	557.556
985.323	565.555
987.659	567.111
989.994	558.444
992.328	566.889
994.662	576.889
996.995	556.667
999.326	576.222
1001.66	564.444
1003.99	572.889
1006.32	563.333
1008.65	561.556
1010.98	581.556
1013.3	570.222
1015.63	577.333
1017.96	573.111
1020.28	560.667
1022.61	571.778
1024.93	582.667
1027.25	572.444
1029.58	566.667
1031.9	579.778
1034.22	571.778
1036.54	575.778
1038.86	575.556
1041.18	575.778
1043.49	577.333
1045.81	581.778
1048.13	592
1050.44	594.667
1052.76	600.667
1055.07	604
1057.39	608.667
1059.7	621.778
1062.01	638.444
1064.32	662.444
1066.63	698.222
1068.94	772
1071.25	839.555
1073.56	924
1075.87	985.333
1078.17	1006.22
1080.48	976.444
1082.79	881.111
1085.09	798.667
1087.39	723.778
1089.7	697.556
1092	670.444
1094.3	665.778
1096.6	674.444
1098.9	659.778
1101.2	629.556
1103.5	621.111
1105.8	602.444
1108.1	599.778
1110.39	613.111
1112.69	595.111
1114.98	603.778
1117.28	612.889
1119.57	604
1121.86	605.556
1124.16	610.667
1126.45	598.222
1128.74	597.333
1131.03	594
1133.32	595.556
1135.61	583.333
1137.89	576.667
1140.18	585.556
1142.47	572.889
1144.75	576.889
1147.04	579.778
1149.32	572
1151.61	577.556
1153.89	582.445
1156.17	572
1158.45	567.111
1160.73	578.667
1163.01	573.778
1165.29	564.222
1167.57	576.222
1169.85	579.778
1172.12	587.778
1174.4	594.889
1176.68	612.222
1178.95	614.444
1181.22	612.667
1183.5	605.556
1185.77	601.333
1188.04	573.778
1190.31	567.333
1192.58	561.556
1194.85	554
1197.12	554.444
1199.39	550.889
1201.66	554.222
1203.92	537.778
1206.19	548
1208.45	554.889
1210.72	559.111
1212.98	561.556
1215.25	561.778
1217.51	552.667
1219.77	553.778
1222.03	555.778
1224.29	565.556
1226.55	560.667
1228.81	570
1231.07	572.889
1233.33	562.222
1235.58	565.111
1237.84	568
1240.09	556.222
1242.35	579.556
1244.6	556.444
1246.86	570.889
1249.11	568.667
1251.36	574.444
1253.61	570.222
1255.86	566
1258.11	569.111
1260.36	558.445
1262.61	572.444
1264.86	582.889
1267.1	569.556
1269.35	576
1271.6	571.111
1273.84	581.778
1276.08	591.778
1278.33	576.222
1280.57	581.556
1282.81	575.556
1285.05	593.778
1287.29	578.444
1289.53	575.778
1291.77	569.333
1294.01	588.444
1296.25	574.444
1298.48	570.444
1300.72	573.111
1302.96	568
1305.19	562.667
1307.42	574.444
1309.66	574.444
1311.89	566.667
1314.12	563.778
1316.35	564.444
1318.58	559.778
1320.81	572.667
1323.04	567.778
1325.27	570
1327.5	575.778
1329.73	567.556
1331.95	564.222
1334.18	561.556
1336.4	565.556
1338.63	564.889
1340.85	552.667
1343.08	565.333
1345.3	574
1347.52	555.111
1349.74	563.333
1351.96	541.778
1354.18	558
1356.4	559.333
1358.61	564.889
1360.83	557.556
1363.05	547.333
1365.27	568.444
1367.48	563.333
1369.69	562.889
1371.91	565.556
1374.12	572
1376.33	571.778
1378.55	578.667
1380.76	565.556
1382.97	575.556
1385.18	574.889
1387.39	568.222
1389.59	565.556
1391.8	557.556
1394.01	572.445
1396.21	560.222
1398.42	553.778
1400.63	558.444
1402.83	550.444
1405.03	560
1407.24	556.444
1409.44	561.778
1411.64	546
1413.84	564.889
1416.04	544
1418.24	548.667
1420.44	542.222
1422.64	536.667
1424.83	548.667
1427.03	551.333
1429.23	543.778
1431.42	542.667
1433.62	547.333
1435.81	527.556
1438	538.667
1440.19	541.111
1442.39	530.444
1444.58	528
1446.77	535.778
1448.96	548.445
1451.15	536.222
1453.34	532.445
1455.52	528.667
1457.71	539.111
1459.9	539.333
1462.08	528.444
1464.27	540.222
1466.45	548.667
1468.64	535.111
1470.82	530.889
1473	540.222
1475.18	548
1477.36	562.667
1479.54	554.667
1481.72	564.667
1483.9	561.333
1486.08	547.778
1488.26	537.111
1490.43	536.222
1492.61	533.111
1494.78	514.222
1496.96	516.222
1499.13	506.889
1501.31	514
1503.48	520.444
1505.65	516.889
1507.82	522.222
1509.99	520
1512.16	515.556
1514.33	525.556
1516.5	518.222
1518.67	515.333
1520.84	520
1523	524.222
1525.17	516.667
1527.34	520.222
1529.5	524.444
1531.66	529.778
1533.83	524
1535.99	528.444
1538.15	529.556
1540.31	522.667
1542.47	526.667
1544.63	517.556
1546.79	530.667
1548.95	528.667
1551.11	530.667
1553.27	529.778
1555.42	528.222
1557.58	532.667
1559.73	537.556
1561.89	539.778
1564.04	526.667
1566.2	541.333
1568.35	541.778
1570.5	554.889
1572.65	570.222
1574.8	586.222
1576.95	610.444
1579.1	658.444
1581.25	728.889
1583.4	803.111
1585.55	922.444
1587.69	1017.56
1589.84	1064.67
1591.99	1045.78
1594.13	934.444
1596.27	801.556
1598.42	709.778
1600.56	638.889
1602.7	611.111
1604.84	602.889
1606.98	580.889
1609.12	579.333
1611.26	573.778
1613.4	560.889
1615.54	554.222
1617.68	550.444
1619.81	554.445
1621.95	536.222
1624.08	547.333
1626.22	558.222
1628.35	539.778
1630.49	543.111
1632.62	535.333
1634.75	535.556
1636.88	530.667
1639.01	530.444
1641.14	529.556
1643.27	535.556
1645.4	531.111
1647.53	532.889
1649.66	540.667
1651.79	540
1653.91	538
1656.04	539.778
1658.16	528.444
1660.29	524.445
1662.41	533.556
1664.53	536.222
1666.66	541.778
1668.78	526
1670.9	531.556
1673.02	537.556
1675.14	532.667
1677.26	533.778
1679.38	531.111
1681.49	532
1683.61	532.222
1685.73	541.111
1687.84	535.778
1689.96	532.667
1692.07	531.778
1694.19	537.333
1696.3	539.778
1698.41	531.556
1700.52	530.889
1702.64	527.333
1704.75	534.889
1706.86	529.111
1708.97	535.111
1711.07	526.889
1713.18	532.222
1715.29	512.445
1717.4	517.778
1719.5	511.778
1721.61	521.556
1723.71	512.889
1725.82	509.111
1727.92	498
1730.02	487.111
1732.12	492.444
1734.23	488.889
1736.33	487.778
1738.43	480.667
1740.53	478.222
1742.63	477.111
1744.72	473.556
1746.82	476.444
1748.92	477.556
1751.02	477.778
1753.11	463.333
1755.21	464.889
1757.3	463.333
1759.4	463.556
1761.49	464.222
1763.58	460.222
1765.67	457.111
1767.76	472
1769.86	456.444
1771.95	454.444
1774.03	465.333
1776.12	463.333
1778.21	459.111
1780.3	463.111
1782.39	466
1784.47	462
1786.56	459.778
1788.64	451.333
1790.73	461.333
1792.81	460.222
1794.89	454.444
1796.98	452
1799.06	461.778
1801.14	465.333
1803.22	450.667
1805.3	451.778
1807.38	444.444
1809.46	448.444
1811.54	452.444
1813.61	448.889
1815.69	456.667
1817.77	454.444
1819.84	458
1821.92	450.222
1823.99	450.444
1826.06	444.222
1828.14	449.111
1830.21	456.222
1832.28	442
1834.35	448.667
1836.42	444.667
1838.49	440.222
1840.56	440
1842.63	444.667
1844.7	438
1846.77	449.778
1848.83	442.444
1850.9	447.778
1852.96	437.556
1855.03	431.111
1857.09	447.333
1859.15	433.556
1861.22	436.667
1863.28	436.667
1865.34	434.222
1867.4	433.333
1869.46	439.556
1871.52	423.556
1873.58	428.444
1875.64	436.444
1877.7	439.333
1879.76	434.222
1881.81	430.667
1883.87	437.333
1885.92	429.778
1887.98	429.778
1890.03	428.667
1892.09	435.111
1894.14	437.111
1896.19	433.333
1898.24	435.556
1900.29	420.667
1902.34	437.111
1904.4	430
1906.44	423.333
1908.49	428.667
1910.54	426.222
1912.59	433.556
1914.63	432.444
1916.68	435.111
1918.73	425.778
1920.77	423.556
1922.81	427.778
1924.86	430.667
1926.9	421.333
1928.94	430
1930.99	412.889
1933.03	425.778
1935.07	418
1937.11	415.556
1939.15	418.222
1941.19	420
1943.22	419.556
1945.26	409.556
1947.3	419.111
1949.33	420
1951.37	410.222
1953.4	416.222
1955.44	415.333
1957.47	408.667
1959.51	416.222
1961.54	414.222
1963.57	407.556
1965.6	420.889
1967.63	406.222
1969.66	408.889
1971.69	412
1973.72	404.889
1975.75	398.222
1977.78	411.556
1979.8	407.778
1981.83	398.222
1983.86	402.889
1985.88	403.333
1987.91	403.111
1989.93	408
1991.95	406.222
1993.98	404.667
1996	394.667
1998.02	403.111
2000.04	407.111
2002.06	402.222
2004.08	401.333
2006.1	396.222
2008.12	399.333
2010.14	391.556
2012.15	398.444
2014.17	403.333
2016.19	405.778
2018.2	400.889
2020.22	407.111
2022.23	398.889
2024.25	395.778
2026.26	401.556
2028.27	396.667
2030.28	401.111
2032.29	398.889
2034.3	408.444
2036.32	400.222
2038.32	404
2040.33	395.556
2042.34	378.444
2044.35	396.222
2046.36	398.667
2048.36	387.333
2050.37	401.556
2052.37	393.111
2054.38	392
2056.38	392.889
2058.39	392.444
2060.39	398.444
2062.39	390.444
2064.39	390.667
2066.39	387.556
2068.39	386.889
2070.39	381.111
2072.39	388.222
2074.39	380.667
2076.39	389.778
2078.39	378.889
2080.39	387.778
2082.38	379.556
2084.38	379.333
2086.37	378.444
2088.37	373.111
2090.36	375.111
2092.35	377.111
2094.35	381.333
2096.34	384.889
2098.33	385.778
2100.32	378.444
2102.31	382.222
2104.3	378.444
2106.29	372.667
2108.28	378.222
2110.27	371.778
2112.25	374.444
2114.24	381.556
2116.23	372.667
2118.21	372.667
2120.2	379.111
2122.18	378
2124.17	380.889
2126.15	378.222
2128.13	376.667
2130.11	372.889
2132.09	360.444
2134.08	364.222
2136.06	371.111
2138.04	376
2140.02	366.889
2141.99	368.444
2143.97	370.667
2145.95	363.778
2147.93	369.778
2149.9	369.111
2151.88	365.778
2153.85	362.222
2155.83	365.778
2157.8	366.667
2159.77	359.111
2161.75	371.556
2163.72	360.889
2165.69	357.778
2167.66	356.222
2169.63	358.889
2171.6	359.333
2173.57	352.444
2175.54	355.111
2177.51	356.889
2179.47	355.778
2181.44	345.778
2183.41	349.111
2185.37	351.333
2187.34	340
2189.3	347.778
2191.27	350
2193.23	350
2195.19	348.444
2197.15	355.333
2199.11	342.444
2201.08	348.889
2203.04	352.444
2205	342.667
2206.96	340.667
2208.91	345.333
2210.87	343.333
2212.83	350
2214.79	340.444
2216.74	348
2218.7	337.778
2220.65	339.333
2222.61	348
2224.56	345.111
2226.52	341.556
2228.47	342.667
2230.42	345.333
2232.37	343.778
2234.32	336.667
2236.27	340.444
2238.22	333.556
2240.17	344.889
2242.12	344.444
2244.07	333.556
2246.02	337.111
2247.97	328.667
2249.91	336.889
2251.86	330.222
2253.8	336.222
2255.75	334.222
2257.69	333.556
2259.64	329.556
2261.58	336.222
2263.52	333.111
2265.46	329.778
2267.4	333.111
2269.35	322.889
2271.29	331.111
2273.23	333.556
2275.16	321.778
2277.1	328
2279.04	327.556
2280.98	318
2282.92	322.222
2284.85	318
2286.79	324.444
2288.72	332.667
2290.66	325.111
2292.59	324.222
2294.52	315.556
2296.46	317.556
2298.39	324.667
2300.32	326.222
2302.25	317.778
2304.18	322.222
2306.11	319.556
2308.04	311.333
2309.97	313.333
2311.9	320.222
2313.83	317.778
2315.75	319.556
2317.68	320.222
2319.61	315.333
2321.53	314.222
2323.46	315.111
2325.38	308.222
2327.3	311.111
2329.23	313.556
2331.15	310.889
2333.07	312.444
2334.99	308.889
2336.91	308.444
2338.83	305.778
2340.75	303.111
2342.67	306.444
2344.59	300.444
2346.51	310.222
2348.43	305.556
2350.35	311.333
2352.26	306.222
2354.18	306.444
2356.09	309.111
2358.01	304
2359.92	305.778
2361.83	299.556
2363.75	299.556
2365.66	306.889
2367.57	306.444
2369.48	308
2371.39	298.667
2373.31	300.222
2375.21	294
2377.12	292.444
2379.03	296.889
2380.94	301.778
2382.85	298.444
2384.76	299.111
2386.66	290.444
2388.57	296.444
2390.47	299.333
2392.38	300.889
2394.28	297.333
2396.18	287.556
2398.09	296
2399.99	293.778
2401.89	286.889
2403.79	286.222
2405.69	288.444
2407.59	287.556
2409.49	291.333
2411.39	292.222
2413.29	290.222
2415.19	287.333
2417.09	288.222
2418.98	287.556
2420.88	290.222
2422.78	288.444
2424.67	283.778
2426.57	290.222
2428.46	283.333
2430.35	285.333
2432.25	288
2434.14	286.222
2436.03	288.889
2437.92	282.222
2439.81	291.111
2441.7	285.556
2443.59	285.556
2445.48	281.556
2447.37	293.333
2449.26	284.667
2451.15	289.333
2453.03	276
