186.85	546
189.449	540.222
192.047	547.556
194.645	549.111
197.241	540
199.837	547.778
202.431	547.556
205.025	554.222
207.619	556.889
210.21	537.778
212.802	543.111
215.392	543.556
217.982	552.889
220.57	556.222
223.158	543.333
225.744	548.222
228.331	546
230.915	551.333
233.5	547.778
236.083	547.556
238.666	556.889
241.247	561.778
243.827	557.778
246.408	570.444
248.986	562.889
251.565	561.556
254.142	566.222
256.719	570
259.294	569.778
261.868	572.222
264.443	568.222
267.015	574
269.587	564.222
272.159	567.555
274.729	570.667
277.298	576
279.867	571.556
282.435	567.556
285.001	586.667
287.568	583.778
290.133	598.222
292.697	604.444
295.26	615.333
297.824	601.111
300.385	600.222
302.945	613.111
305.505	610
308.064	618.444
310.623	610.667
313.18	606.222
315.737	606.444
318.292	602.889
320.847	616
323.402	632
325.955	636
328.507	638
331.058	645.111
333.609	655.111
336.158	640
338.707	651.778
341.255	644.889
343.802	646.667
346.349	658.667
348.895	654.222
351.439	653.333
353.983	653.556
356.526	646.667
359.068	643.556
361.609	639.111
364.149	634.222
366.689	640.444
369.227	628.444
371.765	638.222
374.302	649.778
376.838	644.889
379.374	659.556
381.908	657.778
384.442	650.889
386.973	633.556
389.505	626.444
392.036	614.444
394.567	620.667
397.096	633.778
399.625	626.889
402.153	634.222
404.68	634.889
407.206	635.556
409.73	637.778
412.254	635.111
414.778	629.333
417.301	637.333
419.823	616.889
422.343	628.222
424.863	641.333
427.383	632.889
429.901	642.444
432.418	639.556
434.935	645.333
437.451	659.333
439.966	649.111
442.48	639.111
444.993	647.333
447.506	653.111
450.019	647.111
452.528	653.333
455.039	649.778
457.549	647.333
460.056	642.667
462.564	661.111
465.07	652.889
467.576	642.222
470.082	638.445
472.585	643.111
475.089	645.556
477.591	660.667
480.093	654.889
482.595	653.111
485.094	657.333
487.594	652.444
490.091	652.889
492.59	649.111
495.086	670
497.582	666.889
500.076	665.111
502.571	683.333
505.064	686
507.558	688.222
510.049	704.222
512.54	706.889
515.03	717.111
517.518	734.222
520.008	743.111
522.495	742.222
524.983	749.778
527.468	729.556
529.954	711.778
532.438	715.333
534.921	696.444
537.404	688.889
539.886	683.333
542.366	682.444
544.848	678.444
547.327	657.111
549.805	675.111
552.284	663.556
554.76	660.445
557.236	662
559.711	655.556
562.186	656.667
564.66	653.778
567.132	659.333
569.604	651.111
572.076	656.889
574.547	664.222
577.016	660.444
579.484	650.222
581.952	649.556
584.419	656.889
586.887	652.889
589.352	650.222
591.816	653.111
594.28	648.889
596.743	653.333
599.205	650.667
601.667	654.444
604.127	644
606.588	657.333
609.047	644.889
611.505	654.889
613.963	658.667
616.419	659.778
618.875	661.111
621.33	669.333
623.784	665.778
626.238	654.667
628.69	666.889
631.142	673.333
633.593	661.111
636.043	671.111
638.493	662.444
640.941	669.778
643.389	663.556
645.835	671.778
648.281	665.778
650.727	668
653.171	654.222
655.615	657.556
658.058	660.667
660.501	670
662.942	663.556
665.382	671.111
667.822	664
670.261	660.889
672.699	669.778
675.137	665.333
677.574	671.778
680.008	660.889
682.443	665.556
684.878	689.556
687.312	696
689.743	702.444
692.175	715.111
694.607	707.333
697.037	709.778
699.466	708
701.895	693.556
704.323	688.222
706.749	681.333
709.175	679.778
711.601	682.444
714.025	667.111
716.449	674.889
718.871	674.889
721.294	677.111
723.716	665.778
726.136	664
728.556	668.667
730.975	654.222
733.394	669.333
735.812	664.222
738.228	674.444
740.644	660
743.058	662
745.473	656.444
747.886	660
750.3	662
752.711	658
755.123	656.222
757.533	666.889
759.942	669.556
762.351	658.889
764.759	682
767.167	666.222
769.573	667.778
771.979	670.222
774.383	657.778
776.787	670.889
779.191	670.667
781.593	675.778
783.994	669.556
786.396	680.889
788.796	684.444
791.195	683.778
793.595	684.222
795.992	703.111
798.389	698.667
800.786	694.222
803.181	684.667
805.576	694.222
807.969	685.556
810.363	681.778
812.755	675.333
815.147	681.111
817.537	671.778
819.927	676.222
822.318	669.111
824.706	676
827.093	666.222
829.48	672.667
831.866	673.556
834.251	677.556
836.636	659.333
839.021	662.889
841.404	674.889
843.786	670.222
846.167	671.555
848.548	667.111
850.928	672.889
853.307	675.556
855.685	663.333
858.063	668.667
860.44	662.889
862.816	669.333
865.192	667.556
867.566	666.889
869.94	668.444
872.313	665.778
874.685	662.444
877.057	661.556
879.428	662.889
881.798	665.111
884.167	663.556
886.536	668.667
888.902	678.444
891.269	665.556
893.636	677.556
896.001	670.889
898.366	662.889
900.73	659.556
903.094	672.667
905.455	675.778
907.817	646
910.178	663.556
912.538	660.889
914.898	655.556
917.255	650.444
919.613	648.222
921.971	654.889
924.327	662.444
926.682	654.222
929.037	651.111
931.391	652.444
933.744	653.556
936.096	664.222
938.449	661.778
940.799	649.556
943.149	662.667
945.499	647.333
947.847	646.444
950.195	660.444
952.542	654
954.889	648
957.235	665.778
959.579	658.222
961.924	665.778
964.266	670.444
966.609	669.111
968.951	660.667
971.292	661.556
973.632	670.222
975.972	666.667
978.31	670.444
980.649	667.333
982.986	668
985.323	656.889
987.659	666.222
989.994	665.778
992.328	656
994.662	676
996.995	667.556
999.326	673.111
1001.66	684.667
1003.99	657.333
1006.32	669.778
1008.65	673.333
1010.98	686.667
1013.3	686.444
1015.63	704.667
1017.96	690.222
1020.28	690.222
1022.61	673.556
1024.93	672
1027.25	683.111
1029.58	676
1031.9	672.667
1034.22	697.556
1036.54	693.778
1038.86	689.333
1041.18	683.333
1043.49	693.111
1045.81	694.667
1048.13	706.667
1050.44	706.889
1052.76	722
1055.07	732.889
1057.39	746
1059.7	770.889
1062.01	788.889
1064.32	831.333
1066.63	894
1068.94	998
1071.25	1096.22
1073.56	1238.44
1075.87	1309.11
1078.17	1368.89
1080.48	1302
1082.79	1198.89
1085.09	1052.22
1087.39	944.222
1089.7	854.444
1092	828.222
1094.3	788.444
1096.6	778.667
1098.9	789.111
1101.2	757.333
1103.5	738.222
1105.8	721.778
1108.1	720.444
1110.39	714.444
1112.69	717.333
1114.98	728.444
1117.28	725.333
1119.57	714.889
1121.86	725.111
1124.16	725.778
1126.45	712.889
1128.74	715.111
1131.03	703.556
1133.32	703.111
1135.61	689.556
1137.89	693.556
1140.18	680.444
1142.47	678.667
1144.75	685.778
1147.04	691.333
1149.32	696.667
1151.61	691.778
1153.89	705.111
1156.17	687.778
1158.45	694.889
1160.73	689.333
1163.01	686
1165.29	692.667
1167.57	704.444
1169.85	718
1172.12	721.556
1174.4	730.667
1176.68	736.667
1178.95	755.111
1181.22	754.444
1183.5	750.667
1185.77	726
1188.04	693.556
1190.31	683.111
1192.58	670.444
1194.85	658.667
1197.12	658
1199.39	644.889
1201.66	652.667
1203.92	666.667
1206.19	657.333
1208.45	672.222
1210.72	666.222
1212.98	658.444
1215.25	655.111
1217.51	663.555
1219.77	686
1222.03	656
1224.29	663.333
1226.55	681.556
1228.81	685.556
1231.07	677.778
1233.33	677.111
1235.58	671.333
1237.84	684.889
1240.09	688
1242.35	693.333
1244.6	682.889
1246.86	694
1249.11	698.444
1251.36	688.889
1253.61	686
1255.86	701.778
1258.11	695.333
1260.36	701.778
1262.61	710.222
1264.86	709.111
1267.1	708.444
1269.35	700.222
1271.6	707.111
1273.84	704.667
1276.08	709.333
1278.33	708.667
1280.57	696.222
1282.81	701.111
1285.05	701.111
1287.29	692
1289.53	704.222
1291.77	713.333
1294.01	696.222
1296.25	690.444
1298.48	681.333
1300.72	682.889
1302.96	691.333
1305.19	690.667
1307.42	678
1309.66	684.444
1311.89	693.333
1314.12	694.667
1316.35	691.778
1318.58	688.667
1320.81	693.111
1323.04	697.111
1325.27	686.222
1327.5	672.889
1329.73	672.889
1331.95	675.333
1334.18	686.667
1336.4	686.444
1338.63	680.444
1340.85	671.111
1343.08	682.445
1345.3	675.778
1347.52	678.445
1349.74	678
1351.96	667.778
1354.18	675.111
1356.4	658.222
1358.61	668.222
1360.83	685.556
1363.05	668.889
1365.27	687.556
1367.48	689.333
1369.69	689.778
1371.91	694
1374.12	697.555
1376.33	705.333
1378.55	697.556
1380.76	704.222
1382.97	697.333
1385.18	694.444
1387.39	680.222
1389.59	677.778
1391.8	672.667
1394.01	680.222
1396.21	680.222
1398.42	688.667
1400.63	669.778
1402.83	672.889
1405.03	674.889
1407.24	675.111
1409.44	668.667
1411.64	662.444
1413.84	657.333
1416.04	662.667
1418.24	677.778
1420.44	666.444
1422.64	660.667
1424.83	651.111
1427.03	656.667
1429.23	649.556
1431.42	642.667
1433.62	646.444
1435.81	631.778
1438	647.778
1440.19	637.556
1442.39	639.556
1444.58	661.333
1446.77	645.778
1448.96	650.444
1451.15	641.111
1453.34	636.444
1455.52	641.778
1457.71	637.111
1459.9	650.667
1462.08	659.556
1464.27	664.889
1466.45	651.333
1468.64	646.222
1470.82	645.111
1473	659.556
1475.18	664.222
1477.36	668.444
1479.54	672
1481.72	690
1483.9	694.222
1486.08	673.333
1488.26	658
1490.43	642.889
1492.61	631.556
1494.78	628
1496.96	632.222
1499.13	636.222
1501.31	636.222
1503.48	623.333
1505.65	622.444
1507.82	624.889
1509.99	629.556
1512.16	632.889
1514.33	623.111
1516.5	632.445
1518.67	626.889
1520.84	625.778
1523	628.667
1525.17	625.556
1527.34	626.889
1529.5	633.556
1531.66	626.889
1533.83	626
1535.99	634.222
1538.15	643.556
1540.31	629.556
1542.47	639.333
1544.63	634.222
1546.79	629.333
1548.95	656.222
1551.11	634.889
1553.27	642.889
1555.42	650.444
1557.58	658.889
1559.73	660
1561.89	667.111
1564.04	658.444
1566.2	658.444
1568.35	666.889
1570.5	695.111
1572.65	719.778
1574.8	744.667
1576.95	774.667
1579.1	856
1581.25	939.111
1583.4	1087.33
1585.55	1227.33
1587.69	1383.33
1589.84	1460.44
1591.99	1437.33
1594.13	1254.89
1596.27	1072.44
1598.42	935.555
1600.56	837.111
1602.7	780.444
1604.84	758.444
1606.98	738.444
1609.12	715.333
1611.26	700.222
1613.4	703.333
1615.54	692.889
1617.68	682
1619.81	668.889
1621.95	675.111
1624.08	675.111
1626.22	672
1628.35	662.889
1630.49	652
1632.62	655.111
1634.75	661.778
1636.88	669.778
1639.01	649.778
1641.14	652.889
1643.27	658.444
1645.4	645.111
1647.53	656.889
1649.66	646.444
1651.79	660.222
1653.91	638.667
1656.04	653.556
1658.16	643.333
1660.29	654
1662.41	643.556
1664.53	643.111
1666.66	643.778
1668.78	646.889
1670.9	644.222
1673.02	647.333
1675.14	646.222
1677.26	654.889
1679.38	641.111
1681.49	652.222
1683.61	644.889
1685.73	649.333
1687.84	648.889
1689.96	656
1692.07	653.556
1694.19	653.556
1696.3	644
1698.41	652.222
1700.52	646.444
1702.64	645.111
1704.75	647.333
1706.86	647.556
1708.97	639.111
1711.07	635.333
1713.18	640.889
1715.29	629.556
1717.4	624
1719.5	633.778
1721.61	609.556
1723.71	629.556
1725.82	602.889
1727.92	618.444
1730.02	603.333
1732.12	594.222
1734.23	587.111
1736.33	586.889
1738.43	578.444
1740.53	569.778
1742.63	553.778
1744.72	559.778
1746.82	558.222
1748.92	562
1751.02	561.333
1753.11	549.111
1755.21	537.111
1757.3	547.333
1759.4	551.778
1761.49	540.444
1763.58	552.667
1765.67	556.222
1767.76	536.667
1769.86	549.778
1771.95	545.111
1774.03	557.556
1776.12	544
1778.21	545.333
1780.3	548.444
1782.39	546.667
1784.47	548.444
1786.56	541.333
1788.64	537.778
1790.73	540.889
1792.81	540.667
1794.89	543.111
1796.98	546.889
1799.06	548.889
1801.14	542
1803.22	525.111
1805.3	538.667
1807.38	543.111
1809.46	527.333
1811.54	535.556
1813.61	538.444
1815.69	540
1817.77	536.667
1819.84	544.667
1821.92	542.889
1823.99	523.778
1826.06	532.889
1828.14	535.333
1830.21	525.111
1832.28	530
1834.35	529.333
1836.42	521.111
1838.49	527.111
1840.56	526.444
1842.63	522
1844.7	532.445
1846.77	512.444
1848.83	532.444
1850.9	523.555
1852.96	519.778
1855.03	521.778
1857.09	516.444
1859.15	521.333
1861.22	526.222
1863.28	512.444
1865.34	522.222
1867.4	512.444
1869.46	524.889
1871.52	514.444
1873.58	511.778
1875.64	522.667
1877.7	510.889
1879.76	515.333
1881.81	523.111
1883.87	508.444
1885.92	509.556
1887.98	517.111
1890.03	507.556
1892.09	505.556
1894.14	505.556
1896.19	500
1898.24	511.556
1900.29	503.333
1902.34	510.889
1904.4	521.111
1906.44	514
1908.49	509.111
1910.54	508
1912.59	496.667
1914.63	507.556
1916.68	513.111
1918.73	503.778
1920.77	514
1922.81	508.667
1924.86	497.333
1926.9	510.222
1928.94	500.889
1930.99	491.333
1933.03	500
1935.07	495.556
1937.11	509.111
1939.15	489.333
1941.19	484.222
1943.22	498.444
1945.26	490.444
1947.3	488.889
1949.33	495.556
1951.37	498.222
1953.4	486.444
1955.44	492
1957.47	489.556
1959.51	486.667
1961.54	490.222
1963.57	484.889
1965.6	483.778
1967.63	479.333
1969.66	492.889
1971.69	478
1973.72	483.778
1975.75	476.222
1977.78	475.556
1979.8	471.556
1981.83	474.889
1983.86	473.111
1985.88	480.667
1987.91	480.667
1989.93	477.111
1991.95	483.111
1993.98	466.444
1996	474.667
1998.02	479.111
2000.04	475.111
2002.06	481.778
2004.08	476.222
2006.1	483.333
2008.12	485.556
2010.14	474.667
2012.15	473.111
2014.17	472
2016.19	467.333
2018.2	476.444
2020.22	478
2022.23	474.889
2024.25	470.444
2026.26	474.444
2028.27	464
2030.28	467.778
2032.29	474
2034.3	472.889
2036.32	477.111
2038.32	478.667
2040.33	466.667
2042.34	465.556
2044.35	465.556
2046.36	463.556
2048.36	468
2050.37	454.222
2052.37	480.444
2054.38	476.444
2056.38	459.111
2058.39	457.111
2060.39	464
2062.39	463.556
2064.39	456.667
2066.39	465.111
2068.39	463.111
2070.39	454.222
2072.39	456
2074.39	462
2076.39	452.889
2078.39	459.333
2080.39	455.111
2082.38	449.778
2084.38	450
2086.37	446.889
2088.37	451.333
2090.36	456.889
2092.35	440.444
2094.35	452.889
2096.34	456.444
2098.33	456.444
2100.32	444.667
2102.31	458
2104.3	448
2106.29	446.889
2108.28	452
2110.27	453.778
2112.25	452.667
2114.24	440.889
2116.23	452.222
2118.21	453.778
2120.2	442
2122.18	452.222
2124.17	447.778
2126.15	453.111
2128.13	454.222
2130.11	451.556
2132.09	447.556
2134.08	442.889
2136.06	451.111
2138.04	436.889
2140.02	450.444
2141.99	444.222
2143.97	441.778
2145.95	437.556
2147.93	441.333
2149.9	442
2151.88	441.333
2153.85	437.111
2155.83	440.222
2157.8	422.222
2159.77	436.444
2161.75	428.222
2163.72	441.111
2165.69	426.444
2167.66	432.889
2169.63	430.444
2171.6	434.444
2173.57	422.889
2175.54	418.444
2177.51	427.111
2179.47	423.556
2181.44	428.889
2183.41	420.444
2185.37	414
2187.34	425.333
2189.3	420.444
2191.27	412.444
2193.23	410.444
2195.19	414.444
2197.15	416.889
2199.11	411.556
2201.08	419.778
2203.04	414.444
2205	403.778
2206.96	418
2208.91	421.111
2210.87	408
2212.83	410.889
2214.79	397.111
2216.74	400
2218.7	405.111
2220.65	413.111
2222.61	408.444
2224.56	404.222
2226.52	407.556
2228.47	404.667
2230.42	403.778
2232.37	404.222
2234.32	401.111
2236.27	401.778
2238.22	412.222
2240.17	401.556
2242.12	406.667
2244.07	399.778
2246.02	397.556
2247.97	396.889
2249.91	397.333
2251.86	398.444
2253.8	405.111
2255.75	397.778
2257.69	397.556
2259.64	396.889
2261.58	388.667
2263.52	399.556
2265.46	388.667
2267.4	392.889
2269.35	390.444
2271.29	395.556
2273.23	393.333
2275.16	388.444
2277.1	392.444
2279.04	394.222
2280.98	396.667
2282.92	392.222
2284.85	392.667
2286.79	380.889
2288.72	380
2290.66	378
2292.59	387.556
2294.52	386.444
2296.46	383.778
2298.39	379.778
2300.32	385.778
2302.25	384.889
2304.18	384.222
2306.11	377.556
2308.04	375.111
2309.97	380.444
2311.9	379.778
2313.83	382
2315.75	378
2317.68	378.444
2319.61	374.667
2321.53	380.444
2323.46	379.778
2325.38	372.444
2327.3	376.444
2329.23	378
2331.15	372.222
2333.07	371.778
2334.99	371.556
2336.91	383.778
2338.83	361.778
2340.75	365.111
2342.67	376.444
2344.59	372
2346.51	374.222
2348.43	361.778
2350.35	369.111
2352.26	363.556
2354.18	366.667
2356.09	368.222
2358.01	358.444
2359.92	367.111
2361.83	362
2363.75	365.556
2365.66	360.222
2367.57	355.778
2369.48	357.111
2371.39	363.333
2373.31	358.444
2375.21	353.556
2377.12	363.111
2379.03	354.667
2380.94	360.889
2382.85	349.333
2384.76	355.778
2386.66	358.444
2388.57	354.222
2390.47	346.667
2392.38	354.667
2394.28	353.778
2396.18	356
2398.09	347.778
2399.99	340.444
2401.89	351.778
2403.79	348.444
2405.69	345.333
2407.59	355.111
2409.49	355.333
2411.39	350.889
2413.29	352.222
2415.19	341.778
2417.09	340.444
2418.98	344.889
2420.88	347.333
2422.78	350.444
2424.67	346.889
2426.57	336
2428.46	336.667
2430.35	346.889
2432.25	340
2434.14	343.333
2436.03	337.111
2437.92	341.778
2439.81	345.111
2441.7	343.333
2443.59	340.889
2445.48	339.333
2447.37	346.444
2449.26	339.778
2451.15	333.333
2453.03	336.444
