186.85	704
189.449	678.889
192.047	699.556
194.645	708.889
197.241	704
199.837	706
202.431	696
205.025	702.889
207.619	703.778
210.21	698.222
212.802	699.555
215.392	715.111
217.982	710.444
220.57	706
223.158	712.444
225.744	710.222
228.331	719.333
230.915	716.222
233.5	715.556
236.083	716.889
238.666	724.889
241.247	726.444
243.827	726
246.408	739.333
248.986	740
251.565	730
254.142	730.444
256.719	738.444
259.294	746
261.868	733.555
264.443	743.333
267.015	745.778
269.587	743.555
272.159	740
274.729	746.444
277.298	750.222
279.867	767.555
282.435	751.556
285.001	749.333
287.568	761.111
290.133	762.667
292.697	781.111
295.26	774
297.824	778.222
300.385	788.222
302.945	774.445
305.505	792
308.064	787.333
310.623	788.444
313.18	783.333
315.737	790.222
318.292	796.222
320.847	797.778
323.402	805.778
325.955	812.222
328.507	810.444
331.058	834.222
333.609	827.556
336.158	838.222
338.707	842.444
341.255	836
343.802	831.778
346.349	843.556
348.895	839.556
351.439	832.444
353.983	836
356.526	836
359.068	837.778
361.609	811.778
364.149	812.444
366.689	814
369.227	814
371.765	821.111
374.302	832.222
376.838	841.556
379.374	858
381.908	860.444
384.442	840.667
386.973	836
389.505	809.333
392.036	811.778
394.567	804
397.096	814.667
399.625	824.889
402.153	812.222
404.68	826.222
407.206	838.444
409.73	812
412.254	810.889
414.778	838
417.301	820.889
419.823	832.222
422.343	819.556
424.863	831.778
427.383	836
429.901	835.333
432.418	836
434.935	853.556
437.451	853.555
439.966	835.778
442.48	848.889
444.993	849.333
447.506	827.333
450.019	834.889
452.528	842.444
455.039	837.111
457.549	852.222
460.056	841.778
462.564	853.111
465.07	848.889
467.576	834.445
470.082	827.333
472.585	851.111
475.089	842.444
477.591	847.556
480.093	859.333
482.595	846.222
485.094	853.556
487.594	859.556
490.091	853.556
492.59	868.667
495.086	864.667
497.582	876
500.076	880.222
502.571	877.333
505.064	883.556
507.558	897.778
510.049	905.778
512.54	906.222
515.03	938
517.518	931.778
520.008	948.444
522.495	950.667
524.983	953.556
527.468	932.222
529.954	912.222
532.438	919.333
534.921	911.111
537.404	897.333
539.886	892
542.366	885.333
544.848	887.778
547.327	876.889
549.805	877.333
552.284	873.333
554.76	880.444
557.236	870.667
559.711	869.778
562.186	854.889
564.66	870
567.132	873.111
569.604	851.111
572.076	864.667
574.547	863.778
577.016	850.444
579.484	878.222
581.952	866.222
584.419	871.778
586.887	859.778
589.352	860
591.816	858.222
594.28	854.889
596.743	860
599.205	857.111
601.667	866.667
604.127	862.444
606.588	869.778
609.047	860.889
611.505	868
613.963	854.889
616.419	858.667
618.875	863.111
621.33	859.556
623.784	865.778
626.238	861.556
628.69	868.222
631.142	892
633.593	888.889
636.043	876.222
638.493	890.667
640.941	866.444
643.389	865.778
645.835	879.111
648.281	872.667
650.727	869.111
653.171	856
655.615	878.667
658.058	866.444
660.501	860.222
662.942	881.556
665.382	872.222
667.822	881.556
670.261	866
672.699	873.333
675.137	876.889
677.574	890.667
680.008	885.778
682.443	891.778
684.878	914
687.312	913.333
689.743	909.556
692.175	918.889
694.607	924
697.037	910
699.466	912.889
701.895	896.667
704.323	894.889
706.749	892
709.175	884.222
711.601	883.778
714.025	878.444
716.449	875.111
718.871	888
721.294	887.556
723.716	875.556
726.136	888.889
728.556	880.222
730.975	890.667
733.394	877.556
735.812	871.333
738.228	866.444
740.644	876
743.058	861.555
745.473	867.111
747.886	870
750.3	866
752.711	873.778
755.123	869.333
757.533	877.111
759.942	877.556
762.351	872.667
764.759	876.222
767.167	874.667
769.573	871.111
771.979	867.778
774.383	876.222
776.787	868.667
779.191	877.556
781.593	888.667
783.994	891.778
786.396	880.667
788.796	884.667
791.195	886.444
793.595	900.444
795.992	906
798.389	914.222
800.786	918.444
803.181	902.444
805.576	901.111
807.969	897.556
810.363	883.333
812.755	898.889
815.147	881.556
817.537	879.333
819.927	884.889
822.318	879.333
824.706	876.222
827.093	872.889
829.48	866.222
831.866	868.889
834.251	870
836.636	874.444
839.021	880
841.404	895.333
843.786	875.111
846.167	887.111
848.548	868.667
850.928	884.222
853.307	877.333
855.685	881.778
858.063	864.889
860.44	877.778
862.816	869.111
865.192	872.667
867.566	875.556
869.94	883.333
872.313	876.444
874.685	869.333
877.057	882.222
879.428	871.556
881.798	880.222
884.167	882.444
886.536	879.111
888.902	881.778
891.269	887.111
893.636	883.778
896.001	882.889
898.366	877.111
900.73	869.778
903.094	870.445
905.455	880.222
907.817	868.222
910.178	872.889
912.538	872
914.898	865.778
917.255	866.667
919.613	864.667
921.971	851.333
924.327	859.111
926.682	855.111
929.037	861.111
931.391	855.333
933.744	858.667
936.096	873.333
938.449	856.222
940.799	865.556
943.149	866.667
945.499	858
947.847	872
950.195	864
952.542	857.556
954.889	870.889
957.235	864
959.579	890
961.924	864.889
964.266	875.556
966.609	873.556
968.951	884.222
971.292	883.556
973.632	874.889
975.972	871.778
978.31	877.111
980.649	864.222
982.986	874.444
985.323	885.111
987.659	875.333
989.994	868.222
992.328	873.333
994.662	872
996.995	877.778
999.326	896.444
1001.66	884
1003.99	869.333
1006.32	880.889
1008.65	876.444
1010.98	879.111
1013.3	889.333
1015.63	900
1017.96	888
1020.28	860.889
1022.61	872.667
1024.93	880
1027.25	886.889
1029.58	893.111
1031.9	893.556
1034.22	880
1036.54	898.889
1038.86	893.111
1041.18	884.889
1043.49	896.667
1045.81	910.444
1048.13	908.444
1050.44	930.889
1052.76	918.667
1055.07	936
1057.39	957.778
1059.7	981.333
1062.01	1019.78
1064.32	1058.89
1066.63	1145.56
1068.94	1262.89
1071.25	1379.11
1073.56	1509.11
1075.87	1596
1078.17	1600.89
1080.48	1538.67
1082.79	1403.33
1085.09	1263.78
1087.39	1141.56
1089.7	1068
1092	1026.44
1094.3	1022
1096.6	1020.89
1098.9	993.778
1101.2	968.222
1103.5	929.333
1105.8	937.333
1108.1	924
1110.39	920.222
1112.69	917.333
1114.98	925.333
1117.28	924.667
1119.57	936.444
1121.86	931.556
1124.16	942
1126.45	945.333
1128.74	905.556
1131.03	918
1133.32	898.889
1135.61	897.111
1137.89	888.889
1140.18	890.667
1142.47	890
1144.75	890.444
1147.04	891.111
1149.32	886.667
1151.61	896.444
1153.89	900.667
1156.17	882.667
1158.45	881.333
1160.73	891.778
1163.01	891.778
1165.29	892.889
1167.57	904.667
1169.85	919.333
1172.12	928
1174.4	932.667
1176.68	946.889
1178.95	958.222
1181.22	969.556
1183.5	952
1185.77	919.111
1188.04	887.333
1190.31	868.222
1192.58	868.444
1194.85	850.667
1197.12	850
1199.39	855.778
1201.66	854
1203.92	858.889
1206.19	867.556
1208.45	857.333
1210.72	866.889
1212.98	866.667
1215.25	855.333
1217.51	862.222
1219.77	866.222
1222.03	880.222
1224.29	873.333
1226.55	870.667
1228.81	859.778
1231.07	872
1233.33	892.889
1235.58	884.667
1237.84	884.444
1240.09	882.889
1242.35	883.556
1244.6	886.222
1246.86	889.556
1249.11	892
1251.36	880.667
1253.61	880.222
1255.86	890.889
1258.11	875.778
1260.36	892.222
1262.61	888.222
1264.86	896
1267.1	901.333
1269.35	904
1271.6	898.889
1273.84	902.667
1276.08	904.444
1278.33	894.222
1280.57	910.222
1282.81	906
1285.05	914.889
1287.29	911.333
1289.53	899.111
1291.77	913.111
1294.01	902.444
1296.25	899.111
1298.48	886.222
1300.72	890.444
1302.96	901.778
1305.19	884.667
1307.42	881.778
1309.66	885.778
1311.89	871.778
1314.12	886.222
1316.35	891.778
1318.58	884.444
1320.81	869.778
1323.04	882.444
1325.27	867.556
1327.5	881.556
1329.73	880
1331.95	877.778
1334.18	888.222
1336.4	896
1338.63	880.667
1340.85	886.444
1343.08	867.556
1345.3	878.222
1347.52	854.444
1349.74	846.444
1351.96	863.556
1354.18	858
1356.4	861.778
1358.61	858.889
1360.83	849.111
1363.05	871.556
1365.27	871.778
1367.48	854.889
1369.69	875.333
1371.91	869.778
1374.12	885.333
1376.33	882
1378.55	886.444
1380.76	886.444
1382.97	884.222
1385.18	889.778
1387.39	869.333
1389.59	875.111
1391.8	860.889
1394.01	878
1396.21	875.333
1398.42	853.556
1400.63	860.222
1402.83	864.667
1405.03	855.333
1407.24	852.667
1409.44	846.667
1411.64	844.889
1413.84	850
1416.04	851.778
1418.24	839.111
1420.44	838.222
1422.64	833.333
1424.83	825.333
1427.03	847.111
1429.23	850
1431.42	834.667
1433.62	832.222
1435.81	835.333
1438	835.556
1440.19	826.667
1442.39	826.667
1444.58	827.111
1446.77	830
1448.96	824.444
1451.15	821.111
1453.34	839.556
1455.52	831.556
1457.71	833.111
1459.9	828.667
1462.08	831.556
1464.27	826.889
1466.45	815.778
1468.64	837.778
1470.82	829.111
1473	838.667
1475.18	852.889
1477.36	858.667
1479.54	875.778
1481.72	885.333
1483.9	882.222
1486.08	860.889
1488.26	842.445
1490.43	835.778
1492.61	830.222
1494.78	818.222
1496.96	813.111
1499.13	820.444
1501.31	810.444
1503.48	813.556
1505.65	826.444
1507.82	819.556
1509.99	818.667
1512.16	823.556
1514.33	805.556
1516.5	808
1518.67	812.667
1520.84	805.556
1523	811.778
1525.17	810.222
1527.34	813.556
1529.5	822.222
1531.66	814
1533.83	809.111
1535.99	827.333
1538.15	808
1540.31	822.222
1542.47	802.444
1544.63	821.556
1546.79	820.222
1548.95	822.222
1551.11	831.778
1553.27	842
1555.42	829.556
1557.58	830.444
1559.73	853.333
1561.89	846.444
1564.04	850.222
1566.2	857.778
1568.35	868.889
1570.5	888.444
1572.65	912.889
1574.8	962.444
1576.95	1016
1579.1	1093.78
1581.25	1205.78
1583.4	1335.11
1585.55	1482.67
1587.69	1638.44
1589.84	1695.33
1591.99	1639.33
1594.13	1482.89
1596.27	1294.22
1598.42	1136
1600.56	1044.44
1602.7	985.333
1604.84	945.555
1606.98	932.889
1609.12	906.444
1611.26	884.889
1613.4	898.889
1615.54	874.222
1617.68	849.556
1619.81	859.778
1621.95	860.667
1624.08	844.222
1626.22	849.333
1628.35	861.111
1630.49	841.333
1632.62	842.444
1634.75	846.444
1636.88	852.889
1639.01	831.111
1641.14	837.333
1643.27	829.333
1645.4	835.333
1647.53	829.555
1649.66	837.556
1651.79	827.333
1653.91	820
1656.04	826
1658.16	836.222
1660.29	812.667
1662.41	821.333
1664.53	822.222
1666.66	833.556
1668.78	826.889
1670.9	822.667
1673.02	835.333
1675.14	822
1677.26	830.667
1679.38	835.556
1681.49	817.333
1683.61	831.778
1685.73	809.778
1687.84	828
1689.96	820.667
1692.07	821.778
1694.19	815.333
1696.3	819.556
1698.41	806
1700.52	827.111
1702.64	812.889
1704.75	809.111
1706.86	815.111
1708.97	809.556
1711.07	796
1713.18	795.333
1715.29	780.667
1717.4	794.444
1719.5	783.778
1721.61	772.667
1723.71	770
1725.82	781.778
1727.92	771.556
1730.02	760.222
1732.12	757.556
1734.23	745.333
1736.33	748.222
1738.43	731.333
1740.53	745.556
1742.63	738
1744.72	725.556
1746.82	721.111
1748.92	725.556
1751.02	714.889
1753.11	706.889
1755.21	710.444
1757.3	705.111
1759.4	716.444
1761.49	704.667
1763.58	708.444
1765.67	692.667
1767.76	705.556
1769.86	700.889
1771.95	698.222
1774.03	702.222
1776.12	690.889
1778.21	697.556
1780.3	696
1782.39	684.222
1784.47	706.222
1786.56	691.778
1788.64	700.222
1790.73	692.444
1792.81	693.333
1794.89	699.333
1796.98	684.222
1799.06	696
1801.14	683.778
1803.22	691.333
1805.3	693.556
1807.38	694
1809.46	684
1811.54	691.333
1813.61	682.222
1815.69	683.778
1817.77	690.222
1819.84	678
1821.92	684
1823.99	687.111
1826.06	671.778
1828.14	683.556
1830.21	677.556
1832.28	686
1834.35	681.111
1836.42	671.778
1838.49	668.444
1840.56	674.222
1842.63	668.667
1844.7	677.333
1846.77	666.444
1848.83	673.333
1850.9	659.333
1852.96	674.889
1855.03	667.556
1857.09	669.556
1859.15	668
1861.22	669.778
1863.28	665.778
1865.34	665.111
1867.4	660.445
1869.46	650.667
1871.52	653.111
1873.58	654
1875.64	667.333
1877.7	649.111
1879.76	663.333
1881.81	650.444
1883.87	653.556
1885.92	648.889
1887.98	653.556
1890.03	645.333
1892.09	643.333
1894.14	662.444
1896.19	655.778
1898.24	650.222
1900.29	641.333
1902.34	664.889
1904.4	647.111
1906.44	655.778
1908.49	652.889
1910.54	657.333
1912.59	650.667
1914.63	647.111
1916.68	650.444
1918.73	652.889
1920.77	654.444
1922.81	633.111
1924.86	646.889
1926.9	635.111
1928.94	639.556
1930.99	634.444
1933.03	629.111
1935.07	633.556
1937.11	636
1939.15	630
1941.19	636.889
1943.22	631.556
1945.26	628.222
1947.3	620
1949.33	627.333
1951.37	629.111
1953.4	623.556
1955.44	615.556
1957.47	620.444
1959.51	616.222
1961.54	620.667
1963.57	625.556
1965.6	610.444
1967.63	613.778
1969.66	622.444
1971.69	609.333
1973.72	621.778
1975.75	618.444
1977.78	618
1979.8	613.778
1981.83	612.889
1983.86	602.444
1985.88	610.222
1987.91	603.778
1989.93	609.778
1991.95	611.111
1993.98	609.556
1996	599.778
1998.02	607.111
2000.04	600.445
2002.06	603.111
2004.08	606.222
2006.1	605.778
2008.12	606.889
2010.14	592.667
2012.15	603.111
2014.17	603.111
2016.19	609.778
2018.2	593.333
2020.22	598
2022.23	599.556
2024.25	596.889
2026.26	602.444
2028.27	604.444
2030.28	599.333
2032.29	607.111
2034.3	600.889
2036.32	593.778
2038.32	595.333
2040.33	600.444
2042.34	601.333
2044.35	596.889
2046.36	600.889
2048.36	587.778
2050.37	592
2052.37	587.778
2054.38	598.889
2056.38	584
2058.39	587.778
2060.39	584
2062.39	582.222
2064.39	590.889
2066.39	585.111
2068.39	585.778
2070.39	578.222
2072.39	585.778
2074.39	575.111
2076.39	580.222
2078.39	569.778
2080.39	581.333
2082.38	566.222
2084.38	580.667
2086.37	574.889
2088.37	577.333
2090.36	586.222
2092.35	576.667
2094.35	562.444
2096.34	565.778
2098.33	565.111
2100.32	567.778
2102.31	569.111
2104.3	568.222
2106.29	558.222
2108.28	564.889
2110.27	570.667
2112.25	566.889
2114.24	568.667
2116.23	571.111
2118.21	562.667
2120.2	559.556
2122.18	568.889
2124.17	575.556
2126.15	567.333
2128.13	565.111
2130.11	559.111
2132.09	559.111
2134.08	567.111
2136.06	563.556
2138.04	558.222
2140.02	572.444
2141.99	560
2143.97	558.444
2145.95	557.556
2147.93	558.889
2149.9	558.444
2151.88	552
2153.85	555.778
2155.83	560.667
2157.8	544.667
2159.77	532.222
2161.75	549.778
2163.72	546
2165.69	549.111
2167.66	537.333
2169.63	550.222
2171.6	543.556
2173.57	550
2175.54	540
2177.51	532.667
2179.47	534
2181.44	532.444
2183.41	536
2185.37	534.667
2187.34	532.889
2189.3	528.667
2191.27	524.667
2193.23	524.667
2195.19	528.222
2197.15	529.333
2199.11	524.222
2201.08	529.556
2203.04	525.778
2205	516.667
2206.96	512.222
2208.91	508.444
2210.87	508.667
2212.83	508.889
2214.79	528.444
2216.74	508.667
2218.7	517.556
2220.65	508.222
2222.61	520.444
2224.56	516.667
2226.52	510
2228.47	509.778
2230.42	504.444
2232.37	507.111
2234.32	508
2236.27	509.333
2238.22	504.889
2240.17	509.556
2242.12	517.333
2244.07	503.333
2246.02	509.778
2247.97	505.333
2249.91	500.667
2251.86	493.556
2253.8	508.889
2255.75	486.444
2257.69	499.333
2259.64	488.667
2261.58	494.444
2263.52	494.667
2265.46	488.222
2267.4	492.444
2269.35	488.667
2271.29	495.778
2273.23	490.889
2275.16	485.556
2277.1	480.222
2279.04	485.111
2280.98	493.556
2282.92	487.111
2284.85	493.556
2286.79	486.444
2288.72	482.667
2290.66	487.556
2292.59	487.778
2294.52	483.333
2296.46	481.111
2298.39	484.889
2300.32	485.333
2302.25	480.889
2304.18	468.667
2306.11	477.111
2308.04	462.889
2309.97	465.778
2311.9	471.556
2313.83	464.222
2315.75	476.444
2317.68	467.778
2319.61	481.111
2321.53	471.333
2323.46	470.667
2325.38	478.667
2327.3	463.111
2329.23	477.111
2331.15	470.889
2333.07	472.222
2334.99	459.333
2336.91	454
2338.83	457.333
2340.75	452.222
2342.67	460
2344.59	460.444
2346.51	457.333
2348.43	460.222
2350.35	467.111
2352.26	450.222
2354.18	458.222
2356.09	457.778
2358.01	462
2359.92	455.778
2361.83	452
2363.75	447.556
2365.66	446
2367.57	452.667
2369.48	444.222
2371.39	441.333
2373.31	450.222
2375.21	452
2377.12	438.444
2379.03	439.333
2380.94	453.778
2382.85	442.667
2384.76	450.222
2386.66	434.889
2388.57	433.111
2390.47	436.889
2392.38	432.667
2394.28	442
2396.18	422.889
2398.09	430
2399.99	434.222
2401.89	426
2403.79	431.111
2405.69	434.444
2407.59	425.778
2409.49	430.222
2411.39	428.444
2413.29	426.667
2415.19	426.222
2417.09	432.889
2418.98	427.778
2420.88	432.667
2422.78	420.444
2424.67	425.111
2426.57	432.444
2428.46	420.667
2430.35	428.444
2432.25	426.222
2434.14	419.111
2436.03	426.222
2437.92	439.556
2439.81	422.889
2441.7	422.222
2443.59	420.667
2445.48	422.444
2447.37	421.778
2449.26	415.556
2451.15	426.222
2453.03	413.778
