186.85	755.111
189.449	744
192.047	755.333
194.645	749.111
197.241	761.111
199.837	756.222
202.431	749.556
205.025	764.889
207.619	746
210.21	763.111
212.802	767.111
215.392	764.889
217.982	762
220.57	767.111
223.158	762.444
225.744	763.778
228.331	766.667
230.915	764.444
233.5	760.889
236.083	770.667
238.666	760.667
241.247	774.889
243.827	781.333
246.408	782.222
248.986	766.889
251.565	774.444
254.142	781.333
256.719	779.111
259.294	778
261.868	774.222
264.443	775.111
267.015	782.444
269.587	788.889
272.159	778
274.729	798.667
277.298	791.778
279.867	788.444
282.435	795.778
285.001	813.556
287.568	810.889
290.133	814
292.697	817.111
295.26	822.444
297.824	826.667
300.385	825.333
302.945	827.778
305.505	833.556
308.064	835.333
310.623	824.222
313.18	823.778
315.737	816.444
318.292	845.333
320.847	839.111
323.402	842.222
325.955	858
328.507	865.778
331.058	881.778
333.609	892.444
336.158	883.778
338.707	883.111
341.255	886
343.802	879.778
346.349	882.889
348.895	866
351.439	872
353.983	867.111
356.526	876.222
359.068	871.111
361.609	864.667
364.149	869.555
366.689	869.111
369.227	874
371.765	865.556
374.302	872.444
376.838	875.778
379.374	890.667
381.908	900.889
384.442	881.556
386.973	886.222
389.505	865.111
392.036	861.333
394.567	857.778
397.096	854.667
399.625	855.556
402.153	860.667
404.68	862.222
407.206	882.444
409.73	876
412.254	867.556
414.778	877.333
417.301	876.889
419.823	865.778
422.343	878.222
424.863	873.778
427.383	874.889
429.901	885.556
432.418	891.111
434.935	888.889
437.451	884.667
439.966	898.889
442.48	890.222
444.993	878.222
447.506	889.111
450.019	871.333
452.528	884
455.039	881.111
457.549	895.778
460.056	901.333
462.564	892.444
465.07	884.444
467.576	868.444
470.082	886.889
472.585	888.667
475.089	900.444
477.591	896.444
480.093	890.444
482.595	901.778
485.094	899.556
487.594	898.889
490.091	900.667
492.59	903.556
495.086	911.333
497.582	897.333
500.076	923.111
502.571	916.667
505.064	934.444
507.558	936.444
510.049	951.556
512.54	972.889
515.03	961.556
517.518	993.333
520.008	1019.33
522.495	1008.67
524.983	1001.78
527.468	977.778
529.954	975.778
532.438	958.444
534.921	945.333
537.404	948.222
539.886	937.111
542.366	928.667
544.848	923.111
547.327	921.333
549.805	918.889
552.284	911.111
554.76	913.111
557.236	910.667
559.711	908.222
562.186	904.222
564.66	905.556
567.132	912
569.604	913.778
572.076	913.778
574.547	902.667
577.016	903.778
579.484	895.556
581.952	900.667
584.419	913.333
586.887	902.222
589.352	898.667
591.816	905.778
594.28	907.111
596.743	897.111
599.205	899.111
601.667	910.222
604.127	898.667
606.588	914.667
609.047	901.778
611.505	912.222
613.963	898.444
616.419	912.667
618.875	906.667
621.33	917.333
623.784	912.444
626.238	913.778
628.69	921.333
631.142	936.444
633.593	927.778
636.043	912.889
638.493	918.667
640.941	920.667
643.389	930.444
645.835	916.667
648.281	910.444
650.727	917.778
653.171	904
655.615	930.667
658.058	918.889
660.501	917.111
662.942	907.555
665.382	928.889
667.822	926.222
670.261	917.111
672.699	914
675.137	924.445
677.574	920.444
680.008	936
682.443	934
684.878	946
687.312	941.556
689.743	957.111
692.175	956
694.607	960.222
697.037	969.556
699.466	958.444
701.895	946
704.323	937.111
706.749	940.667
709.175	932.889
711.601	929.778
714.025	927.778
716.449	913.556
718.871	929.333
721.294	934.222
723.716	925.556
726.136	930.667
728.556	926.889
730.975	908.444
733.394	918.889
735.812	908.889
738.228	911.778
740.644	916.222
743.058	905.556
745.473	917.111
747.886	905.333
750.3	922.667
752.711	905.111
755.123	908.222
757.533	918.444
759.942	919.556
762.351	928.889
764.759	909.333
767.167	914.667
769.573	919.333
771.979	926
774.383	914.889
776.787	915.333
779.191	928
781.593	935.778
783.994	920.222
786.396	919.111
788.796	927.111
791.195	933.333
793.595	944.222
795.992	959.111
798.389	960.667
800.786	958.222
803.181	953.111
805.576	955.778
807.969	944.889
810.363	936.444
812.755	937.556
815.147	935.333
817.537	924.889
819.927	938.222
822.318	918
824.706	924.444
827.093	921.111
829.48	917.333
831.866	923.111
834.251	919.778
836.636	899.333
839.021	927.556
841.404	905.778
843.786	932.889
846.167	911.556
848.548	923.111
850.928	927.778
853.307	915.333
855.685	929.111
858.063	914.889
860.44	919.778
862.816	929.778
865.192	911.556
867.566	917.556
869.94	927.333
872.313	909.111
874.685	916.667
877.057	916.889
879.428	921.111
881.798	911.333
884.167	915.778
886.536	916.445
888.902	912
891.269	918
893.636	903.333
896.001	934.889
898.366	923.111
900.73	926.222
903.094	911.778
905.455	927.333
907.817	902.889
910.178	923.778
912.538	929.556
914.898	900.222
917.255	915.333
919.613	898.444
921.971	906.667
924.327	904.222
926.682	896
929.037	909.778
931.391	911.778
933.744	899.556
936.096	914.667
938.449	910.889
940.799	907.778
943.149	896
945.499	902
947.847	910.889
950.195	908.444
952.542	913.333
954.889	898.667
957.235	914.222
959.579	904.889
961.924	907.778
964.266	925.778
966.609	916.222
968.951	920.889
971.292	906.444
973.632	904.889
975.972	896.889
978.31	909.556
980.649	899.333
982.986	895.111
985.323	901.778
987.659	902
989.994	915.333
992.328	917.333
994.662	920.222
996.995	927.111
999.326	935.556
1001.66	926.222
1003.99	906.889
1006.32	911.556
1008.65	919.333
1010.98	924.222
1013.3	920.889
1015.63	944
1017.96	932
1020.28	914
1022.61	926.444
1024.93	919.333
1027.25	916
1029.58	912.222
1031.9	946
1034.22	933.333
1036.54	939.778
1038.86	939.111
1041.18	929.333
1043.49	946.444
1045.81	956.444
1048.13	956.222
1050.44	974.222
1052.76	980.889
1055.07	1010.67
1057.39	1008.89
1059.7	1027.78
1062.01	1057.56
1064.32	1112.67
1066.63	1201.33
1068.94	1327.56
1071.25	1470
1073.56	1647.11
1075.87	1769.33
1078.17	1804
1080.48	1724
1082.79	1572
1085.09	1409.11
1087.39	1249.11
1089.7	1139.11
1092	1081.56
1094.3	1066.22
1096.6	1052.67
1098.9	1026.44
1101.2	1000.67
1103.5	980.222
1105.8	970.222
1108.1	969.778
1110.39	960.667
1112.69	968.444
1114.98	966
1117.28	964.444
1119.57	972.889
1121.86	968.222
1124.16	974.445
1126.45	977.333
1128.74	960
1131.03	949.778
1133.32	950
1135.61	934.889
1137.89	935.778
1140.18	921.333
1142.47	934
1144.75	916
1147.04	944.889
1149.32	932.222
1151.61	929.333
1153.89	942.222
1156.17	936.889
1158.45	955.778
1160.73	934
1163.01	940.444
1165.29	952
1167.57	965.333
1169.85	964.889
1172.12	963.556
1174.4	1004.44
1176.68	1000.22
1178.95	1039.78
1181.22	1021.78
1183.5	1035.78
1185.77	993.778
1188.04	966.444
1190.31	932.667
1192.58	912.889
1194.85	909.111
1197.12	912.444
1199.39	915.556
1201.66	911.778
1203.92	899.556
1206.19	918.667
1208.45	908.667
1210.72	904.889
1212.98	909.111
1215.25	898.222
1217.51	917.556
1219.77	906.889
1222.03	914.889
1224.29	927.111
1226.55	923.333
1228.81	923.333
1231.07	919.333
1233.33	934
1235.58	940.222
1237.84	944.667
1240.09	936.889
1242.35	936
1244.6	949.333
1246.86	940
1249.11	948.889
1251.36	950.222
1253.61	946
1255.86	952.667
1258.11	935.556
1260.36	944.667
1262.61	932.667
1264.86	934.667
1267.1	950.222
1269.35	949.111
1271.6	948.222
1273.84	966.889
1276.08	966.889
1278.33	973.556
1280.57	967.111
1282.81	970.889
1285.05	965.556
1287.29	956
1289.53	951.778
1291.77	947.556
1294.01	959.333
1296.25	947.111
1298.48	932
1300.72	928
1302.96	936.444
1305.19	926
1307.42	942
1309.66	934.889
1311.89	928.889
1314.12	923.556
1316.35	935.556
1318.58	926.667
1320.81	929.556
1323.04	926.889
1325.27	920.444
1327.5	935.333
1329.73	926.889
1331.95	928.889
1334.18	912
1336.4	919.333
1338.63	922.222
1340.85	942.444
1343.08	935.778
1345.3	916.222
1347.52	924.444
1349.74	906.444
1351.96	914.889
1354.18	900
1356.4	902.889
1358.61	910.222
1360.83	914
1363.05	915.333
1365.27	909.778
1367.48	912.444
1369.69	920.222
1371.91	912.667
1374.12	922.667
1376.33	927.111
1378.55	928.889
1380.76	927.556
1382.97	936.222
1385.18	920.444
1387.39	924.667
1389.59	920.222
1391.8	922.444
1394.01	918.444
1396.21	917.778
1398.42	903.778
1400.63	917.333
1402.83	910.444
1405.03	913.556
1407.24	908.444
1409.44	904.667
1411.64	894.222
1413.84	884.889
1416.04	884
1418.24	878
1420.44	889.333
1422.64	879.778
1424.83	878.889
1427.03	886.222
1429.23	874.889
1431.42	881.778
1433.62	862.222
1435.81	866.222
1438	876.667
1440.19	860.444
1442.39	866.222
1444.58	877.333
1446.77	860.444
1448.96	873.111
1451.15	866.667
1453.34	862.222
1455.52	871.556
1457.71	868.444
1459.9	865.333
1462.08	884
1464.27	870.889
1466.45	861.778
1468.64	876.444
1470.82	883.556
1473	887.333
1475.18	889.111
1477.36	904
1479.54	926.222
1481.72	938.444
1483.9	926
1486.08	908.445
1488.26	904.667
1490.43	878.889
1492.61	873.778
1494.78	859.778
1496.96	854.222
1499.13	865.556
1501.31	869.333
1503.48	856.667
1505.65	842.889
1507.82	856.444
1509.99	851.556
1512.16	846.889
1514.33	841.556
1516.5	854.889
1518.67	854
1520.84	856.444
1523	850
1525.17	858.222
1527.34	848.222
1529.5	863.556
1531.66	859.111
1533.83	859.333
1535.99	870.222
1538.15	875.111
1540.31	865.333
1542.47	856.889
1544.63	869.778
1546.79	858
1548.95	860.667
1551.11	884
1553.27	876.222
1555.42	885.111
1557.58	886.667
1559.73	891.778
1561.89	904.444
1564.04	901.333
1566.2	906.889
1568.35	926.667
1570.5	947.778
1572.65	973.111
1574.8	1022.89
1576.95	1072
1579.1	1158.22
1581.25	1281.78
1583.4	1440
1585.55	1648
1587.69	1814.67
1589.84	1944.44
1591.99	1884.89
1594.13	1664.89
1596.27	1418
1598.42	1239.56
1600.56	1115.33
1602.7	1051.56
1604.84	1006
1606.98	991.111
1609.12	954.222
1611.26	939.111
1613.4	923.778
1615.54	926.667
1617.68	901.111
1619.81	895.333
1621.95	903.556
1624.08	882.444
1626.22	889.778
1628.35	883.111
1630.49	882
1632.62	862.889
1634.75	874.222
1636.88	883.111
1639.01	870
1641.14	868.889
1643.27	867.555
1645.4	867.556
1647.53	870.667
1649.66	864
1651.79	867.111
1653.91	868.444
1656.04	873.555
1658.16	868.444
1660.29	866
1662.41	867.333
1664.53	855.778
1666.66	842.444
1668.78	867.778
1670.9	854
1673.02	863.111
1675.14	856.445
1677.26	863.333
1679.38	862.889
1681.49	854.889
1683.61	864.222
1685.73	854.222
1687.84	855.333
1689.96	865.778
1692.07	862
1694.19	869.333
1696.3	854.444
1698.41	868.667
1700.52	853.111
1702.64	859.111
1704.75	859.111
1706.86	847.778
1708.97	835.778
1711.07	841.556
1713.18	849.778
1715.29	834.444
1717.4	829.333
1719.5	826.222
1721.61	818.444
1723.71	813.333
1725.82	801.556
1727.92	803.556
1730.02	800.444
1732.12	788.889
1734.23	761.556
1736.33	774.222
1738.43	772.667
1740.53	757.778
1742.63	750
1744.72	746.667
1746.82	748
1748.92	750.444
1751.02	738.667
1753.11	740.444
1755.21	731.556
1757.3	732.222
1759.4	723.778
1761.49	732.222
1763.58	738.889
1765.67	727.333
1767.76	726.444
1769.86	718.889
1771.95	728.222
1774.03	733.111
1776.12	725.778
1778.21	729.333
1780.3	736.444
1782.39	727.778
1784.47	720.667
1786.56	719.778
1788.64	726.667
1790.73	733.556
1792.81	720.889
1794.89	716.667
1796.98	708.222
1799.06	716.889
1801.14	728.889
1803.22	724.667
1805.3	710.667
1807.38	715.556
1809.46	707.556
1811.54	718.444
1813.61	712.667
1815.69	708.444
1817.77	703.778
1819.84	703.111
1821.92	711.556
1823.99	708
1826.06	706
1828.14	701.333
1830.21	695.111
1832.28	703.111
1834.35	696.222
1836.42	692.667
1838.49	689.333
1840.56	696.667
1842.63	685.778
1844.7	706.667
1846.77	700.444
1848.83	689.778
1850.9	696.222
1852.96	689.333
1855.03	679.333
1857.09	674
1859.15	681.333
1861.22	683.111
1863.28	684.889
1865.34	683.333
1867.4	687.778
1869.46	671.333
1871.52	679.111
1873.58	674.889
1875.64	676.889
1877.7	664
1879.76	672.445
1881.81	673.111
1883.87	672
1885.92	681.111
1887.98	664.667
1890.03	672.222
1892.09	677.111
1894.14	675.333
1896.19	683.111
1898.24	671.778
1900.29	684.222
1902.34	655.778
1904.4	682.667
1906.44	674.444
1908.49	666.445
1910.54	649.556
1912.59	666.444
1914.63	666.222
1916.68	660.444
1918.73	663.333
1920.77	671.778
1922.81	662.222
1924.86	663.333
1926.9	659.778
1928.94	652.667
1930.99	646.889
1933.03	648.222
1935.07	656.889
1937.11	652.222
1939.15	672.667
1941.19	652.889
1943.22	646.222
1945.26	643.778
1947.3	640.667
1949.33	642.222
1951.37	642.444
1953.4	653.778
1955.44	640.444
1957.47	640.444
1959.51	648.667
1961.54	641.111
1963.57	636
1965.6	636.222
1967.63	636.444
1969.66	629.333
1971.69	637.556
1973.72	626.444
1975.75	622.889
1977.78	634.889
1979.8	616.667
1981.83	615.778
1983.86	628.444
1985.88	629.556
1987.91	634
1989.93	648.222
1991.95	623.111
1993.98	621.111
1996	628.889
1998.02	624
2000.04	610.667
2002.06	612
2004.08	628.445
2006.1	614.889
2008.12	619.778
2010.14	619.333
2012.15	628.667
2014.17	624.222
2016.19	618.889
2018.2	616.889
2020.22	622
2022.23	625.111
2024.25	620
2026.26	625.556
2028.27	616.444
2030.28	625.556
2032.29	619.111
2034.3	615.333
2036.32	618.667
2038.32	607.333
2040.33	611.333
2042.34	609.556
2044.35	610
2046.36	606.889
2048.36	607.556
2050.37	606.444
2052.37	609.111
2054.38	606.222
2056.38	610.444
2058.39	608.444
2060.39	604.444
2062.39	600.444
2064.39	612.222
2066.39	599.111
2068.39	598.222
2070.39	600.444
2072.39	592.889
2074.39	591.778
2076.39	584.222
2078.39	591.111
2080.39	593.111
2082.38	587.555
2084.38	590
2086.37	583.111
2088.37	588.667
2090.36	585.556
2092.35	584
2094.35	578.667
2096.34	590.222
2098.33	577.778
2100.32	578.222
2102.31	587.333
2104.3	585.778
2106.29	582.222
2108.28	577.111
2110.27	572.444
2112.25	578.889
2114.24	579.556
2116.23	573.111
2118.21	575.111
2120.2	574.444
2122.18	570.667
2124.17	573.111
2126.15	576.444
2128.13	569.111
2130.11	573.333
2132.09	577.111
2134.08	564.667
2136.06	570.889
2138.04	571.111
2140.02	573.556
2141.99	574.667
2143.97	577.556
2145.95	569.778
2147.93	563.778
2149.9	572.222
2151.88	566
2153.85	558
2155.83	564
2157.8	567.333
2159.77	562.444
2161.75	555.778
2163.72	541.778
2165.69	561.778
2167.66	550.889
2169.63	558
2171.6	549.556
2173.57	548.889
2175.54	548.444
2177.51	543.333
2179.47	546.667
2181.44	546.889
2183.41	543.778
2185.37	541.111
2187.34	536.444
2189.3	541.333
2191.27	537.778
2193.23	538.889
2195.19	538
2197.15	546.889
2199.11	529.111
2201.08	530.445
2203.04	535.333
2205	535.333
2206.96	536
2208.91	533.556
2210.87	538
2212.83	526.667
2214.79	530.444
2216.74	534.667
2218.7	524.667
2220.65	524.889
2222.61	517.778
2224.56	515.556
2226.52	527.111
2228.47	511.556
2230.42	517.556
2232.37	515.333
2234.32	516
2236.27	510.667
2238.22	519.333
2240.17	515.556
2242.12	520.667
2244.07	522.444
2246.02	514.889
2247.97	510.444
2249.91	505.778
2251.86	512.444
2253.8	514.667
2255.75	518
2257.69	508
2259.64	509.333
2261.58	506.667
2263.52	502.222
2265.46	509.333
2267.4	502.667
2269.35	500.667
2271.29	498.889
2273.23	491.111
2275.16	514.444
2277.1	490.444
2279.04	491.333
2280.98	485.778
2282.92	484.667
2284.85	502.667
2286.79	489.778
2288.72	483.778
2290.66	498.667
2292.59	497.778
2294.52	493.333
2296.46	489.333
2298.39	486.889
2300.32	481.778
2302.25	485.556
2304.18	489.333
2306.11	492.667
2308.04	480.667
2309.97	483.111
2311.9	488.222
2313.83	482.667
2315.75	477.111
2317.68	482.444
2319.61	476.444
2321.53	479.556
2323.46	472.889
2325.38	472.444
2327.3	476.222
2329.23	478.889
2331.15	463.556
2333.07	477.111
2334.99	463.333
2336.91	467.333
2338.83	467.556
2340.75	474
2342.67	472.222
2344.59	462.667
2346.51	470.667
2348.43	465.556
2350.35	467.556
2352.26	460.222
2354.18	460.889
2356.09	470
2358.01	462.222
2359.92	467.333
2361.83	463.111
2363.75	462
2365.66	459.556
2367.57	463.778
2369.48	460.222
2371.39	456.667
2373.31	453.333
2375.21	453.778
2377.12	450
2379.03	460
2380.94	438.889
2382.85	449.556
2384.76	447.778
2386.66	450.444
2388.57	450.222
2390.47	454.444
2392.38	447.778
2394.28	445.333
2396.18	444
2398.09	450.222
2399.99	432.667
2401.89	436.222
2403.79	444.889
2405.69	440.222
2407.59	441.111
2409.49	434.444
2411.39	429.556
2413.29	430.222
2415.19	443.111
2417.09	439.778
2418.98	431.556
2420.88	438
2422.78	437.556
2424.67	435.556
2426.57	430.444
2428.46	438.222
2430.35	435.111
2432.25	434.222
2434.14	427.556
2436.03	427.778
2437.92	432
2439.81	432.667
2441.7	429.778
2443.59	430.222
2445.48	431.333
2447.37	424.222
2449.26	428.222
2451.15	428
2453.03	428.889
