186.85	609.333
189.449	612.889
192.047	626.222
194.645	617.778
197.241	618.667
199.837	616
202.431	626.222
205.025	624.667
207.619	622
210.21	617.333
212.802	617.333
215.392	618.889
217.982	613.556
220.57	618.667
223.158	614.444
225.744	618.444
228.331	618.444
230.915	631.333
233.5	618.222
236.083	621.111
238.666	632.222
241.247	635.333
243.827	623.111
246.408	639.111
248.986	636.222
251.565	657.333
254.142	634.444
256.719	637.333
259.294	624.667
261.868	637.778
264.443	637.333
267.015	640.889
269.587	637.333
272.159	640.889
274.729	641.778
277.298	644
279.867	652.667
282.435	664.444
285.001	658.667
287.568	664.667
290.133	676.667
292.697	676
295.26	692.444
297.824	692.444
300.385	688.889
302.945	700.222
305.505	693.778
308.064	681.556
310.623	689.333
313.18	691.778
315.737	685.333
318.292	691.111
320.847	692.222
323.402	716.444
325.955	728.444
328.507	728.667
331.058	753.778
333.609	747.778
336.158	747.333
338.707	734.889
341.255	734.222
343.802	742.222
346.349	739.111
348.895	734.889
351.439	747.333
353.983	732
356.526	733.333
359.068	730.667
361.609	731.778
364.149	721.333
366.689	723.111
369.227	712
371.765	708.889
374.302	720.444
376.838	718
379.374	730.445
381.908	733.556
384.442	726.667
386.973	715.333
389.505	703.778
392.036	698
394.567	698.222
397.096	698
399.625	714.667
402.153	711.778
404.68	706.889
407.206	729.778
409.73	716.667
412.254	720.667
414.778	723.111
417.301	724.444
419.823	710.667
422.343	718.444
424.863	718.222
427.383	718.667
429.901	714.222
432.418	729.556
434.935	726.222
437.451	735.778
439.966	728.667
442.48	721.111
444.993	723.333
447.506	720.667
450.019	733.333
452.528	726.222
455.039	707.333
457.549	739.333
460.056	736.444
462.564	742.889
465.07	723.778
467.576	729.778
470.082	738.444
472.585	730.222
475.089	728.889
477.591	751.333
480.093	749.556
482.595	751.111
485.094	747.778
487.594	748.667
490.091	751.333
492.59	754
495.086	749.555
497.582	752.444
500.076	765.333
502.571	776.444
505.064	780
507.558	805.556
510.049	825.111
512.54	831.778
515.03	838.667
517.518	868
520.008	857.333
522.495	865.111
524.983	858.444
527.468	858.889
529.954	839.333
532.438	830.889
534.921	823.111
537.404	809.556
539.886	802.889
542.366	790.222
544.848	778.222
547.327	757.111
549.805	761.556
552.284	758.889
554.76	753.778
557.236	750.889
559.711	745.778
562.186	756
564.66	741.111
567.132	742.444
569.604	761.778
572.076	751.778
574.547	751.556
577.016	744.444
579.484	748.667
581.952	748.222
584.419	740.667
586.887	748.667
589.352	743.333
591.816	750.222
594.28	738
596.743	748
599.205	725.556
601.667	735.333
604.127	754.889
606.588	747.333
609.047	755.778
611.505	752.444
613.963	737.556
616.419	740.222
618.875	747.556
621.33	754.889
623.784	744.889
626.238	761.333
628.69	770.222
631.142	779.556
633.593	771.333
636.043	768.889
638.493	756
640.941	763.111
643.389	760
645.835	759.556
648.281	766
650.727	757.556
653.171	750.444
655.615	746.667
658.058	757.111
660.501	750.222
662.942	751.556
665.382	768.444
667.822	754.889
670.261	768.889
672.699	767.556
675.137	766.667
677.574	762.889
680.008	784.222
682.443	781.333
684.878	798.222
687.312	806.889
689.743	823.111
692.175	829.556
694.607	841.556
697.037	836
699.466	800.667
701.895	808
704.323	788
706.749	777.778
709.175	771.333
711.601	772.444
714.025	767.333
716.449	772
718.871	767.333
721.294	774.222
723.716	774.444
726.136	762
728.556	748.889
730.975	752.444
733.394	752
735.812	749.111
738.228	752.222
740.644	758.667
743.058	745.333
745.473	755.778
747.886	752
750.3	754.444
752.711	737.111
755.123	754.667
757.533	761.111
759.942	763.556
762.351	769.778
764.759	765.111
767.167	762.667
769.573	752.222
771.979	765.333
774.383	756.889
776.787	762.222
779.191	774.667
781.593	760.222
783.994	768.222
786.396	790
788.796	777.555
791.195	784
793.595	772.889
795.992	800.889
798.389	808
800.786	800.889
803.181	792.222
805.576	793.111
807.969	788.444
810.363	794
812.755	781.111
815.147	779.111
817.537	768.222
819.927	761.778
822.318	768.222
824.706	756.889
827.093	770
829.48	757.556
831.866	773.111
834.251	766.222
836.636	752.889
839.021	771.556
841.404	765.556
843.786	767.555
846.167	774.222
848.548	783.778
850.928	769.111
853.307	770.222
855.685	776.667
858.063	765.556
860.44	779.111
862.816	771.111
865.192	758.444
867.566	768.222
869.94	760
872.313	764.667
874.685	774.667
877.057	762
879.428	754.889
881.798	768.445
884.167	770.889
886.536	780.667
888.902	751.778
891.269	765.111
893.636	773.111
896.001	765.333
898.366	761.111
900.73	757.556
903.094	758.222
905.455	754.889
907.817	758.667
910.178	758.222
912.538	761.778
914.898	761.778
917.255	767.778
919.613	760.667
921.971	758
924.327	757.111
926.682	754
929.037	754.889
931.391	775.778
933.744	762.222
936.096	765.778
938.449	763.111
940.799	751.111
943.149	769.111
945.499	759.111
947.847	753.778
950.195	757.556
952.542	748.445
954.889	761.778
957.235	774.444
959.579	759.556
961.924	768.445
964.266	749.556
966.609	761.556
968.951	779.111
971.292	763.333
973.632	758.889
975.972	761.111
978.31	772.444
980.649	762
982.986	760.222
985.323	763.556
987.659	764.222
989.994	757.556
992.328	765.778
994.662	779.333
996.995	762.667
999.326	773.333
1001.66	782.222
1003.99	782.444
1006.32	779.778
1008.65	788.889
1010.98	799.111
1013.3	799.333
1015.63	805.556
1017.96	798.889
1020.28	809.333
1022.61	793.556
1024.93	783.111
1027.25	800.667
1029.58	798.667
1031.9	795.556
1034.22	819.111
1036.54	812
1038.86	822.222
1041.18	822.667
1043.49	814.444
1045.81	817.778
1048.13	825.556
1050.44	840
1052.76	868
1055.07	873.778
1057.39	901.333
1059.7	926.222
1062.01	969.111
1064.32	1047.33
1066.63	1170.44
1068.94	1356.89
1071.25	1545.56
1073.56	1734.67
1075.87	1850.89
1078.17	1876
1080.48	1748.89
1082.79	1535.78
1085.09	1305.11
1087.39	1140.22
1089.7	1028
1092	972.222
1094.3	924.889
1096.6	901.778
1098.9	890
1101.2	864.667
1103.5	847.778
1105.8	823.556
1108.1	822.889
1110.39	835.111
1112.69	820
1114.98	824
1117.28	826
1119.57	827.556
1121.86	835.333
1124.16	833.778
1126.45	827.778
1128.74	806
1131.03	814.889
1133.32	811.333
1135.61	803.556
1137.89	803.333
1140.18	806.667
1142.47	787.556
1144.75	808
1147.04	810.889
1149.32	805.111
1151.61	814.222
1153.89	812.667
1156.17	804.889
1158.45	834.667
1160.73	822.444
1163.01	831.333
1165.29	826.444
1167.57	863.556
1169.85	858.444
1172.12	864.889
1174.4	894
1176.68	935.111
1178.95	936.889
1181.22	948.444
1183.5	922
1185.77	906.889
1188.04	854.667
1190.31	814.889
1192.58	787.333
1194.85	791.111
1197.12	779.778
1199.39	775.333
1201.66	783.111
1203.92	782.889
1206.19	778.222
1208.45	773.778
1210.72	787.778
1212.98	795.778
1215.25	792.889
1217.51	792.444
1219.77	794.667
1222.03	803.333
1224.29	808.444
1226.55	803.556
1228.81	811.556
1231.07	822.667
1233.33	822.667
1235.58	816.444
1237.84	819.778
1240.09	825.111
1242.35	832.444
1244.6	817.111
1246.86	834.444
1249.11	826.222
1251.36	834.444
1253.61	838
1255.86	826.889
1258.11	838.889
1260.36	841.556
1262.61	837.778
1264.86	839.556
1267.1	838.444
1269.35	849.556
1271.6	832.444
1273.84	844.889
1276.08	852.667
1278.33	843.556
1280.57	863.555
1282.81	852
1285.05	863.333
1287.29	855.556
1289.53	841.333
1291.77	856
1294.01	842.889
1296.25	851.556
1298.48	832.444
1300.72	822.444
1302.96	834.222
1305.19	825.111
1307.42	818.889
1309.66	828
1311.89	819.333
1314.12	821.778
1316.35	823.111
1318.58	826.667
1320.81	822.222
1323.04	818.222
1325.27	813.556
1327.5	809.556
1329.73	814.667
1331.95	810
1334.18	805.778
1336.4	791.778
1338.63	794
1340.85	798.445
1343.08	799.778
1345.3	797.111
1347.52	784.889
1349.74	798
1351.96	790.445
1354.18	785.778
1356.4	796.222
1358.61	788.444
1360.83	780
1363.05	782.667
1365.27	786.889
1367.48	797.778
1369.69	804
1371.91	805.556
1374.12	810.222
1376.33	800.889
1378.55	793.556
1380.76	802.444
1382.97	801.111
1385.18	796.444
1387.39	798.889
1389.59	793.111
1391.8	820
1394.01	802.667
1396.21	813.556
1398.42	803.333
1400.63	785.778
1402.83	801.556
1405.03	782.222
1407.24	793.111
1409.44	792.444
1411.64	796
1413.84	787.333
1416.04	798.889
1418.24	782.667
1420.44	791.556
1422.64	765.111
1424.83	773.111
1427.03	761.333
1429.23	782
1431.42	769.333
1433.62	772.889
1435.81	773.111
1438	776
1440.19	771.556
1442.39	770.667
1444.58	753.778
1446.77	768
1448.96	774.667
1451.15	768.444
1453.34	767.333
1455.52	777.111
1457.71	785.111
1459.9	784.667
1462.08	775.556
1464.27	772.444
1466.45	775.556
1468.64	768.222
1470.82	792
1473	785.111
1475.18	804.889
1477.36	818
1479.54	838.889
1481.72	849.778
1483.9	844.444
1486.08	816
1488.26	796.667
1490.43	772
1492.61	747.556
1494.78	750.444
1496.96	754.444
1499.13	758.444
1501.31	754.889
1503.48	749.556
1505.65	766.667
1507.82	748
1509.99	745.556
1512.16	754.667
1514.33	761.111
1516.5	752.222
1518.67	757.778
1520.84	765.333
1523	763.778
1525.17	772.444
1527.34	761.556
1529.5	766
1531.66	773.778
1533.83	754.889
1535.99	773.111
1538.15	779.556
1540.31	781.556
1542.47	789.778
1544.63	782.444
1546.79	808.222
1548.95	787.111
1551.11	816.444
1553.27	808.889
1555.42	807.111
1557.58	819.778
1559.73	828.889
1561.89	850.889
1564.04	861.778
1566.2	866
1568.35	883.111
1570.5	909.778
1572.65	939.778
1574.8	1003.11
1576.95	1076.89
1579.1	1198
1581.25	1373.56
1583.4	1550.22
1585.55	1795.56
1587.69	2000.44
1589.84	2106.67
1591.99	1992.44
1594.13	1738
1596.27	1423.56
1598.42	1228.89
1600.56	1087.33
1602.7	1016.44
1604.84	954.667
1606.98	912.445
1609.12	909.111
1611.26	872.444
1613.4	868.222
1615.54	842.889
1617.68	826.667
1619.81	807.333
1621.95	810.889
1624.08	815.111
1626.22	795.778
1628.35	797.778
1630.49	806.667
1632.62	781.556
1634.75	790.667
1636.88	806.222
1639.01	799.556
1641.14	792.222
1643.27	784.667
1645.4	809.333
1647.53	798
1649.66	788.222
1651.79	790
1653.91	793.333
1656.04	789.778
1658.16	790.667
1660.29	789.556
1662.41	772
1664.53	784.667
1666.66	784.444
1668.78	782.444
1670.9	780.222
1673.02	779.111
1675.14	780
1677.26	791.111
1679.38	769.556
1681.49	772.889
1683.61	756
1685.73	774.889
1687.84	762.889
1689.96	779.778
1692.07	752.889
1694.19	766.444
1696.3	751.111
1698.41	759.333
1700.52	755.556
1702.64	757.556
1704.75	734.667
1706.86	744.667
1708.97	738.444
1711.07	740.222
1713.18	737.333
1715.29	729.778
1717.4	722.889
1719.5	721.778
1721.61	712
1723.71	694
1725.82	696.889
1727.92	693.333
1730.02	689.556
1732.12	670.444
1734.23	669.333
1736.33	659.333
1738.43	648
1740.53	636.222
1742.63	638.667
1744.72	642.667
1746.82	632.444
1748.92	626.667
1751.02	627.556
1753.11	614.889
1755.21	620.444
1757.3	616.667
1759.4	624.667
1761.49	616.667
1763.58	620
1765.67	606
1767.76	619.778
1769.86	622.889
1771.95	617.333
1774.03	616.444
1776.12	618.889
1778.21	608.222
1780.3	596.667
1782.39	603.556
1784.47	604
1786.56	608.667
1788.64	600.667
1790.73	606.667
1792.81	610
1794.89	600.222
1796.98	601.333
1799.06	605.556
1801.14	586
1803.22	599.556
1805.3	596.444
1807.38	600.222
1809.46	584.889
1811.54	589.556
1813.61	596.222
1815.69	584.222
1817.77	592.222
1819.84	589.556
1821.92	585.333
1823.99	592.667
1826.06	567.556
1828.14	591.111
1830.21	565.556
1832.28	574.889
1834.35	588.444
1836.42	582.889
1838.49	572.444
1840.56	583.778
1842.63	577.778
1844.7	578.222
1846.77	571.333
1848.83	568.222
1850.9	565.333
1852.96	574.667
1855.03	580.444
1857.09	572.444
1859.15	576.444
1861.22	577.556
1863.28	571.778
1865.34	568.889
1867.4	567.556
1869.46	563.778
1871.52	561.111
1873.58	563.778
1875.64	568
1877.7	571.556
1879.76	553.333
1881.81	559.333
1883.87	558.889
1885.92	550.444
1887.98	555.778
1890.03	561.111
1892.09	564.667
1894.14	554.444
1896.19	557.333
1898.24	568.444
1900.29	559.111
1902.34	551.111
1904.4	561.111
1906.44	567.778
1908.49	563.111
1910.54	562
1912.59	560
1914.63	551.111
1916.68	569.556
1918.73	556
1920.77	552.667
1922.81	546.889
1924.86	551.778
1926.9	550
1928.94	560.222
1930.99	549.111
1933.03	552.222
1935.07	539.333
1937.11	538.667
1939.15	533.556
1941.19	539.556
1943.22	545.333
1945.26	537.111
1947.3	529.778
1949.33	528.444
1951.37	536.444
1953.4	539.778
1955.44	528.222
1957.47	536.222
1959.51	533.556
1961.54	533.333
1963.57	519.556
1965.6	526.889
1967.63	520.222
1969.66	521.111
1971.69	527.556
1973.72	520.889
1975.75	522.444
1977.78	536.444
1979.8	532.889
1981.83	516
1983.86	520
1985.88	521.556
1987.91	525.333
1989.93	520.667
1991.95	518.222
1993.98	512
1996	517.111
1998.02	521.111
2000.04	522
2002.06	515.111
2004.08	526.222
2006.1	524.889
2008.12	518.889
2010.14	514.444
2012.15	524.667
2014.17	514.444
2016.19	514.444
2018.2	520.667
2020.22	513.778
2022.23	513.778
2024.25	524.222
2026.26	505.556
2028.27	515.778
2030.28	513.556
2032.29	518.222
2034.3	507.778
2036.32	505.111
2038.32	502.889
2040.33	514.444
2042.34	496.222
2044.35	507.111
2046.36	510.667
2048.36	497.111
2050.37	501.111
2052.37	506.667
2054.38	494.667
2056.38	503.556
2058.39	509.778
2060.39	501.111
2062.39	494.444
2064.39	500.667
2066.39	502.889
2068.39	489.111
2070.39	490.667
2072.39	496.222
2074.39	501.111
2076.39	510.889
2078.39	509.556
2080.39	494.667
2082.38	482.444
2084.38	493.333
2086.37	495.111
2088.37	490
2090.36	488.667
2092.35	492.667
2094.35	491.556
2096.34	497.111
2098.33	489.556
2100.32	485.111
2102.31	490.889
2104.3	483.333
2106.29	489.778
2108.28	484
2110.27	482
2112.25	494.222
2114.24	480
2116.23	490.444
2118.21	487.556
2120.2	485.556
2122.18	478.889
2124.17	490.444
2126.15	486.889
2128.13	481.111
2130.11	490.444
2132.09	496.889
2134.08	490.889
2136.06	476.889
2138.04	484.667
2140.02	484.889
2141.99	486.222
2143.97	482.667
2145.95	488
2147.93	476
2149.9	480
2151.88	481.333
2153.85	472.889
2155.83	474
2157.8	481.333
2159.77	477.556
2161.75	461.556
2163.72	465.778
2165.69	478.222
2167.66	470
2169.63	461.111
2171.6	468.444
2173.57	464
2175.54	456.222
2177.51	452.444
2179.47	454.889
2181.44	454.222
2183.41	457.778
2185.37	457.556
2187.34	456.444
2189.3	449.556
2191.27	447.556
2193.23	441.778
2195.19	456.667
2197.15	452.222
2199.11	452.667
2201.08	450.222
2203.04	446.667
2205	448.222
2206.96	444
2208.91	441.333
2210.87	439.111
2212.83	450.222
2214.79	436.222
2216.74	442.667
2218.7	443.111
2220.65	439.111
2222.61	440
2224.56	437.111
2226.52	436
2228.47	439.111
2230.42	434.889
2232.37	430.667
2234.32	436.222
2236.27	432
2238.22	432.889
2240.17	426
2242.12	442.889
2244.07	428.222
2246.02	429.111
2247.97	424.444
2249.91	437.111
2251.86	429.556
2253.8	428
2255.75	422.667
2257.69	420.667
2259.64	418.889
2261.58	425.111
2263.52	421.778
2265.46	425.333
2267.4	425.556
2269.35	416.222
2271.29	422.222
2273.23	420.889
2275.16	425.111
2277.1	419.556
2279.04	409.556
2280.98	420
2282.92	429.778
2284.85	420
2286.79	410
2288.72	416.889
2290.66	407.556
2292.59	406.222
2294.52	410.667
2296.46	404.444
2298.39	410.889
2300.32	410.667
2302.25	406.889
2304.18	401.333
2306.11	410
2308.04	400.889
2309.97	404
2311.9	398.444
2313.83	401.556
2315.75	396.222
2317.68	403.778
2319.61	398
2321.53	396.444
2323.46	390.444
2325.38	400.667
2327.3	403.778
2329.23	403.111
2331.15	398.444
2333.07	399.556
2334.99	405.111
2336.91	398.667
2338.83	395.111
2340.75	397.556
2342.67	398.667
2344.59	400
2346.51	400.667
2348.43	387.778
2350.35	391.111
2352.26	394.667
2354.18	386.889
2356.09	390.222
2358.01	399.556
2359.92	391.778
2361.83	388
2363.75	384.889
2365.66	389.778
2367.57	381.778
2369.48	385.111
2371.39	384.222
2373.31	386.222
2375.21	388.222
2377.12	387.778
2379.03	376.444
2380.94	377.778
2382.85	379.778
2384.76	377.778
2386.66	380.222
2388.57	384.889
2390.47	379.778
2392.38	387.333
2394.28	384.889
2396.18	372.444
2398.09	378
2399.99	368
2401.89	378
2403.79	370.444
2405.69	376.667
2407.59	376.889
2409.49	371.778
2411.39	371.556
2413.29	380.889
2415.19	366.667
2417.09	373.111
2418.98	369.111
2420.88	366.667
2422.78	370.222
2424.67	370.444
2426.57	363.778
2428.46	372.889
2430.35	366.667
2432.25	367.778
2434.14	369.333
2436.03	369.111
2437.92	369.333
2439.81	357.111
2441.7	365.556
2443.59	362.889
2445.48	365.333
2447.37	357.111
2449.26	365.111
2451.15	359.556
2453.03	362
