186.85	569.111
189.449	573.333
192.047	578.444
194.645	564.667
197.241	574.889
199.837	567.111
202.431	576.444
205.025	561.556
207.619	570
210.21	573.556
212.802	563.556
215.392	568.444
217.982	558
220.57	577.778
223.158	560.667
225.744	569.333
228.331	566.889
230.915	563.111
233.5	576.222
236.083	575.556
238.666	570.222
241.247	581.333
243.827	572.222
246.408	569.778
248.986	576.889
251.565	573.556
254.142	579.333
256.719	585.111
259.294	569.778
261.868	572.444
264.443	593.778
267.015	574.222
269.587	584.889
272.159	580.444
274.729	583.333
277.298	592.889
279.867	594.444
282.435	595.111
285.001	603.778
287.568	607.111
290.133	609.333
292.697	619.556
295.26	627.111
297.824	629.333
300.385	624.889
302.945	634.444
305.505	623.333
308.064	627.556
310.623	618.222
313.18	618.222
315.737	619.778
318.292	621.556
320.847	628.889
323.402	639.111
325.955	664
328.507	669.333
331.058	669.778
333.609	659.778
336.158	662.889
338.707	663.555
341.255	663.111
343.802	663.778
346.349	645.333
348.895	658.889
351.439	645.556
353.983	661.555
356.526	649.333
359.068	642.444
361.609	635.778
364.149	633.556
366.689	629.333
369.227	626.444
371.765	630.444
374.302	617.333
376.838	617.111
379.374	633.555
381.908	641.556
384.442	632.667
386.973	632.889
389.505	634.667
392.036	625.111
394.567	618.667
397.096	621.333
399.625	640.667
402.153	627.556
404.68	624.667
407.206	645.778
409.73	645.333
412.254	639.111
414.778	630.444
417.301	648.222
419.823	647.778
422.343	649.333
424.863	636.889
427.383	632.444
429.901	626.667
432.418	635.111
434.935	631.556
437.451	631.111
439.966	636.889
442.48	631.111
444.993	627.778
447.506	623.111
450.019	622.889
452.528	629.778
455.039	634.889
457.549	630.445
460.056	646.222
462.564	650.222
465.07	636.222
467.576	644.222
470.082	650.667
472.585	652
475.089	645.778
477.591	646.667
480.093	654.667
482.595	659.778
485.094	647.778
487.594	650
490.091	654.667
492.59	662.667
495.086	660.444
497.582	670.889
500.076	687.556
502.571	690.222
505.064	718.444
507.558	716.889
510.049	751.556
512.54	750.222
515.03	741.333
517.518	767.555
520.008	766.444
522.495	776.222
524.983	769.333
527.468	770
529.954	736.222
532.438	734.889
534.921	723.111
537.404	713.111
539.886	704.889
542.366	678.889
544.848	684.444
547.327	675.111
549.805	666.444
552.284	665.778
554.76	664.222
557.236	663.333
559.711	648.444
562.186	654.444
564.66	640
567.132	648.889
569.604	644.667
572.076	646.667
574.547	646.444
577.016	653.556
579.484	636
581.952	637.778
584.419	646.889
586.887	646.444
589.352	625.778
591.816	628.889
594.28	652.667
596.743	642.889
599.205	640.445
601.667	642
604.127	638
606.588	639.556
609.047	646.667
611.505	638.222
613.963	647.333
616.419	643.556
618.875	648.222
621.33	645.333
623.784	640.444
626.238	653.556
628.69	664.667
631.142	670.444
633.593	664.444
636.043	659.778
638.493	645.556
640.941	657.556
643.389	654.444
645.835	636.444
648.281	644.222
650.727	657.778
653.171	660.667
655.615	643.333
658.058	640.667
660.501	649.333
662.942	640.222
665.382	647.778
667.822	651.556
670.261	664.667
672.699	671.333
675.137	676.889
677.574	680.222
680.008	696.444
682.443	689.778
684.878	692.889
687.312	694.222
689.743	721.778
692.175	728.889
694.607	736
697.037	698.444
699.466	690.222
701.895	677.778
704.323	680.222
706.749	672.444
709.175	677.111
711.601	656
714.025	664.222
716.449	657.556
718.871	652.222
721.294	652.889
723.716	671.111
726.136	652
728.556	655.333
730.975	661.333
733.394	655.333
735.812	633.333
738.228	646.222
740.644	657.333
743.058	662.222
745.473	649.111
747.886	642.444
750.3	642.222
752.711	655.333
755.123	661.778
757.533	653.333
759.942	656.889
762.351	665.111
764.759	649.111
767.167	649.778
769.573	655.111
771.979	660.222
774.383	664
776.787	648.222
779.191	656
781.593	651.111
783.994	669.111
786.396	666.222
788.796	682.222
791.195	688
793.595	690.222
795.992	690.667
798.389	710.445
800.786	706.222
803.181	694.222
805.576	687.111
807.969	693.778
810.363	686
812.755	690
815.147	678.667
817.537	685.111
819.927	678.444
822.318	675.556
824.706	674.667
827.093	674.889
829.48	670.889
831.866	669.556
834.251	682
836.636	671.333
839.021	675.555
841.404	681.111
843.786	687.333
846.167	676.444
848.548	700.444
850.928	663.333
853.307	680.444
855.685	672.667
858.063	673.111
860.44	666.889
862.816	661.111
865.192	668.222
867.566	675.555
869.94	662.667
872.313	674
874.685	658
877.057	671.778
879.428	664
881.798	670.222
884.167	663.333
886.536	680.889
888.902	674.222
891.269	678.667
893.636	685.111
896.001	672.222
898.366	677.555
900.73	667.333
903.094	668.889
905.455	672
907.817	673.556
910.178	676.222
912.538	668.667
914.898	661.333
917.255	642.222
919.613	661.111
921.971	655.333
924.327	660.667
926.682	652.667
929.037	653.111
931.391	643.333
933.744	661.333
936.096	661.333
938.449	654
940.799	661.111
943.149	651.556
945.499	667.556
947.847	668
950.195	668.667
952.542	657.778
954.889	672.444
957.235	668.667
959.579	667.778
961.924	681.556
964.266	670.444
966.609	680.889
968.951	672.222
971.292	667.778
973.632	676.889
975.972	666.889
978.31	670.444
980.649	674.667
982.986	672.222
985.323	678.667
987.659	675.778
989.994	688
992.328	685.778
994.662	711.333
996.995	731.778
999.326	737.333
1001.66	714.667
1003.99	707.333
1006.32	695.333
1008.65	705.333
1010.98	732.445
1013.3	736
1015.63	730
1017.96	717.778
1020.28	730.222
1022.61	739.556
1024.93	715.556
1027.25	701.778
1029.58	715.111
1031.9	710.667
1034.22	719.778
1036.54	738.667
1038.86	730.444
1041.18	751.555
1043.49	745.778
1045.81	759.333
1048.13	770.222
1050.44	796.444
1052.76	808.889
1055.07	835.111
1057.39	867.778
1059.7	923.333
1062.01	1007.56
1064.32	1121.11
1066.63	1307.33
1068.94	1510
1071.25	1756.89
1073.56	1940.22
1075.87	2022.67
1078.17	1954.22
1080.48	1748.67
1082.79	1527.33
1085.09	1268.22
1087.39	1079.33
1089.7	960
1092	890.667
1094.3	863.778
1096.6	819.778
1098.9	808.667
1101.2	784.444
1103.5	767.778
1105.8	762.889
1108.1	750.222
1110.39	752.222
1112.69	760
1114.98	760.889
1117.28	742.222
1119.57	749.111
1121.86	760
1124.16	742.667
1126.45	748.667
1128.74	741.333
1131.03	736.222
1133.32	742.444
1135.61	725.333
1137.89	727.778
1140.18	724.444
1142.47	727.555
1144.75	728.889
1147.04	728.222
1149.32	730.889
1151.61	738.444
1153.89	753.111
1156.17	759.556
1158.45	761.333
1160.73	754.889
1163.01	779.778
1165.29	786.889
1167.57	808.667
1169.85	821.111
1172.12	849.556
1174.4	887.111
1176.68	913.111
1178.95	927.111
1181.22	911.111
1183.5	877.333
1185.77	832.444
1188.04	787.333
1190.31	768.667
1192.58	745.778
1194.85	750.667
1197.12	743.778
1199.39	733.111
1201.66	724.444
1203.92	734.444
1206.19	737.778
1208.45	742
1210.72	739.333
1212.98	745.111
1215.25	748.667
1217.51	754
1219.77	761.778
1222.03	752.667
1224.29	750.222
1226.55	755.111
1228.81	762.444
1231.07	780.444
1233.33	780
1235.58	788.889
1237.84	777.333
1240.09	778.444
1242.35	784.889
1244.6	775.111
1246.86	783.111
1249.11	794.667
1251.36	775.778
1253.61	786.444
1255.86	786.889
1258.11	791.778
1260.36	805.111
1262.61	815.778
1264.86	810.667
1267.1	812
1269.35	819.111
1271.6	824.667
1273.84	831.111
1276.08	806.222
1278.33	829.778
1280.57	832.222
1282.81	832.889
1285.05	834.889
1287.29	834.889
1289.53	833.111
1291.77	825.778
1294.01	830.222
1296.25	814.667
1298.48	823.111
1300.72	801.556
1302.96	815.111
1305.19	786.889
1307.42	791.111
1309.66	784.444
1311.89	802.889
1314.12	795.778
1316.35	782.444
1318.58	781.778
1320.81	789.556
1323.04	774.444
1325.27	764.222
1327.5	772
1329.73	763.333
1331.95	772.667
1334.18	769.333
1336.4	766.667
1338.63	774.444
1340.85	770.667
1343.08	775.556
1345.3	765.333
1347.52	762.667
1349.74	758.222
1351.96	753.556
1354.18	744.222
1356.4	753.333
1358.61	751.556
1360.83	756.889
1363.05	752.444
1365.27	751.333
1367.48	750.667
1369.69	757.778
1371.91	768.444
1374.12	753.556
1376.33	776.444
1378.55	766.222
1380.76	762.667
1382.97	778
1385.18	763.556
1387.39	758.889
1389.59	765.111
1391.8	763.556
1394.01	775.556
1396.21	771.556
1398.42	773.111
1400.63	766.667
1402.83	770
1405.03	778.667
1407.24	770.444
1409.44	768.667
1411.64	749.111
1413.84	763.333
1416.04	761.556
1418.24	750.222
1420.44	744.444
1422.64	750.444
1424.83	748.444
1427.03	755.333
1429.23	745.111
1431.42	750.667
1433.62	752.444
1435.81	740
1438	752.445
1440.19	752.889
1442.39	742.889
1444.58	759.111
1446.77	747.778
1448.96	754.222
1451.15	767.333
1453.34	759.111
1455.52	776.444
1457.71	777.333
1459.9	770.222
1462.08	770.667
1464.27	766.667
1466.45	787.333
1468.64	785.556
1470.82	776.444
1473	783.111
1475.18	823.778
1477.36	838.889
1479.54	867.778
1481.72	847.556
1483.9	840.222
1486.08	802.667
1488.26	797.556
1490.43	772.444
1492.61	753.778
1494.78	755.778
1496.96	758
1499.13	764
1501.31	759.111
1503.48	759.556
1505.65	762.222
1507.82	775.111
1509.99	752
1512.16	766
1514.33	766.222
1516.5	780.444
1518.67	773.778
1520.84	786.444
1523	787.778
1525.17	795.556
1527.34	781.778
1529.5	798.444
1531.66	812.667
1533.83	802
1535.99	821.778
1538.15	820
1540.31	820.222
1542.47	818.889
1544.63	830.889
1546.79	824.444
1548.95	820.889
1551.11	861.556
1553.27	862.222
1555.42	860
1557.58	877.778
1559.73	891.778
1561.89	917.111
1564.04	921.333
1566.2	976.445
1568.35	1012
1570.5	1096.89
1572.65	1166.67
1574.8	1258.22
1576.95	1377.33
1579.1	1548.67
1581.25	1776.44
1583.4	2030.89
1585.55	2301.78
1587.69	2430.22
1589.84	2433.78
1591.99	2207.33
1594.13	1846.22
1596.27	1546.67
1598.42	1314
1600.56	1159.11
1602.7	1071.56
1604.84	1030.67
1606.98	972.222
1609.12	950.889
1611.26	918.889
1613.4	899.333
1615.54	865.556
1617.68	856.667
1619.81	852.444
1621.95	847.111
1624.08	841.111
1626.22	803.333
1628.35	822.444
1630.49	805.556
1632.62	805.111
1634.75	796.444
1636.88	790.889
1639.01	790.889
1641.14	778
1643.27	776.444
1645.4	782.889
1647.53	780.444
1649.66	783.778
1651.79	776.667
1653.91	768.222
1656.04	770.444
1658.16	771.778
1660.29	762.444
1662.41	748
1664.53	754.667
1666.66	744.889
1668.78	744.889
1670.9	750.667
1673.02	744.444
1675.14	737.778
1677.26	738.222
1679.38	752.222
1681.49	745.555
1683.61	752
1685.73	738.667
1687.84	743.111
1689.96	735.333
1692.07	741.778
1694.19	739.778
1696.3	740
1698.41	731.555
1700.52	719.111
1702.64	721.778
1704.75	727.556
1706.86	716.222
1708.97	705.111
1711.07	717.111
1713.18	716.667
1715.29	698.444
1717.4	700.222
1719.5	697.556
1721.61	694.444
1723.71	685.111
1725.82	680.444
1727.92	669.778
1730.02	665.556
1732.12	658.889
1734.23	656.222
1736.33	654.444
1738.43	636
1740.53	620.444
1742.63	606.222
1744.72	603.778
1746.82	602.444
1748.92	591.778
1751.02	584.222
1753.11	589.556
1755.21	584.444
1757.3	582.444
1759.4	585.333
1761.49	581.556
1763.58	581.556
1765.67	580.222
1767.76	586.889
1769.86	582.222
1771.95	585.556
1774.03	584.222
1776.12	582.444
1778.21	583.333
1780.3	580
1782.39	573.111
1784.47	575.333
1786.56	574.444
1788.64	562.222
1790.73	557.778
1792.81	564.444
1794.89	551.111
1796.98	548.667
1799.06	561.778
1801.14	565.556
1803.22	556
1805.3	569.556
1807.38	558.667
1809.46	555.556
1811.54	550.667
1813.61	554
1815.69	562.222
1817.77	555.333
1819.84	538.444
1821.92	548
1823.99	552.889
1826.06	539.556
1828.14	550
1830.21	545.333
1832.28	538.889
1834.35	536.444
1836.42	550.444
1838.49	540.667
1840.56	542.667
1842.63	526.889
1844.7	530.444
1846.77	546.222
1848.83	544.444
1850.9	534.889
1852.96	526.667
1855.03	538.222
1857.09	543.333
1859.15	534.444
1861.22	533.556
1863.28	536
1865.34	525.333
1867.4	531.111
1869.46	531.333
1871.52	525.556
1873.58	539.556
1875.64	517.778
1877.7	525.333
1879.76	530.222
1881.81	517.333
1883.87	524.444
1885.92	523.333
1887.98	526.667
1890.03	526
1892.09	515.111
1894.14	518.444
1896.19	520.222
1898.24	515.778
1900.29	521.555
1902.34	529.111
1904.4	521.556
1906.44	521.111
1908.49	531.333
1910.54	524.667
1912.59	525.333
1914.63	521.778
1916.68	522.667
1918.73	512.889
1920.77	521.333
1922.81	518.889
1924.86	514.222
1926.9	519.111
1928.94	508.667
1930.99	510.444
1933.03	520
1935.07	511.111
1937.11	511.333
1939.15	521.778
1941.19	508.222
1943.22	504
1945.26	508
1947.3	505.111
1949.33	493.333
1951.37	508.444
1953.4	503.556
1955.44	496
1957.47	495.556
1959.51	500.889
1961.54	488.889
1963.57	496
1965.6	500.222
1967.63	498
1969.66	500.444
1971.69	500
1973.72	493.111
1975.75	492.444
1977.78	486.222
1979.8	500.889
1981.83	494.222
1983.86	505.556
1985.88	482.889
1987.91	485.556
1989.93	499.333
1991.95	489.778
1993.98	493.556
1996	485.556
1998.02	492.222
2000.04	479.111
2002.06	487.111
2004.08	489.778
2006.1	486.667
2008.12	492.889
2010.14	484.889
2012.15	494.667
2014.17	495.778
2016.19	485.556
2018.2	480.889
2020.22	475.778
2022.23	485.333
2024.25	476.444
2026.26	482.222
2028.27	485.333
2030.28	486.889
2032.29	480.444
2034.3	490.222
2036.32	485.333
2038.32	475.333
2040.33	470.222
2042.34	479.111
2044.35	478.667
2046.36	475.333
2048.36	475.111
2050.37	482.222
2052.37	479.556
2054.38	468.667
2056.38	469.556
2058.39	469.333
2060.39	480.667
2062.39	478.667
2064.39	477.778
2066.39	472.444
2068.39	463.556
2070.39	467.333
2072.39	475.556
2074.39	473.333
2076.39	468.889
2078.39	470.444
2080.39	466.222
2082.38	467.778
2084.38	465.778
2086.37	461.333
2088.37	474.222
2090.36	461.778
2092.35	462.889
2094.35	452.222
2096.34	466.222
2098.33	478.222
2100.32	459.556
2102.31	471.333
2104.3	466.444
2106.29	463.333
2108.28	462.444
2110.27	458.889
2112.25	467.778
2114.24	456
2116.23	463.111
2118.21	457.556
2120.2	457.556
2122.18	463.556
2124.17	468
2126.15	459.556
2128.13	465.111
2130.11	463.556
2132.09	453.556
2134.08	459.333
2136.06	459.778
2138.04	462.444
2140.02	458.667
2141.99	460.889
2143.97	452
2145.95	456.667
2147.93	455.556
2149.9	455.556
2151.88	458.444
2153.85	463.333
2155.83	447.778
2157.8	458.444
2159.77	441.556
2161.75	444.444
2163.72	441.556
2165.69	447.556
2167.66	451.556
2169.63	432.667
2171.6	445.778
2173.57	434.444
2175.54	448.667
2177.51	439.556
2179.47	434.889
2181.44	436.444
2183.41	431.556
2185.37	434.889
2187.34	436.667
2189.3	431.556
2191.27	441.778
2193.23	436.222
2195.19	425.333
2197.15	436
2199.11	420.444
2201.08	432.222
2203.04	432.444
2205	416
2206.96	416.444
2208.91	421.556
2210.87	419.778
2212.83	418.889
2214.79	420.222
2216.74	420.444
2218.7	416
2220.65	418.667
2222.61	423.333
2224.56	418.222
2226.52	418.667
2228.47	412.222
2230.42	416
2232.37	410.667
2234.32	409.556
2236.27	411.333
2238.22	422.889
2240.17	410
2242.12	406.667
2244.07	413.111
2246.02	419.556
2247.97	415.333
2249.91	410.667
2251.86	410.889
2253.8	405.556
2255.75	416
2257.69	405.111
2259.64	393.333
2261.58	408.667
2263.52	404.444
2265.46	396.667
2267.4	413.333
2269.35	404.444
2271.29	409.111
2273.23	406
2275.16	404.889
2277.1	405.333
2279.04	389.778
2280.98	404.889
2282.92	392.667
2284.85	394.667
2286.79	394.444
2288.72	386.222
2290.66	392.444
2292.59	397.778
2294.52	387.556
2296.46	388.889
2298.39	390.222
2300.32	391.778
2302.25	389.778
2304.18	391.111
2306.11	378.889
2308.04	392.889
2309.97	389.111
2311.9	390.667
2313.83	385.333
2315.75	376.889
2317.68	384.667
2319.61	383.778
2321.53	390.667
2323.46	383.111
2325.38	382.889
2327.3	383.111
2329.23	383.778
2331.15	382.222
2333.07	379.556
2334.99	383.556
2336.91	383.333
2338.83	390.667
2340.75	388.222
2342.67	376.444
2344.59	379.556
2346.51	385.111
2348.43	377.778
2350.35	375.111
2352.26	380.667
2354.18	377.778
2356.09	371.556
2358.01	376.444
2359.92	377.333
2361.83	372.444
2363.75	365.556
2365.66	362.444
2367.57	364
2369.48	370.444
2371.39	368.889
2373.31	372.222
2375.21	376.889
2377.12	364
2379.03	358.444
2380.94	372.444
2382.85	366.667
2384.76	365.556
2386.66	365.111
2388.57	357.778
2390.47	370
2392.38	364.667
2394.28	365.556
2396.18	365.778
2398.09	367.111
2399.99	357.111
2401.89	353.556
2403.79	360.667
2405.69	367.556
2407.59	356.667
2409.49	362.889
2411.39	347.111
2413.29	362.222
2415.19	364
2417.09	361.111
2418.98	359.111
2420.88	359.111
2422.78	358.222
2424.67	356.889
2426.57	356.444
2428.46	355.111
2430.35	362.667
2432.25	353.333
2434.14	354
2436.03	355.778
2437.92	353.778
2439.81	350.667
2441.7	353.778
2443.59	358.667
2445.48	351.333
2447.37	352
2449.26	354
2451.15	352.667
2453.03	353.111
