176.074	195.889
178.677	199.889
181.279	198.556
183.879	196.889
186.48	198.889
189.08	200.778
191.677	199.222
194.275	202
196.871	196
199.467	193.333
202.061	191.111
204.656	189
207.249	186.111
209.841	187.444
212.433	184.333
215.022	181.667
217.613	177.778
220.201	175.333
222.789	179.222
225.375	173.889
227.962	173.667
230.547	171.556
233.132	171.556
235.714	179
238.296	180
240.879	179.889
243.459	182.778
246.04	182.889
248.618	181
251.198	183
253.774	184.778
256.35	183.111
258.927	180.222
261.501	171.667
264.074	178.556
266.648	172.667
269.22	167.333
271.791	165.556
274.362	169.333
276.931	164.889
279.5	160.222
282.069	163.778
284.635	163.333
287.201	166.444
289.766	165.222
292.331	165.889
294.894	171.222
297.457	186
300.018	193.111
302.58	209.111
305.14	217.111
307.699	211
310.257	200.889
312.814	182.667
315.372	180.444
317.928	169
320.482	159.222
323.036	153.667
325.589	150.222
328.142	149.556
330.693	146.889
333.243	153.333
335.795	149.889
338.343	152.889
340.891	153
343.439	156.444
345.985	152.111
348.53	148.444
351.075	148.444
353.619	148.778
356.162	147.778
358.704	147.667
361.245	148.889
363.786	143.778
366.325	144
368.864	141.667
371.402	141.444
373.939	140.667
376.475	134.889
379.011	138
381.545	137
384.079	139.556
386.611	143.333
389.143	142.444
391.674	140.111
394.204	137
396.734	131.667
399.263	133.222
401.791	134.111
404.318	132.333
406.843	133.667
409.368	135.111
411.893	132.667
414.417	133.778
416.94	134.667
419.46	135
421.982	138.333
424.502	133.556
427.022	135.444
429.541	126.889
432.057	130.444
434.574	125.556
437.091	126.667
439.605	122.889
442.12	122.222
444.634	121.111
447.145	120.556
449.657	119.667
452.169	125.556
454.678	121.222
457.188	127
459.697	123.889
462.204	123.333
464.711	123.778
467.217	121.889
469.722	124.778
472.227	119.444
474.729	119.778
477.232	118.222
479.735	120.222
482.235	117.556
484.736	121.556
487.234	116.667
489.734	119.222
492.23	117.111
494.728	117.889
497.223	119.111
499.719	117
502.213	119.667
504.707	114.667
507.199	114.333
509.69	112.556
512.182	111
514.672	109.222
517.162	112.111
519.65	109.444
522.139	108.111
524.625	106.222
527.111	103.111
529.597	102.444
532.081	103
534.564	100.556
537.047	102.222
539.529	101.889
542.01	100.333
544.491	99.3333
546.97	100.222
549.448	97
551.927	98.3333
554.404	98.3333
556.88	98.3333
559.355	94.4445
561.831	95.7778
564.304	95.4445
566.777	92.8889
569.249	90.1111
571.72	91.2222
574.191	89.2222
576.661	89
579.129	85.6667
581.597	90.2222
584.064	86.6667
586.531	86.4444
588.997	84.5556
591.462	82
593.926	82.3333
596.389	81.2222
598.851	82.8889
601.313	82
603.773	82.8889
606.233	83.4444
608.692	83.6667
611.151	83.5556
613.608	84.3333
616.065	81.3333
618.521	81.8889
620.976	79
623.43	79.4444
625.883	81.2222
628.336	77.3333
630.788	80.8889
633.239	79.4444
635.69	79.4444
638.139	80.2222
640.588	80.3333
643.036	79.4444
645.483	76.5556
647.929	77.6667
650.375	80.8889
652.818	78.6667
655.262	75.5556
657.706	76.5556
660.148	78.3333
662.59	76.2222
665.031	75.1111
667.471	78.1111
669.909	79.6667
672.347	79.4444
674.785	80.1111
677.222	79.1111
679.656	78.8889
682.092	79.5556
684.526	77.1111
686.96	78.8889
689.392	79.3333
691.824	79.7778
694.256	78.3333
696.686	80.4444
699.115	80.8889
701.544	82.8889
703.972	82.4445
706.398	83.8889
708.825	84.8889
711.25	86.1111
713.675	90.3333
716.099	89.6667
718.522	97.7778
720.944	100.889
723.366	105.889
725.786	109
728.207	116.556
730.625	119
733.044	120
735.461	113.889
737.879	114.222
740.294	117.778
742.71	124
745.123	124.444
747.538	127.778
749.95	137.444
752.363	151.222
754.773	162.444
757.185	185.889
759.594	215.222
762.002	250.444
764.411	276.556
766.818	292.222
769.225	297.889
771.63	298.333
774.035	292.778
776.44	289.556
778.843	293.889
781.245	294.444
783.648	292.333
786.048	297.556
788.448	300.222
790.848	307.444
793.247	317.111
795.644	312.889
798.042	287.333
800.438	264.333
802.834	240.667
805.228	222.444
807.623	213.889
810.016	215.222
812.408	214.556
814.8	223.667
817.191	226.778
819.58	230.333
821.971	241.222
824.359	244.222
826.747	254.444
829.134	250.222
831.52	246.333
833.905	231.333
836.29	226.556
838.675	215.444
841.058	207.778
843.44	196.444
845.822	183.667
848.203	178.111
850.583	166.889
852.962	163
855.341	156
857.718	155.444
860.095	167
862.471	165.778
864.847	177.556
867.222	193.778
869.596	222.556
871.969	242.333
874.341	256.667
876.713	260
879.083	255
881.453	243.111
883.822	233.333
886.191	230
888.559	239.889
890.926	267.667
893.293	311.889
895.658	320.333
898.022	306.333
900.386	256.444
902.75	224.444
905.112	195.444
907.474	186.222
909.834	178.444
912.194	169.889
914.554	166.333
916.913	152.667
919.27	145.778
921.627	140.333
923.984	135.333
926.34	136
928.694	134.778
931.048	132.222
933.402	137.778
935.754	136.222
938.106	134.333
940.458	127
942.807	126.556
945.157	120.444
947.505	126
949.853	127.778
952.201	129.889
954.547	139.667
956.893	140.778
959.237	145.222
961.582	144.778
963.925	158.333
966.268	162.444
968.609	164.222
970.951	169.222
973.291	168.333
975.631	170.333
977.97	166.556
980.309	166.778
982.645	166.111
984.983	167.889
987.318	164.444
989.653	163.333
991.988	156.778
994.321	159.111
996.655	156.111
998.987	157.222
1001.32	159.111
1003.65	155.333
1005.98	159.556
1008.31	156.444
1010.64	162
1012.96	167.667
1015.29	176
1017.62	186.333
1019.94	199.222
1022.27	200.444
1024.59	204.333
1026.91	211.111
1029.24	213.889
1031.56	227.222
1033.88	229.222
1036.2	232.556
1038.52	239.889
1040.84	252
1043.16	265.222
1045.47	272.333
1047.79	259.111
1050.1	235.667
1052.42	217.444
1054.74	215.667
1057.05	222.889
1059.36	236.889
1061.67	262.889
1063.98	274.111
1066.29	266.333
1068.6	250
1070.91	237.667
1073.22	225.778
1075.53	214.222
1077.84	207.667
1080.14	201.889
1082.45	192.111
1084.75	186.222
1087.06	179.667
1089.36	164.778
1091.66	153.333
1093.96	141.111
1096.27	132
1098.57	122.222
1100.87	120.667
1103.16	116.333
1105.46	120.444
1107.76	126.222
1110.06	134.444
1112.35	134.778
1114.65	148
1116.94	150.778
1119.23	152.556
1121.53	156
1123.82	159.111
1126.11	156.556
1128.4	162.667
1130.69	166.333
1132.98	171.222
1135.27	172.667
1137.56	181
1139.85	184.333
1142.13	196
1144.42	205
1146.7	213.444
1148.99	214.556
1151.27	214.778
1153.55	214
1155.84	206.556
1158.12	210.111
1160.4	196.667
1162.68	183.667
1164.96	166.444
1167.23	149.222
1169.51	131
1171.79	118.333
1174.06	109
1176.34	104.111
1178.62	102.889
1180.89	98.7778
1183.16	99.7778
1185.44	96.8889
1187.71	97
1189.98	93.5556
1192.25	94.8889
1194.52	97
1196.79	103.556
1199.06	107
1201.32	109.333
1203.59	112.778
1205.86	117.111
1208.12	121.222
1210.39	124.222
1212.65	121.111
1214.91	122.667
1217.18	117.111
1219.44	116.889
1221.7	113.222
1223.96	112.889
1226.22	108.778
1228.48	116.111
1230.74	117.667
1232.99	124.889
1235.25	134.889
1237.51	148.111
1239.76	154.667
1242.02	153.778
1244.27	152.778
1246.53	153.667
1248.78	154.556
1251.03	158.778
1253.28	167
1255.53	174.889
1257.78	180.667
1260.03	188
1262.28	197.778
1264.53	207.778
1266.77	223.444
1269.02	242.222
1271.26	254.222
1273.51	261.333
1275.75	256
1278	254.333
1280.24	248.333
1282.48	248.444
1284.72	253.889
1286.96	251.444
1289.2	254.556
1291.44	245.667
1293.68	250.444
1295.92	250.556
1298.15	258.111
1300.39	267.111
1302.63	264.889
1304.86	268.778
1307.1	272.111
1309.33	268.111
1311.56	272.111
1313.79	266.889
1316.02	245.222
1318.26	227.444
1320.49	207.111
1322.71	189.444
1324.94	174
1327.17	162.889
1329.4	158.111
1331.62	149.889
1333.85	149.778
1336.08	148
1338.3	151.667
1340.52	155
1342.75	154.333
1344.97	148.444
1347.19	149.667
1349.41	148.667
1351.63	150.333
1353.85	157
1356.07	162.778
1358.29	167.444
1360.5	171.333
1362.72	162.889
1364.94	155.667
1367.15	152.556
1369.37	153.778
1371.58	152.222
1373.79	146.222
1376.01	143.667
1378.22	148.222
1380.43	144.778
1382.64	149.556
1384.85	151.333
1387.06	148.667
1389.27	145
1391.47	138.667
1393.68	140.111
1395.89	131.444
1398.09	129.667
1400.3	124.778
1402.5	125.444
1404.71	118.778
1406.91	119.222
1409.11	119.444
1411.31	122.556
1413.51	121
1415.71	122.778
1417.91	129.222
1420.11	129.111
1422.31	140.333
1424.51	144.111
1426.7	153.333
1428.9	168.444
1431.1	197.111
1433.29	241.333
1435.48	308.778
1437.68	376.889
1439.87	437.667
1442.06	469.667
1444.25	494.333
1446.44	532
1448.63	569.556
1450.82	567
1453.01	555
1455.2	533.778
1457.39	544.333
1459.57	525.222
1461.76	510.778
1463.94	484.444
1466.13	450.333
1468.31	422.667
1470.49	395.667
1472.68	366.111
1474.86	327.111
1477.04	295.667
1479.22	266.444
1481.4	236.556
1483.58	210.889
1485.75	188.444
1487.93	168.111
1490.11	157
1492.29	148.667
1494.46	141.444
1496.64	136.333
1498.81	131.556
1500.98	130.778
1503.16	125.889
1505.33	119.556
1507.5	116.333
1509.67	119.222
1511.84	115.111
1514.01	115.889
1516.18	112.778
1518.35	114.556
1520.51	112
1522.68	111.556
1524.85	112.889
1527.01	111.889
1529.18	115.556
1531.34	110.444
1533.51	109.222
1535.67	109.111
1537.83	106.333
1539.99	108.444
1542.15	106.889
1544.31	104.667
1546.47	108.778
1548.63	105.222
1550.79	106.111
1552.95	105.556
1555.1	102.444
1557.26	105.889
1559.41	105
1561.57	103.222
1563.72	105.333
1565.88	102.444
1568.03	106
1570.18	101.444
1572.33	102.667
1574.48	101.333
1576.63	99.8889
1578.78	100.667
1580.93	98.2222
1583.08	101
1585.23	99.8889
1587.37	97.4444
1589.52	98.7778
1591.66	98.5556
1593.81	100.444
1595.95	99
1598.1	99.5556
1600.24	99.2222
1602.38	100.778
1604.52	97.4444
1606.66	95.3333
1608.8	98.6667
1610.94	98.8889
1613.08	98.6667
1615.22	96.5555
1617.36	99.8889
1619.49	97.3333
1621.63	98.5556
1623.77	95.3333
1625.9	96.4444
1628.03	98
1630.17	94.2222
1632.3	93.6667
1634.43	94.6667
1636.56	94.8889
1638.7	96.8889
1640.83	96.8889
1642.96	96.3333
1645.08	93.6667
1647.21	95.5556
1649.34	95.2222
1651.47	93.2222
1653.59	97.6667
1655.72	94.7778
1657.84	96.8889
1659.97	96.7778
1662.09	93.4444
1664.21	95.4444
1666.34	95.7778
1668.46	99.8889
1670.58	94.6667
1672.7	95.6667
1674.82	96.2222
1676.94	95.4444
1679.06	95.3333
1681.18	95.5556
1683.29	95.4444
1685.41	98.7778
1687.52	97.4444
1689.64	95.8889
1691.76	96.8889
1693.87	99.3333
1695.98	95.2222
1698.09	97.1111
1700.21	95.1111
1702.32	95.4444
1704.43	97.4444
1706.54	97
1708.65	94.3333
1710.76	101
1712.86	99.1111
1714.97	94.2222
1717.08	95.2222
1719.19	95.3333
1721.29	96.7778
1723.4	94.4444
1725.5	96.3333
1727.6	97.7778
1729.71	94.4444
1731.81	93.4444
1733.91	93.4445
1736.01	92.8889
1738.11	92.8889
1740.21	94.8889
1742.31	94.2222
1744.41	93.2222
1746.51	95.2222
1748.6	91.7778
1750.7	90.2222
1752.8	92.7778
1754.89	91.1111
1756.99	93.1111
1759.08	92.3333
1761.17	90.2222
1763.27	91.4444
1765.36	92.2222
1767.45	90.5556
1769.54	92.3333
1771.63	92.2222
1773.72	92.4444
1775.81	97.2222
1777.9	92.7778
1779.98	90.7778
1782.07	90.1111
1784.16	92.7778
1786.24	92.3333
1788.33	92.8889
1790.41	94
1792.5	93.3333
1794.58	91.3333
1796.66	92.8889
1798.74	92.3333
1800.83	92.8889
1802.91	93.7778
1804.99	94.6667
1807.06	93.3333
1809.14	89.5556
1811.22	93.8889
1813.3	89.2222
1815.38	94.8889
1817.45	94.6667
1819.53	89.6667
1821.6	94.3333
1823.68	93.4444
1825.75	93
1827.82	89.7778
1829.9	92.6667
1831.97	91.4444
1834.04	92.3333
1836.11	93.4444
1838.18	93.2222
1840.25	92.7778
1842.32	92.8889
1844.38	93.1111
1846.45	92
1848.52	90.5556
1850.58	89.7778
1852.65	89.7778
1854.72	91.4444
1856.78	89.6667
1858.84	93.2222
1860.91	92.4444
1862.97	92.4444
1865.03	89.2222
1867.09	92.3333
1869.15	91.3333
1871.21	94.3333
1873.27	91
1875.33	90.1111
1877.39	90
1879.44	89.8889
1881.5	91.5556
1883.56	92.7778
1885.61	93.1111
1887.67	93.4445
1889.72	93.3333
1891.78	92.5556
1893.83	91.1111
1895.88	93.2222
1897.93	92.4444
1899.98	90.4444
1902.03	91.4444
1904.08	93.7778
1906.13	88.2222
1908.18	93.8889
1910.23	91.3333
1912.28	91.4444
1914.32	92.8889
1916.37	93.2222
1918.41	93
1920.46	92.6667
1922.5	93.1111
1924.55	92.3333
1926.59	93.2222
1928.63	92.7778
1930.68	93.1111
1932.72	91.8889
1934.76	90.1111
1936.8	92.8889
1938.84	93.4445
1940.87	93.6667
1942.91	91.8889
1944.95	93.1111
1946.99	91
1949.02	93.3333
1951.06	93.4444
1953.09	93.3333
1955.13	92.7778
1957.16	94.5556
1959.2	91.1111
1961.23	92.4445
1963.26	93.7778
1965.29	92.5555
1967.32	95.4445
1969.35	92.4445
1971.38	90.5556
1973.41	90
1975.44	91.7778
1977.47	93.4444
1979.5	93
1981.52	92
1983.55	89.2222
1985.57	88.2222
1987.6	93.3333
1989.62	89.7778
1991.64	94.4444
1993.67	92.4444
1995.69	92.1111
1997.71	95.8889
1999.73	90
2001.75	93.4444
2003.77	91.1111
2005.79	92.2222
2007.81	91.6667
2009.83	94.6667
2011.85	91
2013.86	94.8889
2015.88	95.4444
2017.89	91.6667
2019.91	93.8889
2021.92	93.3333
2023.94	97.5556
2025.95	91.8889
2027.96	92.4444
2029.97	97.3333
2031.99	93
2034	96.8889
2036.01	94.5555
2038.02	94.3333
2040.03	93.1111
2042.03	95.7778
2044.04	94.2222
2046.05	96.5556
2048.06	94.4444
2050.06	94.7778
2052.07	92.1111
2054.07	97.1111
2056.08	93.6667
2058.08	96.8889
2060.08	93.5556
2062.08	92.7778
2064.09	95.1111
2066.09	93.8889
2068.09	94.5556
2070.09	95.2222
2072.09	93.2222
2074.09	93.8889
2076.08	96.1111
2078.08	94.5555
2080.08	96.3333
2082.07	94.7778
2084.07	95.7778
2086.07	93.3333
2088.06	92.7778
2090.05	95.7778
2092.05	91.3333
2094.04	94
2096.03	91.4444
2098.02	92.5556
2100.01	96.5556
2102	93.8889
2103.99	93
2105.98	92.7778
2107.97	94.2222
2109.96	91.8889
2111.95	92.2222
2113.94	92.3333
2115.92	94.8889
2117.91	96.1111
2119.89	96.6667
2121.88	93.5556
2123.86	92.7778
2125.84	92.4444
2127.83	95.5556
2129.81	97.2222
2131.79	97.3333
2133.77	95.2222
2135.75	92.6667
2137.73	94.4444
2139.71	94.5556
2141.69	94.8889
2143.67	96.4444
2145.64	95
2147.62	95.2222
2149.6	96.3333
2151.57	94.5556
2153.55	92.3333
2155.52	96.8889
2157.5	95
2159.47	94.4444
2161.44	94.2222
2163.41	93.2222
2165.39	97.6667
2167.36	93.1111
2169.33	95
2171.3	92
2173.27	96.2222
2175.24	96.6667
2177.2	97.3333
2179.17	95.5556
2181.14	99.3333
2183.1	98.6667
2185.07	92.7778
2187.03	100.222
2189	97.8889
2190.96	98.8889
2192.93	96.5556
2194.89	96.1111
2196.85	94.8889
2198.81	97
2200.77	98.4444
2202.73	95
2204.69	97.3333
2206.65	96.6667
2208.61	97
2210.57	96.7778
2212.53	97.6667
2214.48	98.4444
2216.44	100.333
2218.4	95
2220.35	96.3333
2222.31	99.3333
2224.26	99.7778
2226.21	94
2228.17	98
2230.12	98.2222
2232.07	99
2234.02	98.6667
2235.97	97.6667
2237.92	97.5556
2239.87	93.3333
2241.82	97.6667
2243.77	95.4445
2245.72	97.5555
2247.66	98.5555
2249.61	95.2222
2251.56	94.6667
2253.5	97.3333
2255.45	96
2257.39	95.1111
2259.33	96.8889
2261.28	97.5556
2263.22	97.5556
2265.16	96.8889
2267.1	96.6667
2269.04	96.5556
2270.99	94
2272.92	95.3333
2274.86	97.1111
2276.8	96.3333
2278.74	92.2222
2280.68	97.3333
2282.61	95.1111
2284.55	94.5556
2286.49	96.1111
2288.42	96.2222
2290.36	95.5556
2292.29	96.3333
2294.22	94.1111
2296.16	97.7778
2298.09	93
2300.02	97.2222
2301.95	96
2303.88	94.6667
2305.81	94.2222
2307.74	91.3333
2309.67	94.6667
2311.6	94.6667
2313.53	94.8889
2315.45	93.8889
2317.38	95.5555
2319.31	93.8889
2321.23	94
2323.16	96.4444
2325.08	96.3333
2327	94.8889
2328.93	94.1111
2330.85	96.4444
2332.77	97.4444
2334.69	94.2222
2336.62	95
2338.54	96.6667
2340.46	95.1111
2342.38	96.8889
2344.29	92.6667
2346.21	94.6667
2348.13	94.3333
2350.05	97.4444
2351.96	93.5556
2353.88	94.7778
2355.79	96.5556
2357.71	97.8889
2359.62	93.3333
2361.54	96.4444
2363.45	94.3333
2365.36	94.7778
2367.27	92.7778
2369.19	96
2371.1	95.5556
2373.01	94.2222
2374.92	92.5556
2376.83	95.4444
2378.73	94.5555
2380.64	97.2222
2382.55	94.3333
2384.46	96.6667
2386.36	98.2222
2388.27	93.7778
2390.17	94.5556
2392.08	94.8889
2393.98	93.7778
2395.89	93.1111
2397.79	93.1111
2399.69	93.2222
2401.59	96
2403.5	93.8889
2405.4	95.1111
2407.3	97.6667
2409.2	94
2411.09	95.5556
2412.99	96.3333
2414.89	99
2416.79	97
2418.69	94.7778
2420.58	98.4444
2422.48	95.8889
2424.37	96.7778
2426.27	97.6667
2428.16	96.6667
2430.06	99.4444
2431.95	97.3333
2433.84	98
2435.73	95
2437.62	94.8889
2439.52	97.1111
2441.41	97.3333
2443.3	99
2445.19	96.7778
