epoch,beta,learning_rate,train_loss,train_reconstruction_loss,train_kl_unnormalized,train_kl_normalized,mean_unclipped_gradient_norm
1,0.0,0.001,0.07783458856188863,0.07783458856188863,14.815991943043874,0.010575297603885706,0.09545596901859556
2,0.02,0.001,0.060931514696519175,0.05839058635452935,177.99197112348742,0.1270463748204764,0.0878336780837604
3,0.04,0.001,0.05143878592136211,0.048544974862259435,101.35574355161279,0.0723452844765259,0.1001747479396207
4,0.06,0.001,0.04369133005016729,0.04199580119031115,39.59060396466936,0.02825881796193388,0.06129805850131171
5,0.08,0.001,0.040523874403017204,0.03788319953663606,46.24482288217186,0.033008438888059856,0.06540526077151299
6,0.1,0.001,0.037697598926330865,0.034755441012388484,41.21962173003003,0.02942157154177732,0.039465450016515594
7,0.12,0.001,0.0340784470781796,0.03118697681317204,33.75791077386765,0.024095582279705676,0.04751599154302052
8,0.14,0.001,0.03041668541561392,0.02710046495934178,33.185891411955794,0.023687288659497353,0.043325365387967656
9,0.16,0.001,0.02832142853721939,0.02462396382781348,32.37592410324211,0.02310915353550472,0.037157147590603144
10,0.18,0.001,0.02673161059692689,0.023288274772073094,26.800627204111045,0.01912964111642473,0.035272752600056786
11,0.2,0.001,0.025947835179685352,0.022167365027026723,26.48219432687401,0.018902351411044974,0.02876786980777979
12,0.22,0.001,0.025564011200366162,0.021711921744179307,24.53080520056244,0.017509496931165196,0.03489839711359569
13,0.24,0.001,0.02502938351106076,0.02121090864701976,22.29035012285811,0.01591031414907788,0.030323860501604422
14,0.25,0.001,0.024532445998194822,0.020686007083806777,21.55544504246915,0.015385756632740291,0.04580935197217124
15,0.25,0.001,0.023885067085499753,0.020242192201260337,20.414671025479347,0.014571499661298606,0.03749678576631205
16,0.25,0.001,0.023586748177208995,0.019673655929982214,21.9289704086189,0.015652370027565237,0.02877777868083545
17,0.25,0.001,0.023463751667909753,0.01963551070793231,21.453461252657096,0.015312963063995072,0.04211179353296757
18,0.25,0.001,0.022876822858824766,0.019119970743219954,21.053399418230942,0.0150274085783233,0.024446648146424974
19,0.25,0.001,0.022824494098138092,0.019239489329899464,20.090365287952853,0.014340018049930658,0.037840960015143664
20,0.25,0.001,0.022833346377563356,0.01909045578636472,20.97515883481592,0.014971562337484598,0.0634073939706598
21,0.25,0.001,0.02277786787926105,0.019046929909994726,20.908177010098793,0.014923752326979867,0.08553291724196502
22,0.25,0.001,0.022347614738651385,0.018681350670624198,20.545743053120777,0.01466505571243453,0.06872599039758955
23,0.25,0.001,0.022193799117454012,0.018776025991877516,19.15320152626898,0.01367109316650177,0.030481272377073765
24,0.25,0.001,0.021981680415626755,0.018266290155493824,20.821048411510343,0.014861562035339289,0.04283030783491475
25,0.25,0.001,0.021734299768406646,0.018184649582980272,19.89224085891456,0.014198601612358714,0.042314864828118255
26,0.0,0.001,0.018108672184640903,0.018108672184640903,23.10523399792817,0.016491958599520466,0.058659110750470846
27,0.02,0.001,0.01707154623510545,0.016464496729311936,42.523817870252415,0.03035247528212164,0.026720608052398478
28,0.04,0.001,0.017414373982893794,0.015733422907559497,58.875317776711064,0.04202378142520419,0.028612047699945315
29,0.06,0.001,0.01795009773383314,0.015536859141368615,56.34912221234544,0.04022064397740574,0.035747035539575985
30,0.08,0.001,0.018128749235232073,0.015511653869223773,45.83188079413316,0.032713690788103614,0.023490333264427527
31,0.1,0.001,0.018277549467289957,0.015760155992213646,35.26868351718836,0.025173935415552004,0.026608422664659365
32,0.12,0.001,0.01852551540056416,0.01595321469905233,30.031609508925513,0.02143583833613527,0.036149358110768456
33,0.14,0.001,0.01881797385768484,0.015838428071342912,29.81674173302519,0.021282470901516908,0.06048176158219576
34,0.16,0.001,0.018552750475088458,0.015260920432725348,28.82408906941426,0.020573939378596903,0.0727000068873167
35,0.18,0.001,0.01776550159810629,0.014380075966467834,26.349897212551948,0.018807920922592397,0.04259868059307337
36,0.2,0.001,0.01730851844457307,0.013667877884885124,25.502687181745255,0.0182032028420737,0.04498042831463473
37,0.22,0.001,0.01658756180402629,0.012447751453963289,26.363065059920004,0.018817319814361175,0.03859797811933926
38,0.24,0.001,0.016470486438251976,0.012429137494797845,23.59137594849245,0.016838954995355065,0.03637408638106925
39,0.25,0.001,0.016361824001061887,0.01237155540022336,22.361466725667317,0.015961075464430634,0.024439495988190174
40,0.25,0.001,0.016058514198115596,0.012127128210301538,22.031488729300058,0.015725545131548935,0.037065811455249786
41,0.25,0.001,0.016041069664994728,0.012105797008987059,22.0532678159556,0.015741090518169593,0.04966049561543124
42,0.25,0.001,0.015647445919743756,0.01183636680730901,21.3572872706822,0.015244316395918773,0.04448391151215349
43,0.25,0.001,0.0155934431312377,0.011688100045691607,21.885542695086105,0.015621372373366242,0.03056557729308094
44,0.25,0.001,0.015546862864610097,0.011640487719597971,21.89132523118404,0.015625499808125654,0.03852372124258961
45,0.25,0.001,0.015335071463147202,0.011395104294806196,22.079577261941473,0.015759869565982493,0.034481411267604144
46,0.25,0.001,0.015321240104492147,0.011470784283800979,21.577954696234606,0.01540182348053862,0.039485992464636056
47,0.25,0.001,0.015492453015780538,0.011620557589227693,21.698099963348312,0.015487580273624776,0.05348182136991194
48,0.25,0.001,0.015129620792871728,0.011329355173485172,21.296688844685566,0.015201062701417248,0.04007779460932527
49,0.25,0.001,0.01515320534432741,0.011459850538101859,20.69756087205165,0.014773419608887688,0.022282221088451997
50,0.25,0.001,0.014950080464283625,0.011130297892635926,21.406062314982403,0.015279130845811851,0.024477615686399595
51,0.0,0.001,0.010765397295654566,0.010765397295654566,25.618306410940068,0.018285729058486844,0.05285013360636575
52,0.02,0.001,0.01010713536282978,0.009432823901393808,47.23550713331179,0.03371556540564725,0.027212757750281265
53,0.04,0.001,0.010588607951569228,0.008767433957031048,63.78662143793321,0.04552935149031635,0.02743650507181883
54,0.06,0.001,0.011087491307734397,0.008467419046143019,61.178690210022125,0.04366787309780309,0.015466744745416301
55,0.08,0.001,0.01140243912064342,0.00876360379724313,46.21260335630642,0.03298544136781329,0.013258515857160091
56,0.1,0.001,0.011675018558096616,0.009230982311499448,34.24094637055744,0.024440361435087394,0.025166039089007036
57,0.12,0.001,0.012049652734085134,0.009465944677834074,30.16479117410225,0.021530900195647573,0.020796034285532578
58,0.14,0.001,0.012397119906126406,0.00943044725721492,29.687916590755147,0.021190518622951567,0.021610441617667675
59,0.16,0.001,0.012802043332155785,0.009482704695865027,29.064960130772793,0.02074586733102983,0.0244407109650118
60,0.18,0.001,0.013036467169964672,0.009616240301171789,26.62076447661359,0.019001259440837682,0.03376458352431655
61,0.2,0.001,0.013521052761596247,0.010029794092763934,24.456266766502743,0.01745629319521966,0.03109473828226328
62,0.22,0.001,0.013681279310961266,0.009968573444599943,23.64318455191782,0.01687593472656518,0.03629034198820591
63,0.24,0.001,0.014160640591424061,0.010407160722503537,21.910938994328777,0.01563949963906408,0.03670580605311053
64,0.25,0.001,0.01421011555333036,0.010404857284013639,21.32466815288802,0.015221033656593875,0.031150588233556067
65,0.25,0.001,0.014061805526060718,0.010269656492616599,21.251203020712488,0.015168596017639178,0.034553598745593
66,0.25,0.001,0.013957264249616847,0.010166539285415993,21.243223453225347,0.015162900394878906,0.02669467045260327
67,0.25,0.001,0.013801195224593008,0.010002549812384416,21.287608158618287,0.015194581126779648,0.037077835228826315
68,0.25,0.001,0.013912238684811987,0.010228014207984271,20.64639447147685,0.014736898266578764,0.029766568381871496
69,0.25,0.001,0.013705769721838765,0.009967059093086343,20.951734925272472,0.01495484291596893,0.021727080190820352
70,0.25,0.001,0.01382453422900056,0.010382833881280326,19.287289086439856,0.013766801632005608,0.02791656633572919
71,0.25,0.001,0.013650815387753616,0.009973460005451563,20.60789964432107,0.014709421587666716,0.02015238202043942
72,0.25,0.001,0.013596458593966966,0.01002948504772252,19.98931956470461,0.014267894050467243,0.016966749913990498
73,0.25,0.001,0.013526934444120056,0.009876553825847338,20.456733005686214,0.014601522487998725,0.02478662013475384
74,0.25,0.001,0.013416599739053495,0.009910409450811102,19.64869215255393,0.014024762421523148,0.02369006270808833
75,0.25,0.001,0.013317232342310865,0.009726561430869694,20.122120152141218,0.014362683905882382,0.018444963996963843
76,0.0,0.001,0.009300493191750277,0.009300493191750277,23.496808561167324,0.016771455075779675,0.02566991639988763
77,0.02,0.001,0.008858142913153446,0.00825099351776199,42.530813556565974,0.030357468634236957,0.016615168191492558
78,0.04,0.001,0.00942541555475845,0.007771360914323264,57.933268506425364,0.04135136938360126,0.019430320842989852
79,0.06,0.001,0.010028638370465814,0.007661818741426282,55.26524065251936,0.039446995469321455,0.01751466135361365
80,0.08,0.001,0.010139949890530497,0.007814880423154449,40.71777909740171,0.02906336837787417,0.016536631222282137
81,0.1,0.001,0.010447338120755097,0.0083146958931683,29.87831661157441,0.02132642156429294,0.01509941921436361
82,0.12,0.001,0.010858265204555857,0.008553828852703995,26.904294178898173,0.019203636101997268,0.021033209881612232
83,0.14,0.001,0.011157911646653685,0.00847454614386448,26.85282250215535,0.01916689686092459,0.02627498816166605
84,0.16,0.001,0.011489190782109896,0.008594520523079805,25.346456417762546,0.0180916890919076,0.019537715573928187
85,0.18,0.001,0.011874131428866758,0.008747451677264874,24.335990394267224,0.017370442822460544,0.01615512277930975
86,0.2,0.001,0.012154838569779742,0.008803808592483961,23.473965542059496,0.01675515027984261,0.02742450112210853
87,0.22,0.001,0.012558805130720885,0.009239307558047293,21.139163129610527,0.015088624646402945,0.026578235972140516
88,0.24,0.001,0.012934466147034389,0.009308987614560994,21.163732189283635,0.015106161448453701,0.026345381579760994
89,0.25,0.001,0.012893262365949633,0.009331182067873036,19.961897560827115,0.014248320885672459,0.01622706651687622
90,0.25,0.001,0.012861361166924462,0.009388273467489501,19.4631834914511,0.013892350814740257,0.02062994973467929
91,0.25,0.001,0.01292938146656169,0.009334820079941648,20.14392204093455,0.014378245568118881,0.03273038486284869
92,0.25,0.001,0.012755631644250755,0.009144202390578306,20.238450330002863,0.01444571758030183,0.01356101521689977
93,0.25,0.001,0.012787791046040846,0.00936710017553547,19.169552011896197,0.0136827637486768,0.01925309288448521
94,0.25,0.001,0.012626243414436666,0.009124063412871277,19.626216768919676,0.014008720034917684,0.017498121729918888
95,0.25,0.001,0.012507191726139613,0.009050586095131131,19.370818126171752,0.013826422645375983,0.015128051596028464
96,0.25,0.001,0.012597507752832911,0.009358582493001805,18.150938024496973,0.01295570165916986,0.019764649149562632
97,0.25,0.001,0.012566276335794675,0.009120993916047994,19.30736283610638,0.013781129790225824,0.020499711723199913
98,0.25,0.001,0.01247144766842811,0.009137420455241263,18.683888284783613,0.013336108697204578,0.021104782420609678
99,0.25,0.001,0.012497626861235253,0.009191231553519802,18.529039588488434,0.013225581433610589,0.02606380338381444
100,0.25,0.001,0.012366154943044324,0.009074516678439047,18.446341698629816,0.01316655367496775,0.018122243162776743
101,0.25,0.001,0.012366415225529582,0.009020037893065833,18.75309920729252,0.013385509783934706,0.023127035770033087
102,0.25,0.001,0.012296364033468683,0.008969763534278948,18.642269473924372,0.013306402194093056,0.018673967703112533
103,0.25,0.001,0.01244281366570178,0.009185178704877246,18.25578692921421,0.013030540277811713,0.019236308788614615
104,0.25,0.001,0.012322369974601389,0.008956443481053924,18.862651977921487,0.013463705908580648,0.018315519339271953
105,0.25,0.001,0.012219689296264397,0.0088847127572673,18.68920766978634,0.01333990554588604,0.012597193941473961
106,0.25,0.001,0.012188005769966091,0.008928466186786355,18.266460303973435,0.013038158675213015,0.016262509594006196
107,0.25,0.001,0.012231214567178622,0.008966101767649328,18.29769189973224,0.013060451034783897,0.025947527959942818
108,0.25,0.001,0.01212104180253538,0.008863587698019239,18.25477253046251,0.013029816224455754,0.01622691431215831
109,0.25,0.001,0.012216182649695784,0.008929438081413582,18.418917863888847,0.013146979203346785,0.021059849033398286
110,0.25,0.001,0.012148580532567692,0.008833139028428192,18.57973339205099,0.013261765447573869,0.015973601224167005
111,0.25,0.001,0.012099886294407653,0.008839247451819722,18.272620791480655,0.013042555882570061,0.021307920637939657
112,0.25,0.001,0.012208643009918824,0.009019093310231702,17.874236396082065,0.0127581987124069,0.023240933593894755
113,0.25,0.001,0.012040086963533758,0.008750406224607375,18.435370571930008,0.01315872274941471,0.018268293301974024
114,0.25,0.001,0.012018609115092975,0.008761157932922356,18.254757309916027,0.01302980536039688,0.02571550610342196
115,0.25,0.001,0.01192645042583832,0.008656736386281656,18.32347738414181,0.013078856091464532,0.012561577904437269
116,0.25,0.001,0.01203931436260093,0.008872095474455142,17.74909530486678,0.012668876020604411,0.02565563909177269
117,0.25,0.001,0.011998149055175315,0.008741857297251696,18.248260316394624,0.013025167963165328,0.019434229603835514
118,0.25,0.001,0.011838528094229693,0.00869781512972481,17.60055563025606,0.0125628519844797,0.014679812560124057
119,0.25,0.001,0.01190105138958098,0.008787477659738452,17.448466021315497,0.01245429409087473,0.02200574361320053
120,0.25,0.001,0.01183692186155863,0.008660494585645228,17.80069813453464,0.012705708875470834,0.021407278653766428
121,0.25,0.001,0.011825466624234702,0.008669995341011157,17.68326150803339,0.012621885444706202,0.01774564285629562
122,0.25,0.001,0.011858885209157802,0.008709245523610585,17.650580652375567,0.012598558638383703,0.018019577621349266
123,0.25,0.001,0.011825043876144224,0.008631624302413678,17.895923595380662,0.01277367851204901,0.029289182940764085
124,0.25,0.001,0.011975565337036786,0.008663363327601351,18.56157946765871,0.013248807614317423,0.035186912066170146
125,0.25,0.001,0.011876022291456099,0.00879486155740562,17.26682532461066,0.01232464334376207,0.020798277642045702
126,0.25,0.001,0.011851076032023383,0.008715125771804262,17.57386606737486,0.012543801618397472,0.0299343682293381
127,0.25,0.001,0.011861750536264483,0.008741023814898535,17.48855287269841,0.012482907118271528,0.03329084401151964
128,0.25,0.001,0.011837600118814405,0.008652464178551856,17.849501707798854,0.012740543688650146,0.022719127791268483
129,0.25,0.001,0.011838824551244428,0.008661862626148943,17.80369461747937,0.01270784769270476,0.028481792392475263
130,0.25,0.001,0.011651729982822462,0.00841052859162627,18.163693062344887,0.012964805897462446,0.02337438426911831
131,0.25,0.001,0.011658438173283759,0.008658641634186856,16.810859422038373,0.011999185882968146,0.017420770866530284
132,0.25,0.001,0.011589929510496165,0.008484333347445144,17.403759844022286,0.012422383900087285,0.015918897597917488
133,0.25,0.001,0.01154787388903306,0.00841063574507347,17.581082707359677,0.012548952681912688,0.015014724406812872
134,0.25,0.001,0.011563760893685477,0.008489037086640982,17.23075186937375,0.012298894981708603,0.016162142157554626
135,0.25,0.001,0.01157062208013875,0.008464579913942586,17.406260884794076,0.012424169082651019,0.015571509088788713
136,0.25,0.001,0.011443193514077436,0.008299604522759902,17.616672506308497,0.01257435582177623,0.024675133105899607
137,0.25,0.001,0.011488305005644048,0.008366080535515059,17.496946153186617,0.012488898039390876,0.016021772819970335
138,0.25,0.001,0.011410795261892011,0.00828902340753186,17.49440835173566,0.012487086617941229,0.013398149849048682
139,0.25,0.001,0.01147863382291525,0.00838670273192395,17.32718104885933,0.012367723803611229,0.016071754042059183
140,0.25,0.001,0.011443275869602249,0.00830431434706339,17.59073956329422,0.012555845512701086,0.016855979737426554
141,0.25,0.001,0.01155229322238823,0.008449255659205275,17.38942405872775,0.01241215136240382,0.018287638069263527
142,0.25,0.001,0.01148605611838195,0.008384740918426585,17.379771607860288,0.012405261675846031,0.013151569025857108
143,0.25,0.001,0.011500078204431032,0.00840732489098657,17.331790364774545,0.012371013822108883,0.024517086201480458
144,0.25,0.001,0.011401904639519546,0.00823827729067931,17.72896791042242,0.012654509572035988,0.021072408982685635
145,0.25,0.001,0.01139581593962615,0.008407536874242817,16.74631651302328,0.011953116711651165,0.01888808062566178
146,0.25,0.001,0.01139384319767692,0.008303779940632052,17.316714776787244,0.012360253231111522,0.012230153062513896
147,0.25,0.001,0.011498003430141691,0.00837690020703657,17.490662189952115,0.012484412698038625,0.017656339997691766
148,0.25,0.001,0.011507002384702963,0.008476810625527884,16.981195516753615,0.012120767677911218,0.02243273425847292
149,0.25,0.001,0.01151220657323536,0.008312386563304523,17.931791874400357,0.012799280424268634,0.015154227481356688
150,0.25,0.001,0.0114264449076657,0.008298355290073351,17.529814249292052,0.012512358493427588,0.018520215127084936
151,0.25,0.001,0.011545419076779731,0.008461305290404567,17.28337464296728,0.012336455847942384,0.025209688315434114
152,0.25,0.001,0.011401522423801267,0.008255211580404662,17.63192616130475,0.012585243512708602,0.019384426596973623
153,0.25,0.001,0.011374399712528651,0.008330449765375383,17.05829502287365,0.01217579944530596,0.020824951784951345
154,0.25,0.001,0.011308444869286734,0.008273775551589509,17.006286726260843,0.012138677177916377,0.01777030261499541
155,0.25,0.001,0.011438410911232905,0.008304008649181304,17.565189858725795,0.012537608749982722,0.019610566020544087
156,0.25,0.001,0.011374155197171191,0.008243437927627101,17.54453968822508,0.012522869156477573,0.021396452694066932
157,0.25,0.001,0.011302915772885308,0.008278990059362766,16.946079717841663,0.012095702867838445,0.025652038997837474
158,0.25,0.001,0.011306737292847388,0.008182884665453494,17.50607074651503,0.012495410953972183,0.01645603702802743
159,0.25,0.001,0.011282458285191902,0.008138023333199192,17.621412731352308,0.012577739280051611,0.019180931550051485
160,0.25,0.001,0.011261436803485816,0.008123953969108132,17.582454227265856,0.012549931639732946,0.021894541569054127
161,0.25,0.001,0.011223713006067993,0.008147791268439371,17.237465115119342,0.012303686734560558,0.024953400450093404
162,0.25,0.001,0.011245011842172397,0.008235589405031581,16.86480298436674,0.012037689496336003,0.027860872580536773
163,0.25,0.001,0.01128515247769075,0.00819028614270956,17.343631524489936,0.012379465756238356,0.023057774640619755
164,0.25,0.001,0.011334060586260674,0.008217478117305683,17.465329081791086,0.01246633053661034,0.023599882743188312
165,0.25,0.001,0.011192560149240015,0.008042230679277788,17.654446709424928,0.012601318136634496,0.01682822153504406
166,0.25,0.001,0.011188744751731853,0.008169945516159063,16.91735144784875,0.012075197321804959,0.02060912616018738
167,0.25,0.001,0.011275945063260264,0.008194577735486933,17.267983056548843,0.012325469704888539,0.019887471172426428
168,0.25,0.001,0.011295154854132418,0.00817569416077028,17.48145884081236,0.012477843569459213,0.01633290640477623
169,0.25,0.001,0.011249453461913387,0.008197474679711244,17.103288836945268,0.012207914944286415,0.013326709557856833
170,0.25,0.001,0.01113532859841385,0.008063526756426595,17.21437844775972,0.012287208028379529,0.011829018060650145
171,0.25,0.001,0.01123402136982533,0.008213979091710016,16.924317319291575,0.01208016939278485,0.015178496683282512
172,0.25,0.001,0.011137634030260836,0.008066307753324509,17.211712466744252,0.012285305115449145,0.013311585411429405
173,0.25,0.001,0.011135707046827278,0.008070351523265504,17.17825282486459,0.0122614224303102,0.010834086686372757
174,0.25,0.001,0.01109046467526216,0.00799085507005976,17.370213343684835,0.012398439217476685,0.014755274036100932
175,0.25,0.001,0.011140280195458192,0.00814033915431129,16.811669055680582,0.011999763779929038,0.015360325840967042
176,0.25,0.001,0.011065767695170297,0.007930375807183353,17.570735553751017,0.01254156713329837,0.014186760477189506
177,0.25,0.001,0.011212991926361594,0.008138582362492281,17.228990760363434,0.012297637944584893,0.015418308254863535
178,0.25,0.001,0.011064110545530206,0.007934883368764082,17.536189779601898,0.012516909193149106,0.011582369184387582
179,0.25,0.001,0.01113531865496982,0.008083661044842767,17.101489949047117,0.01220663094150401,0.013194296109889234
180,0.25,0.001,0.011239204987566125,0.008128418589482331,17.432847273977178,0.012443145805836673,0.014827603474259377
181,0.25,0.001,0.011233636460507424,0.008139988246436854,17.33680440668474,0.01237459272425749,0.024481378761785372
182,0.25,0.001,0.01112297691759609,0.00802314682936011,17.37144701104415,0.012399319779474768,0.013662954127149922
183,0.25,0.001,0.011134238127049497,0.0081449156594381,16.752164706849214,0.011957291011312788,0.011054188079599823
184,0.25,0.001,0.01110319510793178,0.008004802154297741,17.363394639247044,0.012393572190754492,0.011861896275409631
185,0.25,0.001,0.01103413744332423,0.007893259602045654,17.601478916063044,0.01256351100361388,0.011743970947074038
186,0.25,0.001,0.011059385666012167,0.008069356592992941,16.75612219234457,0.011960115768982562,0.013452081408883845
187,0.25,0.001,0.011023254063736675,0.007921173599056135,17.38405893321025,0.012408321865246432,0.016257138523672308
188,0.25,0.001,0.011006426136184456,0.00793630058613412,17.204983149554796,0.01228050189118829,0.017290496799562658
189,0.25,0.001,0.011151130210822984,0.00810575568558354,17.06627999212509,0.012181498923715266,0.024928352662495205
190,0.25,0.001,0.011125120126588601,0.008002180174310553,17.50095554342246,0.012491759845412178,0.024243432629321302
191,0.25,0.001,0.01109843437366169,0.007986190096290787,17.441016333443777,0.01244897668340027,0.02545492710279567
192,0.25,0.001,0.010997109640305652,0.007891802535039889,17.40214160450718,0.01242122883976244,0.021513538169009343
193,0.25,0.001,0.011120073270883626,0.00807348388086136,17.07308640396386,0.012186357176276846,0.01864032287682806
194,0.25,0.001,0.011157200123209105,0.008018748673673411,17.587882426747104,0.012553806157563957,0.019473759324422905
195,0.25,0.001,0.01096649139764763,0.007941988547727055,16.949314349277277,0.012098011669719683,0.014325265639594622
196,0.25,0.001,0.010994892933856425,0.007946651540976717,17.082344863050263,0.012192965641006612,0.017099984921514988
197,0.25,0.001,0.01101350108100881,0.007951155576836271,17.161384931483067,0.012249382534962931,0.019357163326016495
198,0.25,0.001,0.011051348209810586,0.008022164657506579,16.975544109679106,0.012116733839885157,0.02083145680704287
199,0.25,0.001,0.01105366755547679,0.008025039965403559,16.972429672279453,0.012114510829607033,0.023849518304424628
200,0.25,0.001,0.011024862821949156,0.007795822559237331,18.095541559663932,0.012916160999046347,0.028183570929936
201,0.25,0.001,0.011037508749349374,0.00813211202574777,16.281842927287396,0.011621586671868234,0.026148988200085505
202,0.25,0.001,0.011134569663881209,0.007942438676467814,17.88870174245428,0.01276852372766187,0.02520514146557876
203,0.25,0.001,0.010958132359729075,0.007957952587228072,16.81300751726729,0.01200071914151841,0.019479436400745596
204,0.25,0.001,0.011029980301782302,0.007966331236605955,17.168689106341294,0.012254596078758954,0.01578622098479952
205,0.25,0.001,0.010986563147402796,0.00787881692698725,17.415810840769222,0.012430985610827425,0.016522712340312346
206,0.25,0.001,0.010935266990037192,0.007925035590702728,16.8693370006437,0.012040925767768523,0.018417164949434146
207,0.25,0.001,0.010981134780890363,0.007924068420378487,17.131800051619834,0.01222826556147026,0.013951424243194717
208,0.25,0.001,0.010950111394239249,0.007909761258590043,17.038123137968824,0.012161401240520217,0.013920907064207963
209,0.25,0.001,0.010873604393132348,0.0077795196712054406,17.339250545453904,0.012376338719096292,0.015331792112972056
210,0.25,0.001,0.010917633277058303,0.007945046519725244,16.658376265886734,0.011890347084858482,0.02285719370203359
211,0.25,0.001,0.010942347770216023,0.007959782288300065,16.71429713925622,0.011930262055143626,0.012569921091198921
212,0.25,0.001,0.010915098326714863,0.007874295645321073,17.040659055972757,0.012163211317610818,0.015026843108768975
213,0.25,0.001,0.010989134694755376,0.00793699567371928,17.10418713122681,0.012208556125072668,0.013611632000122751
214,0.25,0.001,0.010930718452597321,0.007824329017453772,17.408207193054352,0.0124255583105313,0.014278353324958257
215,0.25,0.001,0.010874770847814423,0.007875099391874888,16.81015866023855,0.011998685696101748,0.013955201155373029
216,0.25,0.001,0.010862796144900764,0.00783244389480442,16.982094848365115,0.012121409599118569,0.01395621383562684
217,0.25,0.001,0.010895348254376486,0.0078119276497597085,17.279488718898076,0.012333682169092131,0.014621019762541567
218,0.25,0.001,0.010878031186404683,0.007900065943169264,16.68851742469577,0.011911861116842093,0.014871373905667238
219,0.25,0.001,0.010906224241736987,0.007868223437306502,17.024956801182643,0.012152003426968339,0.01548083359375596
220,0.25,0.001,0.010958137522850717,0.007854883220597617,17.390637122897576,0.01241301721834231,0.017404057617698396
221,0.25,0.001,0.01081052661539618,0.007720285363700755,17.317711600683687,0.012360964739959806,0.014662550895341806
222,0.25,0.001,0.010868965283988561,0.007886192401903764,16.715459641956148,0.011931091821524731,0.016836849174329212
223,0.25,0.001,0.010863981975293847,0.007809004173345659,17.120095097630244,0.012219910847701815,0.015941347793809006
224,0.25,0.001,0.010818110041338997,0.007825106566767196,16.772790770184127,0.011972013397704588,0.018729497944670066
225,0.25,0.001,0.010870603260987982,0.007928126611814537,16.4896387563911,0.0117699063214783,0.01294741446950606
226,0.25,0.001,0.010888345303821535,0.007798540223866029,17.31526714219784,0.012359219944466695,0.019070487203342572
227,0.25,0.001,0.010873875919178613,0.00780296100555618,17.20940739528876,0.012283659811055503,0.025513832590409687
228,0.25,0.001,0.010931145677571757,0.00791291400024616,16.914169866040833,0.012072926385468119,0.021791136557502404
229,0.25,0.001,0.010810044356026595,0.007699212719940751,17.43309984231055,0.012443326083019665,0.016417665939245905
230,0.25,0.001,0.010831351459661223,0.007863613417404786,16.631203868932893,0.011870952083463879,0.02136720823390143
231,0.25,0.001,0.01086403800636754,0.007746644894636813,17.469871783913824,0.012469573007790025,0.02343567181378603
232,0.25,0.001,0.010790226511881315,0.007767409956862305,16.93986372123087,0.012091266039422463,0.015141025983861514
233,0.25,0.001,0.010916306126050483,0.007912517723657732,16.83322977242912,0.012015153299378387,0.01451115243669067
234,0.25,0.001,0.010863134751847962,0.007777280704045953,17.293125903098506,0.012343416062168813,0.013160777012152331
235,0.25,0.001,0.010855196426648245,0.007821311789067616,17.001889933918353,0.012135538853617667,0.01377716740327222
236,0.25,0.001,0.010807929373810763,0.00787957627933127,16.41048953407689,0.01171341151611484,0.015183200793606895
237,0.25,0.001,0.010837748464673086,0.007762971166101165,17.23105329738225,0.012299110133748929,0.015758706123701165
238,0.25,0.001,0.010759447918350535,0.007752239157942901,16.852398654870818,0.01202883558520401,0.015562921895512513
239,0.25,0.001,0.010702592432779028,0.007795365424569985,16.29210028014984,0.011628908122876402,0.013718951560024704
240,0.25,0.001,0.010836474522761534,0.007794904482917379,17.044958764747868,0.012166280346001333,0.014319623820483685
241,0.25,0.001,0.010794873974918573,0.007680059569353298,17.455420804800546,0.012459258247537863,0.015314669414822544
242,0.25,0.001,0.010806509200250147,0.007758634596745621,17.080289587341156,0.01219149863479026,0.01680969220719167
243,0.25,0.001,0.010727854828375922,0.007728311680210638,16.809439417712372,0.011998172318138739,0.016403266295258487
244,0.25,0.001,0.01081040439739786,0.00767004347049204,17.59858288920314,0.012561443889509735,0.02801295423081943
245,0.25,0.001,0.01073685115936182,0.007821677300500167,16.336634040775156,0.011660695246805965,0.024622974518154348
246,0.25,0.001,0.010777737926645088,0.007696997439652158,17.26447141738165,0.012322963181571485,0.02922920523477452
247,0.25,0.001,0.010763056954382955,0.007819311704981447,16.49674974886098,0.011774981976346167,0.02077000162431172
248,0.25,0.001,0.010644791976905855,0.007695620260983332,16.527159296480338,0.011796687577787537,0.017454693359988078
249,0.25,0.001,0.010814213600093709,0.007673994667202533,17.597787221272785,0.012560875960937034,0.01682491015110697
250,0.25,0.001,0.010833423888138063,0.007832160978146215,16.81907790525814,0.012005052038014375,0.01613714173436165
251,0.25,0.001,0.010764613318114652,0.007703666157441629,17.15354787974728,0.012243788636507694,0.020608974886792048
252,0.25,0.001,0.010710468347695536,0.007711463670869519,16.806421576287214,0.01199601825573677,0.01607285420011197
253,0.25,0.001,0.010759485334643446,0.007746471675640359,16.884928820426005,0.01205205483256674,0.01646768075547048
254,0.25,0.001,0.010825943582245432,0.007846246864459942,16.698220637806674,0.011918787036264578,0.02746400915618454
255,0.25,0.001,0.01084570223022075,0.007806863820175629,17.02965104908573,0.012155354067869899,0.016618452300982817
256,0.25,0.001,0.01067927716192521,0.0075893509890277286,17.315945584672434,0.012359704200337213,0.012968417390116624
257,0.25,0.001,0.010565653508692457,0.007630037781047194,16.451190556499892,0.011742462923982792,0.010858635418117046
258,0.25,0.001,0.010720067524484225,0.007724502209088483,16.787147636700393,0.011982260982655526,0.012554383304502283
259,0.25,0.001,0.010594109507431662,0.007484178267708772,17.428055674808665,0.01243972567795051,0.012911517838282245
260,0.25,0.001,0.010709157285927083,0.007728252970709239,16.704988460492967,0.011923617744820104,0.01691070105880499
261,0.25,0.001,0.010716720199431842,0.00764492845027369,17.214321514120076,0.01228716739052111,0.01435898310903992
262,0.25,0.001,0.01073411217234786,0.007711768288043956,16.93721632610885,0.012089376392654425,0.0173290063227926
263,0.25,0.001,0.01070755996734352,0.007693253193788212,16.89217606403475,0.012057227740210386,0.015196742223841804
264,0.25,0.001,0.01073476538659636,0.007623595680415929,17.434995732510597,0.012444679323704922,0.020098756067454815
265,0.25,0.001,0.010823671199512063,0.007839930227451157,16.720885059289763,0.011934964353525883,0.021302585223955766
266,0.25,0.001,0.010742450373382647,0.007671868069130078,17.207543404180004,0.012282329339172024,0.023499646889311925
267,0.25,0.001,0.010809340887705335,0.0076900537179451535,17.480486614064763,0.012477149617462357,0.020973596455795423
268,0.25,0.001,0.010714637470387277,0.007700685200451834,16.890188140677928,0.012055808808478178,0.01162399903738073
269,0.25,0.001,0.01061384073390922,0.007612097855507954,16.821767897832963,0.012006972089816534,0.012659484653600625
270,0.25,0.001,0.010587260281120925,0.0076052231298652205,16.711336800329068,0.01192814903663745,0.013827207897390639
271,0.25,0.001,0.010588908803772955,0.007604390877604783,16.725238561032707,0.01193807177803905,0.01259586906858853
272,0.25,0.001,0.010622409459455568,0.0076046044725859374,16.911779590119096,0.012071220264182081,0.015078364738396235
273,0.25,0.001,0.010620994385994766,0.007699876499682067,16.36994320766669,0.011684470526528688,0.01305690041876265
274,0.25,0.001,0.010582367903587962,0.007500852962353624,17.268809727260045,0.012326059762498247,0.01425845016326223
275,0.25,0.001,0.010689089508881247,0.007641119333941088,17.080825251146667,0.012191880978691411,0.011505854582147939
276,0.25,0.001,0.010561454565005195,0.0074948690700949285,17.18514565776165,0.012266342368138224,0.013638857352946485
277,0.25,0.001,0.010619372435212882,0.007663379936831487,16.565381951200635,0.011823969986581468,0.01119144367320197
278,0.25,0.001,0.01062543164555889,0.007618196469668607,16.85254598918714,0.012028940748884467,0.012937524954655341
279,0.25,0.001,0.010568211387310709,0.007598227157227153,16.64379102185854,0.011879936489549279,0.013554649893194437
280,0.25,0.001,0.010652085509440653,0.007650911455558506,16.818578504978266,0.012004695578142944,0.019874544148998603
281,0.25,0.001,0.010660651854162378,0.007580773340057311,17.25963963482314,0.012319514371750993,0.02670512055712087
282,0.25,0.001,0.010590646411280585,0.007648879991270097,16.485658922888582,0.011767065612340174,0.02067063456135137
283,0.25,0.001,0.01061618143930695,0.007631513466334955,16.726080375805235,0.011938672645114373,0.02275967025863273
284,0.25,0.001,0.01069479271825543,0.007647973628840724,17.07437338864893,0.012187275794895739,0.023513734207621644
285,0.25,0.001,0.010648365298234728,0.0077528695862992365,16.226358270286617,0.011581983062303082,0.024444682257516042
286,0.25,0.001,0.010686454689947137,0.0076669875898848945,16.921094206042756,0.012077868812307463,0.023962542015526975
287,0.25,0.001,0.010573287814258035,0.007552491722717171,16.928540107899142,0.01208318351741552,0.02374771170850311
288,0.25,0.001,0.01060226225856701,0.007609538871673564,16.771221748868324,0.011970893468142986,0.01606362871825695
289,0.25,0.001,0.010592243424091572,0.007588608589555536,16.83237019875892,0.01201453975643035,0.012867056365524019
290,0.25,0.001,0.010563690178002929,0.007587195201345105,16.68027808970975,0.011905980078308172,0.015059849513428552
291,0.25,0.001,0.01061079206930142,0.00755380350690251,17.131364119680303,0.012227954403768953,0.015558013027267796
292,0.25,0.001,0.010568342500723395,0.007454107363794681,17.45217316132739,0.012456940157978151,0.017636897574578012
293,0.25,0.001,0.010580506754623619,0.007544476027719509,17.01391592001855,0.012144122712361564,0.017132209347827092
294,0.25,0.001,0.010653835536916753,0.007680912432085751,16.660261732593813,0.011891692885505933,0.021503409636872157
295,0.25,0.001,0.010635132523239554,0.007522814027162124,17.44143363168664,0.012449274540818444,0.014659860570515906
296,0.25,0.001,0.010550011913373805,0.0075792186849174045,16.648324885165184,0.011883172651795278,0.012991420791617461
297,0.25,0.001,0.010624228743252749,0.0076733923034000215,16.536486642402515,0.01180334521227874,0.018193129716174945
298,0.25,0.001,0.01061266442214636,0.007453902559191512,17.7017017498351,0.012635047644421912,0.014156942654933249
299,0.25,0.001,0.010688516250659799,0.007753801032583367,16.44614506962903,0.011738861577179892,0.013956245301025254
300,0.25,0.001,0.010616006187272998,0.007603996386634826,16.879301640025357,0.012048038286956001,0.015246452896722726
301,0.25,0.001,0.010583122832733289,0.0076204595975297735,16.602765520712488,0.011850653476597065,0.013827023628566946
302,0.25,0.001,0.01058817475352595,0.007602231901484474,16.733224010706547,0.011943771599362274,0.012639437136905534
303,0.25,0.001,0.010536185435409235,0.007447311868260901,17.310047871486884,0.01235549455495138,0.011778000609150954
304,0.25,0.001,0.010643339839607552,0.007648005614752758,16.785853985855752,0.011981337605892756,0.023766760847398212
305,0.25,0.001,0.010606737480613223,0.007638689828453058,16.632940464450005,0.01187219162344754,0.025040778198412487
306,0.25,0.001,0.010687307060175672,0.0076222932269624,17.176336269330857,0.01226005443920832,0.021706414675073966
307,0.25,0.001,0.010665560323268847,0.007650941654684998,16.893923804873513,0.012058475235455755,0.022247074571038996
308,0.25,0.001,0.0105866909115797,0.007410505303370773,17.79934523637432,0.012704743209403513,0.01727592692311321
309,0.25,0.001,0.010487741092803484,0.007561056889864362,16.40113882193888,0.011706737203382498,0.01159370710541095
310,0.25,0.001,0.01051110516589387,0.0074732190226776555,17.024314698718843,0.012151545109720802,0.01325724646449089
311,0.25,0.001,0.010515546022370495,0.00756109988125494,16.55671665124726,0.011817784904530521,0.01354031584092549
312,0.25,0.001,0.010562082810938955,0.007512438276731281,17.090208369090146,0.012198578421905885,0.01793870556035212
313,0.25,0.001,0.010686836581219706,0.007681107995821569,16.84410334230963,0.01202291459122743,0.02201496862939426
314,0.25,0.001,0.010545073464550171,0.007442186481522438,17.388579461807595,0.012411548509498641,0.01659672148525715
315,0.25,0.001,0.010482891567779663,0.007521458981992831,16.595868796633003,0.011845730761336904,0.011973753039325987
316,0.25,0.001,0.01053800776292731,0.00753273912950566,16.84152521405901,0.012021074385481093,0.015918660243707045
317,0.25,0.001,0.010543693972746829,0.007589457099113548,16.55554369398227,0.011816947675933097,0.02057368361524173
318,0.25,0.001,0.010482709584080785,0.00750981561634176,16.66009615656726,0.011891574701332805,0.02200671085821731
319,0.25,0.001,0.010508701863481585,0.007535060993710855,16.664282906324342,0.011894563102301458,0.015766261810702936
320,0.25,0.001,0.010501541444718987,0.007465432156437546,17.014357045778358,0.01214443757728648,0.015338736586272717
321,0.25,0.001,0.010472345149569344,0.007506721477983589,16.619355192160548,0.011862494783840506,0.013638051093689032
322,0.25,0.001,0.010519923583924173,0.007552570740419223,16.62904459013975,0.011869410842355281,0.013130301077451025
323,0.25,0.001,0.010631056682190351,0.007584524128520698,17.07276839540716,0.012186130189441226,0.016192444067980562
324,0.25,0.001,0.010571164389451345,0.007502129796266854,17.19886949964633,0.012276138115379252,0.013162991963326931
325,0.25,0.001,0.010577953756695851,0.007489153920418413,17.309634722563857,0.0123551996592176,0.015352975177977766
326,0.25,0.001,0.010587035876729135,0.007643696527582661,16.49447364137884,0.01177335734573793,0.015131533944181033
327,0.25,0.001,0.010559441577783204,0.0074928273005705134,17.185306008895836,0.012266456822909234,0.015654240734875202
328,0.25,0.001,0.010504972322710924,0.007515389545771636,16.753622645423526,0.011958331652693452,0.015219278101410185
329,0.25,0.001,0.010456452430937822,0.007488094312243892,16.634678355434485,0.011873432088104556,0.015409632585942745
330,0.25,0.001,0.010415709957965933,0.007470673944492985,16.503981611782446,0.0117801439056263,0.012831411324441433
331,0.25,0.001,0.0104114765436727,0.007422006504614849,16.752990273305947,0.011957880280732296,0.014089319189744336
332,0.25,0.001,0.010444196664674539,0.007419268969437084,16.95169524859665,0.01209971109821317,0.018846239761582444
333,0.25,0.001,0.010494694475523363,0.007482245118639672,16.881765494669292,0.01204979692695881,0.018687041077230657
334,0.25,0.001,0.01043630970926736,0.007395600617622821,17.040133459526196,0.012162836159547606,0.016721279759492193
335,0.25,0.001,0.010471619343511145,0.0074358450069108555,17.012480245795764,0.012143097962737876,0.013304398927305425
336,0.25,0.001,0.010473848948427908,0.007478975959327586,16.783268237771246,0.011979491961292823,0.012978772366685527
337,0.25,0.001,0.010479048594720382,0.007442207705873744,17.0184556774627,0.012147363081700713,0.018156556811715876
338,0.25,0.001,0.01047308196344023,0.007500649823160623,16.657508611081536,0.011889727773791246,0.018786386719771793
339,0.25,0.001,0.010475053573330692,0.007422928330733588,17.10411048353764,0.012208501415801312,0.019643906770007952
340,0.25,0.001,0.010396710174499,0.0075316308159614565,16.05590473739127,0.011460317442820321,0.012289591133594513
341,0.25,0.001,0.010408225268555017,0.007348998963253988,17.14390526200297,0.012236905968595982,0.017091191240719388
342,0.25,0.001,0.010543254937014933,0.0075224111146085845,16.92880869031251,0.012083375225062464,0.022749624880296842
343,0.25,0.001,0.010524587341605272,0.007579463355495294,16.504475615078345,0.011780496513260774,0.022748183459043503
344,0.25,0.001,0.01056580951105906,0.007448613100958274,17.46877020164241,0.012468786724941049,0.020156641357711384
345,0.25,0.001,0.01043177166379484,0.007527612532514678,16.274907035636424,0.011616635999740488,0.013537330020751272
346,0.25,0.001,0.010486947092458718,0.007484481790170709,16.825816548856576,0.012009861919240954,0.017406882186021124
347,0.25,0.001,0.010443437232969697,0.00747818070904989,16.61729807363716,0.01186102646226778,0.01770847343972751
348,0.25,0.001,0.010434452983501711,0.007382625192263745,17.102442041076813,0.012207310521824992,0.015581981278955936
349,0.25,0.001,0.01043896381754923,0.007381780297124297,17.132457747495263,0.012228735008918816,0.011918824166059494
350,0.25,0.001,0.010436283076709523,0.007463963676645493,16.65687758940503,0.01188927736574235,0.014383193238505296
351,0.25,0.001,0.010437213516978542,0.007431050608480783,16.84653725779445,0.012024651861380763,0.014710968160735709
352,0.25,0.001,0.01034253007291179,0.007336491236888003,16.845841453188942,0.012024155212840074,0.013423464194472347
353,0.25,0.001,0.0104717555546895,0.007521238207191527,16.534699533218728,0.011802069616858478,0.014807504867868764
354,0.25,0.001,0.010484224204020691,0.007394596557354643,17.314273310783214,0.01235851057157974,0.01550343060599906
355,0.25,0.001,0.010329159233429678,0.007373228358725707,16.565036948163407,0.011823723731736907,0.011350723914802074
356,0.25,0.001,0.01046051070990419,0.007505335796036218,16.56080128853781,0.01182070042008409,0.021133781543799808
357,0.25,0.001,0.010458780928773987,0.0073918938767491725,17.186834837261,0.012267548063712348,0.017945336643606424
358,0.25,0.001,0.010445225804129191,0.007418044961820868,16.964322546669713,0.01210872415893627,0.020471842693431035
359,0.25,0.001,0.010540266719677095,0.007523455988513049,16.906206886272383,0.012067242602621257,0.022991716728678772
360,0.25,0.001,0.01048366456084831,0.007418245329220492,17.17860876288928,0.012261676490284996,0.020124107732304504
361,0.25,0.001,0.01043795584409234,0.007534015139466838,16.27368253932561,0.011615761983815566,0.013790870883635111
362,0.25,0.001,0.010377086663996815,0.00737631994469983,16.816296436434104,0.012003066692672452,0.0158303671383432
363,0.25,0.001,0.01038700152179203,0.007358898926890434,16.96948746989544,0.012112410756527796,0.017990067401634797
364,0.25,0.001,0.010367781782807563,0.007359494133047143,16.858445045643283,0.012033151353064441,0.012572551811380046
365,0.25,0.001,0.010409291483517876,0.007430240189782659,16.694603229226324,0.011916205017292165,0.012886575290134974
366,0.25,0.001,0.010356367610040166,0.007403163542798289,16.54975554578585,0.011812816235393183,0.012386590907616275
367,0.25,0.001,0.010445078708847663,0.007448874004325248,16.79073154717161,0.011984819091485804,0.012790285982191563
368,0.25,0.001,0.010321568095482382,0.007317108840898688,16.836989739783725,0.012017837073364544,0.010853290956999575
369,0.25,0.001,0.010396315426773446,0.007364219081422365,16.991867815940303,0.012128385307594792,0.014478121085890703
370,0.25,0.001,0.010402551240621503,0.007441753597421231,16.592309330340317,0.011843190100171532,0.015220143965312414
371,0.25,0.001,0.010324408687688504,0.007335097265236061,16.752100970810815,0.01195724551806625,0.01579977957797902
372,0.25,0.001,0.010487895430926989,0.007511302445989503,16.680827473040512,0.011906372214875454,0.02115686730082546
373,0.25,0.001,0.010449096481117389,0.007493696184852219,16.562063938991766,0.011821601669515893,0.02007265136178051
374,0.25,0.001,0.010512795822139372,0.0074668411739674725,17.069530840804404,0.012183819301073807,0.024088264176888124
375,0.25,0.001,0.010521435216162587,0.007524473394236917,16.794974530251103,0.011987847630443329,0.017989398778549263
376,0.25,0.001,0.010443438479401414,0.007333907081668538,17.425814870007354,0.01243812624554415,0.015375264388109957
377,0.25,0.001,0.010442387349996949,0.007440369892491957,16.823307697038004,0.012008071161340474,0.014923004965697016
378,0.25,0.001,0.010422153928244771,0.007438994352390668,16.71762637088173,0.011932638380358124,0.01776599365153483
379,0.25,0.001,0.010384719333328997,0.00739878934240879,16.73315131873415,0.011943719713586117,0.012744969821402006
380,0.25,0.001,0.010378982003470113,0.007390388686742101,16.748077053175237,0.011954373342737499,0.011776530183851719
381,0.25,0.001,0.010389398073866254,0.007392428780352711,16.795014852270448,0.011987876411327944,0.010936827066221408
382,0.25,0.001,0.010472178123051063,0.0074206248408925715,17.100906152175483,0.012206214241381502,0.019355019953634058
383,0.25,0.001,0.010478398919030837,0.007492271857686285,16.734255979533184,0.011944508193813836,0.016255433538130352
384,0.25,0.001,0.010439220563809675,0.007361246562355144,17.24896608797231,0.012311895851514853,0.015478990572903837
385,0.25,0.001,0.010328774382465315,0.00735016701682319,16.692116022707527,0.011914429709284458,0.012957979525838579
386,0.25,0.001,0.010329119623043483,0.007357370043010043,16.653686270080414,0.01188699947900101,0.016378289687314203
387,0.25,0.001,0.010320832938852166,0.007323536125564934,16.79685111989951,0.011989187094860465,0.015966841684920446
388,0.25,0.001,0.010382365278974362,0.007383566517803006,16.805268677254965,0.011995195344221958,0.01445837106023516
389,0.25,0.001,0.010351223476641908,0.00728030238104494,17.20944153157093,0.012283684176710158,0.01640891297055142
390,0.25,0.001,0.010384584160843738,0.007404875175976066,16.698290277543222,0.011918836743428423,0.017201690801552365
391,0.25,0.001,0.01031255824514723,0.007259512929371873,17.10926556407957,0.012212180987922606,0.014470802753099374
392,0.25,0.001,0.010246294431556436,0.007327801153474583,16.355236134732277,0.011673972972685423,0.013366414500134332
393,0.25,0.001,0.010437225689527983,0.007403942843885126,16.998517492958776,0.012133131686622967,0.011795238658253635
394,0.25,0.001,0.010396406670710198,0.007325303449031703,17.210462737501715,0.01228441308886632,0.013801686598786287
395,0.25,0.001,0.010418712443912537,0.007388282168124404,16.982531559497193,0.012121721312988717,0.013721402734518051
396,0.25,0.001,0.010469468459860425,0.007456824957232054,16.88285443776831,0.012050574188271455,0.018933335984391824
397,0.25,0.001,0.010413924302149536,0.007432556062245877,16.707588104974654,0.011925473308333087,0.014565060447369303
398,0.25,0.001,0.010384726877275267,0.007392430155162225,16.768831611575937,0.011969187445807236,0.013173151628247328
399,0.25,0.001,0.010375392494867918,0.007290233024641087,17.289232502605085,0.012340637046827327,0.015303098862724645
400,0.25,0.001,0.010350813090166352,0.00737994468717236,16.648746148685465,0.011883473339532808,0.010870216281286307
401,0.25,0.001,0.010342862316988465,0.007355455549569207,16.74142769643836,0.011949627192318601,0.011632534941392285
402,0.25,0.001,0.01030230285473784,0.007262141928123427,17.037062458525924,0.012160644153123429,0.015315303578972816
403,0.25,0.001,0.010286788743241388,0.007310477989891493,16.679246453115518,0.011905243720996087,0.017592674919537137
404,0.25,0.001,0.010235067816418513,0.007263203382604104,16.65432880277323,0.011887458103335639,0.011938235256820917
405,0.25,0.001,0.010301901363676652,0.007318648472334956,16.71814957238678,0.011933011828969864,0.014572939835488796
406,0.25,0.001,0.01029816225992707,0.007282093145130645,16.90205188263628,0.012064276861267865,0.011584331547575337
407,0.25,0.001,0.010291950522751588,0.00732248613172045,16.640878978528473,0.01187785794327514,0.013257628971976894
408,0.25,0.001,0.010313186740834163,0.007429061093388644,16.16264115479357,0.011536503322479349,0.019001016127211705
409,0.25,0.001,0.010338025099894307,0.007310964824178987,16.963645318397006,0.012108240769733766,0.02247492011104311
410,0.25,0.001,0.010255897870488036,0.007273848568857239,16.711405770820484,0.011928198266110267,0.01430198669965778
411,0.25,0.001,0.010242476340448647,0.0072741700735475335,16.634387671200553,0.011873224604711316,0.013642042077013425
412,0.25,0.001,0.010329600082789747,0.007363506658166124,16.621987228106736,0.011864373467599384,0.01303114928305149
413,0.25,0.001,0.010313281282913266,0.007309865036087676,16.831143931338662,0.012013664476330238,0.012113554536231927
414,0.25,0.001,0.010184289423053277,0.0071977976917342885,16.736300365667894,0.0119459674273147,0.014604973473719187
415,0.25,0.001,0.010321109002470075,0.007342691512260222,16.691050715912553,0.011913669318995398,0.016006880572863987
416,0.25,0.001,0.010298044703209908,0.007225664820344676,17.21761653297826,0.012289519295487694,0.015840515228254453
417,0.25,0.001,0.010254965093743084,0.007352356028680066,16.266221390630967,0.011610436395882204,0.013745018014950412
418,0.25,0.001,0.010280021069510687,0.007270869468677238,16.863287689094257,0.012036607915127949,0.013401809148490429
419,0.25,0.001,0.01021512867392678,0.00723417984429084,16.705236893847474,0.011923795070554941,0.011327927466481924
420,0.25,0.001,0.010276973242859793,0.007310853623329921,16.622134760806436,0.011864478772881111,0.01585922283785684
421,0.25,0.001,0.01030962147462861,0.007361992558739837,16.518512797534914,0.01179051591544248,0.014719562605023384
422,0.25,0.001,0.0103084130894234,0.00725659463591967,17.102391125863058,0.012207274179773775,0.015634278766810894
423,0.25,0.001,0.010327868079556558,0.00741016827897171,16.350790654806268,0.011670799896364216,0.01595816175852503
424,0.25,0.001,0.010308281831293925,0.007292941554605886,16.897967164080246,0.012061361287708955,0.014032016109142984
425,0.25,0.001,0.010284601895133952,0.007321966755995177,16.602607492814982,0.011850540680096347,0.018385385828358785
426,0.25,0.001,0.010278609775025444,0.00730592132963819,16.65894611138748,0.011890753826829036,0.013929639144667558
427,0.25,0.001,0.010296883138554884,0.0072887481790138665,16.857588220658457,0.012032539772061712,0.014556202638362135
428,0.25,0.001,0.010339725921327309,0.007307916207421094,16.990261230851175,0.01212723856591804,0.011383750010281801
429,0.25,0.001,0.010237461240742738,0.007212502181642037,16.951870270540244,0.012099836024653993,0.012127382547727652
430,0.25,0.001,0.010245321005732194,0.007246118876849649,16.807529258249996,0.011996808892398285,0.011716149880417756
431,0.25,0.001,0.010286669968102211,0.007300553376550663,16.734198046806164,0.011944466842830952,0.014192717948130198
432,0.25,0.001,0.010256296026060605,0.00726027063381179,16.78972576017069,0.011984101184989786,0.014920085934656007
433,0.25,0.001,0.010288941029711325,0.007252843828783149,17.014288971597388,0.012144388987578435,0.015844489580818584
434,0.25,0.001,0.010386035852320959,0.0074101854792625686,16.676665102927608,0.011903401215508641,0.019610871294779435
435,0.25,0.001,0.010326133009261057,0.007284047924691723,17.047844387236097,0.012168340033715986,0.017464597709476948
436,0.25,0.001,0.0103567968960618,0.007391853113296935,16.615545550085848,0.011859775553237578,0.014877961150237493
437,0.25,0.001,0.010343655675444239,0.007342789639581116,16.816853343992307,0.012003464199851753,0.016070739632206305
438,0.25,0.001,0.010311359301545565,0.007384863425335639,16.40008333153593,0.011705983819797238,0.011540376714297704
439,0.25,0.001,0.010324625429092791,0.007363195003554188,16.59585752463281,0.01184572271565511,0.01484513801655599
440,0.25,0.001,0.010247320826060342,0.007184675793142471,17.163062628648035,0.012250580034723794,0.014953549153038434
441,0.25,0.001,0.010263621671718164,0.007292469943591153,16.650333672239068,0.011884606475545373,0.016679078340530396
442,0.25,0.001,0.010184816173499539,0.0072136743316300826,16.650279931854783,0.011884568116955591,0.011621511607830013
443,0.25,0.001,0.010227799527627184,0.007354339015177617,16.102871992833034,0.011493841536640282,0.011476463106061732
444,0.25,0.001,0.010249087752723006,0.007222021283362443,16.96368011914399,0.012108265609667374,0.011504323288266147
445,0.25,0.001,0.010239286383235813,0.007268349999529228,16.649127534756385,0.011883745563709055,0.017804129581366266
446,0.25,0.001,0.010194628053627218,0.0072190680197979275,16.67503844526477,0.011902240146513041,0.016378291084298065
447,0.25,0.001,0.01030631716314115,0.007354770745045708,16.540466064797307,0.011806185627978092,0.016783887121294225
448,0.25,0.001,0.010229259598673436,0.007228336998385221,16.81716997820632,0.012003690205714717,0.015272925142198801
449,0.25,0.001,0.01018248504041729,0.007225246545636938,16.57236369331379,0.011828953385662947,0.016131371658827578
450,0.25,0.001,0.01027382020710181,0.007335342464497066,16.467228877514525,0.011753910690588527,0.01825144195130893
451,0.25,0.001,0.010217755029262756,0.00718076042550847,17.01931833444084,0.012147978825439571,0.016213163334344114
452,0.25,0.001,0.010310322926251362,0.007364102688274886,16.510619060736254,0.011784881556556926,0.013927579325224673
453,0.25,0.001,0.01029144072050887,0.007268327219472418,16.941527584142854,0.012092453664627304,0.015542209414499146
454,0.25,0.001,0.010205920006062155,0.00720863673196438,16.79677666876848,0.011989133953439314,0.011192602438053914
455,0.25,0.001,0.01017091158114579,0.007307743455253,16.045195610600903,0.01145267352648173,0.013513547235301562
456,0.25,0.001,0.010210431883471054,0.00716010320997029,17.094041396501968,0.012201314344398265,0.011578518232064587
457,0.25,0.001,0.010185120645957184,0.0071959730452463445,16.75118314652216,0.01195659039723209,0.01434960588812828
458,0.25,0.001,0.01028785788988634,0.007327619218792682,16.58917754993104,0.01184095471087155,0.02006712569189923
459,0.25,0.001,0.010174191535863662,0.007173066403259311,16.818305452963465,0.01200450068020233,0.014394549652934074
460,0.25,0.001,0.010171866861351749,0.007238860391453842,16.436568150245456,0.01173202580317306,0.016428779810667038
461,0.25,0.001,0.010274976473254966,0.0072587283682965095,16.903055587806797,0.012064993281803566,0.016107847248869284
462,0.25,0.001,0.010211856048414134,0.0072139442797964975,16.80029901585782,0.011991648119812863,0.016881894187203476
463,0.25,0.001,0.010229149315142095,0.007212282710458925,16.90652184259324,0.012067467410844567,0.011567132281405585
464,0.25,0.001,0.010244520301732203,0.007399921990548235,15.941128656678929,0.011378393045452483,0.016036588565579483
465,0.25,0.001,0.010182029051813566,0.007135582958257064,17.072283252438805,0.012185783906094793,0.01204596074031932
466,0.25,0.001,0.010198029498091168,0.007224615057580229,16.66301477284061,0.011893657939215284,0.013686667462544782
467,0.25,0.001,0.010193103861371825,0.007193853970112882,16.807795890291832,0.011996999207917082,0.011205790165279592
468,0.25,0.001,0.010231474027000274,0.00728038362551826,16.53791143422139,0.01180436219430506,0.014374080380158765
469,0.25,0.001,0.010194955526718072,0.0071452547571992965,17.09052298122779,0.01219880298445952,0.015899920303906714
470,0.25,0.001,0.010344981531003364,0.007431705477635812,16.325999233656958,0.011653104378056358,0.015802388212510517
471,0.25,0.001,0.010229279938385002,0.007230429275236781,16.805560014002904,0.011995403293363956,0.012476032333714622
472,0.25,0.001,0.010171529332778059,0.007187272723119958,16.723774572960416,0.011937026818672673,0.016013610043695996
473,0.25,0.001,0.010257413475435778,0.007307783310724082,16.52972809832198,0.011798521126568151,0.018415994676096097
474,0.25,0.001,0.010237246817141249,0.007292359392800576,16.503149113858253,0.011779549688692543,0.019008707920355455
475,0.25,0.001,0.010244987748637982,0.007269577414992459,16.674199211866334,0.011901641121960268,0.020060716596032892
476,0.25,0.001,0.010267190301422039,0.007279061352866783,16.745475663875876,0.011952516533815757,0.014364436002714294
477,0.25,0.001,0.010261067518390211,0.007227995409571885,16.99733660991927,0.012132288800798908,0.01728895878685372
478,0.25,0.001,0.010163956009000913,0.007133056281279203,16.985162400362785,0.012123599143727898,0.011818773379283292
479,0.25,0.001,0.01011083364710772,0.0072498168938683535,16.033138198661327,0.011444067236731853,0.011373300770563739
480,0.25,0.001,0.010233427285867975,0.007281186546952952,16.544357271122752,0.011808963077175412,0.01597437701587166
481,0.25,0.001,0.010250113678064412,0.007226857834059119,16.942325223956193,0.012093023000682507,0.014983171331030982
482,0.25,0.001,0.0102358011617547,0.007235068621295959,16.816106060095002,0.012002930806634548,0.01153481671852725
483,0.25,0.001,0.010176839050194971,0.007176432364099755,16.81427938896313,0.0120016269728502,0.014949005429766007
484,0.25,0.001,0.010241255570287095,0.007320080412304341,16.37026484209792,0.011684700101426068,0.014104609111590045
485,0.25,0.001,0.01016453880452572,0.007103950077000268,17.151539312568225,0.012242354969713223,0.01132197744612183
486,0.25,0.001,0.01022132785575357,0.007323164229087513,16.241308475198004,0.011592654157885799,0.01958692991839988
487,0.25,0.001,0.010222996736790304,0.007146077592364678,17.243054956421815,0.012307676628423851,0.020076329686811993
488,0.25,0.001,0.0102226860391765,0.0072090295388510355,16.88853030575248,0.012054625485904696,0.01934334835303681
489,0.25,0.001,0.010186194561253813,0.007230309443898443,16.56478059620487,0.011823540753893554,0.014309667583022798
490,0.25,0.001,0.01021501857479264,0.007245897012004129,16.63895814938653,0.011876486901774824,0.01354936177709273
491,0.25,0.001,0.010186688465656792,0.007158351847365088,16.970799223820965,0.01211334705483295,0.015077978372573853
492,0.25,0.001,0.010171768869411079,0.007262714942427058,16.302338284657413,0.011636215763495656,0.016407073076282228
493,0.25,0.001,0.010202573404593724,0.0072864644523513945,16.341875439598446,0.01166443643083401,0.017754977302891866
494,0.25,0.001,0.010147299276744215,0.0071151996425873505,16.991887133223074,0.012128399095805192,0.01825713539229972
495,0.25,0.001,0.01026393078444969,0.007358164894149492,16.283912696933985,0.011623064023507485,0.024000632310552255
496,0.25,0.001,0.010227919927329049,0.007268009848547236,16.587336437445238,0.011839640569197172,0.01696817310793059
497,0.25,0.001,0.010103904308382431,0.007127735670422551,16.67844866511218,0.011904674279166439,0.013079244244311537
498,0.25,0.001,0.010189174562412546,0.007196179923734495,16.772741943971255,0.011971978546731802,0.016396230618868555
499,0.25,0.001,0.010172026829425255,0.007178306437207195,16.776808831924782,0.011974881393236818,0.018109975781823908
500,0.25,0.001,0.010132854935108569,0.007167735364624208,16.616530894038075,0.01186047886797864,0.012559091805347375
