epoch,beta,learning_rate,train_loss,train_reconstruction_loss,train_kl_unnormalized,train_kl_normalized,mean_unclipped_gradient_norm
1,0.0,0.001,0.08317684212274719,0.08317684212274719,32.77821673008434,0.023396300306983826,0.12065010837146214
2,0.02,0.001,0.05489451798580045,0.049694135019504336,364.2868235499638,0.26001914600282927,0.11496502639991897
3,0.04,0.001,0.048583019151350014,0.041396835552794595,251.69607689267113,0.17965458736093584,0.08964782048548971
4,0.06,0.001,0.04344855804453816,0.04092467211205559,58.93274289085751,0.04206477008626518,0.10574622452259064
5,0.08,0.001,0.03820516293247541,0.03529295064789012,51.00010651514345,0.0364026456210874,0.0995842604232686
6,0.1,0.001,0.03668800409985963,0.03345959147153642,45.23005978385906,0.0322841254702777,0.06815589485423905
7,0.12,0.001,0.036209720492661746,0.033901947818901906,26.943253490859107,0.01923144431895725,0.07167464734188148
8,0.14,0.001,0.035445383397446836,0.033254653733587804,21.922939792910316,0.01564806551956482,0.06337551905640534
9,0.16,0.001,0.034715149766371065,0.03243960264631381,19.925259183821524,0.014222169296089595,0.041726090013980865
10,0.18,0.001,0.03402418260436907,0.03185373349091911,16.893325863027933,0.0120580484389921,0.03691363973276956
11,0.2,0.001,0.03309730498264905,0.030958122968262898,14.984971536430798,0.010695911160907064,0.03904579446784088
12,0.22,0.001,0.03182100626478966,0.02941991945257163,15.290562851984697,0.010914034869368093,0.04624089093080589
13,0.24,0.001,0.030101520049019267,0.027310122093909366,16.294787328046066,0.01163082607283802,0.035911579483321736
14,0.25,0.001,0.02841072939896494,0.025319275266507214,17.324508695674123,0.012365816342379815,0.019074597395956516
15,0.25,0.001,0.026517934135551143,0.023275840962142275,18.168692070141173,0.012968374068623249,0.019362616884921278
16,0.25,0.001,0.025421341484351864,0.022118900811537764,18.506879849541455,0.013209764346567777,0.03701731921838863
17,0.25,0.001,0.023952284748467587,0.020737958086985992,18.013088355387065,0.01285730789106857,0.028160317800939083
18,0.25,0.001,0.02309708195484073,0.01963229964307526,19.416641885475407,0.013859130539240119,0.031926999400768964
19,0.25,0.001,0.021881327247783952,0.01849052089646944,19.00207691144824,0.013563224062418442,0.03744534509522574
20,0.25,0.001,0.02100237876288873,0.017594549212053903,19.097476873182714,0.013631318253520852,0.06949187841798578
21,0.25,0.001,0.019758111547519986,0.016115344759721057,20.41406674492628,0.014571068340418472,0.04046554597360747
22,0.25,0.001,0.019523853001962032,0.01595343018702248,20.008650691288157,0.014281692142247079,0.04385660296039922
23,0.25,0.001,0.019027757474727798,0.015432837846359812,20.145928676863363,0.014379677856433522,0.045644211183701246
24,0.25,0.001,0.01892282431455035,0.015246503029420114,20.602105936609714,0.014705286178879168,0.04310051418308701
25,0.25,0.001,0.018534605155575246,0.014868893728295066,20.542645112613688,0.01466284447724032,0.04089550860226154
26,0.0,0.001,0.014448227171779127,0.014448227171779127,23.23284087025731,0.01658304130639351,0.05753676114337785
27,0.02,0.001,0.013465917284103264,0.012887546363144292,40.51486837057243,0.02891853559641144,0.02206876009170498
28,0.04,0.001,0.013765764632787472,0.0121117517151368,57.93180875849903,0.04135032745074877,0.011879154414470707
29,0.06,0.001,0.014504283195114076,0.011831672593745821,62.40545791014095,0.04454351028561096,0.023202245389776572
30,0.08,0.001,0.014835636558613382,0.011922200163709639,51.021560200473715,0.036417958744092586,0.02048984475966011
31,0.1,0.001,0.014950169957614034,0.012256775226415996,37.73445834970116,0.026933946002641797,0.0194355095071452
32,0.12,0.001,0.015286603893496488,0.0126484452623099,30.800502428136074,0.021984655551845877,0.022068551475448266
33,0.14,0.001,0.015590522905116094,0.012803867898115837,27.88645364766133,0.019904677835589815,0.02531026317072766
34,0.16,0.001,0.01597369581759723,0.012840424477587218,27.435708574185096,0.01958294687664889,0.03172879173819508
35,0.18,0.001,0.01627745522760359,0.01281457299128511,26.95276754183279,0.019238235219009844,0.027476352107312
36,0.2,0.001,0.016366794420625632,0.012885017792010367,24.389848216733238,0.017408885236783182,0.020860503693776473
37,0.22,0.001,0.01658915835234306,0.013006173699795454,22.81709961186077,0.016286295226167573,0.02065230600003685
38,0.24,0.001,0.017071731379232312,0.013166811664992556,22.794970074990637,0.01627049969663857,0.035670213135225434
39,0.25,0.001,0.017032093702252945,0.01331393408325307,20.836567905014917,0.01487263947538538,0.02990182489156723
40,0.25,0.001,0.016963183674447817,0.01328041170604695,20.63825485879616,0.014731088407420528,0.033695359315191
41,0.25,0.001,0.016740049793382634,0.013122037664653365,20.27534126339102,0.014472049438537488,0.030816388316452503
42,0.25,0.001,0.0164841548784783,0.013024368103976388,19.38864490920141,0.013839146973020279,0.0276439811236092
43,0.25,0.001,0.016601642607746266,0.013064299014520674,19.823274688911916,0.014149375224062751,0.01452792196401528
44,0.25,0.001,0.016360183342133548,0.012834826895131502,19.756097301205894,0.014101425625414629,0.026704593495066677
45,0.25,0.001,0.016272174899365967,0.012727996969320123,19.861573274273024,0.01417671183031622,0.030011733594749655
46,0.25,0.001,0.016225206950460012,0.012900376862806635,18.632347976952268,0.01329932046891668,0.01670322474092245
47,0.25,0.001,0.016270322314367855,0.012753652306016824,19.707417710383137,0.014066679307910876,0.027320651470550468
48,0.25,0.001,0.01605128118054087,0.012511199851401318,19.838615570450784,0.014160325175196848,0.02832904371566006
49,0.25,0.001,0.016000894810957716,0.01260004272651777,19.058375688423787,0.013603408771180433,0.036831039270120006
50,0.25,0.001,0.016033679088180822,0.012757649059339723,18.358873520279886,0.013104120999486,0.023200729994901588
51,0.0,0.001,0.011789124190601939,0.011789124190601939,23.65821467425889,0.01688666286528115,0.01764755217092378
52,0.02,0.001,0.011347777929091663,0.010783153702796701,39.551928919359554,0.028231212647651358,0.019591056475681917
53,0.04,0.001,0.011747030604322603,0.010153605934129771,55.809705012424246,0.039835620993878836,0.0169796474011881
54,0.06,0.001,0.012453289296394004,0.009999554177143969,57.2947148870406,0.040895585215589295,0.014809680038264819
55,0.08,0.001,0.012791983405114116,0.010208471591834137,45.24375336152271,0.0322938996156479,0.02050792159778731
56,0.1,0.001,0.012994075824219482,0.010644499158818172,32.91756758056488,0.023495765582130533,0.03248326247557998
57,0.12,0.001,0.013278219811524963,0.010930502341411318,27.4096036351713,0.0195643138009788,0.014317951364708799
58,0.14,0.001,0.013565115236156717,0.010954062323690507,26.129181591789227,0.018650379437394168,0.016855852412325994
59,0.16,0.001,0.013773165183389247,0.010821829839401824,25.84263044371641,0.018445846141125204,0.013825703013156141
60,0.18,0.001,0.014136836688993569,0.011088376106194835,23.727183745917223,0.01693589132470894,0.012689386095319475
61,0.2,0.001,0.014521820792802294,0.011265622514923265,22.809669078740857,0.01628099149089283,0.0220119726977178
62,0.22,0.001,0.014623394618767844,0.011204676004710203,21.77102229947733,0.015539630477856767,0.025218916657779897
63,0.24,0.001,0.014851797810921394,0.01125811582856011,20.97811872439277,0.014973675035255367,0.022132074194295064
64,0.25,0.001,0.015006166268933686,0.011599076613036911,19.093331172053976,0.013628359152072788,0.01735242722289903
65,0.25,0.001,0.014942262989275139,0.011527714065105695,19.135131587360735,0.013658195280057628,0.01277080031910113
66,0.25,0.001,0.014727049306464525,0.011278153072697179,19.327615145155065,0.01379558539982517,0.020883071768496717
67,0.25,0.001,0.014861781999730227,0.011583787487133554,18.369881352685148,0.013111978124686044,0.02767216573868479
68,0.25,0.001,0.014626391689505493,0.01142768170404479,17.92557144165039,0.012794840429443533,0.016734716349414418
69,0.25,0.001,0.014643789864236251,0.011357248816779233,18.41777683917741,0.013146164767435697,0.021720092743635178
70,0.25,0.001,0.01454261389040484,0.011265758847476994,18.363496455333586,0.013107420738996135,0.01586059627256223
71,0.25,0.001,0.014344642013498117,0.011209174000977873,17.571162680336705,0.01254187200595054,0.01533902416537915
72,0.25,0.001,0.014460380464549501,0.011264290515902945,17.91088781141697,0.012784359608434668,0.02103192944611822
73,0.25,0.001,0.014407912409283165,0.011207149772529016,17.937074101957162,0.012803050750861644,0.01560168048100812
74,0.25,0.001,0.014349457481059065,0.011087976531464056,18.277338558569888,0.013045923310899278,0.02647450552987201
75,0.25,0.001,0.014176636544478717,0.011070461813033674,17.407003144572553,0.012424698889773414,0.019427539581166848
76,0.0,0.001,0.010893071133335283,0.010893071133335283,20.175886053788034,0.014401060709341922,0.027944809224988734
77,0.02,0.001,0.010516460009274028,0.01003445484873869,33.76445579050776,0.02410025395468077,0.02227923832833767
78,0.04,0.001,0.010745736532249396,0.00938315720374423,47.72433437261366,0.034064478495798474,0.02625261712819338
79,0.06,0.001,0.011263892936863397,0.009221647567300121,47.68643057495729,0.03403742367948415,0.014830606989562511
80,0.08,0.001,0.011468911069657719,0.009314280437459624,37.73297309397456,0.02693288586293687,0.012080415085490261
81,0.1,0.001,0.0116874941048168,0.009683802018973762,28.07172583577627,0.02003692065365901,0.010497118013777904
82,0.12,0.001,0.011954557631435549,0.0099190100373929,23.76501790861737,0.0169628964372715,0.01004975994250604
83,0.14,0.001,0.012220317546866442,0.009873156342422007,23.488376650893898,0.016765436581651603,0.014401696023664303
84,0.16,0.001,0.012582270680625635,0.009980951879350912,22.77779952027744,0.016258243768934647,0.012352364004722663
85,0.18,0.001,0.012931588040501402,0.010105181513424207,21.998864448757697,0.01570225870717894,0.02371408444430147
86,0.2,0.001,0.013229771566234137,0.010219463754099862,21.087205576119864,0.015051538598229738,0.018346254181649004
87,0.22,0.001,0.013339187590438024,0.010229845795042831,19.800854025628034,0.014133371895523222,0.019082559937877313
88,0.24,0.001,0.013609492668139756,0.010420697703864192,18.614591431199457,0.013286646274946079,0.03333099452512605
89,0.25,0.001,0.013636533173272633,0.010445129474097476,17.8846272203259,0.012765615432067024,0.03136661249612059
90,0.25,0.001,0.013700815069402818,0.010543796670317351,17.691930675267574,0.01262807328712889,0.016523566895297596
91,0.25,0.001,0.013443991807954652,0.010315979877603533,17.529378914892824,0.012512047762236134,0.012635015416890383
92,0.25,0.001,0.013442098804957288,0.01033170296014625,17.43065917701052,0.012441583995011076,0.014968284073152713
93,0.25,0.001,0.013428901158796068,0.01022863396464434,17.934297977533557,0.01280106922022381,0.018172112426587513
94,0.25,0.001,0.013306172079124247,0.010248811392669092,17.13344901426693,0.012229442551225503,0.014341423487556832
95,0.25,0.001,0.013518587483051127,0.010560103568404838,16.579343970258133,0.01183393573894228,0.012410822590546948
96,0.25,0.001,0.01335670978279042,0.0102810699394659,17.235885675090895,0.01230255936837323,0.012746504241866725
97,0.25,0.001,0.013306331785773872,0.010212781804060577,17.336253656181775,0.012374199611835671,0.012764278932341508
98,0.25,0.001,0.01329946716112974,0.010260209959364474,17.031996989907476,0.012157028543831175,0.014264314834560667
99,0.25,0.001,0.013383741030716956,0.010274183401898633,17.42596145381306,0.012438230873528236,0.02337734680622816
100,0.25,0.001,0.013271607762029894,0.010229371588462427,17.048692112877255,0.012168945119826734,0.02240053564310074
101,0.25,0.001,0.013315896459278605,0.010402606345040906,16.326077568799928,0.011653160291791526,0.020337479322084358
102,0.25,0.001,0.013246617128227587,0.010186426546938139,17.149308360011357,0.012240762569601254,0.022445038626236574
103,0.25,0.001,0.013229150397418286,0.010266859709917753,16.600677791394684,0.01184916330577779,0.01192525854068143
104,0.25,0.001,0.013118901670464598,0.010082986439230448,17.01326995027394,0.012143661634742285,0.014010134552206312
105,0.25,0.001,0.013171175630170302,0.010096338094401181,17.23138959784257,0.012299350176904046,0.01914768772465842
106,0.25,0.001,0.013204065293895272,0.01021691975662284,16.73996320643222,0.011948581874683954,0.017933075183204243
107,0.25,0.001,0.013078580227654828,0.010061252836539483,16.909103254925338,0.012069309960689036,0.015252988652459212
108,0.25,0.001,0.013139004298581515,0.01016708811917774,16.65461834211995,0.011887664769536009,0.013497147908700364
109,0.25,0.001,0.012959675083781843,0.01000480978215174,16.559064726482955,0.01181946090398498,0.011891965488237994
110,0.25,0.001,0.012944571823255162,0.010029643563959832,16.33525852690962,0.011659713438193876,0.014306884658123766
111,0.25,0.001,0.013073171853066836,0.010105280966537638,16.63206170017558,0.011871564382709194,0.017970473239464418
112,0.25,0.001,0.012911468783958364,0.00992608946143535,16.730067334378273,0.01194151843995594,0.012867526151239872
113,0.25,0.001,0.013017707161213221,0.010093666904869684,16.38632237044791,0.01169616157776439,0.01863311404096229
114,0.25,0.001,0.01292541363092144,0.009871856762297022,17.112133260358846,0.012214227880341788,0.009766401323888983
115,0.25,0.001,0.012916297691507745,0.009948730760517725,16.63024590188698,0.011870268309698059,0.014990981934326035
116,0.25,0.001,0.012884734324494699,0.00997159110246819,16.325254736687604,0.011652572974081088,0.017918532581201622
117,0.25,0.001,0.012978591510377134,0.010000527806038545,16.68906887312581,0.011912254727427416,0.022372286500675336
118,0.25,0.001,0.012976402584883504,0.009986189285055139,16.757155836674205,0.01196085355936774,0.031139239868415252
119,0.25,0.001,0.012852777701272702,0.009956424971832368,16.23116171509401,0.011585411645320494,0.019277317050312246
120,0.25,0.001,0.012868155881687812,0.009909862449350661,16.578275541912642,0.01183317312056577,0.013362124296171325
121,0.25,0.001,0.012822819012392284,0.009835714768422278,16.739732345542812,0.011948417091750757,0.022884166267301356
122,0.25,0.001,0.012816515828209711,0.009875744504195856,16.48008222269235,0.011763085098281476,0.028851049286978587
123,0.25,0.001,0.012783382270008997,0.009827678981132078,16.563760790908546,0.011822812841476479,0.026114444381424358
124,0.25,0.001,0.012758799336085045,0.009849380827823976,16.30438124386589,0.011637673978491,0.01431111991405487
125,0.25,0.001,0.012627330629673219,0.009753757308150892,16.103505724952335,0.011494293879337855,0.011392075701483659
126,0.25,0.001,0.012658745006081603,0.009777124966483069,16.148598735493824,0.011526480182365328,0.012123110970216138
127,0.25,0.001,0.012744784411182977,0.009719694306359704,16.952607233721512,0.012100362051193084,0.02258443659437554
128,0.25,0.001,0.012797139972485695,0.009832538823062615,16.613625626814994,0.011858405158326191,0.02869816031306982
129,0.25,0.001,0.012679198339002622,0.009788173388568381,16.20130395530758,0.011564099896722042,0.022889542526432445
130,0.25,0.001,0.012785571391570539,0.009769459266710401,16.902292892150115,0.012064448888044336,0.01682713707642896
131,0.25,0.001,0.012754710456519797,0.009792012139165163,16.60296140398298,0.011850793293349737,0.01661033821957452
132,0.25,0.001,0.012575825132466946,0.009654739941645386,16.36976207169076,0.011684341236039087,0.021193978376686573
133,0.25,0.001,0.01266457971633601,0.00975888943939206,16.283489313340723,0.011622761822513008,0.019635722639837434
134,0.25,0.001,0.012742297964305956,0.009806817138385503,16.450435796178372,0.011741924194274356,0.021381126450640813
135,0.25,0.001,0.012648232841402068,0.009672311585125768,16.67706294764851,0.011903685187472169,0.014292547279702765
136,0.25,0.001,0.012515808784760031,0.009588182948174932,16.40641633131749,0.01171050416225374,0.017514176001506194
137,0.25,0.001,0.01248725825327829,0.00958915526294768,16.240969077088778,0.011592411903703624,0.014758759045175143
138,0.25,0.001,0.012516641671907035,0.009616983809361332,16.249681965151527,0.01159863095299895,0.015389480361981052
139,0.25,0.001,0.012520813474193551,0.00959158715392862,16.415384206556737,0.011716905215243925,0.012407627089747362
140,0.25,0.001,0.012462560344197996,0.009526656578787436,16.452806859984435,0.011743616602415729,0.01393878592976502
141,0.25,0.001,0.012328835078200004,0.009479689075702563,15.966614782959596,0.011396584427522909,0.009794857219925948
142,0.25,0.001,0.012449100650940324,0.009506255523640112,16.491704673097846,0.011771380922982046,0.012574966597769941
143,0.25,0.001,0.012418693781160471,0.009440462371068341,16.690009004788887,0.011912925770727258,0.012521703927112477
144,0.25,0.001,0.012447738219379332,0.009530254513641498,16.349580181571177,0.011669935889772432,0.010067044557737452
145,0.25,0.001,0.012362314523536162,0.009414723889906903,16.518298273397267,0.011790362793288557,0.011273454608661788
146,0.25,0.001,0.012357995338868676,0.00950266757191049,16.001256842362253,0.011421311093763207,0.014735121146908827
147,0.25,0.001,0.01233219259644959,0.00941450900647948,16.350699183337372,0.011670734606236525,0.012641847133636475
148,0.25,0.001,0.012303618023307402,0.00939954192445317,16.274442414592084,0.011616304364448311,0.01354127689929945
149,0.25,0.001,0.012333107234578682,0.009465786217616167,16.068468084311426,0.011469284856753338,0.021280839440545866
150,0.25,0.001,0.012361138393836362,0.009296453338499207,17.174495252451504,0.01225874036577552,0.01669300054865224
151,0.25,0.001,0.012412785823202521,0.009567451808032087,15.945252798553696,0.011381336758425193,0.01656509144231677
152,0.25,0.001,0.01228418212178581,0.009360141125519323,16.386326323774526,0.011696164399553552,0.017190528235265186
153,0.25,0.001,0.012329311754302423,0.009386090596759678,16.493812819172565,0.011772885666789839,0.01892869101305093
154,0.25,0.001,0.012280964568014582,0.00942366604429476,16.012300864198153,0.011429194050105748,0.011643147096037865
155,0.25,0.001,0.012351392051741891,0.009439901283062192,16.31599493672077,0.01164596355226322,0.011950840375253133
156,0.25,0.001,0.012311542483704878,0.00934225843430387,16.639867921222123,0.011877136274962258,0.017912932405514375
157,0.25,0.001,0.012350036874693587,0.00942185670510868,16.40952213545491,0.011712721010317567,0.0178198531003935
158,0.25,0.001,0.012260089014519127,0.009342169137041372,16.35202401622495,0.011671680239989256,0.010429841399724995
159,0.25,0.001,0.012205518175261958,0.009363142122283466,15.92867594554012,0.011369504600671035,0.012953244083161865
160,0.25,0.001,0.012230135939249718,0.009321006999950959,16.302758967368526,0.011636516036665615,0.016143071465194225
161,0.25,0.001,0.012253413833491038,0.009325948448146795,16.405516239634732,0.011709861698525862,0.013553076822842871
162,0.25,0.001,0.012203214377314225,0.0093375659923543,16.05909335583374,0.011462593401737144,0.012649955294494118
163,0.25,0.001,0.012216838081378984,0.009234458324791197,16.713255191506597,0.011929518337977585,0.019680533358561143
164,0.25,0.001,0.012254618400040277,0.009340077816020875,16.33308622412813,0.01165816290087661,0.017195510611470257
165,0.25,0.001,0.012201346643735891,0.009313119769115048,16.185622891686613,0.011552907131824849,0.01448293382834111
166,0.25,0.001,0.012114743863169412,0.009150531166291475,16.611449382657693,0.011856851807749959,0.011385094507464341
167,0.25,0.001,0.012205106138548158,0.009355417076955762,15.969658897036599,0.01139875724270992,0.01507074891456536
168,0.25,0.001,0.012128037120446675,0.009285752740887025,15.928161833818097,0.011369137640127121,0.01958086434751749
169,0.25,0.001,0.012146397757537682,0.009262559503634322,16.16102987781802,0.011535353231847267,0.011876861830907208
170,0.25,0.001,0.012224594448555382,0.00930883948292051,16.33989135245034,0.011663020237295032,0.01482799496235592
171,0.25,0.001,0.012200514860637952,0.00922440907411408,16.67809617848026,0.011904422682712534,0.02996511770678418
172,0.25,0.001,0.012108811758514634,0.00925767094475733,15.977793050589119,0.011404563205274174,0.012775452741022621
173,0.25,0.001,0.012132279530522368,0.009217530535650732,16.33425331832771,0.011658995944559394,0.0110925316943654
174,0.25,0.001,0.012103846768164695,0.009216513202285259,16.180617315727368,0.011549334272467786,0.01476013959784593
175,0.25,0.001,0.011952375736376994,0.009068087070134649,16.163553582098253,0.011537154591076555,0.010822526179254055
176,0.25,0.001,0.01197194050820101,0.009135105325035135,15.897624859535007,0.011347341084607429,0.012177626469305583
177,0.25,0.001,0.011982138775158347,0.009124038225147211,16.016795966260712,0.011432402545510858,0.012385329098573752
178,0.25,0.001,0.012052132236890327,0.009100589191629774,16.540447502805474,0.01180617237887614,0.013471368966358048
179,0.25,0.001,0.012094794945291858,0.009122700474801518,16.655616970588092,0.011888377566444034,0.017389047890901566
180,0.25,0.001,0.012080112649571328,0.009163946158399707,16.34219765722901,0.011664666422005004,0.016912934237292836
181,0.25,0.001,0.01207577849838668,0.009149376130231042,16.399560168273467,0.011705610398482133,0.02006113888429744
182,0.25,0.001,0.012039311736691417,0.009071839999006057,16.62971166261754,0.01186988698259639,0.018671427853405476
183,0.25,0.001,0.012051131410575601,0.009188435528249968,16.042548378009844,0.011450783995724372,0.01569366335336651
184,0.25,0.001,0.011958258947763676,0.009075934394148359,16.15254742041566,0.011529298658398045,0.009381338089172329
185,0.25,0.001,0.011969660341104768,0.00912630306393431,15.93417403333468,0.01137342900309399,0.014445777450289046
186,0.25,0.001,0.011956336648952692,0.009066786953157052,16.193036227596732,0.011558198592146133,0.016577155462333133
187,0.25,0.001,0.011984181592712426,0.00910827304402315,16.11659163759466,0.011503634288076131,0.013257298086370741
188,0.25,0.001,0.011975204961883245,0.00906994794367026,16.281060828302138,0.011621028428481183,0.013233247878296035
189,0.25,0.001,0.011936167493126447,0.009051309898495674,16.166742654671346,0.01153943087414086,0.01546914383236851
190,0.25,0.001,0.011959841451549292,0.009059291639899774,16.254681551366822,0.011602199537021286,0.01444459134446723
191,0.25,0.001,0.012006868087782297,0.009089586896854535,16.348445113141434,0.011669125705311516,0.017000381568712846
192,0.25,0.001,0.011949203119503525,0.009032008224131917,16.347960887994983,0.011668780077084214,0.012428563221224717
193,0.25,0.001,0.012029268622473069,0.009188170218023291,15.921515357225461,0.011364393545485697,0.014248070307075977
194,0.25,0.001,0.011998872032253664,0.00899264675782139,16.84688651292844,0.012024901151269406,0.013924960845283099
195,0.25,0.001,0.011958506476498187,0.008925365184884248,16.99772440401235,0.012132565598866774,0.013145216208483492
196,0.25,0.001,0.011912418811822445,0.009010252078299535,16.263742174421036,0.011608666791164195,0.01222746619688613
197,0.25,0.001,0.01198028768167684,0.009146669096451131,15.879599143389173,0.011334474763304191,0.013270346048687185
198,0.25,0.001,0.011894593780911657,0.008978395984230335,16.34237333407677,0.01166479181590062,0.011774298202778612
199,0.25,0.001,0.011865482948029549,0.00897099565537203,16.220706796287594,0.011577949176507918,0.015277754116271223
200,0.25,0.001,0.011884578433644055,0.00898459796235899,16.251491355417965,0.011599922452118461,0.014836219272443227
201,0.25,0.001,0.011924293774523233,0.008988963834530577,16.44958788171448,0.011741318973386494,0.013146443957729
202,0.25,0.001,0.011892011804613554,0.008993078018526984,16.245623849089583,0.011595734367658518,0.012333743274211884
203,0.25,0.001,0.011842626051272367,0.008965873028756234,16.12132378150347,0.011507011978232312,0.01351278554648161
204,0.25,0.001,0.011953905383521752,0.008937949569134932,16.901418279585684,0.01206382461069642,0.022966661091361727
205,0.25,0.001,0.011938283430006271,0.00903546464230333,16.267396386703453,0.01161127507973123,0.017792761525405303
206,0.25,0.001,0.01200826310162855,0.009098480539606478,16.306421772280434,0.011639130458444278,0.018188108557036946
207,0.25,0.001,0.01191675637318825,0.008964634414080689,16.543691453479585,0.011808487832604986,0.022039960537637984
208,0.25,0.001,0.011861769694900303,0.008982343908474036,16.136302405431454,0.011517703358623451,0.014158337243965693
209,0.25,0.001,0.01187723842134377,0.008921823597380094,16.562145763770083,0.011821660074068582,0.01600529413138117
210,0.25,0.001,0.011857201450301292,0.009013469592390353,15.936274036130213,0.011374927934425563,0.016701433940657547
211,0.25,0.001,0.011765116655307455,0.008986516519540683,15.571274960548955,0.01111440040010632,0.016091478323297843
212,0.25,0.001,0.011820701336053977,0.008965262220028723,16.00188076047969,0.01142175643146302,0.01202559085296733
213,0.25,0.001,0.011857212924942337,0.008972332273658953,16.16687155606454,0.011539522880845495,0.011704999886985337
214,0.25,0.001,0.011758029379212019,0.008815165994254718,16.49180521761863,0.011771452689235282,0.015924361401370594
215,0.25,0.001,0.011770570909786494,0.008936065452215368,15.88456898643857,0.011338022117372283,0.015939136567924703
216,0.25,0.001,0.011888449780530948,0.008983712750755456,16.278145582156075,0.011618947596114258,0.01863262083913599
217,0.25,0.001,0.01178685374987454,0.008810683478015406,16.67845833331421,0.011904681180095796,0.01532498121793781
218,0.25,0.001,0.011795828935869952,0.008863378839011778,16.43345082314092,0.011729800730293305,0.02140427181231124
219,0.25,0.001,0.011821368534145947,0.009009021264325855,15.760393988817258,0.011249388999869563,0.017881903132157668
220,0.25,0.001,0.011840085407957099,0.008860353457468344,16.69841720466327,0.011918927340944517,0.013390858391565936
221,0.25,0.001,0.011800650693943029,0.00887498240521117,16.395444965601566,0.011702673066096764,0.012481502257287502
222,0.25,0.001,0.011778983693653928,0.008898679573172913,16.141223917031347,0.011521216214868913,0.015070767674062933
223,0.25,0.001,0.011689239860813421,0.008792919758007042,16.23097737152176,0.011585280065326024,0.012522903271019459
224,0.25,0.001,0.01173931319864098,0.008884722840759838,15.997123835379618,0.011418361053090378,0.016791424913597957
225,0.25,0.001,0.011713092987960144,0.008775639043126563,16.461492825271492,0.011749816434883292,0.012453702411481313
226,0.25,0.001,0.011684507556390344,0.008730961189588956,16.551674505821744,0.011814185942770694,0.012608674753989493
227,0.25,0.001,0.011756453221957935,0.008848093188645547,16.29844955692913,0.011633440083461191,0.016377153739865338
228,0.25,0.001,0.011743411890938318,0.00883199298581608,16.31559187427798,0.01164567585601569,0.013523200127695287
229,0.25,0.001,0.01175881522639951,0.00883639004679028,16.377271341500723,0.011689701171663614,0.01608172444892781
230,0.25,0.001,0.011802949431471359,0.00889711964287256,16.28427075264149,0.011623319595033182,0.014748868798570973
231,0.25,0.001,0.011843771650397539,0.008915355543426255,16.410844501696136,0.011713664883437641,0.013885308456208025
232,0.25,0.001,0.0117178258665821,0.00874121516317428,16.680926048068475,0.01190644257535223,0.016031480859965086
233,0.25,0.001,0.011686211883704316,0.008820972958565654,16.056800235184213,0.01146095662754048,0.019696349411138465
234,0.25,0.001,0.011714598710151543,0.008869814756501438,15.942169442810211,0.011379135933483378,0.01706172206572124
235,0.25,0.001,0.011792864659824468,0.008881884515005396,16.313132035104854,0.011643920082159068,0.016326092715774263
236,0.25,0.001,0.011644995769014335,0.00874422774311706,16.255903597762412,0.011603071804255826,0.014240183335329806
237,0.25,0.001,0.011575457105473768,0.008757092362097032,15.794115850501193,0.01127345885117858,0.012251759613198894
238,0.25,0.001,0.011646615843146219,0.00879860433626145,15.960257422655149,0.011392046697112882,0.013066079134919814
239,0.25,0.001,0.011617167406997884,0.008656880255779228,16.58944873283979,0.011841148274689359,0.014545580239168234
240,0.25,0.001,0.011617549891142468,0.008790833868534494,15.840917568158984,0.011306864788122045,0.016073853841849735
241,0.25,0.001,0.011572243839521008,0.008688966678292082,16.157885663790214,0.011533108967730346,0.01872032348598753
242,0.25,0.001,0.011658785918396069,0.008738073884488497,16.367670403387315,0.011682848253666892,0.021557074705404893
243,0.25,0.001,0.011632738910372694,0.008803060399671844,15.857519018321408,0.01131871450272763,0.013887273546840464
244,0.25,0.001,0.011689061483363608,0.008805424532850733,16.159901205459633,0.011534547612747775,0.01324039391641106
245,0.25,0.001,0.01170451615127107,0.008792769002791186,16.317431739099643,0.011646989107137504,0.011977178443755423
246,0.25,0.001,0.011632643471983142,0.008806783068729075,15.83612248652561,0.011303442174536481,0.014849492215684481
247,0.25,0.001,0.011666709547839068,0.008800448980509188,16.062524774020776,0.011465042665253944,0.012426291592419147
248,0.25,0.001,0.011640941710176324,0.008757556517862886,16.15849020726101,0.011533540476274811,0.01269777465079512
249,0.25,0.001,0.011512009982477155,0.008650533175726133,16.035716508564196,0.011445907572137185,0.010368731937238149
250,0.25,0.001,0.01164589354530313,0.008847330486808056,15.683148020789737,0.011194252691498742,0.011993831422712122
251,0.25,0.001,0.011595564742658968,0.008681195916463259,16.332123820943043,0.011657475960701671,0.01478090336812394
252,0.25,0.001,0.011566435456051863,0.008704687125588717,16.037237846164178,0.011446993466212833,0.0175434515944549
253,0.25,0.001,0.011624568347401339,0.008821001156165562,15.71119014959885,0.011214268486508815,0.024760350718029907
254,0.25,0.001,0.011668445827220018,0.008800600368277471,16.071405597199174,0.01147138158258328,0.02218668721616268
255,0.25,0.001,0.011477308662930378,0.008609331500037272,16.072144343440694,0.011471908881827761,0.017658200580626726
256,0.25,0.001,0.01158917006245233,0.008776147639785046,15.764179105447946,0.011252090724802245,0.015356773377529212
257,0.25,0.001,0.011580937224577991,0.008716635525058535,16.05154660112577,0.011457206710296767,0.018926913251302073
258,0.25,0.001,0.011563271419483618,0.008746247281107986,15.78660325836717,0.011268096544159294,0.016012633751545633
259,0.25,0.001,0.011534694407163258,0.008678938880712167,16.00365393980404,0.01142302208408568,0.016777268876986846
260,0.25,0.001,0.011526441031175299,0.008702905610539859,15.823091542810426,0.011294141001292238,0.013222901749291591
261,0.25,0.001,0.011617656727146385,0.008756961524113078,16.03133568010832,0.011442780642475604,0.015395963697561197
262,0.25,0.001,0.011604470471597106,0.008658465539527717,16.509411517838785,0.01178401964156944,0.018769292293914726
263,0.25,0.001,0.011522153205702776,0.008688663062464474,15.878880111197182,0.011333961535472649,0.016516262532344887
264,0.25,0.001,0.011565937210145151,0.008652804809199987,16.32519518821162,0.011652530469815575,0.01409655756184033
265,0.25,0.001,0.011599198824032805,0.0087836965787829,15.778074666073447,0.01126200904073765,0.017784703922058855
266,0.25,0.001,0.011586243121004793,0.008724602457500041,16.03663454079688,0.011446562841396772,0.017680572611945018
267,0.25,0.001,0.011614894438394927,0.008754901069783627,16.027403556613397,0.011439973987589861,0.014395264309964009
268,0.25,0.001,0.01167023593657895,0.008747986110538841,16.376287890556164,0.011688999208105755,0.017668035679629872
269,0.25,0.001,0.011529383746753061,0.00867872465551273,15.975092020249905,0.011402635274982087,0.016149103375417844
270,0.25,0.001,0.011603838813148047,0.008665944890756356,16.46395837453971,0.01175157628446803,0.014517476516110557
271,0.25,0.001,0.01149463997383539,0.008609788366278312,16.166708016455324,0.011539406150217932,0.01119718181767634
272,0.25,0.001,0.011444327615220146,0.008614135427601206,15.860396334999486,0.01132076826195538,0.012581605996404375
273,0.25,0.001,0.011480793436256269,0.008584342397431981,16.23171281934083,0.01158580501023614,0.011089040232556207
274,0.25,0.001,0.011541250257526423,0.008701954907585954,15.911410998581047,0.011357181298059278,0.016651174718780175
275,0.25,0.001,0.011544069125874896,0.008637953206504645,16.28587347523013,0.01162446357975027,0.017587497298206602
276,0.25,0.001,0.011462687320988579,0.008604404364798899,16.017817313211005,0.011433131558323343,0.018112160930676118
277,0.25,0.001,0.01159311486944967,0.008740099945238658,15.988295437996847,0.011412059556029155,0.024843847512134483
278,0.25,0.001,0.011486191503274111,0.008624586716695762,16.036434130561084,0.011446419793405485,0.01744669070467353
279,0.25,0.001,0.011581014972506907,0.008737457430639063,15.935296586880408,0.011374230254732626,0.012395004741847515
280,0.25,0.001,0.011652875796688679,0.008736494118651203,16.343402518365615,0.011665526422816284,0.014057096493031298
281,0.25,0.001,0.01148419483170324,0.008647102202034384,15.899066155416923,0.011348369846835777,0.017126950368817364
282,0.25,0.001,0.011535221283653177,0.00867928938011179,16.00464283075548,0.011423727930589206,0.013209001028112002
283,0.25,0.001,0.01142662740020749,0.008538086674547285,16.18738167746025,0.011554162510678267,0.015559573657810688
284,0.25,0.001,0.011480015994313367,0.00869692881640635,15.596420359790773,0.011132348579436669,0.011998611502349377
285,0.25,0.001,0.011501109288225795,0.008600781417281407,16.253436872534884,0.011601311115299703,0.011938423650073153
286,0.25,0.001,0.01147623242983095,0.008580644519294713,16.226875319516747,0.011582352119569412,0.014290482870170049
287,0.25,0.001,0.011582105684287865,0.008618189911253023,16.60978467123849,0.011855663576901135,0.026904765782611712
288,0.25,0.001,0.011636586670756788,0.00888296331215958,15.431305328407383,0.01101449345353846,0.0219575007046972
289,0.25,0.001,0.011575011804905302,0.00868173008014385,16.21395172272111,0.01157312756796653,0.013807497386421477
290,0.25,0.001,0.011475202148980963,0.008579667750979425,16.226575559840764,0.011582138158344586,0.014406855351158552
291,0.25,0.001,0.0113426415310393,0.008516855635925344,15.835704578791646,0.011303143882078263,0.010674109416348594
292,0.25,0.001,0.011480807823906267,0.008713295869996076,15.509137232500807,0.01107004798893705,0.016632842565221444
293,0.25,0.001,0.011495903874268956,0.008613007115130137,16.155754763380926,0.0115315879824275,0.01499200492565121
294,0.25,0.001,0.011534666761587885,0.008718285193774187,15.783002222391,0.011265526211556746,0.018965261190065315
295,0.25,0.001,0.011537291494695316,0.008610745003787721,16.40036648437194,0.011706185927460342,0.022450450009533336
296,0.25,0.001,0.011475742957963232,0.008618422874942758,16.012421713138284,0.011429280309163658,0.017074994210686003
297,0.25,0.001,0.011391883127783475,0.008603509517858052,15.626046656367174,0.011153495115179997,0.014207494977329458
298,0.25,0.001,0.011394682113912171,0.0085915709521276,15.708635865596303,0.011212445300211494,0.011428302486560174
299,0.25,0.001,0.011434039654196204,0.008454825284477687,16.695518995586195,0.011916858669226406,0.012134792748838663
300,0.25,0.001,0.011513033032155874,0.008717753360734173,15.664747907404314,0.011181119134478454,0.01335525419563055
301,0.25,0.001,0.011357150248305541,0.008512898177879496,15.939188390746153,0.011377008130439795,0.011798392981290817
302,0.25,0.001,0.011440649042769632,0.008577426477687848,16.045498938787553,0.011452890034823379,0.01228841726801225
303,0.25,0.001,0.011444633135707457,0.008594523373066931,15.972015103600677,0.011400439046110405,0.01085524061428649
304,0.25,0.001,0.011359271149904955,0.008503489992242857,16.003797875311143,0.011423124821778118,0.01214526646903583
305,0.25,0.001,0.011357415425486135,0.008500648405692332,16.00932310338606,0.011427068596278414,0.012321126514247485
306,0.25,0.001,0.0113587575196697,0.008535529854462334,15.821368260491163,0.01129291096394801,0.013460458788488592
307,0.25,0.001,0.011440713892231011,0.008619174872405995,15.811905074537846,0.011286156370119805,0.014411175756582193
308,0.25,0.001,0.011400326712985983,0.008492733043779555,16.294155326403473,0.01163037496531297,0.011208766006997653
309,0.25,0.001,0.011391882761323214,0.00851259590651756,16.1355233491214,0.011517147287024554,0.009917051997035742
310,0.25,0.001,0.011345236615877701,0.00854298927328715,15.70379480443204,0.011208989867546067,0.010039391528282846
311,0.25,0.001,0.011420098532523428,0.008507919427763699,16.31985282419917,0.011648717219271356,0.010836498811841011
312,0.25,0.001,0.011295661360566927,0.008405115534749845,16.19862004330284,0.011562184185084111,0.012070536480418273
313,0.25,0.001,0.011278506419749786,0.008448275249628793,15.860615866524833,0.011320924958261838,0.011659039384020227
314,0.25,0.001,0.011473996492387508,0.008655403782718611,15.79539308093843,0.0112743705074507,0.02025051015828337
315,0.25,0.001,0.011384711848259121,0.008460760074562597,16.385825374670198,0.011695806834168591,0.020104989276400635
316,0.25,0.001,0.011388189563140236,0.008577783643396427,15.749514598894239,0.011241623553814589,0.01319594175687858
317,0.25,0.001,0.011384175560509502,0.008472835024197897,16.315152008133126,0.011645361890173537,0.011759895565254348
318,0.25,0.001,0.011379324908095194,0.00852451215901956,15.998370574530503,0.011419250945417918,0.012252985898937498
319,0.25,0.001,0.011270405941719847,0.008444026159239294,15.83903317463428,0.01130551975348628,0.009430285410157271
320,0.25,0.001,0.011367914516637498,0.008526801126997424,15.921599796840123,0.011364453816445484,0.012376958903457438
321,0.25,0.001,0.011336531041932284,0.008414975967360917,16.372394803173858,0.01168622041625543,0.011978277803531714
322,0.25,0.001,0.011273493677527086,0.0084244036034011,15.966299855320674,0.011396359639772072,0.012502682129187244
323,0.25,0.001,0.011288565336108058,0.00842622465997897,16.040557698797162,0.011449363096928738,0.013832441930259978
324,0.25,0.001,0.011338372259659875,0.00849468088510416,15.93604618445375,0.011374765299395967,0.013697169188942229
325,0.25,0.001,0.011329845247561471,0.008514700763226302,15.77606999963746,0.011260578158199473,0.017913862530674254
326,0.25,0.001,0.0113503632082004,0.00848459679502667,16.0597555213106,0.011463066039479372,0.012616882366793496
327,0.25,0.001,0.011344908129769309,0.008410893301281116,16.442219478444645,0.011736059584899818,0.011206772178411484
328,0.25,0.001,0.011360044336707372,0.00849715006166607,16.043660283387453,0.011451577646957497,0.012272015746150697
329,0.25,0.001,0.011335128992982675,0.008460881309887222,16.10728445029199,0.011496991042321191,0.01134040898510388
330,0.25,0.001,0.011299280141641322,0.008480873717494626,15.794349005945344,0.011273625271909596,0.01240286004862615
331,0.25,0.001,0.011267061177221007,0.00843165177189019,15.889633876638007,0.011341637313803003,0.012440046960754054
332,0.25,0.001,0.011322040390923507,0.008412440992508988,16.30539595811887,0.01163839825704416,0.012394193692931108
333,0.25,0.001,0.01133791516467294,0.008379021619813036,16.581640033196088,0.011835574613273439,0.012470512384814876
334,0.25,0.001,0.011288700375547236,0.008462681869198954,15.837008096221695,0.01130407430137166,0.013743822728948933
335,0.25,0.001,0.01130234031123401,0.008431062857412679,16.090639181304397,0.011485110050895359,0.013068852413977896
336,0.25,0.001,0.011277614152035617,0.008479705248448186,15.67948105221703,0.01119163529779945,0.012077648724828447
337,0.25,0.001,0.011289080597908426,0.008431520908230678,16.013764369457885,0.011430238664852167,0.012307502861533846
338,0.25,0.001,0.011262895609427215,0.00841921818020163,15.935967505127564,0.011374709139991123,0.013620592720274414
339,0.25,0.001,0.01131837199299706,0.008512090841415607,15.726400222395894,0.01122512506951884,0.01653071998485497
340,0.25,0.001,0.01128865772377429,0.00849885819363116,15.634037601021596,0.011159198858687791,0.011606886051595211
341,0.25,0.001,0.011195841819552103,0.008275677382311128,16.364602359016438,0.011680658357613446,0.009145027891333615
342,0.25,0.001,0.011287537272692773,0.008443477673264673,15.938110975394572,0.011376239097355155,0.010789357192282165
343,0.25,0.001,0.01125645081052804,0.008327311043741932,16.414899152024347,0.011716558995020948,0.011692372150719166
344,0.25,0.001,0.011257571158907317,0.00844446407224899,15.76465162119471,0.011252427995142549,0.014072263879435403
345,0.25,0.001,0.011315291838482358,0.008555931669372813,15.46345487274323,0.011037441022657551,0.016813344455191066
346,0.25,0.001,0.011326369311296403,0.008432595920573948,16.216705723812705,0.011575093307503715,0.018105223508817807
347,0.25,0.001,0.011453732488709584,0.008422106042280234,16.989235127480107,0.012126506158087157,0.022349752884890352
348,0.25,0.001,0.011396596812757483,0.008571749590430642,15.830444008485417,0.01129938901390822,0.02029380920742239
349,0.25,0.001,0.01126098048810224,0.00846920426664197,15.64511397368926,0.011167104906273562,0.01513708702155522
350,0.25,0.001,0.011252342520239657,0.008408602667893084,15.936318065289568,0.01137495936137728,0.016304089687764645
351,0.25,0.001,0.01124048168376499,0.0084186131706494,15.81375196882358,0.011287474638703483,0.010820741964770215
352,0.25,0.001,0.011247060674809873,0.00847772436734653,15.519361228273626,0.011077345630459404,0.010663932655006647
353,0.25,0.001,0.011182823706240881,0.008346801317929475,15.893070165973558,0.011344090054228094,0.01122934530888285
354,0.25,0.001,0.011143772092584828,0.008347507249937396,15.670268082678467,0.011185059302411468,0.011672376122857844
355,0.25,0.001,0.011340803837865815,0.008579887718167669,15.472173862887505,0.011043664427471452,0.019252397918275425
356,0.25,0.001,0.011232812928600717,0.008307145026169326,16.395442984157935,0.011702671651790104,0.020376655672277724
357,0.25,0.001,0.011332739618394459,0.008460881381078545,16.093893242360355,0.011487432721170846,0.022493005064981326
358,0.25,0.001,0.011201820940824976,0.008322747818714843,16.134326040894166,0.011516292677297762,0.014411501320345061
359,0.25,0.001,0.011274016471603013,0.008494029255737936,15.57904831448892,0.011119948832611649,0.01620581719492163
360,0.25,0.001,0.011205092550985944,0.008376987638152707,15.848700007101646,0.011312419705283117,0.012042171587901456
361,0.25,0.001,0.011240560197292413,0.008379328302702958,16.03434361909565,0.011444927636756353,0.012004264098192965
362,0.25,0.001,0.011210719823725242,0.008393429202216685,15.788098136882734,0.011269163552378825,0.011495335692805904
363,0.25,0.001,0.011304246530142194,0.008525316437757703,15.573124916631178,0.011115720854126465,0.013097287554826056
364,0.25,0.001,0.011206659296980328,0.008336076118462816,16.086748608371668,0.011482333053798479,0.010923400787370545
365,0.25,0.001,0.011243645573282302,0.00843734899419068,15.726486767742568,0.011225186843499334,0.012024364567228727
366,0.25,0.001,0.011185967662187298,0.008343488393458807,15.929254202018107,0.011369917346194225,0.01135919030223574
367,0.25,0.001,0.011244603047581543,0.008453869596963986,15.639270925880375,0.011162934279714758,0.010943880703832422
368,0.25,0.001,0.011216455069195507,0.008330293947405983,16.174047013571986,0.011544644549301918,0.011298649944365025
369,0.25,0.001,0.011242239901744631,0.008331401959845894,16.312336242886115,0.011643352064872317,0.01150390918233565
370,0.25,0.001,0.011169906845666412,0.008395393619449217,15.548371917323061,0.0110980527604019,0.013738887384533882
371,0.25,0.001,0.011142062900919365,0.00832504879235101,15.786546781248317,0.011268056232154402,0.011135454422661237
372,0.25,0.001,0.011169415863608955,0.008314274333155992,16.000212554644822,0.011420565706384599,0.010677530563303403
373,0.25,0.001,0.011157939745052565,0.008317188082034127,15.919573277160339,0.011363007335589106,0.011691696675760406
374,0.25,0.001,0.01107806450031455,0.008356813809374595,15.24988877862916,0.010885002697094333,0.011765769150640284
375,0.25,0.001,0.011181309774872802,0.008327397375477287,15.993326297081204,0.011415650461870952,0.015994517265685966
376,0.25,0.001,0.011176400955645064,0.008300994033866882,16.113781668488542,0.011501628599920445,0.012550749283816134
377,0.25,0.001,0.011181506237253211,0.008363833435038501,15.790238595546636,0.011270691360133216,0.015602187519626958
378,0.25,0.001,0.011147215112782362,0.008335566809891086,15.756478142320065,0.011246593963112108,0.01157527310507638
379,0.25,0.001,0.011258082058196677,0.00839499118072646,16.044762726116897,0.011452364543980654,0.016968770883977413
380,0.25,0.001,0.011097549906649386,0.008341624338487933,15.444206314278127,0.011023701866008656,0.013474150294704097
381,0.25,0.001,0.011164273242734578,0.008373876559760487,15.637383898398033,0.011161587365023578,0.012942868550973279
382,0.25,0.001,0.011179776584500806,0.008359514104487155,15.804749644191045,0.011281048996567483,0.013337991865617889
383,0.25,0.001,0.011159623219143777,0.008254123408169974,16.28242009385188,0.01162199863943746,0.014956829803330558
384,0.25,0.001,0.011122691741488631,0.008360037643154314,15.481914039841271,0.0110506167307932,0.015003983729651995
385,0.25,0.001,0.011206867668152154,0.008369825301892626,15.898785540932103,0.011348169550986512,0.013242690025695733
386,0.25,0.001,0.011144883729946943,0.008322204611401884,15.818294919523082,0.011290717287311264,0.015028953419200011
387,0.25,0.001,0.011134389400444832,0.008331585554102608,15.706912960922509,0.01121121553242149,0.011134374487612928
388,0.25,0.001,0.011147337697240942,0.008252160301558058,16.224572623881482,0.011580708510978931,0.01025057743702616
389,0.25,0.001,0.011083978580726418,0.008267730021648538,15.782257015543772,0.011264994300887775,0.015051499142178468
390,0.25,0.001,0.01108218894753241,0.0083536398422001,15.29078916200719,0.010914196404002277,0.01450876465865544
391,0.25,0.001,0.011171300533720126,0.008295329348335887,16.116943261378392,0.011503885268649816,0.012118691046323096
392,0.25,0.001,0.011154985862940475,0.008301267457570424,15.992237932401194,0.011414873613419838,0.012844560667872429
393,0.25,0.001,0.011158217853378682,0.00822893717328558,16.41568898796139,0.011717122760857523,0.012320255328501974
394,0.25,0.001,0.01122589410751834,0.008450732087917197,15.552007689511866,0.011100647886874994,0.018594671839049885
395,0.25,0.001,0.011193823620191492,0.008268330920777075,16.394461280421208,0.011701970935347044,0.021193412797791616
396,0.25,0.001,0.011262585670409496,0.008440215296968631,15.816563584750757,0.01128948150232031,0.017666199643697058
397,0.25,0.001,0.01119261408192024,0.008387079257004541,15.722217872925569,0.011222139809368715,0.01657338480332068
398,0.25,0.001,0.011190168921343217,0.008374123106988375,15.781121550347272,0.01126418383322432,0.019406314007937908
399,0.25,0.001,0.011085372889661849,0.008297332611523177,15.624179326203233,0.011152162259959481,0.0133529200351664
400,0.25,0.001,0.011130201427223986,0.0082397273914389,16.198216306834592,0.01156189600773347,0.013212074525654316
401,0.25,0.001,0.011103425788830844,0.008253306941710468,15.972065488198647,0.011400475009420876,0.010682042821177415
402,0.25,0.001,0.011094570024531885,0.008242814606732518,15.981238099865447,0.011407022198333653,0.012013046270502465
403,0.25,0.001,0.011139774695038795,0.008345135975451697,15.661154493652191,0.011178554242435539,0.012737222681088107
404,0.25,0.001,0.01107926548395614,0.008218229643272278,16.033245751134732,0.0114441440050926,0.01106599492153951
405,0.25,0.001,0.011123092529973141,0.0083194453511994,15.711639829745568,0.011214589457348729,0.014111176066632782
406,0.25,0.001,0.011079694688282814,0.008178577576308771,16.257860661748058,0.011604468709313389,0.014209930918046407
407,0.25,0.001,0.011110128589758747,0.008383447664992926,15.280319641706042,0.010906723512995034,0.013707859175545829
408,0.25,0.001,0.011137878449918483,0.00827462253345172,16.045686038215656,0.011453023581881269,0.013472599110433034
409,0.25,0.001,0.011132938663631603,0.008280961141737183,15.982481638590494,0.011407909806274442,0.011925467755645514
410,0.25,0.001,0.011139206669963243,0.008332617112895227,15.728129451436208,0.011226359351489086,0.011858296447566577
411,0.25,0.001,0.011051401040775883,0.0082009776675126,15.973771824275044,0.011401692950945784,0.010793464790497507
412,0.25,0.001,0.011021761466424567,0.008242171563506873,15.576822108792182,0.01111835982069392,0.013575153558381967
413,0.25,0.001,0.011146810610678261,0.00832561725857936,15.809968197853642,0.01128477387427098,0.013744789840919631
414,0.25,0.001,0.011128960522755346,0.008278602117994674,15.973408966733698,0.011401433951986936,0.012389137941811765
415,0.25,0.001,0.011108834420174435,0.008232364882680034,16.11973550265893,0.011505878303111299,0.010283361854297774
416,0.25,0.001,0.011128779087579787,0.008311164563050246,15.78991136813821,0.011270457793103646,0.01363247912377119
417,0.25,0.001,0.010994399788049529,0.008239748243494589,15.4370668071852,0.011018605858090792,0.01333483321858304
418,0.25,0.001,0.01105624994725213,0.00818618052851474,16.08386925049593,0.011480277837613084,0.010376362861799342
419,0.25,0.001,0.01111513644662268,0.00824495098719322,16.08452003641535,0.011480742352901748,0.010909443322036947
420,0.25,0.001,0.011094233175193457,0.008261429269641712,15.87503206879274,0.011331214895640785,0.010470816799040352
421,0.25,0.001,0.01117919704743794,0.008358973605945744,15.804533473232336,0.011280894698952416,0.00997952458315662
422,0.25,0.001,0.01108810932545883,0.008267416842842013,15.807161759015612,0.011282770705935483,0.01088778448424169
423,0.25,0.001,0.011099469066039662,0.00831105736292021,15.62626007864051,0.011153647450849758,0.012370062991976738
424,0.25,0.001,0.011090099321384179,0.008305834729999378,15.603018806094216,0.011137058391216427,0.011387595175100225
425,0.25,0.001,0.011059861842608243,0.008241404669550726,15.794633578537102,0.011273828392960102,0.01415559436593737
426,0.25,0.001,0.011130928257970433,0.008385868892447095,15.383313310474978,0.010980237908975716,0.015342744799064738
427,0.25,0.001,0.011092758501756162,0.008230662657260746,16.039185605252296,0.011448383729659027,0.01741065670336996
428,0.25,0.001,0.011060952015202446,0.008192116392304874,16.076955541931,0.011475342999236974,0.014279302808323078
429,0.25,0.001,0.011074768743456755,0.008223533378283781,15.978324679802533,0.011404942669380823,0.012419184403760093
430,0.25,0.001,0.011046578575457846,0.008230280806835657,15.78253221631349,0.011265190732557809,0.015077729975538594
431,0.25,0.001,0.011109927830223302,0.00823704672412466,16.099626020082557,0.01149152463960211,0.013496204146317073
432,0.25,0.001,0.011014540959849842,0.008175468557796682,15.910162579146842,0.01135629020638604,0.01393197144248656
433,0.25,0.001,0.011042094868806222,0.008236356104086889,15.7233598035081,0.011222954891868735,0.01416978971766574
434,0.25,0.001,0.01105582253321221,0.008201141722668382,15.997631214017558,0.011418723207721311,0.01217511695410524
435,0.25,0.001,0.011024202451221925,0.008263264289055775,15.4722970852577,0.011043752380626482,0.012231994353766953
436,0.25,0.001,0.01102751637470528,0.008221019888039967,15.727605924869241,0.01122598567085599,0.011021097523293324
437,0.25,0.001,0.011015260290998714,0.008206868586235476,15.73822774385151,0.011233567268987516,0.013431913751576628
438,0.25,0.001,0.011029226033199103,0.008170238950460177,16.021762795316846,0.011435947748263273,0.012710870243608952
439,0.25,0.001,0.011042333527801927,0.008201436073120152,15.92039132177979,0.011363591236102635,0.011913397748555456
440,0.25,0.001,0.011062747371712126,0.008198407379429517,16.05176091970955,0.0114573596857313,0.01210827540074076
441,0.25,0.001,0.011068800237860745,0.008250382637843154,15.79441361439258,0.011273671387860514,0.012026285619607993
442,0.25,0.001,0.01104122197680306,0.00829016938245386,15.41689916481649,0.011004210681524976,0.014236513791339738
443,0.25,0.001,0.010993243832337228,0.008085959345886582,16.292421524984796,0.011629137419689363,0.014005090376096112
444,0.25,0.001,0.011041243875721344,0.008239191041834522,15.70270580157899,0.011208212563582435,0.012821993790566921
445,0.25,0.001,0.011039129523723795,0.008199891618179871,15.911089627067547,0.01135695191082623,0.01225927405591522
446,0.25,0.001,0.01097036763922986,0.008171575984224341,15.684428045325411,0.011195166342130915,0.016341670815433775
447,0.25,0.001,0.011000843340516986,0.008238584876882104,15.479695955912272,0.011049033515997338,0.012721823927547251
448,0.25,0.001,0.011016836856727613,0.008230993087709249,15.611868607370477,0.01114337516586044,0.011345984214650733
449,0.25,0.001,0.011074341021310118,0.00823888763141139,15.88988124876094,0.011341813882056346,0.012902511616370507
450,0.25,0.001,0.011068991842892086,0.008234765943149128,15.883002426988797,0.011336903945031262,0.01359657065144607
451,0.25,0.001,0.011069591430232938,0.008092371692045365,16.68433885885062,0.011908878557352334,0.01702501199075154
452,0.25,0.001,0.011000287436639755,0.00817363329329773,15.840570449829102,0.01130661702343262,0.0107430298147457
453,0.25,0.001,0.01095124285079931,0.008194034364784048,15.45139557974679,0.011028833390254669,0.013130727357098035
454,0.25,0.001,0.010978318652824351,0.008152182743812264,15.837665949847764,0.011304543861418818,0.012576901952603034
455,0.25,0.001,0.010975784843876249,0.008200525135772867,15.552555435582212,0.011101038854805291,0.014542141397084509
456,0.25,0.001,0.011048804525108565,0.008255178832395333,15.655477150938564,0.011174501892175991,0.012866608798503876
457,0.25,0.001,0.010937153555471497,0.008104659556259488,15.873296536897358,0.011329976114844653,0.011936662585607596
458,0.25,0.001,0.010893195841862893,0.008092453626257585,15.695359717634387,0.011202969106091639,0.013671477591352803
459,0.25,0.001,0.011036856029938934,0.008289458374854616,15.396415798885183,0.010989590149097204,0.017124272217707976
460,0.25,0.001,0.010972741725189345,0.008112231895028799,16.030296335244238,0.011442038783186465,0.012146304228476115
461,0.25,0.001,0.010927297497042139,0.008199924775831084,15.284196834516406,0.010909490959683374,0.011298038797186953
462,0.25,0.001,0.010995875754601377,0.008191744592694337,15.71435222530126,0.011216525499858144,0.012656602742416518
463,0.25,0.001,0.011202683105112467,0.00835586995012442,15.953541201158872,0.011387252820241878,0.014620461102042879
464,0.25,0.001,0.011111758602666376,0.008258908167761519,15.987373318588524,0.0114114013694422,0.011592059529253415
465,0.25,0.001,0.010910419509150927,0.008067901624380647,15.929469450374594,0.011370070985278083,0.01342184389276164
466,0.25,0.001,0.011001795502309512,0.008213998133638748,15.62281638458558,0.011151189425114618,0.011808844549315316
467,0.25,0.001,0.010980211849555485,0.008148793694808296,15.867268225304166,0.011325673251466214,0.012671553729368108
468,0.25,0.001,0.011002504430188421,0.008185132577044325,15.78855261886329,0.011269487950651885,0.012201600774590458
469,0.25,0.001,0.011064282301019756,0.008189189203438304,16.11202329382263,0.011500373514505804,0.015710826830140183
470,0.25,0.001,0.011035908858541558,0.008190216545603778,15.947260158701349,0.011382769563669771,0.01273451718900885
471,0.25,0.001,0.01099568126457078,0.008199729758284445,15.668511768331504,0.011183805687602787,0.011507148322250162
472,0.25,0.001,0.010963667468879754,0.008205148198858913,15.4587421560646,0.01103407719918958,0.01280597337920751
473,0.25,0.001,0.010995607314290558,0.008194009249418377,15.70015651779366,0.011206392946319529,0.013833559251257352
474,0.25,0.001,0.011093280509226304,0.00825666240824942,15.8964084252379,0.011346472823153389,0.014932850375771523
475,0.25,0.001,0.010972855995434867,0.00811355413733643,16.02352772141459,0.0114372075099319,0.014008735838745321
476,0.25,0.001,0.01102537814443721,0.008215683912694977,15.745528371710526,0.011238778281021074,0.013577863574028015
477,0.25,0.001,0.010962529987899731,0.008230687896335931,15.30924291539013,0.010927368247958693,0.014185038594795125
478,0.25,0.001,0.01114790148118086,0.008299550713789194,15.96215838477725,0.011393403558013741,0.02121769237731184
479,0.25,0.001,0.011027178524020022,0.008139798557735924,16.180877828956547,0.011549520220525729,0.013791014174265521
480,0.25,0.001,0.011001038199341985,0.008212831746646785,15.625108530049337,0.011152825503247208,0.012051984401685851
481,0.25,0.001,0.010968610908098538,0.008101439846908315,16.067626403387926,0.011468684085216221,0.010634526743420534
482,0.25,0.001,0.01090243907369916,0.008035173747025635,16.06815548946983,0.011469061734096953,0.01145860765661512
483,0.25,0.001,0.010967534278195006,0.00809478596842528,16.098881723886745,0.011490993378934151,0.013985375607652324
484,0.25,0.001,0.01087065628802119,0.008116785485885646,15.432692319826971,0.011015483454551729,0.013335144280322961
485,0.25,0.001,0.010925723351818278,0.00817706102253239,15.40350447681016,0.01099464987638127,0.011973692636404718
486,0.25,0.001,0.010925866275988426,0.008097552303411533,15.849870562254635,0.011313255219310946,0.011434610267835004
487,0.25,0.001,0.010944216164356485,0.008176061553521114,15.51273879192228,0.011072618695162226,0.012845745642802544
488,0.25,0.001,0.010945589942180723,0.008053678338810391,16.206273779235687,0.011567647237141819,0.010355048147695405
489,0.25,0.001,0.01092232381434817,0.008119345299507441,15.707892257766915,0.01121191453088288,0.012664618236677987
490,0.25,0.001,0.010993641817517448,0.0082032728734844,15.637227792190131,0.011161475940178538,0.012681804331285613
491,0.25,0.001,0.010915326110943965,0.008147846228141981,15.508957062150005,0.01106991938768737,0.011360979505947657
492,0.25,0.001,0.010969651708925577,0.008167498392568794,15.70326712854524,0.01120861322522858,0.011716439122600215
493,0.25,0.001,0.01086131556841888,0.008038529759753766,15.818890722174393,0.011291142556869659,0.011335419757025582
494,0.25,0.001,0.010985464492537324,0.008194161302417069,15.64246420035685,0.011165213561996325,0.010893253343445914
495,0.25,0.001,0.010921318375769266,0.008067279729646699,15.994032529960002,0.011416154553861529,0.010147285514644213
496,0.25,0.001,0.010892565278126333,0.008182233571772812,15.188697991813335,0.010841326189731146,0.014040039053985051
497,0.25,0.001,0.010925768305055032,0.008186253112154944,15.352243545360135,0.01095806106021423,0.01512592232653073
498,0.25,0.001,0.010980752149694845,0.008123516380544146,16.011949830784236,0.011428943490923793,0.018425566543425833
499,0.25,0.001,0.010995085460873773,0.008168406023604231,15.840712050148717,0.011306718094324566,0.014971365619982992
500,0.25,0.001,0.01100886182481409,0.008276754372839566,15.310729884862303,0.010928429610893863,0.01449734318469252
