epoch,beta,learning_rate,train_loss,train_reconstruction_loss,train_kl_unnormalized,train_kl_normalized,mean_unclipped_gradient_norm
1,0.0,0.001,0.06446250071398384,0.06446250071398384,174.25834228603412,0.12438140063242978,0.10627661645412445
2,0.02,0.001,0.05228507238202514,0.04529183799065806,489.8760595600974,0.34966171274810665,0.14150066208094358
3,0.04,0.001,0.03818297644913446,0.034992288299310156,111.75385549377697,0.0797672059198979,0.06997461034916341
4,0.06,0.001,0.036558203679747166,0.03292874856286967,84.74778789057392,0.06049092640297924,0.04869066993705928
5,0.08,0.001,0.03448889758359937,0.03208540219455085,42.0912236568818,0.03004369996922327,0.04022987768985331
6,0.1,0.001,0.03376790650469488,0.03207039268819857,23.78217624520657,0.016975143643973286,0.037972347578033805
7,0.12,0.001,0.03302637548439173,0.031051870186084483,23.052351125613416,0.016454212081094516,0.031081178807653487
8,0.14,0.001,0.031680538143697645,0.029875350773147458,18.064766217475157,0.01289419430226635,0.03827720519620925
9,0.16,0.001,0.02962075077215498,0.02737255540197115,19.685762277706896,0.014051222182517413,0.025078785722143948
10,0.18,0.001,0.02774097072934755,0.025072278751052574,20.771320574453185,0.014826067504963016,0.03468333778437227
11,0.2,0.001,0.026931085627697502,0.023877192047038837,21.392526227560005,0.015269469113176306,0.038059819024056196
12,0.22,0.001,0.026265178951259436,0.02331378862698208,18.794989278625742,0.013415409906228224,0.04281169071327895
13,0.24,0.001,0.025687562418657366,0.02248537994017162,18.69274245545455,0.013342428590617095,0.028688681544736028
14,0.25,0.001,0.025067468925874102,0.0219569632308129,17.431273145156926,0.012442022230661617,0.027778720250353217
15,0.25,0.001,0.024333711962944295,0.02118500161557517,17.64537512009114,0.012594843055025794,0.029226570739410818
16,0.25,0.001,0.024064763032180494,0.020826356633562422,18.148030596298153,0.012953626407065063,0.031642465153709054
17,0.25,0.001,0.02362139617330609,0.02028189950221253,18.714540158355586,0.013357987265064658,0.022808365058153868
18,0.25,0.001,0.023565413765453395,0.020322477218995036,18.17341485282866,0.012971745076965496,0.024476042890455574
19,0.25,0.001,0.02317081698875048,0.019826582800519018,18.74109059896429,0.01337693832902519,0.03212879266357049
20,0.25,0.001,0.023047084635645775,0.01983774739422808,17.9851261761398,0.01283734916212691,0.05019488069228828
21,0.25,0.001,0.0224999454199769,0.01929263048902715,17.973794825406255,0.012829261117349219,0.04219076340086758
22,0.25,0.001,0.021542532073341652,0.018310891316276216,18.110115877255236,0.012926563795328505,0.02239716413896531
23,0.25,0.001,0.021025984777940366,0.017783538543591937,18.170671901942296,0.012969787224798213,0.03129953646566719
24,0.25,0.001,0.020430688266973616,0.01706639212793885,18.853516502859204,0.013457185226880232,0.03718605579342693
25,0.25,0.001,0.02007254757080617,0.016862723516557505,17.987853253735658,0.012839295684322382,0.017540198285132647
26,0.0,0.001,0.016068670781773504,0.016068670781773504,23.833893987424204,0.0170120585206454,0.03033617220353335
27,0.02,0.001,0.015262063374454507,0.014586019524564054,47.356863221364044,0.03380218645350753,0.014661654829978943
28,0.04,0.001,0.015597084872268732,0.013670377557995928,67.482922478201,0.04816768199728837,0.03187028341926634
29,0.06,0.001,0.016094789859764747,0.013511854177146027,60.311549039066584,0.04304892865029735,0.02233890153001994
30,0.08,0.001,0.016154930159200186,0.013788135122180484,41.44849676666898,0.029584937021177003,0.026247354340739548
31,0.1,0.001,0.01659671496210238,0.014331433138806202,31.736596031667798,0.022652816582203996,0.034465831238776445
32,0.12,0.001,0.016898684924522952,0.014263461094552253,30.76624183974007,0.021960201170406903,0.026832566829398274
33,0.14,0.001,0.016994418646501197,0.013978716321133669,30.178562379781173,0.02154072975002225,0.02014875807799399
34,0.16,0.001,0.017229153256411334,0.014249468697663631,26.090865873392655,0.01862303060199333,0.021555269369855523
35,0.18,0.001,0.017438927248400873,0.014281315195167663,24.576749602122288,0.017542290936561233,0.013738656183704734
36,0.2,0.001,0.017877502008399705,0.014538561165426317,23.38928154821675,0.0166947048880919,0.03138717636466026
37,0.22,0.001,0.017993622159421692,0.014585241480539534,21.705187362607052,0.015492639088227731,0.03253732598386705
38,0.24,0.001,0.018295193457329124,0.014762117702778911,20.624332834985964,0.014721151202702329,0.04567094054073095
39,0.25,0.001,0.01819288933252191,0.014782462650948987,19.112029502581354,0.01364170556929433,0.020736427512019873
40,0.25,0.001,0.018035858191518605,0.014644882785912338,19.003025230503482,0.013563900949681287,0.01600712217623368
41,0.25,0.001,0.017860004156204447,0.014543140712330531,18.587700807898614,0.013267452396787019,0.024004754493944347
42,0.25,0.001,0.017803441998100678,0.014528082013441928,18.35511830062547,0.013101440614293698,0.016542236204259098
43,0.25,0.001,0.017654776347169818,0.01428488595216344,18.884867305037368,0.013479562673117321,0.02109960885718465
44,0.25,0.001,0.017552745212882633,0.014280871967453836,18.33557719466078,0.013087492644297486,0.02578718855511397
45,0.25,0.001,0.017526236187401675,0.014191151191344072,18.689816287371904,0.013340339962435336,0.02779930247925222
46,0.25,0.001,0.017572419702320916,0.014309482126804576,18.285504784045358,0.013051752165628379,0.043950559105724096
47,0.25,0.001,0.01749295258902356,0.014221549677081936,18.332938677097463,0.013085609334116675,0.03611739445477724
48,0.25,0.001,0.01740859219781026,0.014180476032976825,18.09036417685792,0.012912465508107011,0.03440157696604729
49,0.25,0.001,0.01721224615888117,0.014103094571772728,17.423685943731204,0.01243660666932991,0.018405885435640812
50,0.25,0.001,0.017105469713961728,0.013940103278031659,17.73871376324897,0.012661465926658793,0.017259214306250215
51,0.0,0.001,0.013319921481060683,0.013319921481060683,23.72484002851542,0.016934218435771177,0.023031760239973664
52,0.02,0.001,0.012944106573714372,0.012292603630899884,45.637785317009964,0.03257515011920768,0.02039813983719796
53,0.04,0.001,0.013421343090051637,0.011738404409500096,58.94492684847141,0.04207346670126439,0.015878509497269988
54,0.06,0.001,0.013884637095657602,0.011730724072793039,50.29387128502754,0.035898551952196676,0.01095073961187154
55,0.08,0.001,0.014063043808213837,0.012086784093013368,34.60924811742296,0.024703246336490334,0.015627074986696243
56,0.1,0.001,0.014366208045708335,0.012410113358067418,27.404891528843837,0.019560950413164767,0.018525090417824686
57,0.12,0.001,0.014682651283102555,0.01237926052719604,26.892085127251917,0.01919492157548317,0.024356326670385897
58,0.14,0.001,0.014996959999297205,0.012472004734883748,25.267590973666522,0.01803539684058995,0.015880586812272668
59,0.16,0.001,0.015242054738946041,0.012540724050549783,23.653529155204485,0.01688331845482119,0.011876015400048345
60,0.18,0.001,0.01537592179106868,0.012567109599803034,21.86192029689645,0.015604511275443576,0.014439055928960443
61,0.2,0.001,0.015822826050783053,0.012871173849508602,20.67632307268087,0.014758260580071998,0.01126634277170524
62,0.22,0.001,0.015996265158867738,0.012902053100325822,19.704504372185742,0.014064599837391679,0.017316422192379832
63,0.24,0.001,0.01628573764131159,0.013030909457746659,19.0000608994871,0.01356178508171813,0.021805264288559556
64,0.25,0.001,0.01637831653729393,0.013119434442947848,18.262774990193513,0.013035528187147405,0.025800279225222766
65,0.25,0.001,0.01616505072081937,0.01294945201458542,18.020217448597673,0.012862396465808475,0.02081983326934278
66,0.25,0.001,0.01619917536193357,0.013071053770514962,17.529994350098168,0.01251248704503795,0.019325340865179896
67,0.25,0.001,0.01603126129190044,0.012894362242401394,17.579182541021243,0.012547596389023015,0.017802749760448933
68,0.25,0.001,0.01613414040513368,0.013047423642362511,17.29796095971782,0.012346867208934917,0.018158558756113052
69,0.25,0.001,0.01598917495724297,0.012915118772801494,17.2270110381697,0.012296224866645038,0.015017794445157051
70,0.25,0.001,0.015926568597461638,0.012856309111210591,17.20573477964521,0.012281038386613282,0.011266603134572506
71,0.25,0.001,0.0159101812597598,0.012833241630485865,17.24316884284239,0.012307757917803277,0.01444000331684947
72,0.25,0.001,0.01593209619177934,0.012823610675665375,17.41995250430566,0.012433941830339515,0.01884876366239041
73,0.25,0.001,0.015913405693350476,0.012850049438898035,17.16704911267907,0.01225342549084873,0.020666141994297504
74,0.25,0.001,0.015979164213752648,0.01294871903254522,16.98261606543633,0.012121781631289314,0.024428098229691386
75,0.25,0.001,0.015811520001254818,0.01273561537920431,17.237371061636313,0.012303619601453472,0.021660101250745356
76,0.0,0.001,0.012299354098519021,0.012299354098519021,21.123577357336067,0.015077499898169927,0.01842488581314683
77,0.02,0.001,0.011870773579286233,0.01126643442880035,42.33396871718403,0.03021696553689081,0.012395600788295269
78,0.04,0.001,0.012496514393944122,0.010896317477661446,56.04690440030277,0.040004928194363146,0.012166738859377801
79,0.06,0.001,0.012802420659419384,0.010887605329063648,44.71094022934407,0.031913590456348374,0.013972771470434964
80,0.08,0.001,0.012976532688980073,0.011291039897183493,29.517192601160026,0.021068659958001446,0.011533062439411879
81,0.1,0.001,0.013297128128706162,0.011512075141695752,25.008593515372176,0.017850530703334887,0.013174030231311917
82,0.12,0.001,0.013607863819998178,0.011458201357260908,25.097308944957526,0.01791385363665776,0.015968604653608054
83,0.14,0.001,0.013852714132283771,0.011505156638544973,23.49234438142018,0.016768268651977287,0.02325413189828396
84,0.16,0.001,0.014059766402242074,0.011576716320503456,21.74220781845029,0.015519063396467017,0.012912658683490008
85,0.18,0.001,0.014391443205054335,0.011739290607742436,20.642587342521637,0.014734180829779897,0.02411773835774511
86,0.2,0.001,0.014833201307444891,0.011980051626782538,19.986312387378646,0.014265747599842003,0.03324376104865223
87,0.22,0.001,0.014987840862734298,0.012005530886165018,18.9918928186265,0.013555954902659886,0.023164607235230505
88,0.24,0.001,0.015220953147686924,0.012018955756898455,18.691660007173546,0.013341655965148856,0.015997217851690948
89,0.25,0.001,0.015177866942775299,0.012053807768736923,17.507227702120858,0.012496236760971348,0.01267661852762103
90,0.25,0.001,0.015137780286278185,0.012039086964589283,17.36507676735084,0.012394772853212591,0.010805397992953658
91,0.25,0.001,0.015075924763432606,0.012045745656018975,16.98112440707793,0.01212071692154028,0.01672848203452304
92,0.25,0.001,0.015236411633351857,0.012225280188522827,16.874379704686888,0.012044525128256165,0.021600176580250263
93,0.25,0.001,0.015161976132495134,0.012080504714850351,17.268566889742928,0.012325886430937136,0.014515514252707362
94,0.25,0.001,0.015154517064782864,0.012129867040244355,16.95013816386586,0.012098599688697972,0.020534198498353362
95,0.25,0.001,0.01505427924471919,0.012046236112308551,16.857073356915716,0.012032172274743552,0.016879564383998513
96,0.25,0.001,0.01511490370719752,0.012120208617253034,16.78227174830736,0.011978780691154432,0.017009417759254575
97,0.25,0.001,0.015074825880729503,0.01202590025914638,17.086180291914044,0.012195703277597461,0.015678407973609865
98,0.25,0.001,0.015054865642820941,0.012094572541074024,16.589481804660174,0.01184117188055687,0.019574530189856887
99,0.25,0.001,0.015026998180101107,0.012042915760286184,16.722798128008343,0.011936329855823229,0.018148632545489818
100,0.25,0.001,0.0150017667538389,0.011973436906247957,16.970761406870565,0.012113320062006114,0.01547411922365427
101,0.25,0.001,0.015072112022334062,0.012138177683600322,16.441768079622022,0.011735737387310508,0.02007825148757547
102,0.25,0.001,0.014969381573902265,0.01192774342287285,17.045339716029467,0.01216655225983545,0.021717411815188825
103,0.25,0.001,0.014932105302124842,0.012000566184770113,16.428344319555052,0.011726155831231301,0.016771162510849535
104,0.25,0.001,0.014904872179187243,0.011930262817997314,16.669711372343567,0.011898437810380847,0.02202226931694895
105,0.25,0.001,0.01486604864159638,0.011945918206296955,16.364410998930992,0.011680521769401136,0.020309090323280543
106,0.25,0.001,0.014918717582978963,0.011912613803185678,16.846206154284616,0.012024415527683524,0.014335221261717379
107,0.25,0.001,0.014906417555078303,0.011937004985544971,16.640587994244306,0.011877650245713281,0.020070434547960758
108,0.25,0.001,0.014822512237690233,0.011902904839383508,16.361480250019408,0.011678429871534196,0.014711613417603076
109,0.25,0.001,0.014780350828301708,0.011879774324876495,16.254829534426893,0.011602305163759381,0.010929754469543695
110,0.25,0.001,0.01469408621754357,0.011739358605980623,16.558294008965273,0.0118189107844149,0.011038738186471164
111,0.25,0.001,0.014719364774962848,0.011826008503718856,16.214367902428535,0.011573424627001096,0.014111662516370416
112,0.25,0.001,0.014748623165999496,0.011711975906402746,17.017371429060294,0.012146589171349247,0.014931136043742299
113,0.25,0.001,0.014757168046724846,0.011864148076452221,16.212482328694236,0.011572078749960198,0.017647381406277418
114,0.25,0.001,0.014743724046859532,0.011769154533806206,16.669488978685195,0.011898279071152887,0.021265685558319092
115,0.25,0.001,0.014836897785194748,0.011932878739446028,16.274122481565595,0.011616076003972587,0.03461530164349824
116,0.25,0.001,0.014737372080090155,0.011772715926918524,16.613933511358923,0.01185862491888574,0.030636462732218206
117,0.25,0.001,0.01477888614235438,0.01186532732956579,16.32758313741644,0.011654234930347208,0.017286134185269475
118,0.25,0.001,0.01461893433478961,0.011638060707022207,16.704816231667746,0.01192349481203979,0.01535986753879115
119,0.25,0.001,0.014681548675109153,0.011827905779260222,15.99181445772179,0.011414571347410273,0.012786007602699101
120,0.25,0.001,0.014692539497274735,0.011606010822696166,17.296906989987423,0.012346114910769038,0.01147514715557918
121,0.25,0.001,0.014566790117691252,0.011733735759574999,15.876437175224018,0.01133221782671236,0.011587148415856063
122,0.25,0.001,0.014590139980096697,0.011713035770976394,16.123292252608422,0.011508417025416433,0.01732392335543409
123,0.25,0.001,0.014704274800781425,0.011775459829234678,16.413079792485576,0.011715260380075357,0.01788861840032041
124,0.25,0.001,0.014558195304047613,0.011659875126345138,16.242186414646802,0.011593280809883514,0.015006736852228642
125,0.25,0.001,0.014556036474939171,0.011583986251798135,16.655369762596226,0.011888201115343488,0.018205376458354294
126,0.25,0.001,0.014615986496210098,0.011747824554195214,16.073180406163427,0.011472648398403588,0.023003523820079863
127,0.25,0.001,0.014577633658400639,0.011738434324828151,15.910872551187811,0.011356796967300365,0.019679905264638364
128,0.25,0.001,0.014414037495976213,0.011558086884102812,16.004747243107115,0.011423802457606791,0.015837718325201422
129,0.25,0.001,0.014483913623388842,0.011649143052088666,15.886054976714705,0.011339082781380946,0.015021334984339774
130,0.25,0.001,0.0144451365272308,0.011584994114280744,16.028238017189953,0.011440569605417525,0.0129714923677966
131,0.25,0.001,0.014561066403985023,0.01157782526850451,16.718083860485123,0.011932964925399803,0.012943211128003895
132,0.25,0.001,0.014424239924356777,0.011561581050532881,16.042340170888224,0.011450635382504086,0.012094365549273789
133,0.25,0.001,0.01438111187227725,0.011536951492458706,15.938674635468168,0.011376641424317036,0.013553956930991262
134,0.25,0.001,0.014426044866473855,0.011541527918068435,16.164832661840208,0.011538067567337764,0.015685170772485435
135,0.25,0.001,0.014462598042258658,0.011560647132724648,16.262533451223973,0.011607804033707333,0.01263908774126321
136,0.25,0.001,0.014339322271020343,0.011492339173277303,15.954492836317756,0.011387932074459498,0.016154347569681704
137,0.25,0.001,0.014438345669827202,0.011513959515107227,16.388260641856174,0.0116975450691336,0.02194153273012489
138,0.25,0.001,0.01429832556039469,0.011494734523248971,15.711324659850309,0.011214364496681162,0.01827604474965483
139,0.25,0.001,0.014332654102701523,0.011474787768085632,16.015482379801604,0.01143146493918744,0.01598251808900386
140,0.25,0.001,0.014365157634643331,0.011474807590838507,16.197522562418023,0.01156140082970594,0.01667784119490534
141,0.25,0.001,0.014420377791987802,0.011560160238061988,16.028659904352292,0.011440870738295712,0.023127509048208594
142,0.25,0.001,0.014374106939274147,0.011460831326483184,16.32599635104255,0.01165310232051574,0.018985272152349353
143,0.25,0.001,0.014355720998914172,0.011515666804740119,15.915663902729625,0.011360216918436562,0.020855198963545263
144,0.25,0.001,0.014320649027387966,0.011484293500935681,15.894936270294828,0.011345422034471683,0.016966371855232865
145,0.25,0.001,0.014350727048534979,0.011441773080333256,16.301777524429387,0.011635815506373581,0.017023611580953002
146,0.25,0.001,0.014273880244423654,0.011370979915821153,16.267854514979916,0.011611602080642339,0.013602125458419323
147,0.25,0.001,0.01432888616250524,0.011467150081276394,16.037169029523138,0.011446944346554702,0.016795815317891538
148,0.25,0.001,0.014267289075828995,0.01137974423407012,16.1818017281249,0.011550179677462455,0.012654301535803825
149,0.25,0.001,0.014270633424020462,0.011382216455173294,16.186690035225457,0.011553668833137371,0.010248133505228907
150,0.25,0.001,0.01428833014670775,0.011391458347065678,16.234068986262237,0.01158748678534064,0.014834110508672893
151,0.25,0.001,0.014233673603184303,0.01140528855354342,15.85026933358803,0.011313539852668116,0.014962477842345834
152,0.25,0.001,0.014274848375672076,0.011382366129232251,16.209471874157256,0.011569929960140796,0.018361941096372902
153,0.25,0.001,0.014179177102964045,0.011291262752154382,16.183871584457332,0.011551657090975968,0.016043966927099973
154,0.25,0.001,0.014191325675992288,0.011372102724551905,15.798925036665786,0.011276891532238249,0.016479067329782993
155,0.25,0.001,0.014240618074258252,0.011350644097729706,16.195413334100316,0.011559895313419211,0.012630402110517025
156,0.25,0.001,0.014102085166178238,0.011263232993811493,15.908927717967014,0.011355408792267676,0.01316012255847454
157,0.25,0.001,0.014219418670748317,0.01137970125294879,15.913776732887683,0.011358869902132536,0.01793899282347411
158,0.25,0.001,0.014141358236419856,0.011252444685596552,16.189472198486328,0.011555654674151554,0.012885861098766327
159,0.25,0.001,0.014202912840758407,0.011356018436877797,15.953996742120847,0.011387577974390327,0.013577878999058157
160,0.25,0.001,0.014221633764989207,0.011269823273947797,16.54194543750715,0.011807241568527587,0.009790273034013808
161,0.25,0.001,0.014143246572823205,0.011333689857352228,15.744755549410895,0.01123822665910842,0.010695389879401773
162,0.25,0.001,0.014212185014273083,0.011342182884062933,16.083492442653768,0.011480008881266072,0.012782843899913132
163,0.25,0.001,0.014195740834720215,0.011262851397050973,16.4359126470079,0.011731557920776516,0.01609586871927604
164,0.25,0.001,0.01414603259897631,0.011320569014730065,15.833898679980672,0.011301854875075427,0.010690509981941432
165,0.25,0.001,0.01416114601988548,0.011291642610965663,16.0806978536949,0.011478014171088437,0.016153042437508702
166,0.25,0.001,0.0141765684645358,0.011341555959790571,15.887411133514787,0.011340050773386715,0.025893621030263603
167,0.25,0.001,0.014136127656068512,0.011226717472294635,16.3043338823518,0.011637640172984867,0.01592076278757304
168,0.25,0.001,0.014181164697311413,0.011335906268693663,15.9448286359779,0.011381034001411779,0.01110740180592984
169,0.25,0.001,0.0141226220837011,0.011259403364210697,16.04547864522894,0.011452875549770834,0.012928270793054253
170,0.25,0.001,0.014184631695620186,0.011275678752262971,16.301773202967944,0.01163581242181866,0.015075023169629276
171,0.25,0.001,0.014069934847090534,0.011234480766852281,15.889883847416195,0.011341815736913773,0.014165407395921648
172,0.25,0.001,0.014081701180394974,0.011313962668305162,15.510407068739376,0.011070954367408547,0.016891246777959168
173,0.25,0.001,0.014084869154015845,0.011207230981423765,16.126283669571496,0.011510552226674872,0.0115805619279854
174,0.25,0.001,0.014064082665423468,0.0112170845067526,15.954578407638742,0.011387993153203955,0.010093452176079154
175,0.25,0.001,0.01402228613185334,0.011238920958284054,15.597979334108999,0.011133461337693789,0.014668754127342254
176,0.25,0.001,0.014021966014072984,0.011110071747497535,16.318254742163493,0.011647576546869017,0.012003164156340063
177,0.25,0.001,0.014045014872242965,0.011215491645100476,15.856647746832301,0.011318092610158674,0.009598597302101552
178,0.25,0.001,0.014071473446538259,0.0112242962868892,15.955580635549634,0.011388708519307376,0.01286442915443331
179,0.25,0.001,0.014054736960289619,0.011175678637673665,16.134242189479174,0.01151623282618071,0.010691704461351037
180,0.25,0.001,0.014013411788947912,0.011113464711506746,16.251303134104198,0.011599788104285651,0.013256510661449283
181,0.25,0.001,0.014067153684077901,0.011235894736635136,15.866375208898567,0.011325035837900477,0.011014621937647462
182,0.25,0.001,0.013993974603619036,0.011078612617836587,16.337688290424428,0.011661447744771182,0.010586420772597194
183,0.25,0.001,0.013917083789645129,0.011109540114280569,15.733475038696033,0.011230174902709517,0.0105025022639893
184,0.25,0.001,0.013904929359805883,0.01109612223820831,15.74055580713759,0.011235228984395138,0.010469792585354298
185,0.25,0.001,0.014018549147416608,0.011119316448944632,16.247300351513978,0.011596931014642382,0.01677232817746699
186,0.25,0.001,0.014007384584881521,0.01116230128387527,15.943846666663262,0.011380333095405612,0.01877928734757006
187,0.25,0.001,0.013966081515889786,0.011109041404680477,16.010852215180336,0.011428160039386393,0.013329326582606882
188,0.25,0.001,0.01402120328036811,0.01117534755834351,15.948174436720844,0.011383422153262558,0.017252611462026834
189,0.25,0.001,0.014032488614788365,0.011158507188711954,16.105791802186847,0.011495925626114808,0.0124281836906448
190,0.25,0.001,0.013967342581210277,0.011121083795244973,15.950434245823816,0.011385035150480954,0.011600797879509628
191,0.25,0.001,0.013972211457695421,0.011102139158758908,16.083885412335896,0.011480289373544537,0.015178946545347571
192,0.25,0.001,0.013963473497044342,0.011075957549665762,16.181640788601033,0.011550064802713086,0.01320189714897424
193,0.25,0.001,0.013904234020343385,0.011040027549482538,16.051013954513742,0.011456826519995533,0.011949163861572742
194,0.25,0.001,0.01397698056576267,0.011119265315828214,16.014635692580473,0.011430860594275855,0.00966250745113939
195,0.25,0.001,0.014020779988412828,0.011133611654262663,16.179691673821484,0.011548673571607056,0.014102625427767634
196,0.25,0.001,0.013933401675622084,0.01111826354006469,15.77603419954308,0.011260552604955803,0.009896664589177817
197,0.25,0.001,0.013979863406599315,0.011019964979096436,16.587271103799093,0.011839593935616769,0.012588403071276844
198,0.25,0.001,0.013939747524498397,0.01118915724844738,15.414308667681706,0.011002361647167527,0.01631706499028951
199,0.25,0.001,0.013901394869836055,0.01094869008311168,16.546958500371318,0.011810819771856758,0.01719532860442996
200,0.25,0.001,0.013949823967146075,0.011051985010442375,16.23948882912991,0.011591355338422493,0.012344989809207618
201,0.25,0.001,0.013990125260374287,0.011179737068681537,15.749415401634312,0.011241552749203649,0.021372607327066362
202,0.25,0.001,0.013939177017331623,0.011131546234080731,15.733961568217897,0.011230522175744394,0.02283052750863135
203,0.25,0.001,0.013976549737498352,0.011064301677453469,16.320239342406204,0.011648993106642544,0.022400491463486105
204,0.25,0.001,0.013922968400042177,0.011109381621882755,15.767340241116958,0.011254347067178413,0.013623371138237417
205,0.25,0.001,0.013945204123979333,0.011025808252799462,16.36029579449897,0.011677584435759437,0.01337225385941565
206,0.25,0.001,0.013918785467962092,0.011071111469151585,15.95836549224215,0.011390696282828086,0.01347505603916943
207,0.25,0.001,0.01388855264463684,0.010996825018874272,16.205241749974974,0.011566910599553872,0.019107387866824865
208,0.25,0.001,0.013815076359271006,0.011050539964100806,15.492461715283254,0.011058145407054428,0.01708276232238859
209,0.25,0.001,0.013848397608020315,0.011029713950801844,15.7959036168693,0.011274734915681156,0.01016802154481411
210,0.25,0.001,0.01384056636977894,0.01095635608758263,16.16311563308269,0.01153684199363504,0.014023573836311698
211,0.25,0.001,0.013816884948743438,0.01096259050507675,15.99546656748241,0.011417178135247973,0.009959884628187865
212,0.25,0.001,0.013846881297966426,0.011026808501038092,15.803688025374791,0.011280291238668659,0.011851982097141445
213,0.25,0.001,0.013797304780070503,0.01088569026487143,16.316688505675504,0.011646458605050324,0.01094796130200848
214,0.25,0.001,0.013925638700597705,0.011046025902032852,16.137350154222304,0.011518451216432765,0.018850507913157344
215,0.25,0.001,0.01381722700910713,0.010963517022962102,15.99219066827367,0.011414839877425888,0.016066706157289445
216,0.25,0.001,0.013797164617971397,0.01090518462717159,16.20665682708868,0.011567920647458015,0.012195773771964014
217,0.25,0.001,0.013788866190917822,0.010974578512637684,15.771269387281091,0.011257151596917267,0.015556926024146378
218,0.25,0.001,0.0137875764182609,0.010992056117334625,15.66609590921442,0.011182081305649122,0.012651066994294524
219,0.25,0.001,0.013776789314140834,0.01091128279100402,16.058299212276186,0.011462026561224973,0.01187138439854607
220,0.25,0.001,0.013789604971317817,0.010937372912267013,15.983908952529461,0.011408928588529236,0.010787712701130658
221,0.25,0.001,0.013782993321420009,0.010981106799423195,15.701772167094083,0.011207546157811622,0.00965373805956915
222,0.25,0.001,0.013804936134665581,0.010894640621623984,16.30929599746002,0.011641182011034989,0.013370466593187302
223,0.25,0.001,0.013756886541562848,0.0108687048622068,16.185370485154156,0.011552726970131447,0.01065615622792393
224,0.25,0.001,0.013779080250771973,0.010981533707559856,15.677451528764669,0.011190186672922675,0.018329062149859965
225,0.25,0.001,0.013822022728060828,0.01094184409842581,16.140521300886466,0.01152071470441575,0.017226966912858188
226,0.25,0.001,0.013693991845871115,0.010880434137445614,15.76717788504756,0.01125423118133302,0.01327606663107872
227,0.25,0.001,0.013669888773410889,0.010808314831935213,16.036261051768538,0.011446296253938998,0.012111332966014743
228,0.25,0.001,0.013770282167208743,0.010929867126452874,15.917686238947274,0.011361660413238597,0.01364150270819664
229,0.25,0.001,0.013749952315037221,0.010951846958796599,15.680582094392019,0.011192421195140627,0.012452848954126239
230,0.25,0.001,0.01378130886282881,0.010867909832261347,16.326688311588814,0.011653596225259681,0.016048885881900787
231,0.25,0.001,0.013788471317939678,0.010997871778687173,15.638519366914757,0.011162397835056929,0.01472386613022536
232,0.25,0.001,0.013665374785381131,0.010847677468910626,15.790376064667642,0.011270789482275261,0.01271744817495346
233,0.25,0.001,0.013744852766706355,0.010941389445449269,15.71060785987886,0.011213852862154788,0.0186992465169169
234,0.25,0.001,0.013769888284004383,0.010953297370959026,15.784175469785554,0.011266363647241652,0.017149463179521263
235,0.25,0.001,0.013638697778922992,0.010769458464249407,16.07921603134985,0.01147695648204843,0.01225382590200752
236,0.25,0.001,0.013688165819171084,0.010864078799831568,15.826184300697998,0.011296348537257672,0.014058757107704878
237,0.25,0.001,0.013692950884418008,0.010898744741992471,15.658731472542096,0.01117682474842405,0.012129008653573692
238,0.25,0.001,0.01366976825091754,0.01079342854072858,16.1190067235396,0.011505358118158171,0.015500544221140444
239,0.25,0.001,0.013716103209018957,0.010912796034317884,15.709733069192415,0.011213228457667677,0.016597223817370832
240,0.25,0.001,0.013702831745428272,0.010845872924261762,16.01039753199621,0.011427835497499081,0.020091440062969923
241,0.25,0.001,0.013799914482310726,0.011015012727808754,15.606589640533574,0.011139607166690631,0.01636819983832538
242,0.25,0.001,0.013700319843748624,0.010798916279116185,16.259465971751194,0.01160561454086452,0.016994145466014743
243,0.25,0.001,0.013628566283031239,0.010881223992510819,15.396106839678776,0.010989369621469505,0.013819232815876603
244,0.25,0.001,0.013671544957204594,0.010798601944108638,16.0999730800485,0.011491772362632761,0.013583663676399738
245,0.25,0.001,0.013649286908802877,0.010859124011761473,15.63607298878945,0.011160651669371486,0.017256994731724262
246,0.25,0.001,0.013587645110849556,0.0107827653570654,15.718545606445568,0.011219518634151012,0.011414495413191617
247,0.25,0.001,0.013594646626405386,0.010768489343227203,15.837785405593936,0.011304629126048491,0.011126204044558108
248,0.25,0.001,0.013666907707268224,0.010831436676179765,15.889979534069365,0.011341884035738305,0.0140039196703583
249,0.25,0.001,0.013651692312382255,0.010813702696692745,15.904093072005395,0.011351957938619126,0.017011874937452376
250,0.25,0.001,0.013724582199646338,0.010902786537786657,15.813341954761968,0.01128718198055815,0.01810837525408715
251,0.25,0.001,0.013691900091471781,0.010864063232326608,15.84719787980722,0.011311347523060114,0.019088969100266695
252,0.25,0.001,0.013609735961520273,0.010782555486056096,15.843520403905892,0.011308722629483148,0.017814941937103868
253,0.25,0.001,0.013642174484028977,0.010852490999895659,15.633385311110748,0.01115873326988633,0.01114014774793759
254,0.25,0.001,0.013658919324903557,0.010748309671691771,16.311056157036308,0.011642438370475594,0.01392365456558764
255,0.25,0.001,0.013647340304339032,0.010800042329940586,15.956257776236434,0.011389191845993173,0.011733330902643502
256,0.25,0.001,0.013612666288117983,0.01079466903512074,15.792057252828048,0.011271989473824445,0.013504104223102331
257,0.25,0.001,0.01364001069825813,0.010830249656849077,15.745900652897408,0.011239044006350755,0.01665064401458949
258,0.25,0.001,0.013653286596347099,0.010783391673445202,16.082891388418286,0.011479579863253594,0.01546957134269178
259,0.25,0.001,0.013702257251889137,0.0108527812140382,15.968463877753733,0.011397904266776396,0.014202091377228498
260,0.25,0.001,0.013653618166667398,0.010779533231295801,16.10637262575796,0.011496340203967137,0.016609397251158953
261,0.25,0.001,0.013604472699150381,0.010793966077517515,15.750079354481716,0.011242026662727849,0.01144437596667558
262,0.25,0.001,0.013646505995182063,0.010769430641474583,16.123130738485806,0.011508301740532339,0.010616763087455183
263,0.25,0.001,0.013638759347528343,0.010833325675030134,15.721650566516063,0.011221734879740231,0.011795918107964098
264,0.25,0.001,0.013561865634374538,0.010690849438060278,16.089175371944155,0.011484065219089332,0.015466209384612739
265,0.25,0.001,0.013597762492723046,0.010778915078601329,15.796821402705364,0.011275390009068782,0.00994812697172165
266,0.25,0.001,0.013593684188304585,0.010724097790360201,16.081162456688023,0.011478345793496091,0.01230748975649476
267,0.25,0.001,0.013536842041122864,0.010692782731235775,15.938108272632295,0.011376237168188648,0.010559790302067995
268,0.25,0.001,0.013570758611524953,0.010777080053596068,15.655774663182981,0.011174714249238387,0.014659380656667054
269,0.25,0.001,0.013533020454408235,0.010657841351397615,16.112503634337102,0.011500716369976518,0.016092685633338988
270,0.25,0.001,0.013565832129426332,0.010767194680152577,15.683565115828893,0.011194550403875013,0.013588101312052459
271,0.25,0.001,0.013458358162865978,0.01065967543339006,15.683818617625217,0.01119473134734134,0.010799051146022975
272,0.25,0.001,0.013537996327777288,0.010702906094616178,15.887846803066621,0.011340361743802013,0.016418557846918702
273,0.25,0.001,0.013560929721431752,0.010721511234798193,15.912101394461788,0.011357674085982717,0.012119662889745086
274,0.25,0.001,0.013577950222098178,0.010730058652305953,15.959584966364266,0.01139156671403588,0.011517742183059454
275,0.25,0.001,0.013633733065837846,0.010778821318967572,15.998924766125539,0.011419646514008236,0.015666976803913713
276,0.25,0.001,0.013586954681288498,0.010756522857400912,15.861740774689359,0.011321727890570564,0.013783387490548193
277,0.25,0.001,0.013616449760748502,0.010752952864167581,16.047036438307504,0.011453987464887584,0.010773993097245693
278,0.25,0.001,0.013501874171197414,0.010647928911148255,15.993509667687835,0.011415781347386035,0.011494571226648986
279,0.25,0.001,0.01351373256905059,0.010722134839041962,15.644114653934494,0.011166391615941823,0.010283348150551319
280,0.25,0.001,0.013519828492253395,0.010697937683517962,15.81387639145472,0.011287563448575818,0.014395071542821825
281,0.25,0.001,0.01360636043155792,0.010790332995947435,15.7810169283815,0.011264109156589222,0.018880591611377895
282,0.25,0.001,0.013534352292450902,0.010653466714943553,16.144482520833673,0.011523542127647161,0.01597919245250523
283,0.25,0.001,0.013458666169556115,0.010664195780911207,15.660212117757757,0.0111778815972575,0.012769571971148252
284,0.25,0.001,0.013499524631385524,0.0107003108765852,15.686793850056796,0.011196854996471661,0.01680166437290609
285,0.25,0.001,0.01345135626932567,0.010644500038613834,15.729622493727936,0.011227425049056343,0.018614562461152673
286,0.25,0.001,0.013578058878996381,0.010764166447782117,15.769053758437664,0.011255570134502258,0.012697568163275719
287,0.25,0.001,0.013538015141272645,0.010639004783400931,16.24605320487561,0.011596040831460108,0.013880541489925236
288,0.25,0.001,0.01356833277730014,0.010788855458527927,15.57619013447143,0.011117908732670543,0.015398263931274414
289,0.25,0.001,0.013557518715483125,0.010702598161964236,15.99897458463533,0.011419682073258624,0.017795496270991862
290,0.25,0.001,0.013536691552643747,0.010671192109896548,16.058258220241658,0.011461997302099685,0.015763696283102036
291,0.25,0.001,0.01352094673399646,0.010705351615207715,15.778594819072898,0.011262380313399642,0.010988142981659621
292,0.25,0.001,0.013474177989999619,0.010606589419260683,16.06996678308463,0.011470354591780607,0.010759838740341365
293,0.25,0.001,0.01344599638321285,0.01064061042248704,15.721382735663378,0.01122154370853917,0.010699373902752995
294,0.25,0.001,0.013443098906193817,0.010671587111467347,15.531552885366782,0.011086047741161158,0.013098039431497455
295,0.25,0.001,0.013545059248275088,0.010636581330088641,16.299109654446525,0.011633911245143843,0.010048102238215506
296,0.25,0.001,0.013453443312557671,0.010599937383475163,15.991048365956072,0.011414024529590344,0.012228330364450812
297,0.25,0.001,0.013518066087028472,0.010700058308917109,15.792115510757,0.011272031056928623,0.011923829675652087
298,0.25,0.001,0.013437491338933861,0.010692849872189585,15.380970492023803,0.010978565661687225,0.011337345582433045
299,0.25,0.001,0.013476620549063303,0.010656084160020412,15.806286923556149,0.01128214626949047,0.011647552601061761
300,0.25,0.001,0.013570538246575508,0.010710560646547183,16.027314948237592,0.011439910741068945,0.013282491127029061
301,0.25,0.001,0.013436711525786122,0.01059884028158552,15.90343051176191,0.011351485019102006,0.013991527492180467
302,0.25,0.001,0.013474123790143174,0.01067656679195839,15.677509220075407,0.011190227851588443,0.011430958053097129
303,0.25,0.001,0.013460869090358832,0.010622677712790886,15.90522450083968,0.011352765525224611,0.012365786940790713
304,0.25,0.001,0.013439427437767324,0.010559129333863947,16.14119056877232,0.011521192411686167,0.012746100430376828
305,0.25,0.001,0.013444776767592051,0.010700117586235122,15.381071194445239,0.010978637540646138,0.015424982877448201
306,0.25,0.001,0.01350938877535041,0.010663307349832736,15.949441766140351,0.011384326742427089,0.013656949857249856
307,0.25,0.001,0.013475389395174122,0.010616467455129244,16.021398719883365,0.011435687880002402,0.01592552463989705
308,0.25,0.001,0.013422408741294838,0.010641794230898055,15.582563005231913,0.011122457534069888,0.01609675958752632
309,0.25,0.001,0.013396601161479203,0.010593097201045837,15.710836749695336,0.01121401623818368,0.012425409397110343
310,0.25,0.001,0.013422142129749933,0.010583666819595891,15.906815508918283,0.011353901148407055,0.010522621567361057
311,0.25,0.001,0.013523503117045099,0.01068043810116696,15.932536448394902,0.011372260134471736,0.015732221072539687
312,0.25,0.001,0.013501763850388168,0.010653567812152239,15.961290447282991,0.011392784045169873,0.018316041794605553
313,0.25,0.001,0.013473511096791492,0.010727930743886336,15.386232998580613,0.010982321911906219,0.017120396601967514
314,0.25,0.001,0.013453403137094306,0.010630787260612184,15.81793941114737,0.011290463534009542,0.01764477347023785
315,0.25,0.001,0.013459711355083158,0.010622450072614469,15.900012155955805,0.011349045079197576,0.011637594434432685
316,0.25,0.001,0.013384697931549788,0.010546363695333693,15.906025311936894,0.011353337124865734,0.010916193132288754
317,0.25,0.001,0.013406958208890889,0.010559560325791646,15.956818776150628,0.01138959227419745,0.01123502425616607
318,0.25,0.001,0.0134487381540083,0.010582380885234936,16.06306556478205,0.011465428668652427,0.01452280196826905
319,0.25,0.001,0.013374719612892702,0.010618614796627016,15.445211298794925,0.011024419199710868,0.015436551300808787
320,0.25,0.001,0.013457000918031736,0.010634126227395804,15.819390308906842,0.01129149914982644,0.012827011873014271
321,0.25,0.001,0.013405487697306538,0.010512432161422454,16.212684056748905,0.011572222738578804,0.012375810649245977
322,0.25,0.001,0.01346435385393797,0.010616442095098636,15.959698054581008,0.011391647433676665,0.01258412969764322
323,0.25,0.001,0.013462461406466352,0.010627820620227558,15.885327079804872,0.011338563226127675,0.012708359048701823
324,0.25,0.001,0.013410611919840509,0.0105525531092947,16.016561895234815,0.011432235471259683,0.013513906509615481
325,0.25,0.001,0.013406812528997784,0.010607402389830127,15.687893783697024,0.011197640102567468,0.012650183285586536
326,0.25,0.001,0.013343541699785069,0.010528268803020152,15.776789557484902,0.011261091761231194,0.016271911619696766
327,0.25,0.001,0.013438516323723554,0.010666691405877907,15.533306369222856,0.011087299335633731,0.014883349533192813
328,0.25,0.001,0.013419399754958672,0.010562632232904434,16.009325498317576,0.011427070305722752,0.012565197539515793
329,0.25,0.001,0.013403419132449636,0.01054318852442079,16.028732008515043,0.011440922204507525,0.012769351014867425
330,0.25,0.001,0.013383753079468985,0.010561642747481498,15.815106683196383,0.01128844160113946,0.013857002835720778
331,0.25,0.001,0.013417848000092486,0.010621182332166069,15.67251526261972,0.011186663285238915,0.013704348995815963
332,0.25,0.001,0.013429612848736252,0.010538055627727609,16.204286687044917,0.011566228898675887,0.01661436853464693
333,0.25,0.001,0.013358361699528774,0.010564056677143694,15.659285046565483,0.011177219876206625,0.012400811770930886
334,0.25,0.001,0.01333184714066683,0.010427183978197216,16.277732617685487,0.011618652832038178,0.01137796463444829
335,0.25,0.001,0.013331081059656134,0.010523804038700698,15.73198038763581,0.01122910805684212,0.01069260505028069
336,0.25,0.001,0.013268264369049331,0.010412108659681915,16.005895909903938,0.01142462234825406,0.010600470879580826
337,0.25,0.001,0.013319282149545319,0.01052573820864431,15.65502107692064,0.011174176357545067,0.01071185030741617
338,0.25,0.001,0.013302292394214096,0.010479389619721278,15.819546328428899,0.011291610512797215,0.009033770358655602
339,0.25,0.001,0.013339938038656154,0.01052107783541021,15.796893099860666,0.011275441184768498,0.009156067040748894
340,0.25,0.001,0.013337284478526484,0.010528021332297365,15.743109703063965,0.011237051893693051,0.012914756371174008
341,0.25,0.001,0.013336819132875698,0.010496819574993774,15.915357330354189,0.011359998094471227,0.01171424682252109
342,0.25,0.001,0.013305526756716573,0.010446434170319445,16.0223544571689,0.011436370062219056,0.01002873305696994
343,0.25,0.001,0.013392091526116038,0.010587952099740505,15.71439793319383,0.011216558125049129,0.015513689373619854
344,0.25,0.001,0.013378381803164172,0.010490800296911136,16.18200745043894,0.01155032651708704,0.020018954761326313
345,0.25,0.001,0.013305641176903846,0.010510472117077606,15.664127433649167,0.011180676255281347,0.017982469056732953
346,0.25,0.001,0.013422388918541963,0.01064567220744104,15.56072060333635,0.011106866954558422,0.019174772780388594
347,0.25,0.001,0.013337887165031424,0.01052610682923674,15.757217223674184,0.01124712150155188,0.015039499499835074
348,0.25,0.001,0.013268007791628398,0.010477786069291655,15.636401264238557,0.011160885984467208,0.01625425147358328
349,0.25,0.001,0.013365241562534576,0.010608246066767302,15.450203045641528,0.011027982188180963,0.012609795550815761
350,0.25,0.001,0.013383534226457444,0.010538154032283996,15.94551064878328,0.011381520805698273,0.014923975802958012
351,0.25,0.001,0.013406475514921683,0.010563169418986123,15.933886867188011,0.011373224030826561,0.019554008031263947
352,0.25,0.001,0.013288667554105925,0.010480038611272887,15.739556899130594,0.011234515987959026,0.016030439699534327
353,0.25,0.001,0.013273097714993744,0.01044770220692063,15.833517736969632,0.011301582967144634,0.011129389749839902
354,0.25,0.001,0.013285029422351506,0.010503001608515633,15.590483613592811,0.011128111073228274,0.009722462855279446
355,0.25,0.001,0.013307542824595543,0.01047266880245139,15.8866336455405,0.011339495821228052,0.010873227147385478
356,0.25,0.001,0.013311815452002083,0.010485422018151652,15.839109556445516,0.011305574272980382,0.012608892400749028
357,0.25,0.001,0.013261282224223703,0.01037425591871454,16.178896213675145,0.011548105791345572,0.012035933206789196
358,0.25,0.001,0.013317156267434235,0.010571006159434508,15.389424527539369,0.01098459994827935,0.017363913357257843
359,0.25,0.001,0.013213839452074662,0.01041282712633889,15.696874307289283,0.011204050183646883,0.013325437321327627
360,0.25,0.001,0.013249960544842556,0.010437766553748352,15.759535298686647,0.011248776087570769,0.017429536557756364
361,0.25,0.001,0.013302752970246341,0.010543692280308471,15.46177623062453,0.011036242848411513,0.012823223893065006
362,0.25,0.001,0.013255157745657605,0.010403294346166705,15.981842076928046,0.011407453302589613,0.011717886198312044
363,0.25,0.001,0.01333132992541441,0.010558653965779428,15.538077115015007,0.011090704578882945,0.014417018508538604
364,0.25,0.001,0.013315525412497161,0.010405832032622403,16.305921378993588,0.01163877328978843,0.01173814688809216
365,0.25,0.001,0.013242781746774039,0.010473236987156848,15.520529048712184,0.01107817919251405,0.013283482636325061
366,0.25,0.001,0.01325452096651164,0.010424788920481584,15.857818148624947,0.01131892801472159,0.01540341239888221
367,0.25,0.001,0.013275460546610246,0.010471884995137798,15.711237883468053,0.011214302557793043,0.012692908989265561
368,0.25,0.001,0.013317566742988061,0.010497966286371691,15.80104168688403,0.011278402346098523,0.011503658257424831
369,0.25,0.001,0.013189535494504115,0.010367420911165461,15.815129802815585,0.011288458103365871,0.01018872921122238
370,0.25,0.001,0.013342467662741948,0.010466453821932172,16.1171810676862,0.011504055009055103,0.01294782420154661
371,0.25,0.001,0.013269602504235431,0.010454834442757164,15.773959822235746,0.011259071964479476,0.01486722705885768
372,0.25,0.001,0.013246194502362148,0.010439816332387126,15.726943363205658,0.011225512750325238,0.013815169921144843
373,0.25,0.001,0.013289640731641936,0.010487899994750402,15.700955203387528,0.011206963028827644,0.013691215077415109
374,0.25,0.001,0.013283344449389679,0.010456191025144385,15.843367812024999,0.011308613713079943,0.014371907338500023
375,0.25,0.001,0.013222122089508686,0.010390158380268757,15.870325240131203,0.011327855274897361,0.01053954940289259
376,0.25,0.001,0.013298617060214405,0.01050089383069192,15.678440233653559,0.011190892386619243,0.013557225815020502
377,0.25,0.001,0.01324273606131017,0.010424386678754536,15.794029355547917,0.011273397113167678,0.016888962942175567
378,0.25,0.001,0.013266306195143128,0.010475071037975315,15.642081827299366,0.01116494063333288,0.011421090923249722
379,0.25,0.001,0.013287317853374211,0.010508510619246061,15.572435566570968,0.011115228812684489,0.012379303690977395
380,0.25,0.001,0.013277291846325208,0.010387114638844544,16.19655187359415,0.011560707975441934,0.010218025417998433
381,0.25,0.001,0.01323874018868143,0.010451905507298194,15.617422251521793,0.011147339223070516,0.012292797910049558
382,0.25,0.001,0.013268608334922391,0.0104743065000765,15.65926840714331,0.011177207999388516,0.011790311196818948
383,0.25,0.001,0.013287044095194989,0.010399452609372438,16.182061941553858,0.011550365411530233,0.01434003806207329
384,0.25,0.001,0.013275660566642693,0.010431277737114969,15.939920848383565,0.011377530941030382,0.01599357253871858
385,0.25,0.001,0.01327092622925048,0.01048641514313645,15.604400363427326,0.011138044513509868,0.015541538828983903
386,0.25,0.001,0.013229059347703617,0.01047025141637445,15.460358839154742,0.011035231148575833,0.013135485700331628
387,0.25,0.001,0.01322001835650854,0.010376295877550436,15.936221238459503,0.011374890248721986,0.011622470105066895
388,0.25,0.001,0.013247286713834088,0.010447254162827296,15.691382803178731,0.011200130480498737,0.011275684111751616
389,0.25,0.001,0.013233020013221637,0.010397511888996826,15.890187722369717,0.011342032635524423,0.012561642099171877
390,0.25,0.001,0.013174764321002501,0.010350333374757398,15.828110742768484,0.011297723585130967,0.013071644760202616
391,0.25,0.001,0.013211768642691388,0.010329534611411425,16.15203901314835,0.011528935769556282,0.011178816086612642
392,0.25,0.001,0.013167917545276955,0.010388243694061015,15.577293260326945,0.011118696117292609,0.012713741976767778
393,0.25,0.001,0.013267402704727201,0.01046190808320644,15.721992125571024,0.011221978676353337,0.012294251937419176
394,0.25,0.001,0.013186988389610497,0.010307792239046995,16.135015687184353,0.01151678493018155,0.009743703936692327
395,0.25,0.001,0.013246733060098841,0.010432797277572264,15.769297164853148,0.0112557438721293,0.01385703426785767
396,0.25,0.001,0.013193191820171089,0.010302795946722749,16.197778893315142,0.011561583792516162,0.011890733730979264
397,0.25,0.001,0.013174647558870175,0.01036749388554979,15.731289787771313,0.011228615123319996,0.010036688472609967
398,0.25,0.001,0.013209892670666822,0.010424109729139376,15.611526868333378,0.011143131240780427,0.013223258312791586
399,0.25,0.001,0.013217581973789127,0.010360006075430365,16.01385541939835,0.011430303654103033,0.012469293375033885
400,0.25,0.001,0.01320718139191801,0.01044400565123583,15.484837575936417,0.01105270348032578,0.009987840428948402
401,0.25,0.001,0.013170095265815697,0.010269845543608505,16.25299862338908,0.011600998303632462,0.013001630431972444
402,0.25,0.001,0.013190766671773779,0.010451102138313788,15.353080506105304,0.01095865846260193,0.010483260441105813
403,0.25,0.001,0.013196226844571874,0.010364401349057462,15.86955041765668,0.011327302225308122,0.011609984678216279
404,0.25,0.001,0.013224088812878192,0.010384999172738656,15.910258233297819,0.01135635848201129,0.01141269225627184
405,0.25,0.001,0.013254711957780886,0.010410666769705557,15.93802784077792,0.011376179757871464,0.011941864271648228
406,0.25,0.001,0.013216736839468508,0.010381717016632088,15.887451451193838,0.011340079551173332,0.01320175954606384
407,0.25,0.001,0.013286748655514487,0.010487022673298126,15.689664968386854,0.011198904331468133,0.013574281358160079
408,0.25,0.001,0.013119383894343506,0.010297792172643929,15.812200219062582,0.011286367037161016,0.01043230073992163
409,0.25,0.001,0.013205083227369576,0.010477074363491027,15.287761991492873,0.010912035682721538,0.010959360748529434
410,0.25,0.001,0.013185967102833871,0.010392933460459051,15.652160309348645,0.011172134410669983,0.010620195360388607
411,0.25,0.001,0.013231587654688867,0.01034110955208166,16.198238636160497,0.011561911945867592,0.012019246234558523
412,0.25,0.001,0.013187321518629665,0.010277659285455069,16.305747542919974,0.011638649209792986,0.014396196347661316
413,0.25,0.001,0.013234455473565157,0.010465280901032761,15.518454252426594,0.011076698252981151,0.015558592858724296
414,0.25,0.001,0.013218335561828384,0.010304018586219354,16.33183323688587,0.011657268548812185,0.013137702248059213
415,0.25,0.001,0.013264765752533988,0.010427872767227713,15.897949083080851,0.011347572507552356,0.01209821761585772
416,0.25,0.001,0.013155579753999431,0.010343458573626176,15.759127209874876,0.011248484803622325,0.012377563980408013
417,0.25,0.001,0.013157649456706506,0.010314630434135264,15.932278844601939,0.011372076263099171,0.010877553489990532
418,0.25,0.001,0.013180463524169005,0.010394720282701768,15.611306362072295,0.011142973848731117,0.01123275188729167
419,0.25,0.001,0.013145774649650981,0.010346703332650113,15.685994990201175,0.011196284789579711,0.01145062642171979
420,0.25,0.001,0.013106955277682847,0.010264077582338115,15.931487270977707,0.011371511256943403,0.011028515524230897
421,0.25,0.001,0.013151678517772563,0.010363474784411146,15.62509394689584,0.011152815094144067,0.011392185464501381
422,0.25,0.001,0.013131364198035277,0.01026861412084377,16.042851743338996,0.011451000530577442,0.011966041522100568
423,0.25,0.001,0.013203110265307846,0.01038253881333388,15.80648162873719,0.011282285245351313,0.010310155805200338
424,0.25,0.001,0.013142034715376638,0.010258229227276776,16.16084558494919,0.011535221688043676,0.010601452901028097
425,0.25,0.001,0.013213641633704367,0.010368134565339677,15.946221180041963,0.011382027965768711,0.015325944172218442
426,0.25,0.001,0.013149068651868958,0.010356631632660472,15.648818211575433,0.01116974890190966,0.011558984639123082
427,0.25,0.001,0.01312841537357873,0.010309213955563232,15.798804853750571,0.011276805748572856,0.012532935477793217
428,0.25,0.001,0.01322512420198284,0.010427121341883139,15.680008253791842,0.011192011601564484,0.010535404726397246
429,0.25,0.001,0.013213297005384287,0.010329041267632191,16.163369422178388,0.011537023142168729,0.01214611396426335
430,0.25,0.001,0.01317018253346866,0.010386319819323439,15.600766692700246,0.011135450887009455,0.011110401363112032
431,0.25,0.001,0.013130850006658663,0.010287019716396492,15.936825907878795,0.01137532184716545,0.011483400827273726
432,0.25,0.001,0.013210801777885799,0.010388954100296463,15.81363381102494,0.011287390300517446,0.018040326540358365
433,0.25,0.001,0.013133564722338481,0.01029704446089941,15.89586009739832,0.011346081439970249,0.011147695942781866
434,0.25,0.001,0.013066719582296564,0.010272980948216496,15.656112870411892,0.011174955653398924,0.01268915378022939
435,0.25,0.001,0.01316505519353695,0.010388607860671426,15.559211040640475,0.01110578946512525,0.01160071708727628
436,0.25,0.001,0.013145260547899551,0.010298502323642435,15.953233072448475,0.011387032885402194,0.01236603141296655
437,0.25,0.001,0.013122128026567743,0.010318005262683127,15.71430479233235,0.011216491643349286,0.013751252146903425
438,0.25,0.001,0.01315596351735138,0.010325987655747385,15.859185693653059,0.011319904135369778,0.012251825421117246
439,0.25,0.001,0.013132469311637111,0.010359599586248897,15.539162260717927,0.011091479129705872,0.014562010066583753
440,0.25,0.001,0.013079835663093682,0.010235652218428615,15.938803058289086,0.011376733089428326,0.011051165987737477
441,0.25,0.001,0.013063966129053087,0.010266654567489066,15.676134077574918,0.011189246308047764,0.01266666199080646
442,0.25,0.001,0.013107397511726144,0.010248334162623064,16.022190744408004,0.011436253208000003,0.01442430610768497
443,0.25,0.001,0.013055162118537406,0.010249608367775026,15.722323222140387,0.011222215005096636,0.012235624715685844
444,0.25,0.001,0.01311789794384685,0.010310465575168572,15.73285228936742,0.01122973039926297,0.015450033824890852
445,0.25,0.001,0.013147031101222817,0.010285711936870879,16.034833006280238,0.01144527694952194,0.01526069629471749
446,0.25,0.001,0.013121300661414238,0.010306125974368351,15.776238046430644,0.011260698105946213,0.010442641098052263
447,0.25,0.001,0.013050090638476435,0.010233800788117751,15.782488974567238,0.01126515986764257,0.009530319483019412
448,0.25,0.001,0.013148911032342512,0.010342693240790936,15.726045225454673,0.01122487168126672,0.013286026194691658
449,0.25,0.001,0.013208971335455214,0.010367715232479523,15.922399768270708,0.011365024816752825,0.026006987551227212
450,0.25,0.001,0.013134544052838282,0.010327415014753531,15.731150511418427,0.011228515711219434,0.019452403532341123
451,0.25,0.001,0.013047719876979435,0.010271471332774252,15.558097671764166,0.01110499476928206,0.013921760488301516
452,0.25,0.001,0.013185031135336624,0.010440517563731351,15.380254689619631,0.010978054739200308,0.018323585973121226
453,0.25,0.001,0.013050289520658708,0.010182558449772361,16.07076532371872,0.01147092457081993,0.012536872876808047
454,0.25,0.001,0.01315138919208838,0.010308298995430001,15.93267786353203,0.01137236107318489,0.01408228906802833
455,0.25,0.001,0.01312465500086546,0.010372982477325026,15.420373437793684,0.01100669053375709,0.0166642073309049
456,0.25,0.001,0.013085435799256778,0.010286439685579624,15.685573494085208,0.011195983935820992,0.015299090999178588
457,0.25,0.001,0.013168460482957473,0.010313511822201218,15.999132028683459,0.01141979445302174,0.01774292765185237
458,0.25,0.001,0.013107413616982215,0.010276884997894824,15.862282445740002,0.01132211452229836,0.016417272621765733
459,0.25,0.001,0.013104663783816863,0.01031245059376606,15.647563734812717,0.01116885348666147,0.013065887382254004
460,0.25,0.001,0.013100049887086308,0.010204695878262051,16.22556419053337,0.011581416267332882,0.010804033314343542
461,0.25,0.001,0.013110962298905252,0.010243127231630322,16.07134771945586,0.011471340270846439,0.009598169126547873
462,0.25,0.001,0.01317908918430491,0.010321558850610854,16.013599619207024,0.011430121070097804,0.012354211416095495
463,0.25,0.001,0.013143939686993674,0.010289633128340026,15.995534585609596,0.011417226684946179,0.01491778646595776
464,0.25,0.001,0.013076284144338703,0.010257634556380775,15.79571190039982,0.01127459807309052,0.011328641208820045
465,0.25,0.001,0.013016311451792717,0.010180292000300465,15.893053334128409,0.011344078040063104,0.011620969045907259
466,0.25,0.001,0.013144946060918863,0.010280616300874176,16.051704702018196,0.011457319558899497,0.014396910322830081
467,0.25,0.001,0.013094933415182464,0.010236509304072817,16.01860889929608,0.011433696573373361,0.013651456567458808
468,0.25,0.001,0.013106335663708184,0.01034154982216438,15.4938597379868,0.011059143281932048,0.013886237749829888
469,0.25,0.001,0.013141331523968585,0.010332146523107296,15.742672748645479,0.011236740006170934,0.013663350371643901
470,0.25,0.001,0.013169587562523127,0.010233877312438758,16.451720449216197,0.011742841148619699,0.011179373948834836
471,0.25,0.001,0.01309473948576585,0.010292365613186957,15.704503957197756,0.011209496043681481,0.010975911864079535
472,0.25,0.001,0.013188224441710875,0.010350291441861057,15.903776695538765,0.011351732116730025,0.012968030525371432
473,0.25,0.001,0.013065098703032258,0.010184577911718121,16.142439100034068,0.011522083583179205,0.010284143616445363
474,0.25,0.001,0.013139712791811971,0.010364274673600326,15.553554742406103,0.011101752135907283,0.014388060895726085
475,0.25,0.001,0.01304685438605158,0.01021975691130221,15.843054160912166,0.01130838983648263,0.012942256173118949
476,0.25,0.001,0.013071676778556413,0.01024055612277411,15.86559987167933,0.011324482420898879,0.014527201652526855
477,0.25,0.001,0.013110573991946097,0.01022886418616672,16.14910197557266,0.011526839382992619,0.01322681037709117
478,0.25,0.001,0.013124451462070313,0.010272376777050883,15.983027553957376,0.011408299467492774,0.015400384669192135
479,0.25,0.001,0.013089027251876797,0.010265309016793093,15.824117740327843,0.011294873476322515,0.01241967803798616
480,0.25,0.001,0.013150043107538043,0.010331489071717572,15.79517856103107,0.011274217388316254,0.011344102502334863
481,0.25,0.001,0.01298794293752774,0.010121573148505708,16.06313633220465,0.01146547918073137,0.01077449251897633
482,0.25,0.001,0.013033406060796901,0.010276968929932207,15.447074291596353,0.011025748959026662,0.010363837995100766
483,0.25,0.001,0.013045335901612767,0.010208432289876947,15.898006870158047,0.01134761375457391,0.011236033635213971
484,0.25,0.001,0.013013534746658851,0.010254608167171728,15.461024906844774,0.011035706571623678,0.010446956846863031
485,0.25,0.001,0.013094364829112047,0.010196418096175004,16.240093989352303,0.011591787287189367,0.012773855472914875
486,0.25,0.001,0.013056675190394393,0.0101901646235872,16.06392536402746,0.011466042372610608,0.013091995497234166
487,0.25,0.001,0.013065039176322426,0.010226002839787486,15.909959609538442,0.011356145331576332,0.011874779360368848
488,0.25,0.001,0.013088210037749681,0.010223505913307228,16.053801819869165,0.01145881643102724,0.01402480248361826
489,0.25,0.001,0.013055262518228347,0.010281056228043145,15.54665247067248,0.011096825460865439,0.012671353411860764
490,0.25,0.001,0.013103849250651802,0.010265725512821306,15.904845632768575,0.011352495098335885,0.01496698462869972
491,0.25,0.001,0.013103101815576335,0.010246080521759128,16.010747969399937,0.011428085631263338,0.012724481406621635
492,0.25,0.001,0.013067755575397024,0.01023281154429314,15.88702624811787,0.011339776051475996,0.013409141218289733
493,0.25,0.001,0.013057945958615346,0.010258089622412515,15.690394672888592,0.011199425176936896,0.01466967980377376
494,0.25,0.001,0.013036260303406037,0.010279113812582513,15.451048404103044,0.011028585584655992,0.011307153850793839
495,0.25,0.001,0.012988810544389311,0.010187137513479928,15.70057585648413,0.01120669226015998,0.013701670512091368
496,0.25,0.001,0.01308620807609548,0.010285066768028248,15.697597272226501,0.011204566218577088,0.014535865862853825
497,0.25,0.001,0.013060397869872249,0.010145461163386141,16.33530670628887,0.011659747827472425,0.0182124525308609
498,0.25,0.001,0.013065108472177425,0.010319724760824916,15.38513040742116,0.010981534908937302,0.012721493956632912
499,0.25,0.001,0.013080050408933702,0.010165533908179116,16.33295087934039,0.0116580662950324,0.01080592058133334
500,0.25,0.001,0.013041628345410694,0.010233122216358345,15.738868721359445,0.011234024783268697,0.0106507558375597
