epoch,beta,learning_rate,train_loss,train_reconstruction_loss,train_kl_unnormalized,train_kl_normalized,mean_unclipped_gradient_norm
1,0.0,0.001,0.07951263628992034,0.07951263628992034,17.05831339329849,0.012175812557672014,0.06686265394091606
2,0.02,0.001,0.07771141247616874,0.07688125004003077,58.1528938293457,0.04150813264050371,0.05665310738342149
3,0.04,0.001,0.0773439692678275,0.07635459107013397,34.65299920447079,0.024734474806902777,0.05777278542518616
4,0.06,0.001,0.07612397698340592,0.07592255309408094,4.7032579954759575,0.0033570720881341597,0.057584941387176514
5,0.08,0.001,0.07548183191705633,0.0753729459312227,1.9068760481881506,0.0013610821186210926,0.056363540036337714
6,0.1,0.001,0.07443969527512422,0.0743693346042692,0.9857564664181367,0.0007036091837388556,0.057193756635699956
7,0.12,0.001,0.07155638567091506,0.07109178869444648,5.424175615663882,0.003871645692836461,0.07094735545771462
8,0.14,0.001,0.05928147410353025,0.05501550378070937,42.690175355510945,0.030471217241620947,0.12061815283128194
9,0.16,0.001,0.04388399343983627,0.03970567865504159,36.58636883865168,0.026114467408031177,0.10343133232423238
10,0.18,0.001,0.04022539811737744,0.03775205216657968,19.250870330245405,0.013740806802459248,0.09142254718712398
11,0.2,0.001,0.03661568569548336,0.03483865104707671,12.448132029874825,0.0088851763239649,0.07900782275412764
12,0.22,0.001,0.03274793971651866,0.03024194582744881,15.958626758905105,0.011390882768668883,0.09838858619332314
13,0.24,0.001,0.030242439800942385,0.026769231549567646,20.27485472596722,0.014471702159862399,0.06289956931556974
14,0.25,0.001,0.028345688013934795,0.02526259627883081,17.27764643209952,0.012332367189221642,0.04401622632784503
15,0.25,0.001,0.027222166412774428,0.0241332715170251,17.310166973537868,0.01235557956712196,0.08545349591544696
16,0.25,0.001,0.02634286578790641,0.02293949479950063,19.072491031222874,0.01361348396232896,0.06209939079625266
17,0.25,0.001,0.026101843074516014,0.022955641205664033,17.631312509230625,0.01258480550266283,0.07036780299884933
18,0.25,0.001,0.025235390994283888,0.021751544836126728,19.523473527696396,0.013935384388077371,0.045947326879416196
19,0.25,0.001,0.02483517775013123,0.021589856507417595,18.18678157005781,0.012981285917243263,0.03659056472991194
20,0.25,0.001,0.024213462879444345,0.02112040937774711,17.33347169381601,0.012372213914215566,0.028124967323882238
21,0.25,0.001,0.024156887327999244,0.02086596554260195,18.442325154057254,0.0131636867623535,0.0353250778945429
22,0.25,0.001,0.023840679035142615,0.020432747808503515,19.098047812191055,0.013631725776010746,0.047510409727692604
23,0.25,0.001,0.023766509208966186,0.02048975614669882,18.362924726509753,0.013107012652754999,0.049004023362483294
24,0.25,0.001,0.02357702533955927,0.020245096501376895,18.672128521954573,0.013327714862208831,0.03644405358604023
25,0.25,0.001,0.02329997479179759,0.01994208515058329,18.817612499660918,0.013431557815603795,0.02360683719494513
26,0.0,0.001,0.019649213607664463,0.019649213607664463,22.168606298941153,0.015823416344711745,0.04517548158764839
27,0.02,0.001,0.018885061981869334,0.018286801345738363,41.908141006658106,0.029913019990476877,0.03246267592268331
28,0.04,0.001,0.019218413412203022,0.017514432460805515,59.68192852632499,0.0425995207182905,0.023302529406334673
29,0.06,0.001,0.019858956760094488,0.01743109136543892,56.69066369327498,0.040464428046591706,0.04009090683289936
30,0.08,0.001,0.020067311754381215,0.017649569440587067,42.34070908346294,0.030221776647725154,0.035693763090031486
31,0.1,0.001,0.020289035376023362,0.018180832312798795,29.535917663574217,0.02108202545579887,0.038121008181146214
32,0.12,0.001,0.020628314235328155,0.01831428982593395,27.016236872731902,0.01928353809616838,0.04376300876694066
33,0.14,0.001,0.02086943166307461,0.018262778484710942,26.08514931290238,0.018618950259030966,0.045534654653498104
34,0.16,0.001,0.02112812710305055,0.018170648647679224,25.8964214042381,0.01848424083100507,0.041448610967823436
35,0.18,0.001,0.021281804360541296,0.018257131685077407,23.54203522293656,0.01680373677582909,0.03626901576561587
36,0.2,0.001,0.021604003407704978,0.01835807315821265,22.737740344765747,0.01622965049590703,0.045179699547588825
37,0.22,0.001,0.02166549207435714,0.018352102943592602,21.100263600290557,0.015060859100849791,0.031046598750565733
38,0.24,0.001,0.021834013155765004,0.018561341401971417,19.104222041000554,0.01363613279157784,0.03224810212850571
39,0.25,0.001,0.021711150676379968,0.018334211914995572,18.92436582306285,0.013507755762357495,0.02463402439441
40,0.25,0.001,0.021730844395948044,0.018523135188001173,17.97600040671266,0.012830835408074705,0.03460298092769725
41,0.25,0.001,0.021583931699947073,0.01824790761794573,18.69507802327474,0.013344095662580114,0.04494177842778819
42,0.25,0.001,0.021604381336106194,0.018432524901481322,17.775083555998627,0.012687425807279534,0.03677942790091038
43,0.25,0.001,0.021496356076296463,0.018194507899475687,18.503558688693577,0.01320739378207964,0.0483202709417258
44,0.25,0.001,0.021477136839135193,0.018265555426478387,17.997704376409082,0.012846327178022185,0.04404710858528103
45,0.25,0.001,0.02121857457138874,0.018026907475274287,17.88610176745756,0.012766667928235232,0.04011689392583711
46,0.25,0.001,0.02126207679602099,0.018202322144291284,17.146864634384343,0.012239018297205098,0.04068316599088056
47,0.25,0.001,0.021132555985708297,0.017933166068461206,17.92937959741663,0.01279755859915534,0.038828396637524874
48,0.25,0.001,0.02086381314345348,0.01766428447983883,17.930158139452523,0.012798114303677747,0.024947522075048516
49,0.25,0.001,0.02102733415402012,0.017860326869988147,17.747908359103732,0.012668028807354556,0.020575144195130894
50,0.25,0.001,0.0207021050385119,0.017626260616529135,17.23703173884639,0.012303377401032399,0.029354249260255268
51,0.0,0.001,0.017019721732279402,0.017019721732279402,21.083722182850778,0.015049052236153304,0.03471623121627739
52,0.02,0.001,0.016624159839602165,0.01607040243200314,38.790682578381194,0.02768785337500442,0.02107010981334107
53,0.04,0.001,0.017029166115838806,0.015527532226693484,52.59473375862027,0.03754085207610298,0.02560745126434735
54,0.06,0.001,0.01760295910967721,0.015460372803571784,50.02940037103347,0.035709778994313685,0.02733909910810845
55,0.08,0.001,0.017741446882302378,0.015641445901106905,36.77626570713373,0.026250011211373114,0.025218527897128036
56,0.1,0.001,0.01792983040213585,0.0160068506627907,26.940944949491524,0.01922979653782407,0.025332962961069176
57,0.12,0.001,0.01827770227819313,0.016202853084254412,24.22386223592876,0.0172904084482004,0.02112968864717654
58,0.14,0.001,0.01852904273495998,0.01607379843423396,24.56998228850188,0.017537460591364653,0.038789192879838605
59,0.16,0.001,0.01863017343444589,0.015908254388673805,23.83380274831513,0.017011993396370544,0.024787516466208866
60,0.18,0.001,0.01885005982569706,0.01612254209632491,21.229180578537928,0.015152876929720149,0.017084335376109396
61,0.2,0.001,0.019135391514426395,0.01628437234479704,19.971388390623492,0.014255095211008916,0.022405893009688174
62,0.22,0.001,0.019356964620543114,0.016366697249957072,19.042565969773282,0.01359212417542704,0.03313868160226515
63,0.24,0.001,0.019416585311661533,0.016217474906164923,18.674808294979144,0.013329627619542572,0.040178553334304264
64,0.25,0.001,0.01965692508275862,0.016575472254628017,17.26846163243423,0.012325811300809586,0.01827994255082948
65,0.25,0.001,0.019326972014006273,0.016200997165323777,17.51796299498758,0.012503899354023969,0.020390141622296402
66,0.25,0.001,0.019381123914578816,0.016404806111973744,16.67928602901506,0.011905271969318386,0.018881494445460185
67,0.25,0.001,0.019295472095226064,0.016173591961463292,17.49501429428289,0.012487519125112697,0.020547463026429926
68,0.25,0.001,0.019229322970833306,0.016210455419840637,16.917733628072856,0.012075470112828592,0.01721287359084402
69,0.25,0.001,0.019053943813950928,0.016059322301068425,16.781859621589568,0.011978486525046086,0.019514328401003565
70,0.25,0.001,0.01901641520269123,0.016014329348633317,16.82369020721059,0.012008344187873369,0.023258183284529617
71,0.25,0.001,0.018904699178205597,0.015943300560760647,16.595681630829233,0.011845597166901665,0.021873822568782737
72,0.25,0.001,0.018863973720574086,0.015908525447234697,16.562330999492126,0.011821792290858049,0.026363526604005268
73,0.25,0.001,0.018813537907453232,0.015925754735499252,16.183134672376845,0.011551131100911381,0.02457603732390063
74,0.25,0.001,0.018615918887066252,0.015583152841362689,16.995621855464982,0.01213106485043896,0.021623353340796063
75,0.25,0.001,0.018681414324192354,0.015954644527332282,15.280819242971916,0.010907080116325421,0.0273972125723958
76,0.0,0.001,0.015211576382043185,0.015211576382043185,19.850519316873434,0.014168821782208019,0.02905381763620036
77,0.02,0.001,0.01496707099593348,0.014446881496244006,36.43926815456814,0.02600947048862822,0.01635455765894481
78,0.04,0.001,0.015417650362683668,0.01410545768607178,45.95955187008705,0.03280481932197505,0.018137858382293155
79,0.06,0.001,0.015773196196482504,0.013988117284980821,41.68159511236497,0.029751316996691625,0.018834559779082025
80,0.08,0.001,0.015886598567903778,0.014146518769363563,30.473145411927025,0.021750996011368325,0.021928640880755017
81,0.1,0.001,0.016026603665064882,0.01438797915607323,22.957125157485773,0.01638624208243096,0.01554057520947286
82,0.12,0.001,0.016268512321475113,0.014424117213046109,21.53331394901982,0.015369959992162613,0.02248800958373717
83,0.14,0.001,0.016583143655256725,0.014429689076855596,21.54992901366434,0.01538181942445706,0.017755206541291306
84,0.16,0.001,0.01680318691112377,0.014448370740829426,20.619359485013984,0.014717601345477505,0.02044155927641051
85,0.18,0.001,0.01699474110831449,0.014496653784572343,19.443445450582622,0.0138782622773609,0.01582320047808545
86,0.2,0.001,0.017260148928121284,0.01460256757053696,18.616356527069467,0.013287906157794053,0.019744126791400567
87,0.22,0.001,0.017403278757392626,0.014659184111673156,17.474893155510042,0.01247315714169168,0.023133501277438233
88,0.24,0.001,0.017653602646824754,0.014701284141636189,17.23415933302891,0.012301327147058465,0.02982972123261009
89,0.25,0.001,0.017718364666273564,0.014736902164180337,16.708115259806316,0.011925849578733987,0.033231050840445926
90,0.25,0.001,0.017562609271686753,0.0146867857993017,16.116116323588805,0.011503295020406,0.02743090143693345
91,0.25,0.001,0.01766612898144457,0.014825392233920686,15.919488426491066,0.011362946771228455,0.02442253367709262
92,0.25,0.001,0.017550547080643384,0.014714159165727504,15.895119742405267,0.011345552992437736,0.020862340527985777
93,0.25,0.001,0.017529300922228968,0.014730260328010277,15.685825070039726,0.011196163504667898,0.01697057924632515
94,0.25,0.001,0.017541690244350903,0.014720720843768414,15.80871218457634,0.011283877362295745,0.015139794243233544
95,0.25,0.001,0.01736617351387754,0.014441950076524122,16.387348182113083,0.011696893777382643,0.018309405871800015
96,0.25,0.001,0.017332013144537254,0.014619211707678105,15.20254082856355,0.010851206872636366,0.030233044842524186
97,0.25,0.001,0.017239169776439668,0.014337494194415617,16.260989217404966,0.01160670179686293,0.021922243759036064
98,0.25,0.001,0.017175736641626298,0.01436800276975573,15.734541087680393,0.011230935822755455,0.01544727957142251
99,0.25,0.001,0.01713896117368598,0.014336268576206984,15.706289896552946,0.011210770804106315,0.023211726918816566
100,0.25,0.001,0.017165151128062495,0.014439508215420775,15.27450365372646,0.01090257220108955,0.02445027924009732
101,0.25,0.001,0.01718457827321541,0.014333317189672847,15.978469123369381,0.011405045769714049,0.025773028577012674
102,0.25,0.001,0.01701793304104128,0.014317541962696446,15.132991051379545,0.010801563919614236,0.027281458223504678
103,0.25,0.001,0.017006966494667677,0.014137322839671448,16.081481420257944,0.011478573461997104,0.02428024754460369
104,0.25,0.001,0.01688741262956166,0.014182652574446467,15.15747598954189,0.010819040677760093,0.015216249573443617
105,0.25,0.001,0.016905541117820475,0.014129316903374814,15.557960463158878,0.011104896833089848,0.015901679306157997
106,0.25,0.001,0.016873546717343507,0.014052221650418676,15.810706129191834,0.011285300591857126,0.018797010981610844
107,0.25,0.001,0.016679352659870077,0.013904382582799888,15.550931002769941,0.011099879373854347,0.01769974721329553
108,0.25,0.001,0.016686184345572085,0.013998688614846747,15.060726928710938,0.010749983532270477,0.02166489644774369
109,0.25,0.001,0.01665275155302183,0.01390059712216442,15.4230712890625,0.011008616194905426,0.01399917182113443
110,0.25,0.001,0.016594975823421537,0.013822871614477516,15.534871033091603,0.011088416154954749,0.015924082536782538
111,0.25,0.001,0.01647623838097961,0.013757691284020742,15.234737316178688,0.01087418794873568,0.016155498634491647
112,0.25,0.001,0.016492745358450914,0.013723442144691945,15.519174994951413,0.011077212701607005,0.0139365020607199
113,0.25,0.001,0.016422670891071543,0.013655525862158817,15.507081304950479,0.011068580517452162,0.021492760894554003
114,0.25,0.001,0.016383100691952823,0.013692783081421146,15.076539917934088,0.010761270462479721,0.017142532526382377
115,0.25,0.001,0.016318627686044317,0.013628428003946204,15.075878326981156,0.010760798234818812,0.015036339472447122
116,0.25,0.001,0.016275705479913288,0.013522611137617517,15.428339746263292,0.01101237669255053,0.013571344182959624
117,0.25,0.001,0.01632846752066671,0.013696490711084119,14.749598521950805,0.010527907581692223,0.020795400786612715
118,0.25,0.001,0.01620692084830852,0.013414853457131504,15.646744351328156,0.011168268630498327,0.02469170399542366
119,0.25,0.001,0.01618844340612859,0.013522092420837762,14.942229400446385,0.010665402855422116,0.01515234780630895
120,0.25,0.001,0.016181318211242742,0.01347963457674156,15.140236230544103,0.010806735353707426,0.019155367543654784
121,0.25,0.001,0.016154224338170924,0.013373070886289631,15.585583811630437,0.011124613712798314,0.026621597153799876
122,0.25,0.001,0.016082735364267856,0.013343443521470936,15.350991524590386,0.010957167397994565,0.026668811616088663
123,0.25,0.001,0.016005345709897853,0.01317949470270563,15.836069309564284,0.011303404218104414,0.02185554270233427
124,0.25,0.001,0.015972720794839624,0.013309887591979385,14.922516876974223,0.010651332531744627,0.0176088119457875
125,0.25,0.001,0.015946323820102363,0.01323744383537107,15.180563717123903,0.010835520140702286,0.01584202516824007
126,0.25,0.001,0.015682713894380463,0.012956439319676088,15.278043954166366,0.010905099182131596,0.018278074051652635
127,0.25,0.001,0.014922902427245805,0.012105040082041128,15.791302386625313,0.011271450668540552,0.019409032006348883
128,0.25,0.001,0.01350320559684877,0.010630626776428134,16.097931798299154,0.011490315344967276,0.02455784460263593
129,0.25,0.001,0.012518257930598877,0.009658958650205607,16.023512261002153,0.011437196474662494,0.036811230438096185
130,0.25,0.001,0.012268917110783083,0.009275959542504063,16.772535201649607,0.011971830979050397,0.06763702231858458
131,0.25,0.001,0.01213619329587177,0.009207431661585967,16.412780286058968,0.011715046599613825,0.04086321751986231
132,0.25,0.001,0.012051339332520226,0.008930688468670404,17.488128831651476,0.012482604448002482,0.033946591296366284
133,0.25,0.001,0.01192222304734183,0.0089723765436146,16.530939295262467,0.011799385649723389,0.03162181191146374
134,0.25,0.001,0.011809694721007053,0.008704372419527283,17.402225894692503,0.012421289004063172,0.030636278114148548
135,0.25,0.001,0.01166511920315248,0.008762087714340951,16.268588318059475,0.01161212585157707,0.02464241281683956
136,0.25,0.001,0.01164556480254288,0.008624167216044885,16.931912165512273,0.012085590410786776,0.021865630389324257
137,0.25,0.001,0.01165245530873905,0.00873036804712481,16.37537635991603,0.011688348579526074,0.041792803443968296
138,0.25,0.001,0.011680668889096489,0.008522446530606643,17.698679912237473,0.012632890729648447,0.0229608557586159
139,0.25,0.001,0.011531535425671825,0.00852321009669039,16.858655263170785,0.012033301401263944,0.02934684032308204
140,0.25,0.001,0.0116612663515556,0.008629875666933295,16.987913094037843,0.012125562522510952,0.03479164878704718
141,0.25,0.001,0.011540941128300296,0.008455841758368927,17.28889670195403,0.012340397360424004,0.038145769254437516
142,0.25,0.001,0.01140494739383827,0.008392028354200316,16.884398349714868,0.012051676195371069,0.022415375070912496
143,0.25,0.001,0.011423817065394954,0.008398795134767338,16.952223704773704,0.012100088297483016,0.027454295062593052
144,0.25,0.001,0.011418986651632521,0.008264853975471154,17.675759049403815,0.012616530370737913,0.021277721971273422
145,0.25,0.001,0.011358506322182991,0.00841000316273651,16.523412247646004,0.011794013024729481,0.024843544034021243
146,0.25,0.001,0.01137593334287773,0.008309592265221807,17.1837762714904,0.012265364933255104,0.021220451486962184
147,0.25,0.001,0.011334609325377294,0.00825212091943364,17.274265496524762,0.012329953958975562,0.019837002269923687
148,0.25,0.001,0.011321505609853767,0.008346816260413623,16.67015913033191,0.011898757409230486,0.018791617958673408
149,0.25,0.001,0.011326174332219878,0.008153188711515179,17.781412355399425,0.012691943151605585,0.021206881318773543
150,0.25,0.001,0.011275965108731646,0.008242862540538664,16.99750624762641,0.01213240988410165,0.016770120044904097
151,0.25,0.001,0.011254258283678396,0.008195228410171874,17.142804369514373,0.01223612017809734,0.020988440407173976
152,0.25,0.001,0.011156795194579495,0.008121465114347729,17.009989236902307,0.012141319940686872,0.02080376446247101
153,0.25,0.001,0.011219137844940026,0.008192034431353763,16.96388885592237,0.012108414600943876,0.021992551029792855
154,0.25,0.001,0.01116706937275551,0.00805615840456736,17.433545552948374,0.012443644220519896,0.016553057889853205
155,0.25,0.001,0.01112716814480078,0.008189313688579902,16.463736988585673,0.011751418264515113,0.02020151713596923
156,0.25,0.001,0.011214490602781743,0.00814011609526696,17.228796867088036,0.01229749954824271,0.03880105074495077
157,0.25,0.001,0.01113167819969448,0.008132438042005639,16.807743015995733,0.011996961467520151,0.029007260421557084
158,0.25,0.001,0.011181706111924148,0.008230183486263325,16.540332346786688,0.011806090183288143,0.017551037349871228
159,0.25,0.001,0.011156774560610453,0.0080878691724789,17.198147097929024,0.012275622482461829,0.022005849917020117
160,0.25,0.001,0.011143038619631602,0.008145722275438867,16.796960538699302,0.011989265195359958,0.021147305678044046
161,0.25,0.001,0.011089598916379022,0.00793991116002018,17.650851073088468,0.012598751658164502,0.01709533349743911
162,0.25,0.001,0.011048188267482651,0.00804607003559301,16.823870378659095,0.012008472789906563,0.01741550729743072
163,0.25,0.001,0.010953902572761347,0.007912527020146817,17.043868208520205,0.012165501933276378,0.019074406208736554
164,0.25,0.001,0.011047270116798671,0.008071712397590832,16.67502443290051,0.01190223014482549,0.013712532419179167
165,0.25,0.001,0.010964445452447291,0.007944642437368999,16.922976218329534,0.012079212147273043,0.027569674221532687
166,0.25,0.001,0.01092431458104172,0.007917068142121956,16.852609196415653,0.012028985864679266,0.022330163844994137
167,0.25,0.001,0.011041998964400938,0.007968557107457776,17.22356904583213,0.012293768055554696,0.030169766529330184
168,0.25,0.001,0.011070129321313198,0.008087033939398365,16.717266845703126,0.011932381759959405,0.04904179913657052
169,0.25,0.001,0.011163926662670241,0.00814804173776029,16.90101904221523,0.01206353964469324,0.04711342363485268
170,0.25,0.001,0.011037278943407683,0.008061635752932892,16.675505593382283,0.01190257358556908,0.043404129200748036
171,0.25,0.001,0.010970124977146401,0.007948937002615428,16.93073834548762,0.01208475256637232,0.03327566212309258
172,0.25,0.001,0.011162781508432494,0.008125925844788183,17.018539894951715,0.012147423194112572,0.03554251444126878
173,0.25,0.001,0.011139279229129538,0.008051627655916008,17.3031992547306,0.012350606177537901,0.025870168581604958
174,0.25,0.001,0.011025241180610509,0.007961944187128986,17.166716822871454,0.012253188310400752,0.021498129836150577
175,0.25,0.001,0.011030600482115039,0.008034259494807985,16.791494755686067,0.01198536385131054,0.019094287550875118
176,0.25,0.001,0.011016311176857094,0.007922628482826698,17.336997481923046,0.01237473053670453,0.029344325619084493
177,0.25,0.001,0.010858550332026717,0.007857058574388056,16.82036055105704,0.012005967559640998,0.014066750715885843
178,0.25,0.001,0.010875865200787415,0.007825726470737546,17.092977679217302,0.012200555088663313,0.015262362946357046
179,0.25,0.001,0.010935512780683276,0.008021907425589031,16.327843943937324,0.011654421087749696,0.01976595087242978
180,0.25,0.001,0.01085115236080723,0.0077703073413835635,17.265056624235932,0.012323380888105591,0.015308897809258528
181,0.25,0.001,0.010881866468691532,0.007883470190436016,16.803012763129342,0.011993585127144426,0.014702437046383108
182,0.25,0.001,0.010813126030067602,0.007783425024446146,16.97844464101909,0.01211880416917851,0.01660708590809788
183,0.25,0.001,0.010733255640500122,0.007748461100790235,16.726789361459236,0.011939178701969476,0.015320297197571822
184,0.25,0.001,0.01088709830088012,0.007877526071244551,16.865643159842787,0.012038289193321047,0.028049157400216376
185,0.25,0.001,0.010855743213108292,0.007788040771804474,17.19140495017723,0.012270810100055124,0.033200452370303016
186,0.25,0.001,0.010965882807418153,0.008007350897439468,16.57961277667387,0.011834127606476709,0.03812367069934096
187,0.25,0.001,0.010868059912765468,0.007725345112245392,17.61177331900891,0.012570858900077739,0.02121234977883952
188,0.25,0.001,0.010770222728635058,0.007808333544497505,16.59842692716622,0.011847556693195017,0.01456399860658816
189,0.25,0.001,0.010774719183919606,0.007763296519808563,16.87601278328601,0.012045690780361178,0.013905193257544721
190,0.25,0.001,0.010800083289727752,0.007796404970648848,16.83261341518826,0.012014713358449863,0.017691646037357196
191,0.25,0.001,0.010806809080603682,0.007710418683465248,17.352171782505366,0.01238556158637071,0.018495280960840837
192,0.25,0.001,0.010886980335653565,0.007886955614581153,16.81213885648751,0.012000099112410786,0.02055835204997233
193,0.25,0.001,0.010848507570263781,0.007875218575843322,16.662311544536074,0.011893155991817327,0.020194742429469312
194,0.25,0.001,0.010815902776372285,0.007731246883854454,17.286411492618512,0.01233862347795754,0.01909657514521054
195,0.25,0.001,0.010763475924362371,0.0077844704535824285,16.694345624947253,0.01191602114557263,0.017371679323592355
196,0.25,0.001,0.010676993728603847,0.007681981172918537,16.784050451678993,0.011980050286708776,0.016431485834930624
197,0.25,0.001,0.010724176429672007,0.007709877813855807,16.892130194769965,0.012057194999835806,0.01593851377921445
198,0.25,0.001,0.01081535181513539,0.007789844981636162,16.954940032958984,0.012102027147008554,0.010890258609184198
199,0.25,0.001,0.01077151620461617,0.007706880303858607,17.174218778257018,0.01225854302516561,0.021250738629273007
200,0.25,0.001,0.010838751899607387,0.00779927475032983,17.03322999271346,0.012157908631487123,0.04277759923466614
201,0.25,0.001,0.010764024820592669,0.0077830009139430376,16.70565836871112,0.011924095909144268,0.03588423265942505
202,0.25,0.001,0.010828829634888673,0.007897459124617371,16.427400621955776,0.011725482242652232,0.034398812534553666
203,0.25,0.001,0.010802711127900783,0.007724821228350018,17.248495582297995,0.012311560015915771,0.014018249298845018
204,0.25,0.001,0.010760357309086824,0.007611720960725237,17.644959089491103,0.012594546102420487,0.01230938546359539
205,0.25,0.001,0.01071195590229314,0.007694022964548182,16.912496326587817,0.012071731853381739,0.018360330191041743
206,0.25,0.001,0.01070414971974161,0.007660512552585131,17.056543288996192,0.012174549099925904,0.021318323111959865
207,0.25,0.001,0.010678827422268597,0.007734805388077174,16.49830047701612,0.01177608884869102,0.023065370906676565
208,0.25,0.001,0.0106824464544102,0.007650028776239466,16.99366843612106,0.01212967054683873,0.0323960075953177
209,0.25,0.001,0.010634989645562054,0.0076309543309940235,16.83461405907148,0.012016141369786924,0.027434837073087692
210,0.25,0.001,0.010743024919963913,0.007697659075536109,17.066231626345786,0.012181464401388856,0.025295489600726535
211,0.25,0.001,0.01067356003885284,0.007655459891912746,16.91343391324267,0.01207240108011611,0.023535162077418396
212,0.25,0.001,0.010671844312714205,0.007627207394919277,17.062145397986896,0.012178547750169091,0.016615673899650574
213,0.25,0.001,0.010742888360479732,0.007712515110126984,16.982212377477577,0.01212149348856358,0.015781850021864687
214,0.25,0.001,0.010707140976080188,0.00767501851796736,16.992013262525017,0.01212848912385797,0.015783581882715225
215,0.25,0.001,0.010652248524589304,0.007634798331577101,16.909791781578534,0.012069801414402951,0.01669804805091449
216,0.25,0.001,0.010674331440693803,0.007590889830694154,17.27960703343521,0.012333766619154325,0.018337434024683068
217,0.25,0.001,0.010643011940942134,0.007619754487165699,16.94233427165467,0.012093029458711399,0.01653135860604899
218,0.25,0.001,0.010633922248710822,0.007627639622875938,16.847206986980673,0.012025129897916254,0.018681088728564128
219,0.25,0.001,0.010641465202709775,0.007568334305176029,17.221825580832398,0.01229252361230007,0.013740167553935732
220,0.25,0.001,0.01074831901739041,0.007682514802357297,17.1807664329623,0.01226321658312798,0.019791722297668457
221,0.25,0.001,0.010598002135017772,0.007510735940786056,17.301040470452957,0.01234906528940254,0.021311405513967787
222,0.25,0.001,0.010641129183824415,0.0076592979837714886,16.7101836922728,0.011927325975926339,0.01691885611840657
223,0.25,0.001,0.01060596757143,0.007536844056053662,17.199367975305627,0.012276493915278821,0.013084232008882932
224,0.25,0.001,0.010604060137713396,0.00759651079704916,16.85430660954228,0.012030197437217902,0.015236766343670232
225,0.25,0.001,0.01059353335266128,0.0075396014055536115,17.114234681777013,0.012215727824251973,0.015841437902833735
226,0.25,0.001,0.01058999378418113,0.00761288603146871,16.683711301544566,0.011908430622087485,0.01753418693052871
227,0.25,0.001,0.010580580161861431,0.0074841720741932035,17.352272047819916,0.012385633153333273,0.015159302524157934
228,0.25,0.001,0.010583064445282942,0.007653580645076287,16.416827726952825,0.01171793556527682,0.020770861767232418
229,0.25,0.001,0.010539818030816538,0.007463946786743623,17.237182928014686,0.012303485316213196,0.018245463658656393
230,0.25,0.001,0.01056910666556638,0.007607784421171671,16.59524962813766,0.011845288813802753,0.02388563525996038
231,0.25,0.001,0.010623371403342411,0.007660780257234971,16.60236163198212,0.011850365190565397,0.032195099762507846
232,0.25,0.001,0.010539474244011037,0.007511870926361025,16.9666894559507,0.012110413601677873,0.021517202657248293
233,0.25,0.001,0.010656738003003008,0.007688468096800793,16.63418396372854,0.011873079203232361,0.039941988486264436
234,0.25,0.001,0.010675391014435409,0.00761950208954973,17.125200737847223,0.012223555130511937,0.030998302091445242
235,0.25,0.001,0.010529484087026414,0.007470979100024259,17.13986182036223,0.012234019857503378,0.024506690645856515
236,0.25,0.001,0.010637706690640361,0.007643649307436045,16.778697802696698,0.011976229695001213,0.02174150850623846
237,0.25,0.001,0.010546890975056606,0.007514129487084754,16.995595814269265,0.012131046262861716,0.023361392984432832
238,0.25,0.001,0.010538708225444511,0.007562109723365233,16.680857561841425,0.011906393691535636,0.01826895134789603
239,0.25,0.001,0.010625923291584592,0.007563782911057825,17.16023523307141,0.012248561907973883,0.022994997245924815
240,0.25,0.001,0.010636692397572376,0.007629786476630856,16.850700830530236,0.012027623719150775,0.02692402367080961
241,0.25,0.001,0.010608893678880031,0.00751347811087782,17.346709244339554,0.012381662558415099,0.020387108038578714
242,0.25,0.001,0.010584380427076493,0.007486739986932572,17.35917785550341,0.012390562352250828,0.015144982907388891
243,0.25,0.001,0.010553298071946627,0.007591956177795375,16.59535935484333,0.011845367134078036,0.0248873308300972
244,0.25,0.001,0.010648040478060275,0.007550829899623806,17.356767786285022,0.012388842102987168,0.026886739235903536
245,0.25,0.001,0.010591561269061064,0.00754990167800843,17.045460627991478,0.012166638563876857,0.01674539116876466
246,0.25,0.001,0.010542517964854652,0.007527118352138333,16.898300538239656,0.012061599242141082,0.018966120002525195
247,0.25,0.001,0.010504417928556602,0.007418460228744849,17.293706884501894,0.012343830752678012,0.012001093210918563
248,0.25,0.001,0.010565925223959816,0.007544568674293933,16.931680759382836,0.012085425238674402,0.01513935998082161
249,0.25,0.001,0.01051651804857416,0.007460702562497722,17.12478960296254,0.012223261672350137,0.021833880139248713
250,0.25,0.001,0.010527866062374762,0.007543540916141169,16.72415836004563,0.011937300756634997,0.024048613384366035
251,0.25,0.001,0.01042091093359538,0.007379961435763556,17.04148112638497,0.012163798091638093,0.014564556468810354
252,0.25,0.001,0.010524773701197572,0.007522095841022185,16.827006780365366,0.01201071147777685,0.018936584437532083
253,0.25,0.001,0.010493429807693135,0.007419905282648993,17.224033091980733,0.012294099280500166,0.016629164506282126
254,0.25,0.001,0.010563588813867097,0.007523596452342139,17.036117063922646,0.012159969353263845,0.01587103826126882
255,0.25,0.001,0.01052569515635202,0.007464533708529708,17.15474941112377,0.012244646260616538,0.022141108289361
256,0.25,0.001,0.010546677886151974,0.00750649192450959,17.03720251954632,0.012160744125300728,0.02902504276218159
257,0.25,0.001,0.010583379344991695,0.007596638944735865,16.737693033100648,0.011946961479729228,0.04426036375973906
258,0.25,0.001,0.010615974324352948,0.007601861831628614,16.891088080700534,0.0120564511639547,0.03381541211690221
259,0.25,0.001,0.010437375969356961,0.007432919557861708,16.83697410395116,0.012017825912884483,0.022284395593617643
260,0.25,0.001,0.010424367968498924,0.007390038732347297,17.004381156262056,0.012137317028024308,0.02769301046750375
261,0.25,0.001,0.010531809652385152,0.007538370627128047,16.775230935179156,0.011973755128607535,0.027090053473200117
262,0.25,0.001,0.010561988511939107,0.00747167400923776,17.318122265662677,0.012361257862714258,0.03389983344823122
263,0.25,0.001,0.01050103521089495,0.007515804512127314,16.729233720567493,0.011940923426529259,0.033559720564101427
264,0.25,0.001,0.010452820914854975,0.007425999057329731,16.962309849115066,0.012107287543979347,0.024002454642738615
265,0.25,0.001,0.010502609605958432,0.0075092823026172905,16.774606963734566,0.011973309752844087,0.025750169264418737
266,0.25,0.001,0.010474244997273256,0.007388979090768614,17.289829645039124,0.012341063272690309,0.01711805790130581
267,0.25,0.001,0.010543397708255568,0.007529049473642199,16.892408879597983,0.012057393918342601,0.016905141728264943
268,0.25,0.001,0.010363178005740966,0.007315353966421551,17.08000636159638,0.012191296475086637,0.014315860345959663
269,0.25,0.001,0.010433275912554912,0.0073563566937306785,17.243055456656,0.012307676985478943,0.014609492516943387
270,0.25,0.001,0.010498741308204185,0.007532777184229574,16.621264064459154,0.011863857290834515,0.01958969049155712
271,0.25,0.001,0.010442060268955467,0.007396443574516861,17.067635133531358,0.012182466190957428,0.019813499546476772
272,0.25,0.001,0.010552806278437745,0.007478115093652849,17.230569933667596,0.01229876512039086,0.03262869454920292
273,0.25,0.001,0.010393419923881689,0.00739025839684922,16.82971846498089,0.012012647012834325,0.01903910722051348
274,0.25,0.001,0.010454431585507629,0.007397853232414266,17.129065158043378,0.012226313460416402,0.01583842108292239
275,0.25,0.001,0.010481122711006506,0.007415768170706284,17.178245567981108,0.012261417250521846,0.011759695397423846
276,0.25,0.001,0.010418120764747813,0.007384873935837805,16.998315457944518,0.01213298747890401,0.017538599470364197
277,0.25,0.001,0.01040060118438653,0.007414101082601665,16.736345743249963,0.011945999816738018,0.014836750791541167
278,0.25,0.001,0.010463075457071817,0.007427819254865617,17.00957647252966,0.012141025319435873,0.014598032193524497
279,0.25,0.001,0.010494906811710492,0.007415158789098999,17.258908415429385,0.012318992444988854,0.01173475245013833
280,0.25,0.001,0.01038268844332592,0.007302155320383148,17.26330788694782,0.012322132681618716,0.016404226821448122
281,0.25,0.001,0.010299397499105077,0.0073503206162081084,16.52662745817208,0.011796307964434032,0.02025664464703628
282,0.25,0.001,0.010390779127677281,0.007391830471654733,16.80610870549708,0.011995794936114976,0.021220491666878973
283,0.25,0.001,0.010366569392751029,0.007390232227834655,16.67939439938392,0.011905349321473177,0.024157716892659664
284,0.25,0.001,0.010367511493372328,0.007377926740841365,16.753634120799877,0.01195833984354024,0.019115606056792394
285,0.25,0.001,0.01040186266656275,0.0074027266238390664,16.80715862321265,0.01199654434205043,0.0155324965183224
286,0.25,0.001,0.0103909681999573,0.0073273717828186945,17.168395803004135,0.012254386725913016,0.02171419986656734
287,0.25,0.001,0.010369632655271778,0.007322244059846357,17.077565449844172,0.012189554211166433,0.01778755403522934
288,0.25,0.001,0.01031927512153799,0.0073375641414320765,16.709508015197,0.011926843693930763,0.017806118354201317
289,0.25,0.001,0.010425292373991308,0.007334880523935512,17.31866818651741,0.012361647527849686,0.023358345164784362
290,0.25,0.001,0.010338184770978528,0.0073146630986881105,16.94381591891065,0.012094087022777053,0.012462411608014787
291,0.25,0.001,0.010406285448482743,0.00742815881277676,16.689423210238232,0.011912507644709658,0.01475498452782631
292,0.25,0.001,0.010400844556221991,0.0074013301504798875,16.80927903210675,0.011998057838762849,0.01960057020187378
293,0.25,0.001,0.010397362113458875,0.007382955275659944,16.89273681640625,0.01205762799172466,0.03154794732108712
294,0.25,0.001,0.010357856860867253,0.0073380910159077176,16.922767888763804,0.012079063446655106,0.025207232417804853
295,0.25,0.001,0.010465643743489995,0.007433033888630661,16.99474565482434,0.012130439439560556,0.030753620634121553
296,0.25,0.001,0.010454771380273647,0.007469388511445787,16.73008677635664,0.01194153231717105,0.03152169167463269
297,0.25,0.001,0.010407246078973935,0.00733063014017211,17.241354332441166,0.012306462764055079,0.02596031821199826
298,0.25,0.001,0.010443768217975711,0.007480497246631134,16.60616982071488,0.011853083383807908,0.03013405030859368
299,0.25,0.001,0.010409871123179242,0.007303559329406715,17.407772116013515,0.012425247763036057,0.017006294668785164
300,0.25,0.001,0.010339248755279883,0.007349846349960124,16.75261116027832,0.011957609678999516,0.016144788158791407
301,0.25,0.001,0.010408575814447285,0.007425706401283359,16.71600000357922,0.01193147751861472,0.014035261901361602
302,0.25,0.001,0.010280012859054553,0.007185872517710115,17.3395623995934,0.012376561313057389,0.013672114216855593
303,0.25,0.001,0.010394447048505147,0.007409860946835927,16.725621842749327,0.01193834535528146,0.02133414734687124
304,0.25,0.001,0.010380398629256236,0.007329581516944332,17.09678018828969,0.012203269227901277,0.02938533720693418
305,0.25,0.001,0.010289992249490303,0.007280922175189595,16.862829088281703,0.01203628057693198,0.020624432446701185
306,0.25,0.001,0.010369763596926207,0.007330570013526781,17.03164021998276,0.01215677389006621,0.026131320079522475
307,0.25,0.001,0.01030450055812612,0.007234924203819699,17.201907035450876,0.012278306235154086,0.021955563553742
308,0.25,0.001,0.010373768815195855,0.007402202059273367,16.652660680700233,0.011886267438044421,0.023814049416354725
309,0.25,0.001,0.01032238930095861,0.007259293036236439,17.165591143384393,0.012252384827540609,0.018882214357810363
310,0.25,0.001,0.010370117685769075,0.00735333106354063,16.906072776700242,0.012067146878444141,0.01512930728495121
311,0.25,0.001,0.0103289112770631,0.007323577360790453,16.841892247141143,0.012021336364840216,0.015462822813008512
312,0.25,0.001,0.01026970150616066,0.007235997663465915,17.000876965934847,0.012134815821509527,0.019463360575692996
313,0.25,0.001,0.010283102614828099,0.0073273051817568,16.564289474487303,0.011823190203060174,0.014663608611694403
314,0.25,0.001,0.010331939344788776,0.0073276168333343515,16.836224129759234,0.012017290599399882,0.02114040338035141
315,0.25,0.001,0.010292102787413715,0.0072315034123114595,17.151598584210433,0.012242397276381465,0.023081942661000148
316,0.25,0.001,0.010437281675820734,0.007408573087534787,16.972884288834937,0.012114835323936429,0.028021377378276417
317,0.25,0.001,0.01036425924135579,0.007377805384910769,16.736087829684035,0.011945815724256984,0.0189605625346303
318,0.25,0.001,0.010400764303810803,0.007336958541454356,17.16956759794259,0.0122552231248698,0.019301001115569046
319,0.25,0.001,0.01030093546450874,0.007311315589618904,16.753830914438506,0.011958480310091725,0.020749890578112433
320,0.25,0.001,0.010345419792941324,0.007293773327528694,17.101427054699556,0.012206586049036086,0.030640703492930958
321,0.25,0.001,0.010352118731832798,0.007313008118926743,17.03117535909017,0.012156442083576139,0.01712995341845921
322,0.25,0.001,0.010329698794233946,0.007305803223524565,16.9459103902181,0.012095582005865881,0.02418216464242765
323,0.25,0.001,0.010299341028763188,0.007286790408837942,16.882333741364654,0.012050202527740653,0.027146559075585434
324,0.25,0.001,0.010322535244954956,0.007333701676516621,16.749423684014214,0.011955334535342052,0.017499969274337803
325,0.25,0.001,0.010281154209816897,0.007224276902177084,17.13073976775746,0.012227508756429308,0.016642435852970396
326,0.25,0.001,0.010265541548070349,0.0071987289969843845,17.186418738188568,0.012267251062233097,0.017473138270101378
327,0.25,0.001,0.010231529291213294,0.007313964699889407,16.35003268394941,0.011670258875053113,0.01592620595225266
328,0.25,0.001,0.010254381502760045,0.007279858456487641,16.669227275141964,0.01189809227347749,0.01684204103159053
329,0.25,0.001,0.010266987795447127,0.007134743617778575,17.55309652634609,0.012528976821089286,0.023673854236091887
330,0.25,0.001,0.010246075117201717,0.007302310945535148,16.496853708337856,0.011775056180112674,0.015463214966335468
331,0.25,0.001,0.010249404643696768,0.007234199128953027,16.89721139036579,0.01206082183466509,0.015858564525842667
332,0.25,0.001,0.010264697229420697,0.00721738201416569,17.077154206640927,0.012189260675689454,0.017744929396680424
333,0.25,0.001,0.010269627499359625,0.007244546671202522,16.952553360550493,0.012100323597823336,0.01889935215669019
334,0.25,0.001,0.010346733311904065,0.007342125415618037,16.8378233615263,0.01201843209245275,0.027174894964056357
335,0.25,0.001,0.010452634280110583,0.007468482124170771,16.723188715805243,0.011936608647969481,0.029163268793906485
336,0.25,0.001,0.010316712055125354,0.007321596613590732,16.784627344578873,0.011980462058942806,0.02802684623748064
337,0.25,0.001,0.01028531744018381,0.007278940306953442,16.847738218896183,0.012025509078441243,0.023218720086983273
338,0.25,0.001,0.010352180504964458,0.007336808260484242,16.89814635382758,0.012061489189027538,0.03215150322232928
339,0.25,0.001,0.010281024703089102,0.007171713509079483,17.42458061877592,0.012437245266792234,0.028024621973080293
340,0.25,0.001,0.01037862813445153,0.007444095703554742,16.44511851557979,0.011738128847665803,0.023253022293959345
341,0.25,0.001,0.01022368869571774,0.007207804617046574,16.90101456112332,0.012063536446197943,0.019164259811597213
342,0.25,0.001,0.010284443190436305,0.0073032460934310045,16.706628709957922,0.011924788515316148,0.017238243349960873
343,0.25,0.001,0.010289871888120233,0.007258302655163002,16.988914343751507,0.01212627719040079,0.014866545929440431
344,0.25,0.001,0.010285585065498764,0.007198716611543923,17.2988112885275,0.012347474153124554,0.022513819326247488
345,0.25,0.001,0.01026354376686576,0.007278057568373136,16.730665484769844,0.011941945385274693,0.021315718734902993
346,0.25,0.001,0.010280052061986041,0.007284088949040498,16.789378112039447,0.011983853042140932,0.018178818747401237
347,0.25,0.001,0.010211115118897992,0.007196128324686009,16.895986858415014,0.012059947793301223,0.018463967234960625
348,0.25,0.001,0.010259966630442643,0.007166962591172369,17.33319615493586,0.012372017241210464,0.01338101883551904
349,0.25,0.001,0.010230791405487208,0.007255657371363522,16.672649892171226,0.011900535254940205,0.013014414414231266
350,0.25,0.001,0.010251062938276632,0.007235970380313602,16.896578489703895,0.012060370085441752,0.01228949414300067
351,0.25,0.001,0.01031190687675535,0.007248996269463757,17.164551833823875,0.012251642993450303,0.020013747603765557
352,0.25,0.001,0.010202500861092114,0.007245477454529868,16.5711584067639,0.011828093081201927,0.01598948852292129
353,0.25,0.001,0.010300379773072991,0.007237721489811385,17.163138580322265,0.012250634247196477,0.013960176147520542
354,0.25,0.001,0.010315612839235936,0.007311940664586462,16.8325786308006,0.012014688530193149,0.024891394323536327
355,0.25,0.001,0.010320970910474842,0.007347881653702554,16.661192189911265,0.011892357023491267,0.026458547982786382
356,0.25,0.001,0.010187464425869194,0.0071865074382520015,16.817363512957538,0.012003828346150991,0.014941688161343336
357,0.25,0.001,0.010199731100856521,0.007221913304363872,16.687690040211617,0.011911270549758471,0.016038999493632997
358,0.25,0.001,0.010265555343142262,0.007250112990768235,16.89853894739975,0.012061769412847787,0.01840657807354416
359,0.25,0.001,0.010259629813609299,0.0072649657841265935,16.782097074720596,0.01197865601336231,0.028067567252687046
360,0.25,0.001,0.010234497540434937,0.007214525247705572,16.92392519256215,0.01207988950218569,0.017245866624372348
361,0.25,0.001,0.010132058583383943,0.007144072917462499,16.744672024102858,0.011951942915134088,0.0165224775805005
362,0.25,0.001,0.010186329964594341,0.007152041514622577,17.004152486353746,0.012137153808960561,0.016986238903232982
363,0.25,0.001,0.010230415530594778,0.007120641565847176,17.427174108999747,0.01243909643754443,0.015974835825285742
364,0.25,0.001,0.010168579807160077,0.007167151869263178,16.82000299383093,0.012005712343919292,0.028043343286429132
365,0.25,0.001,0.010356984595641678,0.007324551912829464,16.993753800568758,0.012129731477922026,0.027724100010735647
366,0.25,0.001,0.010288628296535693,0.007299333002510262,16.752010599772134,0.011957181013399097,0.021656984197241918
367,0.25,0.001,0.01027174098532141,0.00722770133274205,17.058799070193444,0.012176159222122373,0.028434542939066887
368,0.25,0.001,0.010261111324768007,0.0072479487902680296,16.88576322013949,0.012052650406951814,0.029582675147269453
369,0.25,0.001,0.010223032278871095,0.00714611941833555,17.243019673853745,0.012307651444577976,0.028637902278985296
370,0.25,0.001,0.010285063062645036,0.007349740688539582,16.449547082406504,0.01174128985182477,0.025671282783150673
371,0.25,0.001,0.010270404778880837,0.007140294802777561,17.54113772827902,0.012520440919542483,0.022091380719627653
372,0.25,0.001,0.01028034121579962,0.007243415606380613,17.018931805645977,0.012147702930511046,0.019067967044455663
373,0.25,0.001,0.01017447721535041,0.007075753342360258,17.36524961495105,0.012394896227659566,0.012494430212037904
374,0.25,0.001,0.010219271600614359,0.00723517654394662,16.722868898179797,0.011936380369864238,0.015553195960819721
375,0.25,0.001,0.010195460154410498,0.007125301475142255,17.20516980489095,0.012280635121264061,0.013267313263245992
376,0.25,0.001,0.010174364706984273,0.007165851529089757,16.859708536407094,0.012034053202289147,0.016246664869998182
377,0.25,0.001,0.010189385523582683,0.007124693454875622,17.17453441384398,0.012258768318232676,0.02067680563777685
378,0.25,0.001,0.010189589237173398,0.007232735409504838,16.57020986109604,0.011827416032188464,0.018874556624463627
379,0.25,0.001,0.010205259794990222,0.007163275842681343,17.0472792637201,0.012167936662184225,0.022655755414494445
380,0.25,0.001,0.010311364200840025,0.0073245863407206385,16.737903712708274,0.011947111857750374,0.023181420883962085
381,0.25,0.001,0.010215918436922409,0.007134054506910436,17.270765215084875,0.012327455542530246,0.02787222127829279
382,0.25,0.001,0.010199072370650592,0.0072090234699440595,16.75623411955657,0.011960195659926174,0.027159596793353558
383,0.25,0.001,0.010181091482072701,0.007138631543443527,17.049945266158492,0.012169839590405776,0.021889023881937777
384,0.25,0.001,0.01026424080317403,0.007162558347170735,17.381827629937067,0.01240672921480162,0.021920484490692616
385,0.25,0.001,0.010239273912192863,0.007227794160307557,16.876332779872566,0.012045919186204544,0.020559305059058324
386,0.25,0.001,0.010159907053098266,0.007143825122419699,16.902123557196724,0.012064328020839917,0.017503900320402214
387,0.25,0.001,0.010240956966155842,0.00719924320432323,17.045763307736244,0.012166854609376334,0.017805552376168116
388,0.25,0.001,0.01016205516356377,0.007123070119385734,17.030472362188647,0.01215594030134807,0.0174192465575678
389,0.25,0.001,0.010232033504656068,0.007114731261713637,17.469362061112015,0.012469209179951474,0.012697295019669192
390,0.25,0.001,0.010140566178310065,0.007195348950263894,16.504997714949244,0.011780869175552636,0.01537438468741519
391,0.25,0.001,0.010113348009317746,0.007139667945649521,16.66450336597584,0.01189472046108197,0.012312505128128188
392,0.25,0.001,0.010160406248896947,0.0071471046610378924,16.886541875203452,0.01205320619215093,0.017294072679110935
393,0.25,0.001,0.01018233974866661,0.007084564009198436,17.359936481051975,0.012391103840865078,0.013708114624023438
394,0.25,0.001,0.010144645380385129,0.0071039486710947975,17.04006472458074,0.012162787098201814,0.02044664097151586
395,0.25,0.001,0.010122653303874863,0.0071452425125940345,16.685410318256896,0.011909643339226906,0.017859426460095813
396,0.25,0.001,0.010132184440706984,0.007076951929218607,17.121523591029792,0.012220930471827117,0.017641248181462288
397,0.25,0.001,0.010009433657942731,0.007000302974088692,16.863168902456025,0.012036523128091382,0.01469411381653377
398,0.25,0.001,0.010098222781110692,0.007033239707442713,17.17616574793686,0.012259932725151221,0.014531087396400315
399,0.25,0.001,0.01023341138375762,0.007244045432243083,16.75240702217008,0.011957463970142811,0.015741225465067794
400,0.25,0.001,0.010083795743591991,0.007056677757681888,16.963969727504402,0.012108472325128053,0.011796419508755207
401,0.25,0.001,0.010124410734868344,0.007113229917983214,16.87465844330964,0.012044724085160344,0.013481513064886843
402,0.25,0.001,0.010133909831904335,0.0071329577768474445,16.81733597178518,0.01200380868792661,0.01731861156544515
403,0.25,0.001,0.010097144507331613,0.007006166779930577,17.321839330225814,0.012363911013722922,0.018098183907568455
404,0.25,0.001,0.010129578616240142,0.007142392593079511,16.740190878032166,0.011948744381179276,0.019149128879819597
405,0.25,0.001,0.010130654406492356,0.007150352027635147,16.701615820990668,0.011921210436110398,0.015406553101326739
406,0.25,0.001,0.010153176750481864,0.007097603371481837,17.123433713559752,0.012222293871206104,0.01716151667226638
407,0.25,0.001,0.010091395761219807,0.007130883238565775,16.59071243662893,0.011842050275966402,0.016537832096219063
408,0.25,0.001,0.010152594289845891,0.007069534942921665,17.27746512801559,0.012332237778740606,0.01731878678713526
409,0.25,0.001,0.010123313172363941,0.007157374499940578,16.621120104377653,0.011863754535601465,0.0251121600823743
410,0.25,0.001,0.010162317545877562,0.007132170476985199,16.980944965503834,0.01212058884047383,0.02817061317286321
411,0.25,0.001,0.010231568981651907,0.007233409413400991,16.80168579478323,0.011992637969152911,0.027162567313228334
412,0.25,0.001,0.010198613217123497,0.007188738707774952,16.867337532985356,0.012039498595992402,0.020352026181561605
413,0.25,0.001,0.010119024558383741,0.007083138808562064,17.013104902667763,0.012143543827742872,0.013871849381497927
414,0.25,0.001,0.01008843862808045,0.00707855361663265,16.867395377453462,0.012039539883978203,0.01501231680491141
415,0.25,0.001,0.01012081347497893,0.007114388948927323,16.84800347222222,0.012025698409865967,0.018090186241481985
416,0.25,0.001,0.010222557430833947,0.007142808992001745,17.258910435806087,0.012318993887085001,0.016617163749677793
417,0.25,0.001,0.010023701551979706,0.006969958419601122,17.1131765247863,0.0122149725373207,0.013691291479127747
418,0.25,0.001,0.010029930138477573,0.007052171605144754,16.6873590681288,0.011911034309870663,0.01395198782639844
419,0.25,0.001,0.010087799770688568,0.0070657010742083744,16.935842457524053,0.012088395758404036,0.012079219866011823
420,0.25,0.001,0.010112962510758713,0.007048424674818913,17.17367094534415,0.012258151995249215,0.01337756502575108
421,0.25,0.001,0.010121590211803531,0.007156603010716261,16.615787977053795,0.011859948591758597,0.017118309225354875
422,0.25,0.001,0.010069896262369038,0.007047126191541736,16.939603654837903,0.012091080410305427,0.01841523445078305
423,0.25,0.001,0.010126676888745509,0.007110112973339396,16.904823199613595,0.01206625496046652,0.020389871006565436
424,0.25,0.001,0.010079749802380432,0.007070293981168005,16.864991284594122,0.012037823900495449,0.014629975094326906
425,0.25,0.001,0.010122370046138028,0.007048625946274878,17.225262126216183,0.012294976535486212,0.0138254492942776
426,0.25,0.001,0.009993335659857149,0.007000612633095847,16.77122161300094,0.011970893371164125,0.01618169474282435
427,0.25,0.001,0.010159473031483315,0.007148453728928242,16.873752198395906,0.012044077229404643,0.021720050434981073
428,0.25,0.001,0.01013783505761329,0.007094170839560252,17.056693602196965,0.012174656389862216,0.014486643352678843
429,0.25,0.001,0.010154576337447874,0.007096864605023537,17.13541734954457,0.012230847501459365,0.01936851255595684
430,0.25,0.001,0.01013174967173441,0.007086180367817481,17.067371693363896,0.012182278153721552,0.014584462557520186
431,0.25,0.001,0.010063083000757075,0.007061787820018736,16.819259153766396,0.012005181408826835,0.019576133894068853
432,0.25,0.001,0.010229469564409904,0.007160654125942125,17.197642451156806,0.012275262277770739,0.02161961155278342
433,0.25,0.001,0.01013942433314191,0.007135197363885832,16.835687335920923,0.012016907448908582,0.021351832497332777
434,0.25,0.001,0.010092148612494823,0.0070218150526929046,17.206150059641143,0.012281334803455491,0.015840404400868074
435,0.25,0.001,0.01004097364888883,0.007062458814938127,16.691597220338423,0.011914059400669823,0.016771480441093445
436,0.25,0.001,0.010092147182167312,0.007114360570033759,16.687516897696035,0.011911146964808019,0.014397400032196726
437,0.25,0.001,0.010000391299893826,0.006958024317605628,17.049425572524836,0.012169468645628005,0.01297984498419932
438,0.25,0.001,0.010062112787991394,0.007069880941905725,16.768467227323555,0.011968927357118882,0.01648344219263111
439,0.25,0.001,0.010019080906554505,0.007018231264786956,16.816761511343497,0.012003398651922553,0.014154038392007351
440,0.25,0.001,0.010086200981872318,0.007123872235325383,16.600890519883897,0.011849315146241183,0.014819659026605743
441,0.25,0.001,0.010162053061764181,0.007048504302899042,17.44832716576847,0.01245419497913524,0.02415380360824721
442,0.25,0.001,0.010092005611937724,0.007002589526229803,17.31308852772654,0.012357664902017515,0.016279231889971664
443,0.25,0.001,0.010087981190026542,0.007107896035836067,16.70039776460624,0.011920341016849564,0.011075081436761789
444,0.25,0.001,0.01002053288673913,0.006921862963771011,17.364946690312138,0.012394680007360555,0.012211453435676438
445,0.25,0.001,0.010060025149105508,0.007084567123955047,16.674466910185636,0.011901832198562196,0.015654876162963256
446,0.25,0.001,0.010013472332538647,0.006975284963846207,17.02600308171025,0.012152750236766773,0.01496312368128981
447,0.25,0.001,0.010086399742206674,0.006985167900307311,17.379302728911977,0.012404927001364724,0.01615383688892637
448,0.25,0.001,0.010109089305739343,0.007101430242628227,16.854920959472658,0.012030635945376629,0.01866308173963002
449,0.25,0.001,0.010082677742581309,0.007014183408040323,17.19584164089627,0.012273976902852441,0.01680100935378245
450,0.25,0.001,0.01006768485646189,0.0070224590312091655,17.065446316754375,0.01218090386634859,0.016980275910879885
451,0.25,0.001,0.010097194465314164,0.007071481028824676,16.9560989662453,0.012102854365628336,0.017136772030166218
452,0.25,0.001,0.010122872861447158,0.007090158760547638,16.99532901622631,0.012130855828855326,0.015151183719613723
453,0.25,0.001,0.010153008164998926,0.007085080454011022,17.19266643759645,0.012271710519340793,0.018086939517940794
454,0.25,0.001,0.010067637786729101,0.00703051508070878,17.020036306498962,0.012148491296573135,0.01609937141516379
455,0.25,0.001,0.01010959825857922,0.007050264319749894,17.144506873613523,0.012237335384449339,0.015803343882518157
456,0.25,0.001,0.010147774559848102,0.007046548490998922,17.37927079377351,0.012404904206833342,0.018824814020523002
457,0.25,0.001,0.010004939299858647,0.006982046761262564,16.940290201446157,0.012091570450711032,0.013940407229321343
458,0.25,0.001,0.010071778488287955,0.0070598155639513775,16.87903998575093,0.012047851524447487,0.01925763235028301
459,0.25,0.001,0.010079546452120499,0.0070669313168360125,16.882696010448313,0.012050461106672601,0.020365707177136625
460,0.25,0.001,0.010039262105653316,0.006993531316150854,17.068276492460274,0.012182923977487705,0.01780505052634648
461,0.25,0.001,0.010050707204658308,0.007036399090501629,16.892183252028477,0.012057232870826893,0.015832318658275262
462,0.25,0.001,0.010004330913961669,0.006992625780863526,16.877595143259306,0.012046820230734693,0.01278850223336901
463,0.25,0.001,0.010022511036583671,0.007050908336208926,16.652861691698615,0.01188641091484555,0.015357223605470998
464,0.25,0.001,0.010046166682868828,0.00706125774110357,16.72742943469389,0.011939635570802205,0.01567775516637734
465,0.25,0.001,0.010039460452066527,0.007005840661809032,17.000406034493153,0.01213447968200796,0.020077135679977282
466,0.25,0.001,0.010110760742315539,0.007088628911447746,16.93602642012231,0.01208852706646846,0.01601764825837953
467,0.25,0.001,0.010028808453568705,0.006886411391566565,17.609993338879242,0.012569588393204312,0.014288540397371565
468,0.25,0.001,0.009997635624474949,0.007090026917464939,16.294239468044704,0.011630435023586513,0.020080666856041977
469,0.25,0.001,0.009971994363967283,0.006924386745617714,17.0787924307364,0.012190430000525623,0.01537282858043909
470,0.25,0.001,0.010011883523821095,0.006989027956431662,16.940082276897666,0.012091422039184629,0.01268214559448617
471,0.25,0.001,0.010023430997022876,0.007050933307151735,16.657877057864344,0.011889990762215806,0.015115320948617799
472,0.25,0.001,0.010075373407223342,0.006961437234264097,17.45049776147913,0.01245574429798653,0.014918213843234948
473,0.25,0.001,0.010120440384855977,0.00710077995641364,16.922177656197253,0.01207864215288883,0.021307802626064846
474,0.25,0.001,0.010040429340284547,0.006986565631526856,17.113851471889166,0.012215454298279206,0.016963569447398186
475,0.25,0.001,0.009939500887268856,0.006921507769988643,16.91283507641451,0.012071973644835482,0.014706371618168694
476,0.25,0.001,0.010049317781755954,0.007078558234152971,16.648137504671826,0.01188303890411979,0.020214707856731757
477,0.25,0.001,0.010050879887960575,0.006983374981324614,17.190297981544777,0.01227001997255159,0.022120965910809382
478,0.25,0.001,0.010056474358763223,0.007009258684644729,17.076597510443793,0.012188863319374585,0.020866669714450836
479,0.25,0.001,0.009987950161743312,0.00690561578505569,17.273401966801398,0.012329337592292218,0.014871667538370405
480,0.25,0.001,0.009936155774343161,0.006922710807649074,16.887345212771567,0.012053779595126029,0.010947447602770157
481,0.25,0.001,0.01000226425167955,0.006949625976015756,17.106985596079884,0.01221055360177008,0.014164649615330356
482,0.25,0.001,0.010020276425797262,0.006954036456429296,17.183208555056726,0.012264959710961261,0.012301560225231307
483,0.25,0.001,0.01000526334952425,0.007017385243311709,16.744069850591966,0.011951513098209826,0.012122153038425105
484,0.25,0.001,0.009954686490473924,0.006920279015177562,17.004819205955222,0.012137629697327068,0.013052492668586118
485,0.25,0.001,0.010030957026246153,0.00702877604506082,16.824221830014828,0.012008723647405302,0.0169531110940235
486,0.25,0.001,0.00998952713691526,0.006967428871602924,16.935837936401366,0.012088392531335736,0.013286842964589596
487,0.25,0.001,0.010006313267405387,0.007003306544581313,16.82884964177638,0.012012026867791849,0.014866937750152178
488,0.25,0.001,0.009976045538981756,0.006969967118843838,16.846063580925083,0.01202431376225916,0.015128253693027156
489,0.25,0.001,0.009995719735269193,0.007013986076883695,16.709635600337275,0.01192693476112582,0.018210508594555513
490,0.25,0.001,0.009953697312071368,0.006874784158059844,17.25422994354625,0.012315653064629728,0.014172638367329324
491,0.25,0.001,0.010022491483408728,0.006962863075328462,17.14615738009229,0.012238513476154383,0.015399064868688583
492,0.25,0.001,0.009951870171008287,0.006930638129972381,16.930985655608,0.012084929090369737,0.01697811976607357
493,0.25,0.001,0.00992785998976525,0.006940063608833301,16.74361181847843,0.011951186165937495,0.013195110484957695
494,0.25,0.001,0.009993728820556476,0.007027069539015675,16.625158738501277,0.011866637215204338,0.015147111511656217
495,0.25,0.001,0.009975060604420709,0.006972136108181727,16.82838879338017,0.01201169792532489,0.01620987044381244
496,0.25,0.001,0.009934399194187588,0.006964892689368607,16.641114256117078,0.011878025878741668,0.01836486892508609
497,0.25,0.001,0.0100259403295723,0.00693795028384085,17.305095663188418,0.012351959788143053,0.01685752174151795
498,0.25,0.001,0.009940588140837205,0.006874432345783269,17.182736281406733,0.012264622613423792,0.011323622028742517
499,0.25,0.001,0.009994337192656081,0.007038853062247789,16.562532759301455,0.011821936302142367,0.01644770455147539
500,0.25,0.001,0.009940399234125643,0.006934685855643985,16.84401816379877,0.012022853792861362,0.0172235941780465
