epoch,beta,learning_rate,train_loss,train_reconstruction_loss,train_kl_unnormalized,train_kl_normalized,mean_unclipped_gradient_norm
1,0.0,0.001,0.07262756829761495,0.07262756829761495,34.36860352333146,0.024531480030928948,0.08817236976964134
2,0.02,0.001,0.057157930099602905,0.05361358065045241,248.2816627579506,0.17721746092644583,0.062219117901154926
3,0.04,0.001,0.047075593524207975,0.04413165889605127,103.11134184249724,0.07359838818165398,0.08011416026524135
4,0.06,0.001,0.040367493274235965,0.03685685077851469,81.97348369251598,0.05851069499822697,0.0676875715809209
5,0.08,0.001,0.03686628099342789,0.032666615953650134,73.54663363370028,0.05249581272926501,0.059403293899127414
6,0.1,0.001,0.03250268440354954,0.028897124182696295,50.51389266505386,0.036055597905106256,0.04321403641785894
7,0.12,0.001,0.029527489980212367,0.025634183275579203,45.45435749400746,0.03244422376445929,0.029827892248119627
8,0.14,0.001,0.027510951244921394,0.023515171700655813,39.9863386443167,0.028541283828919847,0.035742489621043205
9,0.16,0.001,0.026083848448564307,0.02226414407293002,33.44628829185409,0.0238731536701314,0.03985438149954591
10,0.18,0.001,0.024785823009983457,0.020554829501744473,32.931235650573115,0.023505521520751686,0.04353948070534638
11,0.2,0.001,0.02308427659098548,0.018944925101793776,28.99615752094924,0.020696757688043712,0.04095297838960375
12,0.22,0.001,0.021114855101614288,0.01657728056865509,28.896099225439208,0.020625338490677523,0.042005935949938636
13,0.24,0.001,0.02021328036231224,0.01561449079614396,26.84543632738518,0.01916162478756972,0.056304480880498886
14,0.25,0.001,0.019325593542872055,0.014950944806891258,24.515529748165246,0.017498593681773908,0.05610053773437228
15,0.25,0.001,0.01907501689562894,0.014594171741845631,25.11065831810537,0.017923382097148728,0.0645512415628348
16,0.25,0.001,0.018537294684034405,0.01395898490128192,25.656847250581993,0.018313238580001424,0.04685971140861511
17,0.25,0.001,0.017961556882117733,0.013906260312657164,22.725882636176216,0.016221186749590447,0.039296147147459645
18,0.25,0.001,0.017891347878659616,0.013723614475115983,23.355976470793138,0.01667093252733272,0.06307221377002341
19,0.25,0.001,0.017920600664284494,0.013524642101291454,24.634949655243844,0.017583832730366768,0.06290436243372304
20,0.25,0.001,0.017583579163659702,0.013430173226603956,23.275687940192945,0.016613624511201245,0.050176304898091724
21,0.25,0.001,0.01748461259359663,0.01340017445159681,22.889193294024228,0.01633775395719074,0.06993282692773002
22,0.25,0.001,0.017428035142295288,0.01293687251481143,25.168475372622712,0.01796465051579066,0.04438015033624002
23,0.25,0.001,0.017171184344198367,0.013018152102677509,23.273592746619023,0.016612129012576034,0.05658009368926287
24,0.25,0.001,0.01701941459693692,0.012961122517784437,22.74266830598465,0.01623316795573494,0.051819312785352976
25,0.25,0.001,0.01692519686890371,0.013004690032414716,21.970517341536706,0.015682025225936265,0.03797976020723581
26,0.0,0.001,0.011803282481251341,0.011803282481251341,29.50196533973771,0.02105779110616539,0.0373065998511655
27,0.02,0.001,0.01119575175372037,0.010443169190877616,52.718412996542575,0.03762913133229306,0.029353974919234003
28,0.04,0.001,0.011586186824121861,0.009574195059637228,70.47000954367898,0.0502997926792855,0.013080040192497628
29,0.06,0.001,0.0124417676242313,0.009404046159952578,70.93079769250119,0.05062869214311291,0.022808203074548925
30,0.08,0.001,0.012594150793221261,0.009493796653443515,54.29495304762715,0.038754427585743864,0.01871583384594747
31,0.1,0.001,0.012891370257494426,0.010292584245855158,36.40899041686395,0.025987858969924303,0.021196800017995492
32,0.12,0.001,0.01331940105166098,0.010384862819178537,34.2607360223327,0.024454486811086865,0.01593062880315951
33,0.14,0.001,0.013593147856870083,0.01023399763072681,33.61549427533391,0.023993928818939265,0.026779698074928353
34,0.16,0.001,0.013927180978535401,0.0105282740404058,29.761679466324622,0.021243168783957617,0.016714503789054497
35,0.18,0.001,0.014291663729406968,0.010739563164686916,27.647181693953698,0.019733891287618627,0.019015119278005192
36,0.2,0.001,0.014780605211853981,0.010920078164399272,27.042991869377367,0.01930263516729291,0.03723743957068239
37,0.22,0.001,0.014891134161088202,0.010914413013843575,25.32448194484518,0.018076004243287064,0.01824007954980646
38,0.24,0.001,0.015175267433126768,0.011045042378357564,24.110190439705896,0.017209272262459597,0.02397355024835893
39,0.25,0.001,0.015300224045987684,0.011319702905085351,22.306841532389324,0.015922085319335706,0.029158294733081545
40,0.25,0.001,0.015101204748557072,0.011026868248602958,22.83258335999768,0.016297347152032605,0.016710202741835798
41,0.25,0.001,0.015263053616791061,0.011357598495904845,21.886170608828767,0.015621820563046942,0.02845553481685264
42,0.25,0.001,0.015083965177487845,0.01100921696710466,22.834888959171796,0.01629899283309907,0.020345278084278107
43,0.25,0.001,0.01505438390780579,0.01105438553812829,22.4159910413954,0.01599999360556417,0.03955623454281262
44,0.25,0.001,0.0148213187025653,0.011040500967264777,21.187701947761305,0.015123270483769668,0.027936693547027453
45,0.25,0.001,0.014660527638037397,0.0107066131225138,22.157738059458108,0.015815658857571812,0.0214917054399848
46,0.25,0.001,0.014703606292981692,0.010971283417834777,20.91593782829516,0.014929291811773847,0.023784574387328967
47,0.25,0.001,0.014602216628540044,0.010640693649724878,22.200374622537634,0.015846091807664265,0.03236440449420895
48,0.25,0.001,0.014759450831046008,0.011092517995322593,20.549492614437835,0.014667732058842137,0.040633849134402614
49,0.25,0.001,0.014686319958230462,0.010749770572992286,22.060422492749762,0.01574619735385422,0.0444864368598376
50,0.25,0.001,0.014494770065401539,0.010764542205089872,20.90419711488666,0.014920911573794904,0.04579599281506879
51,0.0,0.001,0.010292260239672179,0.010292260239672179,25.02993770560833,0.017865765671383534,0.03625635536653655
52,0.02,0.001,0.009565563082243458,0.008969434612251893,41.75880513046727,0.029806427644873144,0.020866796507367065
53,0.04,0.001,0.009928043009807366,0.00826496896192883,58.249169898755625,0.041576852176128214,0.02198921955589737
54,0.06,0.001,0.010686152567616616,0.00808804343934312,60.66584955080591,0.04330181980785575,0.028314816100256785
55,0.08,0.001,0.010881606000240403,0.008111031613115108,48.51968784524937,0.034632182616166574,0.015915702363210067
56,0.1,0.001,0.011125738045783958,0.00858133499783398,35.64708802194306,0.025444031421800902,0.01863323863861816
57,0.12,0.001,0.011594312895804343,0.009138050141057582,28.676868669914477,0.020468857009218043,0.02297697016703231
58,0.14,0.001,0.011827999123870725,0.008982392884038314,28.476387601910215,0.020325758459607577,0.02608832690332617
59,0.16,0.001,0.012141619733713492,0.009005284896402649,27.46253335355508,0.01960209375699863,0.023962097907704965
60,0.18,0.001,0.012456351985232999,0.00913008087963769,25.889475581621884,0.018479283070393922,0.015432949577059065
61,0.2,0.001,0.012608121422053588,0.009188043715601618,23.957642410740707,0.01710038715970072,0.012292393217129367
62,0.22,0.001,0.012982609869931081,0.009429823738908527,22.624788843020045,0.01614902843898647,0.01662951641316925
63,0.24,0.001,0.013525454590868468,0.009788713634315164,21.81322565945712,0.015569754218027924,0.02227675196315561
64,0.25,0.001,0.013322692025791515,0.00948488957841288,21.507046285301747,0.015351210767524446,0.02201640353138958
65,0.25,0.001,0.013280006464232098,0.009639932520010254,20.39897512185453,0.014560296303964689,0.01576319190540484
66,0.25,0.001,0.013234915475201125,0.009584950372539085,20.45440525478787,0.014599860995565931,0.025717799152646745
67,0.25,0.001,0.013211093334989115,0.009515802846337207,20.70840958874635,0.014781163161132298,0.02398351493424603
68,0.25,0.001,0.0130829264438062,0.009551128635954375,19.792195676553128,0.014127191774841633,0.021746165119111538
69,0.25,0.001,0.01292082102912845,0.009412823470704483,19.658819121543807,0.014031990807668671,0.02768398847963129
70,0.25,0.001,0.013048023935595546,0.009607555636327075,19.28038487289891,0.013761873570948545,0.029476581141352654
71,0.25,0.001,0.012898417961115788,0.009380504742942074,19.71438592852968,0.014071653053911263,0.027857627054410323
72,0.25,0.001,0.012947801792185114,0.009525576747502342,19.178149098097677,0.013688900141397342,0.030504855194262097
73,0.25,0.001,0.012924342397412266,0.009472518491398806,19.344021093965782,0.0138072955702825,0.029782517680100033
74,0.25,0.001,0.012898473972172447,0.009592110074755519,18.528863521537396,0.013225455761268662,0.030811308483992304
75,0.25,0.001,0.012685461477799849,0.00918900195245791,19.59415932857629,0.013985838207406344,0.023214349124048437
76,0.0,0.001,0.008873647991379704,0.008873647991379704,22.16215355227692,0.015818810529819358,0.027753897277372225
77,0.02,0.001,0.008549663492224434,0.00802607855975929,36.677114043572935,0.026179239146019224,0.03062308207154274
78,0.04,0.001,0.00887083328056215,0.0074662654049167726,49.19498948376588,0.03511419663366587,0.01789715832897595
79,0.06,0.001,0.009501559641024079,0.007402165604736468,49.02085213709359,0.03498990159678343,0.024296487282429422
80,0.08,0.001,0.009793275910796541,0.007525081078361983,39.72176492093789,0.028352437488178367,0.02797951948429857
81,0.1,0.001,0.01003360061558208,0.007867229171097279,30.35086431406965,0.02166371471382559,0.028628259098955562
82,0.12,0.001,0.01029958591015652,0.008120816868889814,25.437130725745,0.018156410225371164,0.014752837629722697
83,0.14,0.001,0.010662418686681323,0.008185502800225007,24.78685012971512,0.01769225562435055,0.016820904266621386
84,0.16,0.001,0.01100283038962369,0.008170636643589748,24.799397940587514,0.01770121194902749,0.0166641715914011
85,0.18,0.001,0.011174410957880694,0.00818251141092994,23.286950390748302,0.016621663376694004,0.020034436602145433
86,0.2,0.001,0.011463835289833522,0.008388606784394894,21.541975541548297,0.01537614242794311,0.01935570128262043
87,0.22,0.001,0.011809132776853411,0.008463982191651759,21.302528053823142,0.015205230588025084,0.01674643444961735
88,0.24,0.001,0.01197449853549702,0.008437115078171095,20.64947633068971,0.014739098023333124,0.012966107111424208
89,0.25,0.001,0.012131365599355312,0.008730057993847313,19.06092680343474,0.013605229695528008,0.012430212393935238
90,0.25,0.001,0.012150991708040237,0.008675843392583456,19.474731483844796,0.013900593493108349,0.014718507948730673
91,0.25,0.001,0.012071757934837028,0.008574789253562087,19.597012163412693,0.013987874492086147,0.016459388259266104
92,0.25,0.001,0.011981000465275062,0.008698470410749767,18.395297541762844,0.013130119587268268,0.017074435284095153
93,0.25,0.001,0.012013777921145613,0.008728382281131215,18.41135753284801,0.013141582821447546,0.018734660664839402
94,0.25,0.001,0.011978998488624288,0.008593934842131355,18.969896200931434,0.013540254247631287,0.018477542724992548
95,0.25,0.001,0.011948828406707204,0.008610488781046987,18.70805478336835,0.013353358160862491,0.0217220694757998
96,0.25,0.001,0.011922722259028391,0.008646542625031386,18.35971075115782,0.013104718594687951,0.01692566162507449
97,0.25,0.001,0.011829256541048638,0.00856977202129936,18.26615061904445,0.013037937629582047,0.015436101039605481
98,0.25,0.001,0.011768674572007825,0.008510962824779327,18.2562159143313,0.013030846477038758,0.01517508045903274
99,0.25,0.001,0.011784826706379953,0.008533122582417545,18.222549380678117,0.013006816117543268,0.016621410979756286
100,0.25,0.001,0.011924737913891523,0.00870919456197457,18.01990528299351,0.012862173649531412,0.01970584610743182
101,0.25,0.001,0.01190465037720372,0.00858395890981862,18.60915559710878,0.013282766307715048,0.01816826094208019
102,0.25,0.001,0.01174273920443022,0.008560457257459861,17.833508231423117,0.01272912793106575,0.013619764441890376
103,0.25,0.001,0.011935075773208431,0.008672643904433106,18.282669009584367,0.013049728058232953,0.02409795192735536
104,0.25,0.001,0.011766844353817328,0.008552793084145194,18.011544006039397,0.012856205571762596,0.018662627254213606
105,0.25,0.001,0.01175216544005606,0.008573580566191613,17.8127898013953,0.01271433961555696,0.024423178418406417
106,0.25,0.001,0.011724487003503424,0.008517394303297154,17.972548552233764,0.012828371557625813,0.016803555988839695
107,0.25,0.001,0.011713758618994192,0.008480986909508104,18.116452246001273,0.012931086542470573,0.018038206600717137
108,0.25,0.001,0.011708873634537062,0.00849548282308711,18.00784315244116,0.01285356399174958,0.019165002208735262
109,0.25,0.001,0.011656316260647292,0.008406325497410515,18.212949174823184,0.012999963722214977,0.0144309516597007
110,0.25,0.001,0.011721810683457538,0.008520560437869844,17.939805579907965,0.012805000413924315,0.01579880208841392
111,0.25,0.001,0.011571725576438686,0.008353412866291373,18.035424839366566,0.012873251134451511,0.01609508227556944
112,0.25,0.001,0.011523266144172109,0.008372336865938974,17.65780801484079,0.012603717355346745,0.014363757268126522
113,0.25,0.001,0.011504436438583364,0.00833273008277621,17.774242824978298,0.012686825713760385,0.017302166470991715
114,0.25,0.001,0.011388376618575568,0.00823304993147501,17.68244995733704,0.012621306179398316,0.011672953409808022
115,0.25,0.001,0.011478108551466104,0.008388902418164894,17.311911843039773,0.012356825012876355,0.011472697901938642
116,0.25,0.001,0.011515388472212685,0.008374106769233641,17.603743582060844,0.012565127467566627,0.013134333571153027
117,0.25,0.001,0.011442476526053265,0.008285153539606719,17.69363969745058,0.01262929314593189,0.010675405085619007
118,0.25,0.001,0.011371647365240737,0.008241864608017483,17.539302902992326,0.012519131265519148,0.01292084317122187
119,0.25,0.001,0.011521218523307883,0.008366110767567098,17.681223686295326,0.012620430896713294,0.017666101588734558
120,0.25,0.001,0.011341045253129319,0.008200958606344884,17.597044703936337,0.012560345969975972,0.01073709303247077
121,0.25,0.001,0.011484111781523686,0.008352138036203504,17.551581719909052,0.01252789558880018,0.012894849692072188
122,0.25,0.001,0.011393645232675052,0.008200676396790178,17.89339863170277,0.012771876253892055,0.015671636244016036
123,0.25,0.001,0.011321890741737202,0.008219894115822484,17.38358974456787,0.01240798696971297,0.011333325146032231
124,0.25,0.001,0.01141394062362837,0.008368948258158534,17.064136485860804,0.012179968940657248,0.018151423494730676
125,0.25,0.001,0.011282524056356363,0.008151694972331475,17.54516593856041,0.01252331615885825,0.019972536845930984
126,0.25,0.001,0.011306209151040424,0.008226967407296401,17.256070454915363,0.012316966777241516,0.02011202634977443
127,0.25,0.001,0.011348126503177966,0.00823412270219338,17.450877565326113,0.012456015392809503,0.01556529417367918
128,0.25,0.001,0.011226482049684332,0.008092751444289179,17.561426933365638,0.012534922864643567,0.009274678105222327
129,0.25,0.001,0.011193639514121142,0.008059958485190314,17.561148942118944,0.01253472444119839,0.013910331563757998
130,0.25,0.001,0.011156772743120338,0.008052430901149607,17.39673229178997,0.012417367802847945,0.00931307433971337
131,0.25,0.001,0.0112657794409027,0.008110653176301658,17.681327511565854,0.012620505004686549,0.014963839203119278
132,0.25,0.001,0.011242925368174159,0.008137678228920758,17.401805309334186,0.01242098880038129,0.013391166659338134
133,0.25,0.001,0.0114219125943503,0.008260206159467648,17.718202571676233,0.01264682553295948,0.01889442585940872
134,0.25,0.001,0.011370927866811703,0.008265873266741483,17.400726530287002,0.012420218793923628,0.019980583073837415
135,0.25,0.001,0.011246417507980808,0.008094058818927016,17.66581845524335,0.012609435014449215,0.013605100169245685
136,0.25,0.001,0.01136183271165749,0.0082656681311853,17.35090700785319,0.012384658820737467,0.023720073912824904
137,0.25,0.001,0.011239978569475088,0.008141423415656041,17.364301739317,0.01239421965690007,0.014678340937410082
138,0.25,0.001,0.011300439353693615,0.008210668556693227,17.31507594176013,0.012359083470207088,0.016237675611461912
139,0.25,0.001,0.011214358242924768,0.008076676910724303,17.58356714730311,0.012550726015205646,0.018359473440796137
140,0.25,0.001,0.01112936723111856,0.007970471330212824,17.702452418780087,0.012635583453804488,0.011978810653090477
141,0.25,0.001,0.011055640801034793,0.008008316408541768,17.077206370806454,0.012189297909212317,0.013094923059855188
142,0.25,0.001,0.011163069828968458,0.008123048200187359,17.036281470096473,0.01216008670242432,0.01324105216190219
143,0.25,0.001,0.011097090544574188,0.007959290722742526,17.58423098169192,0.01255119984417696,0.01151939235361559
144,0.25,0.001,0.011099330083739877,0.007982639384201982,17.46593544699929,0.012466763345467017,0.019992934273821966
145,0.25,0.001,0.011155631571932875,0.008089124319153,17.18470637003581,0.012266028815157608,0.01102134572075946
146,0.25,0.001,0.01109374589239708,0.007924075050260684,17.762835184733074,0.01267868321536979,0.015307094635707992
147,0.25,0.001,0.011121178798452772,0.008014764683791484,17.408344923847853,0.01242565661944886,0.025331927064274038
148,0.25,0.001,0.011279378161586896,0.008257668916926239,16.93365890811188,0.01208683719351312,0.03102002545659031
149,0.25,0.001,0.011078882115808401,0.008005526415401637,17.22308472912721,0.012293422361975167,0.02097024768590927
150,0.25,0.001,0.011029228746815764,0.007922796142108814,17.408448961046005,0.012425730878690939,0.01923205184617213
151,0.25,0.001,0.010973511395430324,0.007985542838772139,16.74457613627116,0.011951874472713177,0.012059098176125969
152,0.25,0.001,0.01107224335687028,0.007960662575005883,17.437298476093947,0.012446322966519591,0.013817640021443367
153,0.25,0.001,0.011063513186092328,0.00787119855257598,17.889731667258523,0.01276925886313956,0.016709125733801296
154,0.25,0.001,0.011105287989432161,0.008093287001806075,16.879253907637164,0.012048004216728882,0.019072451362652437
155,0.25,0.001,0.010979444823331304,0.007987563498318195,16.766502929456305,0.011967525288691152,0.010721067897975445
156,0.25,0.001,0.011003643368380238,0.007870478470894423,17.558256592413393,0.01253265995175831,0.010382559882210833
157,0.25,0.001,0.01107204734639387,0.007966253389086988,17.404869002525253,0.012423175590667562,0.013500086896653687
158,0.25,0.001,0.010993328923829879,0.007947140015812234,17.07084279108529,0.012184755739532684,0.01633180637976953
159,0.25,0.001,0.010988217270509764,0.008006215857511217,16.71113561379789,0.011928005434545245,0.012938893400132656
160,0.25,0.001,0.010957400163993089,0.007813405631241775,17.618945651584202,0.012575978338032978,0.011055209806987218
161,0.25,0.001,0.010975755280768029,0.007913925666173901,17.158493080524483,0.012247318401516405,0.009390534966119699
162,0.25,0.001,0.01097789958044134,0.00793069927492226,17.076511248193604,0.012188801747461531,0.010408964407231127
163,0.25,0.001,0.010872629715712985,0.007816987187422887,17.12382006404376,0.012222569638860642,0.010958841270101922
164,0.25,0.001,0.010953652982910475,0.007953885519369082,16.81069740141281,0.011999070236554468,0.018940607817577466
165,0.25,0.001,0.01092381811126916,0.007808716177488818,17.457030864677044,0.012460407469434007,0.013800202336694514
166,0.25,0.001,0.01093267858254187,0.00782590007616414,17.410386133675622,0.01242711358577846,0.011306868001286472
167,0.25,0.001,0.01092756779469324,0.007877302610061386,17.093685419872553,0.012201060256868346,0.015220158201243197
168,0.25,0.001,0.010847962433190056,0.007773372561040551,17.230002123900135,0.012298359831477612,0.01444894986759339
169,0.25,0.001,0.010850764585263802,0.007816365421420396,17.004772879860617,0.012137596630878385,0.008482736003186022
170,0.25,0.001,0.010846584056965028,0.007888092283121866,16.579388050117878,0.01183396720208271,0.010997461354626077
171,0.25,0.001,0.010849311101165686,0.007760304825926068,17.31079197893239,0.012356025680893926,0.010086023448301213
172,0.25,0.001,0.010853709295542554,0.007774332660541992,17.256827932415586,0.012317507446406556,0.01531856187752315
173,0.25,0.001,0.010874702397621039,0.0078608753310159,16.889487256907454,0.012055308534552073,0.013084564690611191
174,0.25,0.001,0.010824891860888463,0.007704921612384344,17.484313059334802,0.012479880841780729,0.021266148824776922
175,0.25,0.001,0.01094238224881466,0.007970581452051798,16.65397267389779,0.011887203907136181,0.027765837631055286
176,0.25,0.001,0.0108380980902549,0.0077853018624915015,17.107869543210423,0.012211184541906084,0.02130727469921112
177,0.25,0.001,0.0108746202342739,0.007909910334744539,16.614233999541312,0.011858839400100865,0.013697294651397638
178,0.25,0.001,0.010866263561477565,0.007828006887751999,17.0263904802727,0.012153026752514418,0.01196850264178855
179,0.25,0.001,0.010836066838090469,0.007718488705730197,17.4709086177325,0.012470313074755532,0.01200139762035438
180,0.25,0.001,0.010855522891036187,0.007868501630545867,16.73926767676768,0.011948085422389492,0.01341245895517724
181,0.25,0.001,0.01076525826044757,0.007709638074491963,17.123696163447217,0.01222248120160401,0.014726918988994189
182,0.25,0.001,0.010857709937474945,0.007793619993584927,17.171160929130785,0.012256360406231823,0.019548883195966482
183,0.25,0.001,0.010898575073841846,0.00777677654975442,17.49455794902763,0.012487193396879108,0.013679915639970983
184,0.25,0.001,0.010793698612939228,0.007719905557807045,17.225537319376013,0.012295172961724492,0.012735383585095406
185,0.25,0.001,0.01075311428443952,0.0077050673502563225,17.08125368754069,0.012192186786253171,0.016761989931442907
186,0.25,0.001,0.010749685211163578,0.007785516499419405,16.611201286315918,0.01185667472256668,0.012061178950326783
187,0.25,0.001,0.01082499230261704,0.007750063212682502,17.2319028449781,0.012299716520326982,0.017219776420720985
188,0.25,0.001,0.010841293975409835,0.007764616031011548,17.241703842625473,0.012306712235992485,0.01775862748867699
189,0.25,0.001,0.010746638055401618,0.00762334063348144,17.50295883718163,0.01249318974816676,0.012067598290741444
190,0.25,0.001,0.01093188752279137,0.007963900990558393,16.632596574648463,0.011871946163203757,0.01395916539643492
191,0.25,0.001,0.010984087748584724,0.007909147746183655,17.231964381054194,0.0122997604432935,0.02334303255858166
192,0.25,0.001,0.010770500298928131,0.00761705573008518,17.671904014818598,0.0126137787400561,0.01427318315420832
193,0.25,0.001,0.010814168227065091,0.00784721484200822,16.626807993108574,0.011867814413353729,0.014026725265596594
194,0.25,0.001,0.010795646215403321,0.007750657217746431,17.064119165593926,0.012179956577868613,0.015131003955113036
195,0.25,0.001,0.010752170459564888,0.0075986805334310945,17.672157634388316,0.012613959767586235,0.013088557869195938
196,0.25,0.001,0.010746670821023107,0.007726790863230373,16.923407236735027,0.012079519797812296,0.010312172584235668
197,0.25,0.001,0.010759817831444017,0.007696874148090079,17.164736516547926,0.012251774815523146,0.012388935844813074
198,0.25,0.001,0.01069553770275429,0.007625408357743061,17.2050041526255,0.012280516882673446,0.012478336625333344
199,0.25,0.001,0.010716899928420481,0.007693152893522773,16.945078416304156,0.012094988162957999,0.01893417490646243
200,0.25,0.001,0.010766801941725943,0.007802119854875285,16.614077654751863,0.011858727804962072,0.025927874658788954
201,0.25,0.001,0.010827547644801212,0.007783505153099094,17.05881400060172,0.012176169879087595,0.016139840174998556
202,0.25,0.001,0.010814534020469044,0.007746375570393572,17.193959476971866,0.012272633459651582,0.01836861563580377
203,0.25,0.001,0.010697599707378281,0.007654111173869383,17.055709665471856,0.01217395407956592,0.014541542889284236
204,0.25,0.001,0.01077325940320287,0.00764660555116757,17.521768762607767,0.012506615819134738,0.015081922723246472
205,0.25,0.001,0.010790539594988028,0.007788233440181222,16.824924276332663,0.012009225036640016,0.01519932464829513
206,0.25,0.001,0.010690627262146786,0.00765013595045817,17.038914150661892,0.012161965846296854,0.01582628209143877
207,0.25,0.001,0.010698122847260851,0.007630922328304462,17.188591735531585,0.012268802095311624,0.012655887686248337
208,0.25,0.001,0.010724294817808903,0.007708511287064263,16.9004503500582,0.012063133725951606,0.010947548717792546
209,0.25,0.001,0.010723571114317335,0.007670972618566017,17.106763088341914,0.012210394781114856,0.0138487192536039
210,0.25,0.001,0.01073422483309652,0.007637595833100454,17.353509633228033,0.012386516511940065,0.015018621792218514
211,0.25,0.001,0.010683606124737045,0.007547967465161675,17.572119048147492,0.012542554638220908,0.010670040068881852
212,0.25,0.001,0.01058623372492465,0.007655026362926671,16.42648597678753,0.011724829390997522,0.010922065669936793
213,0.25,0.001,0.010563367018193909,0.007588006066854554,16.673922952979503,0.011901443935031765,0.01139637448691896
214,0.25,0.001,0.010592923772455467,0.007501219154683629,17.325913015038076,0.012366818711661724,0.012954411895147391
215,0.25,0.001,0.010659777681634884,0.007648794770692334,16.873548960444904,0.012043932163058461,0.011041386585150446
216,0.25,0.001,0.01059535862595746,0.00756924855287629,16.958320559877336,0.01210444008556555,0.012528837392372745
217,0.25,0.001,0.01067029797669613,0.007616590525051861,17.11297607421875,0.012214829460541577,0.011153163987078838
218,0.25,0.001,0.010640776255215057,0.007557240780442953,17.280132640491832,0.012334141784790744,0.01611059278781925
219,0.25,0.001,0.010648058934344186,0.007648937357119238,16.807078197748975,0.011996486936294772,0.018003828690520356
220,0.25,0.001,0.010665232616693082,0.007715658439944188,16.529414359969323,0.011798297187701158,0.026300450786948204
221,0.25,0.001,0.01077222012246799,0.0077131779375250896,17.14287260806922,0.012236168885131491,0.017250267123537406
222,0.25,0.001,0.010639822007053427,0.007537129132848496,17.38749112986555,0.012410771684415095,0.015429994756621974
223,0.25,0.001,0.010529217263213311,0.007611648461809664,16.350055617515487,0.011670275244479292,0.012334863788315229
224,0.25,0.001,0.010530754284124182,0.0075480829397536284,16.714890268113876,0.011930685416212616,0.015025717871529716
225,0.25,0.001,0.01064031734836824,0.00761896711444915,16.931646192916716,0.012085400565964821,0.011492245431457247
226,0.25,0.001,0.010592300915206321,0.00760265781704073,16.753959694294014,0.011958572230045691,0.012351933001939739
227,0.25,0.001,0.010641203609981923,0.007592445267646602,17.08524231958871,0.012195033775580805,0.013212497745241438
228,0.25,0.001,0.010563141986200906,0.007555733011527495,16.853519555294152,0.012029635656883763,0.011308026832661458
229,0.25,0.001,0.010643162237800131,0.007676159718421975,16.627082709110145,0.011868010499007955,0.01335493674767869
230,0.25,0.001,0.010696660962444966,0.007632245573055262,17.172983814971616,0.012257661538166749,0.01302982454321214
231,0.25,0.001,0.010581021733356245,0.0074877789752049876,17.334532323509755,0.01237297096610261,0.01060184177809528
232,0.25,0.001,0.010526757649701051,0.007564430294389074,16.6008814609412,0.011849308680186438,0.012846461031585932
233,0.25,0.001,0.010505567728118463,0.007540296669108699,16.61737956422748,0.01186108462828514,0.009848704095929861
234,0.25,0.001,0.010517349786529637,0.007499824268649323,16.91021341266054,0.012070102364497173,0.012756543766174997
235,0.25,0.001,0.010549553999244565,0.007660944061824168,16.187770265521426,0.011554439875461403,0.014706866682640143
236,0.25,0.001,0.010600679375306524,0.0075287025873408174,17.21535802128339,0.0122879072243279,0.013869160786271095
237,0.25,0.001,0.01062518468295986,0.007532378131843576,17.332088682386612,0.012371226754023277,0.012654864894492286
238,0.25,0.001,0.010559386028108573,0.007505981834849926,17.11127772475734,0.012213617219669765,0.013184729963541031
239,0.25,0.001,0.010659187147864188,0.007643411429881146,16.9004077526054,0.012063103320917487,0.012292105837592058
240,0.25,0.001,0.010512051294849377,0.007448455478732634,17.16839110249221,0.012254383370801005,0.01181241570572768
241,0.25,0.001,0.0106002428107942,0.007598374650409126,16.822468632399435,0.012007472257244422,0.01852695151631321
242,0.25,0.001,0.010658468364389858,0.007647226188294214,16.875001290831904,0.012044968801450324,0.01705732462661607
243,0.25,0.001,0.010572064056465722,0.007542381731021886,16.978340938837842,0.012118730149063414,0.011302873093102659
244,0.25,0.001,0.01048318680488702,0.007522935480481446,16.589248734291154,0.01184100552055043,0.010305594187229872
245,0.25,0.001,0.010569601009289423,0.0076119995469020475,16.57439906187732,0.011830406182639057,0.012183844976659332
246,0.25,0.001,0.010611651898032487,0.007566640990776847,17.064242237746114,0.012180044423801653,0.01608524564653635
247,0.25,0.001,0.010546295056966219,0.007508192719383674,17.02552575776071,0.012152409534447331,0.012703291340065854
248,0.25,0.001,0.010573053854809266,0.007586299178350454,16.737772970488578,0.011947018537108193,0.012362995318004064
249,0.25,0.001,0.010546483090053302,0.007532513041914713,16.890288690123896,0.012055880578246893,0.011352608712123973
250,0.25,0.001,0.010646915693551001,0.007586137175258964,17.15260307234947,0.012243114255781208,0.01068661075883678
251,0.25,0.001,0.010552864963884908,0.007472649348354099,17.261528824314926,0.012320862829632353,0.012424283993563481
252,0.25,0.001,0.01052939688617533,0.0075637712566690015,16.619365133420384,0.011862501879671937,0.011134938736047064
253,0.25,0.001,0.010510940283461653,0.007485596039755778,16.954028890590475,0.012101376795567791,0.010330958757549524
254,0.25,0.001,0.010516318915919825,0.007451718132190331,17.174022867222025,0.012258403188595307,0.010527793118464095
255,0.25,0.001,0.010479637741515732,0.007473430088297887,16.846788252242888,0.01202483101516266,0.010767605222229446
256,0.25,0.001,0.010545183537584362,0.0075115451043603395,17.000508279511422,0.012134552662035275,0.01258286933547684
257,0.25,0.001,0.01048959330702671,0.007414496531992248,17.23284324491867,0.012300387755116823,0.016824434511363506
258,0.25,0.001,0.010510398357203512,0.007509950924702365,16.8145080142551,0.01200179016006788,0.012361002021602221
259,0.25,0.001,0.010517637094840257,0.007489956868342077,16.96712023802478,0.012110721083529464,0.011167654967201608
260,0.25,0.001,0.010501178997484121,0.007425916917396315,17.233768886990017,0.012301048456095658,0.012008652889302798
261,0.25,0.001,0.01047729439280852,0.00743890909308737,17.027111958975745,0.012153541726606527,0.011474938664053167
262,0.25,0.001,0.010567782597258837,0.007573563826618472,16.77960178105518,0.011976874932944455,0.013998072328312057
263,0.25,0.001,0.010505519854375209,0.007534761621494486,16.64812958842576,0.011883033253694332,0.012807838951370545
264,0.25,0.001,0.010560890273990655,0.007559651617111281,16.818941482389818,0.012004954662662253,0.013544839075101274
265,0.25,0.001,0.010622732614101184,0.007499921916410177,17.50023105891064,0.01249124272584628,0.016526977132473673
266,0.25,0.001,0.010465322626811085,0.007458986121822487,16.847509557550605,0.01202534586548937,0.01442165712692908
267,0.25,0.001,0.010517457641209618,0.007533807561478831,16.720374791309087,0.011934600136551812,0.01643382970775877
268,0.25,0.001,0.010582186234644566,0.0074772853027991575,17.399864273841935,0.012419603336075613,0.01575702442122357
269,0.25,0.001,0.010514079273273849,0.007512084744644888,16.82317745324337,0.012007978196462078,0.014752632805279322
270,0.25,0.001,0.010490909218788147,0.0074643387572106085,16.960900220003996,0.012106281384728048,0.011819898816091674
271,0.25,0.001,0.010525910212009243,0.007545943343729684,16.699735294688832,0.01191986816180502,0.01714465514357601
272,0.25,0.001,0.010475771501660347,0.007506795232231268,16.638142344927548,0.011875904600233796,0.009864334216607469
273,0.25,0.001,0.010368199717968402,0.0073478732427412815,16.925911392828432,0.01208130720401744,0.011001083268118756
274,0.25,0.001,0.010402833346766656,0.0074440177831083835,16.581203653354837,0.01183526313587069,0.01877372765115329
275,0.25,0.001,0.010445049211307608,0.007471545999211193,16.66351239368169,0.01189401312896623,0.013446480967104435
276,0.25,0.001,0.010423810785692749,0.007382219078753031,17.045081495034573,0.01216636794791904,0.014821953672383512
277,0.25,0.001,0.010392815250940997,0.007436213365784197,16.568797150043526,0.011826407673121717,0.011113498825579882
278,0.25,0.001,0.010352621353560626,0.00742630987437536,16.399049720378837,0.01170524605308982,0.013733584300747939
279,0.25,0.001,0.010449445401929845,0.007439411362877699,16.86823141695273,0.012040136628802807,0.0100037948494511
280,0.25,0.001,0.0104803755653627,0.007412289128159032,17.193556756684274,0.012272346007626177,0.011493388430348464
281,0.25,0.001,0.010407725697138695,0.007392676772944855,16.89633441693855,0.012060195872190257,0.011676133477262087
282,0.25,0.001,0.010537051736856953,0.007498683219756743,17.027017805311417,0.012153474521992445,0.017752337402531078
283,0.25,0.001,0.010386337987100236,0.007407183735396223,16.695182203042386,0.011916618274833965,0.011225062954638685
284,0.25,0.001,0.010466480524175696,0.00749127065875765,16.67307689936474,0.01190084004237312,0.010912701088402952
285,0.25,0.001,0.010457310787957124,0.007517488767402341,16.47476200142292,0.01175928765269302,0.01083701363365565
286,0.25,0.001,0.01044657261985721,0.0074285080073156744,16.913234248305812,0.012072258564101223,0.0118865290922778
287,0.25,0.001,0.0104261523752351,0.007479109189877606,16.515230785716664,0.011788173294587197,0.014952459372580051
288,0.25,0.001,0.010399148159782694,0.007336033315331948,17.16569657759233,0.012252460083934567,0.01636353534247194
289,0.25,0.001,0.010355382047668851,0.007370654573532367,16.726412802031547,0.011938909922934723,0.013794744121176856
290,0.25,0.001,0.010375506893703432,0.007428123239390176,16.517136872416796,0.01178953381328822,0.017305939325264523
291,0.25,0.001,0.01051329838281328,0.007553034838326651,16.58931699425283,0.01184105424286426,0.01705447571086032
292,0.25,0.001,0.01040533087169281,0.0073367857393065485,17.19612730392302,0.012274180802229136,0.016742871409015998
293,0.25,0.001,0.01042773091996258,0.007498607218190275,16.414809612312702,0.011716495083734976,0.01774362102150917
294,0.25,0.001,0.01048836318982972,0.007405562335719364,17.276016582142223,0.012331203841643271,0.020935068439160074
295,0.25,0.001,0.010375214195010639,0.007381480676357193,16.776882980809066,0.011974934318921533,0.015596339745180947
296,0.25,0.001,0.010361476914223396,0.007489965400762028,16.09195090785171,0.01148604632965861,0.017384622911257402
297,0.25,0.001,0.010370999753399932,0.007378883452879058,16.767820416074812,0.011968465678854255,0.013068823143839836
298,0.25,0.001,0.01042483402698329,0.007340658804157165,17.283717935735528,0.012336700882038207,0.013066829980484076
299,0.25,0.001,0.010541472932079224,0.007529575819845753,16.878671405291318,0.01204758844060765,0.022835189742701396
300,0.25,0.001,0.010573667389425364,0.007563331409009418,16.869922657205603,0.01204134379529308,0.020427432576460496
301,0.25,0.001,0.010467400059405,0.0075329129791094195,16.444866257484513,0.011737948791923278,0.015156004843967301
302,0.25,0.001,0.010401257088012768,0.007350756645654187,17.09500424548833,0.012202001602775396,0.011350624662424837
303,0.25,0.001,0.010354211610375029,0.007313319999310706,17.041157057791047,0.012163566779294109,0.015977231319993734
304,0.25,0.001,0.010349106043577194,0.007345465853847939,16.832399349019983,0.01201456056318343,0.015521941839584283
305,0.25,0.001,0.010426270672016673,0.00756094077921877,16.05730858234444,0.011461319473479259,0.0210415834028806
306,0.25,0.001,0.010338180839563862,0.007337689211573264,16.81475575764974,0.01200196699332601,0.018439126733158315
307,0.25,0.001,0.01031774062324654,0.007325374756497566,16.769219003542506,0.0119694639568469,0.014636526283408915
308,0.25,0.001,0.010244288096072697,0.007242082763990068,16.824358506636187,0.01200882120388022,0.011273789419127362
309,0.25,0.001,0.010257886939051778,0.007356172893196344,16.261205576887033,0.011606856229041422,0.010972015958811556
310,0.25,0.001,0.010259677618365697,0.0073291135556770096,16.422881309432213,0.01172225646640415,0.017625734875244752
311,0.25,0.001,0.010231713754962188,0.007304308065824738,16.40518149944267,0.011709622769052583,0.013526513640369688
312,0.25,0.001,0.010323001250549399,0.007347123095332974,16.67682058160955,0.011903512192440792,0.013904876474823271
313,0.25,0.001,0.010314840108457238,0.0073790886872118775,16.45195119067876,0.011743005846308894,0.011481772842151778
314,0.25,0.001,0.010338677140423145,0.007338195714648023,16.814697458286478,0.012001925380647023,0.011436853158686842
315,0.25,0.001,0.010288456962867216,0.0072915065807826595,16.794909332737777,0.011987801094031247,0.011035245510616474
316,0.25,0.001,0.010309977513371092,0.0072929470028464845,16.907439376368668,0.012068122324317393,0.012502932255821568
317,0.25,0.001,0.010261061780079447,0.00731804013967213,16.49269327491221,0.011772086563106502,0.010911238313253437
318,0.25,0.001,0.010266893345749739,0.007314760087415426,16.543753922587694,0.011808532421547247,0.009766507295093365
319,0.25,0.001,0.010361948803142465,0.007337029886930579,16.951645860768327,0.012099675846372825,0.010186287707516126
320,0.25,0.001,0.010365500810998256,0.007349562050417216,16.901321584528144,0.012063755592097176,0.011104106503937925
321,0.25,0.001,0.010425442688618645,0.007413164458491586,16.88080687474723,0.012049112687185745,0.01452228972422225
322,0.25,0.001,0.010328788743025124,0.007306410855792388,16.93740609679559,0.012089511846392285,0.01754302391782403
323,0.25,0.001,0.010424441309890361,0.007475622605080857,16.525180065270625,0.011795274850300233,0.021433845295437744
324,0.25,0.001,0.01025745879407182,0.00727399108893793,16.719352837764855,0.011933870690767207,0.012928204411374671
325,0.25,0.001,0.010369801997310586,0.007462939689632016,16.290056209371546,0.01162744911446934,0.018772920527096306
326,0.25,0.001,0.010273088597589068,0.0073239153693194945,16.52716644364174,0.011796692679258914,0.012184985913336277
327,0.25,0.001,0.010223164110246933,0.007169867404783615,17.110675118186258,0.012213187093637586,0.014099053772432464
328,0.25,0.001,0.010357215059827072,0.007464200380549888,16.212453668767754,0.011572058293196113,0.014752990366624934
329,0.25,0.001,0.01028955407967471,0.007319942643546095,16.64170174646859,0.011878445215181008,0.010174919119370835
330,0.25,0.001,0.010341390233599779,0.0072625837608645055,17.253630474360303,0.012315225177987369,0.018213506122784957
331,0.25,0.001,0.010238689445711747,0.0072292493129468925,16.864902265144117,0.012037760360559684,0.014270660866584097
332,0.25,0.001,0.010246172462674704,0.007327819355961048,16.354450957943694,0.011673412532436613,0.012440021681998457
333,0.25,0.001,0.010372173455026414,0.00740741268552915,16.614518406415225,0.011859042402865972,0.020918388850986958
334,0.25,0.001,0.010400235634108987,0.007396910508925264,16.830635533188328,0.012013301593995952,0.023244303118969713
335,0.25,0.001,0.010303792590745773,0.007418769355298895,16.16766986461601,0.011540092694229842,0.016936160624027252
336,0.25,0.001,0.010294436881638537,0.007342136286274351,16.544692877567176,0.011809202624958727,0.01705489241118942
337,0.25,0.001,0.010319441989666283,0.007265725765715946,17.113025896476977,0.012214865022467507,0.018085351879043237
338,0.25,0.001,0.01028701514381953,0.007317838870515727,16.639264212714302,0.01187670536239422,0.012145135618214096
339,0.25,0.001,0.01029303420636088,0.0072678163308988915,16.953322015627467,0.012100872245272997,0.012305525597184896
340,0.25,0.001,0.010316134863203824,0.0073187274275103,16.797471672597556,0.011989630030405108,0.013146581327808755
341,0.25,0.001,0.010323824097562318,0.007384177946457357,16.473775921445906,0.011758583812595222,0.0159164474877928
342,0.25,0.001,0.010386152719758977,0.007309943508131035,17.239076229056927,0.012304836708820077,0.016933735593089035
343,0.25,0.001,0.010338770507863073,0.007257182960106869,17.269215150312945,0.012326349143692324,0.015890355088881085
344,0.25,0.001,0.010255107195163616,0.007291035458558436,16.610659136916652,0.011856287749405177,0.01419196610472032
345,0.25,0.001,0.010311910233488588,0.007369820484797461,16.487470800226387,0.011768358886671226,0.012728511954524688
346,0.25,0.001,0.010267118857514978,0.007260870320176837,16.847016690957425,0.01202499406920587,0.010933431929775647
347,0.25,0.001,0.010372897431329645,0.0074441944615858974,16.4124510023329,0.011714811564834332,0.011609836481511593
348,0.25,0.001,0.010283546117745866,0.00724932485532881,17.00377524019492,0.01213688453975369,0.015780109113880565
349,0.25,0.001,0.010290208526633003,0.0072729293906101675,16.908832916105638,0.012069116999361626,0.011209890246391296
350,0.25,0.001,0.010319843210957268,0.007412821661229386,16.290950081565164,0.01162808713887592,0.012998266810817378
351,0.25,0.001,0.010285583409396086,0.007312712273701574,16.659970543601297,0.011891485041828192,0.015884305949189832
352,0.25,0.001,0.010361147404770659,0.007421823740569931,16.4719694888953,0.011757294424621914,0.020729497873357365
353,0.25,0.001,0.010262938903061429,0.007236913599149145,16.957846612641305,0.012104101793462744,0.016709235895957266
354,0.25,0.001,0.01025715654697081,0.007337442914381473,16.362074225839944,0.011678853837144856,0.01640053279697895
355,0.25,0.001,0.01016635208795167,0.007183741632322169,16.71454961372144,0.011930442265325797,0.014508019866687911
356,0.25,0.001,0.010247027473241993,0.007311488421765541,16.450760928067293,0.011742156265572658,0.01586372179112264
357,0.25,0.001,0.010258693116331341,0.007192488882050972,17.18300921507556,0.012264817426891906,0.015319805991436754
358,0.25,0.001,0.010201137221296026,0.0072103364515409924,16.760446914518724,0.01196320265133385,0.012131769343146257
359,0.25,0.001,0.010185771903982668,0.007247673338185055,16.465105037496546,0.01175239474482266,0.011883743107318878
360,0.25,0.001,0.010236251685354445,0.007322867716088741,16.326602049548217,0.01165353465349623,0.011383216961153917
361,0.25,0.001,0.010211199277428666,0.007292840752110939,16.354481167263454,0.011673434095120238,0.009779183393610376
362,0.25,0.001,0.010231268319367158,0.007248708752520157,16.71426378115259,0.01193023824493404,0.01052827135260616
363,0.25,0.001,0.010222610904637611,0.007188682990016962,17.002131375399504,0.012135711188721986,0.011133331805467606
364,0.25,0.001,0.010236429840777859,0.007248413852519459,16.744841835715555,0.01195206412256642,0.013128059384013926
365,0.25,0.001,0.010269668329544741,0.0072923919769248575,16.684655969793145,0.011909104903492609,0.013321181360099996
366,0.25,0.001,0.010152932200016397,0.007206926940742767,16.50941320862433,0.011784020848411372,0.01219427991392357
367,0.25,0.001,0.010238004481476364,0.00731853660986279,16.360697052695535,0.01167787084417954,0.010326861071267299
368,0.25,0.001,0.010272173784823731,0.007276920404172305,16.785399889705158,0.011981013483015815,0.018704129915152277
369,0.25,0.001,0.01032535487202683,0.007270269161748766,17.120699892140397,0.012220342535432117,0.017117631089474474
370,0.25,0.001,0.010294233542876412,0.007261316861129469,16.99646620316939,0.01213166752545995,0.015797938885433332
371,0.25,0.001,0.010283233776613318,0.007302879078332523,16.701908940016622,0.011921419657399445,0.01343744354588645
372,0.25,0.001,0.010305817812831715,0.007268604178056874,17.02054520809289,0.012148854538253312,0.014110091075833355
373,0.25,0.001,0.010255784887557079,0.007311133432644184,16.501826719804242,0.011778605795720373,0.013674300563122545
374,0.25,0.001,0.010209044968389501,0.007239637887011273,16.64055806940252,0.011877628886083168,0.010363485664129257
375,0.25,0.001,0.010151935797749144,0.007188048952193272,16.609622531467014,0.011855547845443978,0.009426548278757505
376,0.25,0.001,0.010149276363804485,0.007141227678706248,16.857105380356913,0.012032195132303292,0.00913309964484402
377,0.25,0.001,0.010151850878063477,0.00713371184438166,16.913651514534997,0.012072556398668806,0.009124969797474998
378,0.25,0.001,0.010187740127245585,0.0072977992499040235,16.195228750055488,0.01155976356178122,0.009969016004885946
379,0.25,0.001,0.010178400448175392,0.007235710979486355,16.49083208796954,0.011770758092769121,0.011592049949935504
380,0.25,0.001,0.010182463366425398,0.007195090842104018,16.741233999078926,0.011949488935816507,0.010580417234450579
381,0.25,0.001,0.010237671350213614,0.007266675916998976,16.649458490236842,0.011883981791746497,0.013777128154678004
382,0.25,0.001,0.010180809967821896,0.007205057870408501,16.676114872248487,0.011903008474124545,0.014457972919834512
383,0.25,0.001,0.010202343961355663,0.007201602997615783,16.816153343277747,0.012002964556229656,0.014670455628739936
384,0.25,0.001,0.010228426477900057,0.00723214094724619,16.791184357922486,0.011985142296875436,0.013742516881653241
385,0.25,0.001,0.010172181330019176,0.007147474506060884,16.950455636689156,0.012098826293140012,0.012108255576874529
386,0.25,0.001,0.010288894778550273,0.007328464790727153,16.590250342783303,0.011841720444527698,0.010875404945441655
387,0.25,0.001,0.010194693278107379,0.0071922353835720005,16.82577449143535,0.012009831899668344,0.01005747668179018
388,0.25,0.001,0.010176264370481173,0.0071787369729141995,16.798143907026812,0.011990109855122635,0.012547471161399568
389,0.25,0.001,0.010176424209893955,0.007219645472224614,16.569789231425585,0.011827115796877648,0.012120143310832126
390,0.25,0.001,0.010048972339265876,0.00717143514052485,16.12571855024858,0.01151014885813603,0.00994721008464694
391,0.25,0.001,0.01026289075650651,0.007241705159722555,16.930723286638358,0.012084741817729021,0.016690570062824657
392,0.25,0.001,0.01026727847115259,0.007239529289154693,16.967505715110086,0.01211099622777308,0.017639312893152237
393,0.25,0.001,0.01026268745537358,0.0073209196150378145,16.485667874114682,0.011767072001509409,0.01249397692403623
394,0.25,0.001,0.010306256268211085,0.0073009118663542195,16.8419496940844,0.012021377369082369,0.012151970727635282
395,0.25,0.001,0.010209058392604794,0.0071715706808850015,17.02208166411429,0.012149951223493426,0.012073047193033355
396,0.25,0.001,0.010320731608027761,0.007390900289244724,16.418775317644833,0.011719325708525933,0.014928878684129034
397,0.25,0.001,0.010128285735845566,0.007093681408224081,17.005923300078422,0.012138417773075248,0.014183450157621078
398,0.25,0.001,0.010196568143337664,0.007221488451415842,16.67234760823876,0.011900319491961998,0.013867119726325785
399,0.25,0.001,0.010121565801326674,0.007170758868633497,16.53632135102243,0.011803227231279393,0.012299621078584875
400,0.25,0.001,0.010212983522150252,0.007262382548151895,16.53516827207623,0.011802404191346346,0.013345995851393257
401,0.25,0.001,0.01020026251184519,0.007162696879469987,17.022518235023576,0.012150262837275928,0.01091103914326855
402,0.25,0.001,0.01022615163314222,0.0071245664824741055,17.38128294125952,0.01240634042916454,0.011506996982331787
403,0.25,0.001,0.010146059180525217,0.007222134920984807,16.385671827528213,0.011695697235923064,0.012911643300737654
404,0.25,0.001,0.010206089383273415,0.007214305193323379,16.7659578419695,0.011967136218393647,0.014916522561439447
405,0.25,0.001,0.010163557593419094,0.007292844990099018,16.087474495473533,0.01148285117449931,0.013214568075324808
406,0.25,0.001,0.010059345090253786,0.007082549027270741,16.681965683445785,0.011907184642002702,0.013926295164440359
407,0.25,0.001,0.010192687896014465,0.007142814360747133,17.09149239280007,0.012199494927052155,0.015436116007289715
408,0.25,0.001,0.010202097762940508,0.007200089085734252,16.823256637110855,0.012008034715996327,0.01359917170235089
409,0.25,0.001,0.010197683472675507,0.007252651868820793,16.503957276392466,0.01178012653561204,0.01201027212664485
410,0.25,0.001,0.010202646424824541,0.007154176745450858,17.0836238861084,0.012193878576808278,0.012667816132307053
411,0.25,0.001,0.010137208078922046,0.007145776098236592,16.76398489210341,0.01196572797437788,0.012467577255197934
412,0.25,0.001,0.010192200974232018,0.007298589684069157,16.215797983034694,0.011574445384036184,0.014430942878659283
413,0.25,0.001,0.01021418860652531,0.00732005817928549,16.21870707502269,0.011576521823713553,0.012182915051068579
414,0.25,0.001,0.010180728434763774,0.007166128643233367,16.893818171337397,0.01205839983678615,0.014990969827132565
415,0.25,0.001,0.010161536350620516,0.007229516875337471,16.43103616887873,0.011728077208335996,0.017822035255708864
416,0.25,0.001,0.010239953711403139,0.007303673077863876,16.45491513338956,0.011745121437108893,0.015369274254356111
417,0.25,0.001,0.010214235163246743,0.007148153967026508,17.18231833101523,0.012264324290517653,0.015334917897624629
418,0.25,0.001,0.010186064781414138,0.007180989738741908,16.8404413666388,0.012020300761341042,0.011750364410025733
419,0.25,0.001,0.010176425564544971,0.007263181401849395,16.325820229270242,0.011652976609043714,0.013558376181338514
420,0.25,0.001,0.010221266996755142,0.0072624719692300065,16.58108714132598,0.011835179972395417,0.018112261779606342
421,0.25,0.001,0.010188777385411239,0.007209626144042822,16.69516301395917,0.011916604578129316,0.016936144791543484
422,0.25,0.001,0.010067714293572035,0.00712430796049761,16.49484898345639,0.011773625255857522,0.013458269648253918
423,0.25,0.001,0.010115412675371074,0.007248694500462575,16.06508899457527,0.01146687294402232,0.01294934589947973
424,0.25,0.001,0.010158987678211145,0.007202916548145239,16.56582215819696,0.011824284195715174,0.01575722558689969
425,0.25,0.001,0.010170402786120622,0.007147227056474999,16.94187666189791,0.012092702827907146,0.017825824208557606
426,0.25,0.001,0.010239925226102573,0.007283317880008859,16.568827561657837,0.011826429380198313,0.020181046798825264
427,0.25,0.001,0.010133401500155228,0.007211607984370655,16.373729802141288,0.011687173306310698,0.01426818421376603
428,0.25,0.001,0.010185756974599579,0.007262427632631075,16.382338109642568,0.011693317708524317,0.021446995038006986
429,0.25,0.001,0.010111102458051961,0.007128171679196936,16.71634390859893,0.011931722989720863,0.012281698041728564
430,0.25,0.001,0.01017324353634107,0.007239316463131796,16.44172757081311,0.011735708473100008,0.012211662850209646
431,0.25,0.001,0.010119220260718856,0.007168464165068034,16.5360370982777,0.011803024338527979,0.01213699419583593
432,0.25,0.001,0.010085488961200522,0.007199303637437447,16.174182082667496,0.011544740958363666,0.010120356388922249
433,0.25,0.001,0.010115878035624823,0.007199564167872222,16.343023068977125,0.011665255580997234,0.012161065957375936
434,0.25,0.001,0.010020391611062517,0.007132165195100537,16.185621492790453,0.011552906133326518,0.01281869611037629
435,0.25,0.001,0.010033519825700558,0.007124383223591128,16.302801517525104,0.011636546407940832,0.009500998404941388
436,0.25,0.001,0.010058796052077804,0.007130377234495951,16.410859021273527,0.01171367524716169,0.010213688481599092
437,0.25,0.001,0.010066429670486186,0.007161614296939036,16.278584875241673,0.011619261152920538,0.012559649268431323
438,0.25,0.001,0.01012210308978654,0.007176204302319975,16.508816227768406,0.011783594737878949,0.012193311138876848
439,0.25,0.001,0.010156378516870918,0.0071514699833862706,16.839508133705216,0.012019634642187877,0.014555464897836958
440,0.25,0.001,0.010162958263824082,0.007097138995022485,17.180851945973405,0.012263277620252252,0.013496440835297108
441,0.25,0.001,0.010131229467765249,0.007192418840008251,16.46909467138425,0.011755242449239294,0.011666291526385717
442,0.25,0.001,0.01015320239645062,0.007200527907998273,16.546787647285846,0.011810697821046285,0.013554074136274201
443,0.25,0.001,0.010063204707370864,0.00702083409491061,17.049444410536026,0.012169482091745914,0.014823390703116144
444,0.25,0.001,0.010161001282283153,0.00720558822098555,16.56213455970841,0.011821652076879666,0.013365124418799366
445,0.25,0.001,0.01007390757928593,0.007115992971441962,16.576152184996943,0.011831657519626655,0.011190974153578281
446,0.25,0.001,0.01011268999615703,0.007117003526990161,16.787826114230686,0.011982745263547956,0.014093439094722271
447,0.25,0.001,0.009983605780460016,0.007046033355473268,16.4621564691717,0.011750290127888436,0.015074648495231355
448,0.25,0.001,0.010095538637328028,0.0071870887539151945,16.298952719177862,0.011633799228535233,0.014596340246498585
449,0.25,0.001,0.010105372839278043,0.007136412510516668,16.638053662849195,0.011875841301105779,0.020452902519277165
450,0.25,0.001,0.010138009307962475,0.007235666012598408,16.26473255350132,0.011609373699858188,0.018200531069721495
451,0.25,0.001,0.01013561189550944,0.007065487936176736,17.204975031843087,0.012280496096961519,0.013030394645673888
452,0.25,0.001,0.010066496471714492,0.007078176242007752,16.746547120990176,0.011953281314054372,0.011889933674995388
453,0.25,0.001,0.010009300622223603,0.007072219545153355,16.459402074717513,0.011748324107578525,0.010839978366025857
454,0.25,0.001,0.010044601360204243,0.007126730288181341,16.351750402739555,0.011671484941284479,0.01528020282941205
455,0.25,0.001,0.010119241953949736,0.007133629267113377,16.73137302591343,0.011942450411073113,0.019143221633774892
456,0.25,0.001,0.010147245412673613,0.007206355517899448,16.480747454094164,0.01176355992440697,0.016070644637303694
457,0.25,0.001,0.010068113981473326,0.0072072316243341475,16.032384448581272,0.011443529228109402,0.012900867366365023
458,0.25,0.001,0.01000649318324797,0.007054452624435377,16.54323663615217,0.011808163194969428,0.013230058497616224
459,0.25,0.001,0.010092334539601297,0.0071441416741546354,16.521671641956676,0.011792770622381639,0.012233702865030085
460,0.25,0.001,0.010035961283126263,0.007028181693808298,16.855596561624548,0.012031118173893325,0.013030658609100751
461,0.25,0.001,0.010042370212349024,0.007158314846832343,16.162246867863818,0.011536221889981312,0.0119377867584782
462,0.25,0.001,0.010105432387479026,0.0071458619210229375,16.58543334344421,0.011838282186612568,0.012505255373460906
463,0.25,0.001,0.010099833022163373,0.007171301105332495,16.41149181789822,0.011714126922125782,0.013895475372139896
464,0.25,0.001,0.010114498634004232,0.007072918869630255,17.04501356259741,0.012166319459384305,0.011041744612157345
465,0.25,0.001,0.010036399437472074,0.007077228263810728,16.583194973492862,0.011836684492143371,0.009192758705466986
466,0.25,0.001,0.009994457344138863,0.007123690775849603,16.08777479691939,0.011483065522426403,0.010810042931033033
467,0.25,0.001,0.010007466500004133,0.007092201263841354,16.337145603064336,0.011661060387626222,0.012037992477416992
468,0.25,0.001,0.01005086660234615,0.0071013598006707855,16.529037417787492,0.011798028135465733,0.010250447317957878
469,0.25,0.001,0.010029119147796823,0.007096986526228262,16.4316718168933,0.01172853091855339,0.011977232859602996
470,0.25,0.001,0.009957110001282259,0.00703059190489126,16.40020830944331,0.011706073026012356,0.009333752494837557
471,0.25,0.001,0.009918606529633204,0.007067076687823341,15.979973841195156,0.011406119800995828,0.008580161125532218
472,0.25,0.001,0.010054498845052839,0.007114173637496101,16.477581255363695,0.011761299968139682,0.009219055662729911
473,0.25,0.001,0.010053433176845011,0.00709773956638093,16.563705983788076,0.011822773721476143,0.012122498226485081
474,0.25,0.001,0.010063492928189461,0.007071831588153586,16.765270079025115,0.011966645309796655,0.018189822789281607
475,0.25,0.001,0.009972255253656344,0.007023568702579448,16.524439898404207,0.01179474653704797,0.013313972191619021
476,0.25,0.001,0.010017856861455272,0.007113896818323569,16.273792074184225,0.01161584016715505,0.01510413656277316
477,0.25,0.001,0.010066486659901912,0.007107631087002128,16.58142538744994,0.011835421404318302,0.015242314631385463
478,0.25,0.001,0.010057636517843213,0.007119689588293884,16.464255101753004,0.01175178808119415,0.0168786651587912
479,0.25,0.001,0.010078124128131553,0.007097082983965826,16.705754607614846,0.011924164602151925,0.016058331621544703
480,0.25,0.001,0.010083429759951553,0.007188235503630807,16.22466883033213,0.011580777180822363,0.014754969094480788
481,0.25,0.001,0.009968722568392152,0.0070488279393751815,16.36309051513672,0.011679579239926281,0.014723924121686391
482,0.25,0.001,0.010056330634262225,0.007105628296620015,16.535736103250525,0.011802809495539275,0.017113013991287777
483,0.25,0.001,0.010082653977654198,0.007160999426486517,16.372951969955906,0.01168661810846246,0.013949049503675528
484,0.25,0.001,0.010099579937605544,0.0070846187929161876,16.895842311358212,0.012059844619099366,0.012434446785066808
485,0.25,0.001,0.010057856817964953,0.007159009655805851,16.24514053807114,0.011595389391913733,0.012395012525043317
486,0.25,0.001,0.010067042085633736,0.007034199317032942,16.99605172089856,0.012131371678014676,0.012306335382163525
487,0.25,0.001,0.010022222102064677,0.0070805155690947565,16.485322220156892,0.011766825282053457,0.01047709963417479
488,0.25,0.001,0.010096979393350958,0.007101582165694598,16.786205503675674,0.01198158851083203,0.010875294716762645
489,0.25,0.001,0.010158171839635782,0.007121572054621547,17.017104794280698,0.0121463988538763,0.011223981289991311
490,0.25,0.001,0.010107021534232178,0.007166697328552754,16.47757707460962,0.011761296984018286,0.01917706842401198
491,0.25,0.001,0.01001817069834832,0.007045461598670844,16.659062125466086,0.011890836634879434,0.014237595722079277
492,0.25,0.001,0.010047655364479682,0.007127155629786277,16.3664792186082,0.011681998014709637,0.013260995436991965
493,0.25,0.001,0.009951384192464328,0.007035390121128523,16.34123112456967,0.011663976534310972,0.010323384909757547
494,0.25,0.001,0.010000872557437179,0.007001493944588936,16.808518419362077,0.011997514931735958,0.013080358771341187
495,0.25,0.001,0.01005594955399783,0.007094542053763313,16.595728325121332,0.011845630496160836,0.016571856436452696
496,0.25,0.001,0.010015722260706954,0.007122346143605131,16.214479157418914,0.011573504038129132,0.013698626110064132
497,0.25,0.001,0.010066691851901888,0.0070821965687127425,16.72511129668265,0.011937980939816309,0.016451232534434115
498,0.25,0.001,0.010092340334497317,0.007044989248794137,17.077356434831717,0.01218940502129316,0.01963959394821099
499,0.25,0.001,0.01011321862990206,0.0071575249959197305,16.56370706269235,0.011822774491571986,0.016443510938967978
500,0.25,0.001,0.010059705587348552,0.007125995930923958,16.44050995027176,0.011734839364933448,0.015915427223912308
