epoch,beta,learning_rate,train_loss,train_reconstruction_loss,train_kl_unnormalized,train_kl_normalized,mean_unclipped_gradient_norm
1,0.0,0.001,0.06276784717785155,0.06276784717785155,205.01014948494827,0.14633129870445988,0.07496553962118924
2,0.02,0.001,0.05494263675456812,0.049527546665965254,379.32701062552536,0.2707544686834585,0.08040635893121362
3,0.04,0.001,0.047224360239153676,0.04434464323306889,100.86207316595794,0.07199291446535185,0.05903339013457298
4,0.06,0.001,0.04174722080366521,0.03866795203668156,71.90093978044855,0.05132115616020596,0.05294289952144027
5,0.08,0.001,0.03943007973804755,0.03627722065911514,55.214453331025844,0.039410744704515235,0.04394659772515297
6,0.1,0.001,0.036132217852500925,0.033307655262544686,39.57211108952132,0.028245618193805368,0.026159276952967048
7,0.12,0.001,0.03264836940269933,0.029749396591121136,33.84550931584483,0.02415810800559945,0.031566841527819633
8,0.14,0.001,0.030442642731757105,0.026715910612342228,37.29394288203887,0.02661951668953524,0.047694935696199536
9,0.16,0.001,0.02912542808659469,0.0254569357960536,32.122236211591634,0.022928077238823435,0.02985406294465065
10,0.18,0.001,0.028264991876193742,0.024907773698558285,26.130348970115435,0.018651212683879682,0.052450588438659906
11,0.2,0.001,0.027886498302912913,0.024433933324200192,24.185217048548445,0.01726282444578761,0.05580303049646318
12,0.22,0.001,0.027116598632139496,0.023776967267069637,21.26737875475662,0.015180141866350192,0.033464354113675654
13,0.24,0.001,0.026975260536630446,0.023513899078663393,20.205700009181026,0.014422341191421146,0.03193913830909878
14,0.25,0.001,0.026892517013514597,0.02337919673902073,19.68864597851717,0.014053280498584703,0.05923215264920145
15,0.25,0.001,0.026563135278312968,0.0231260652280558,19.2613415134607,0.01374828088041449,0.06975926784798503
16,0.25,0.001,0.026456078915279124,0.02308372694228772,18.89865864781891,0.013489406600870028,0.08702341443859041
17,0.25,0.001,0.025445906099576487,0.02212686720402432,18.59989286173245,0.013276154790672698,0.05020432220771909
18,0.25,0.001,0.02460754797931462,0.021084226565710604,19.744694488461008,0.014093286572777306,0.0494576096534729
19,0.25,0.001,0.022907544886261098,0.019376954562836307,19.785430811628512,0.014122363177465033,0.03688933257944882
20,0.25,0.001,0.021620593242001433,0.0179466366579261,20.588852918600733,0.014695826494361693,0.030599812627770007
21,0.25,0.001,0.020428460979449094,0.016582936307863345,21.550320033785663,0.015382098525186055,0.015390184475108981
22,0.25,0.001,0.020011214146445574,0.016556115514492688,19.36237288527348,0.013820394636169507,0.0304818112635985
23,0.25,0.001,0.01977415977808242,0.015909819455054992,21.655764857424966,0.015457362496377563,0.031618543551303446
24,0.25,0.001,0.019361035434631357,0.015669816224698277,20.685593287150066,0.014764877435510398,0.03642887435853481
25,0.25,0.001,0.01932925087270103,0.015646096134267526,20.640400697410357,0.014732620055253645,0.04328470746986568
26,0.0,0.001,0.014707726740793086,0.014707726740793086,28.054530807688266,0.02002464725745058,0.04047892056405544
27,0.02,0.001,0.013934189764161905,0.013042954999151864,62.431002749672416,0.04456174357578331,0.033171633491292596
28,0.04,0.001,0.014704082153328864,0.012463529877176013,78.47534292357884,0.05601380651219046,0.045619691256433725
29,0.06,0.001,0.01488693149658195,0.01226241460250777,61.28247331063959,0.04374195097119171,0.03252105449791998
30,0.08,0.001,0.015127409115936685,0.012830042213453019,40.23263939322299,0.028717087361329757,0.02864792919717729
31,0.1,0.001,0.015392694975945014,0.013037310756019903,32.99893391283253,0.0235538429070896,0.018160213949158788
32,0.12,0.001,0.015788206838480028,0.012880493234450053,33.947558326560234,0.02423094812745199,0.014936736261006445
33,0.14,0.001,0.016107595175944803,0.012925540607909864,31.843275078238314,0.022728961511947404,0.017343719373457134
34,0.16,0.001,0.016420522893342792,0.013188018884022528,28.30461658204155,0.02020315244970846,0.021955088479444385
35,0.18,0.001,0.016729529239708864,0.013160916119971104,27.77570382452212,0.0198256272837417,0.030531072174198925
36,0.2,0.001,0.017018108294671597,0.013398700024351038,25.353956262773604,0.018097042300338047,0.034404209116473794
37,0.22,0.001,0.017079412497045622,0.013309876442364248,24.005089449983107,0.01713425371162249,0.020964560273569077
38,0.24,0.001,0.017313745753045826,0.013532181466902106,22.074882555611527,0.0157565185978669,0.01931548654101789
39,0.25,0.001,0.017541059532560375,0.013595080282146167,22.113267142058426,0.015783916589620577,0.03373162588104606
40,0.25,0.001,0.01722043065770769,0.013404379858152021,21.385146281890226,0.015264201486003015,0.017865532427094877
41,0.25,0.001,0.017324603693206098,0.013636715069633244,20.666926774294566,0.014751553728975422,0.03464156622067094
42,0.25,0.001,0.017366081405478188,0.013678726767688864,20.66393534342448,0.014749418517790493,0.044799961033277214
43,0.25,0.001,0.017346630611688778,0.013520069514648824,21.444049352332005,0.015306245076610995,0.028851434122771025
44,0.25,0.001,0.01718091061692449,0.013326330279404856,21.60106854499141,0.01541832158814519,0.01928953325841576
45,0.25,0.001,0.016940828074822948,0.01327125402363921,20.564293028433113,0.014678296237282736,0.02738118509296328
46,0.25,0.001,0.016809696968220458,0.0131105438684298,20.730056344205316,0.014796614092937413,0.018058614630717784
47,0.25,0.001,0.016714657841541095,0.01317390986572841,19.842352669953293,0.01416299262666188,0.01466841105138883
48,0.25,0.001,0.016688304587821418,0.013063822794344104,20.31159601332266,0.014497927204370207,0.01717544178245589
49,0.25,0.001,0.01655102259467674,0.012784211346211565,21.10920881923241,0.015067243982321493,0.023623633198440075
50,0.25,0.001,0.01647310029668144,0.012889906563619269,20.08022014601824,0.014332776692375619,0.013688479783013463
51,0.0,0.001,0.012126576894194769,0.012126576894194769,27.470586446770135,0.019607841860649632,0.02967059682123363
52,0.02,0.001,0.011627340783612638,0.010770930641405442,59.99153755284563,0.0428205121719098,0.02169544214848429
53,0.04,0.001,0.012486582350787482,0.010402479934022773,72.99569373794749,0.05210256512344574,0.02129749208688736
54,0.06,0.001,0.012770694739456419,0.010499203840922957,53.03931346523108,0.03785818234491869,0.016940078581683338
55,0.08,0.001,0.012955576291441414,0.011007778362257067,34.110813108677604,0.024347475452303785,0.01020842487923801
56,0.1,0.001,0.013366919741788996,0.01129693802807653,29.000443285527613,0.020699816763403007,0.018318428192287683
57,0.12,0.001,0.013865015889962012,0.011268698111302239,30.31201022184348,0.02163598160017379,0.017814593156799674
58,0.14,0.001,0.014180176588804914,0.011310670866713494,28.71555634993541,0.02049647134185254,0.016374535276554525
59,0.16,0.001,0.014461406255101604,0.011525482964949518,25.707681559309176,0.01834952288316144,0.015490252349991351
60,0.18,0.001,0.01477594400917176,0.011602936839126837,24.696572404370528,0.017627817562006088,0.013970097817946225
61,0.2,0.001,0.015044416965060094,0.01174203620807028,23.13317634485945,0.01651190317263344,0.013180696172639728
62,0.22,0.001,0.015310391229636308,0.011859600333976343,21.975262283775876,0.01568541205123189,0.01583477307576686
63,0.24,0.001,0.015673909933632435,0.012103653642572935,20.84137327459794,0.0148760694322612,0.01581743569113314
64,0.25,0.001,0.015585286550632509,0.012040489093883883,19.865044646122286,0.014179189611793208,0.017874162876978517
65,0.25,0.001,0.015515329638488182,0.011991571658585646,19.747140618819223,0.01409503256161258,0.021049187518656254
66,0.25,0.001,0.015603843832757905,0.012060564978024628,19.85653557757285,0.014173116043949214,0.015079930541105568
67,0.25,0.001,0.015615296428276517,0.011975212356680807,20.399032673252282,0.014560337382763942,0.020036092726513743
68,0.25,0.001,0.015681890703989232,0.01226587538933578,19.143351285266473,0.013664062302117396,0.018174877972342074
69,0.25,0.001,0.01526500110589125,0.011748924513469266,19.704093273178938,0.014064306404838642,0.01361299108248204
70,0.25,0.001,0.015285139958441007,0.011926386328531971,18.8224552573031,0.013435014459174234,0.01340759196318686
71,0.25,0.001,0.015114905218346209,0.011747753852781867,18.869517314283154,0.013468606220045079,0.01570403587538749
72,0.25,0.001,0.015257256915046194,0.011822752599537623,19.246962438655807,0.013738017443722918,0.01717789424583316
73,0.25,0.001,0.015108560993953093,0.011695700862645349,19.125669334508196,0.013651441352254243,0.01747512712609023
74,0.25,0.001,0.015034992758671945,0.011757893047692404,18.36486850207365,0.01310840007285771,0.012862030940596014
75,0.25,0.001,0.015119942494585543,0.01178070481174983,18.713088667342433,0.013356951225797596,0.021631240961141884
76,0.0,0.001,0.01105744110711139,0.01105744110711139,24.031013456577995,0.01715275764209707,0.021077021840028465
77,0.02,0.001,0.010721704034519849,0.010024226125219703,48.85833984890065,0.03487390424618176,0.012774337083101273
78,0.04,0.001,0.011454364579595342,0.009696045780420806,61.58511103054642,0.0439579664743372,0.015663165948353708
79,0.06,0.001,0.011679794662926771,0.009741901934838496,45.249794408741884,0.03229821156940891,0.010973066673614085
80,0.08,0.001,0.011889332752156107,0.010194622636438673,29.678606443767308,0.02118387326464476,0.0134028650354594
81,0.1,0.001,0.012195151971205126,0.010303813814802512,26.497649196834,0.018913382724364027,0.009951324725989252
82,0.12,0.001,0.012637219466426201,0.010282439297607427,27.492059425965643,0.019623168755150352,0.0110066604684107
83,0.14,0.001,0.012912653614511469,0.010377820148938316,25.366441952025337,0.018105954284100882,0.009952573745977134
84,0.16,0.001,0.013232751604059578,0.010506754285235445,23.869514738960106,0.017037483753718847,0.009169671742711216
85,0.18,0.001,0.013649281633051135,0.010734643201630579,22.685601874242856,0.016192435313520954,0.013557612895965576
86,0.2,0.001,0.01387295119841642,0.010768918010095755,21.7437530388812,0.01552016633753119,0.016475290642119944
87,0.22,0.001,0.014232261067075569,0.01095844632336862,20.848247930470396,0.014880976395767593,0.014130027848295867
88,0.24,0.001,0.014511770274065718,0.011150695969063772,19.620271497637912,0.014004476443710143,0.019631906179711223
89,0.25,0.001,0.014636851391334573,0.011118769995428088,19.715328433845617,0.01407232579146725,0.028916383627802134
90,0.25,0.001,0.014667867368503713,0.011254348293072564,19.129360657704026,0.01365407612969595,0.022358163143508136
91,0.25,0.001,0.014502177737999063,0.011208504312652072,18.457746151630385,0.013174693898380004,0.01830846699886024
92,0.25,0.001,0.014459424274914626,0.011048424320947771,19.115244410712005,0.01364400029315632,0.022170733427628875
93,0.25,0.001,0.014431453655760752,0.011142488620106429,18.43136025279886,0.01315586028037035,0.014163847314193845
94,0.25,0.001,0.014340384969417053,0.011081055918794895,18.265281572623596,0.01303731732521313,0.010763753671199083
95,0.25,0.001,0.014415964547088881,0.010998795689221174,19.149814541329814,0.01366867561836532,0.014030577207449824
96,0.25,0.001,0.014345663454273582,0.011072228929884574,18.34432616414903,0.013093737447643848,0.012476227479055524
97,0.25,0.001,0.01438029930152722,0.010990458383433176,18.9966685782002,0.013559363724625411,0.012849235208705068
98,0.25,0.001,0.01437481702600099,0.011119102626913208,18.245023679129684,0.01302285772957151,0.013261666870675981
99,0.25,0.001,0.014332113724657754,0.011023116899253447,18.54361765092938,0.013235986902876074,0.011170043610036373
100,0.25,0.001,0.014162188305476294,0.01093246355920024,18.099379141119464,0.012918900172105256,0.014001611387357116
101,0.25,0.001,0.01420835933730572,0.010987380700272347,18.050365327279778,0.012883915294275359,0.015633239992894232
102,0.25,0.001,0.014228184161244063,0.011007643894209891,18.047906827323043,0.012882160476319088,0.013729394820984453
103,0.25,0.001,0.01422373342174518,0.010973367175943992,18.215053212290574,0.013001465533397982,0.018922397634014487
104,0.25,0.001,0.01419969945988826,0.01097829933062133,18.052726206397207,0.012885600432831696,0.01233349775429815
105,0.25,0.001,0.014137753037900864,0.010909170093101288,18.092978883896198,0.012914331822909492,0.014289671322330832
106,0.25,0.001,0.01413750193840215,0.010890651710394314,18.195347379531537,0.012987399985390105,0.0125885175075382
107,0.25,0.001,0.014065518063583455,0.010846490838136602,18.039428155633466,0.01287610860502032,0.016513403854332864
108,0.25,0.001,0.014097935296123541,0.010940296485045539,17.69540795595837,0.01263055528619441,0.017136223847046494
109,0.25,0.001,0.014109704808532438,0.010926253956109914,17.840059111389934,0.012733803791141994,0.014241789933294058
110,0.25,0.001,0.01410311998461495,0.010924281933608187,17.814209040710193,0.012715352634339894,0.026008496875874698
111,0.25,0.001,0.014072639989481947,0.010916697651242153,17.685900539285523,0.012623769121545699,0.01985685434192419
112,0.25,0.001,0.014014294547842273,0.010721551270110194,18.452534301371514,0.013170973805404364,0.010958188737276942
113,0.25,0.001,0.014029432508607203,0.010850426465870207,17.815150699535,0.012716024767690935,0.011494896840304136
114,0.25,0.001,0.014014215475804946,0.010843066518285356,17.771119483915562,0.012684596348262358,0.014115961792413145
115,0.25,0.001,0.01392680401068951,0.010717892425944281,17.98274123920167,0.012835646851678565,0.010736917785834521
116,0.25,0.001,0.013991949792935627,0.010729851763113894,18.28079766865018,0.013048392340221399,0.014001234201714396
117,0.25,0.001,0.013971029140275239,0.010827482917703657,17.616433381028315,0.012574185139920282,0.014305961900390685
118,0.25,0.001,0.013997263357609133,0.010798049092544282,17.928397520684996,0.012796857616477513,0.013045938685536385
119,0.25,0.001,0.013905060945180901,0.01076938847732192,17.572309188198943,0.012542690355602387,0.016164080938324332
120,0.25,0.001,0.01384605504258021,0.010626970641000613,18.039748445341857,0.012876337220086978,0.010430262773297727
121,0.25,0.001,0.013887303130787636,0.010671784625809153,18.019765161763768,0.012862073634378135,0.01479364128317684
122,0.25,0.001,0.013795906296667921,0.010651499563474444,17.6212563896984,0.012577627687150891,0.014391007833182812
123,0.25,0.001,0.01382133951764318,0.010627570530627599,17.897881503849593,0.012775076019878368,0.014820328447967768
124,0.25,0.001,0.013795421160128801,0.010596787918531945,17.925140517673412,0.012794532846305077,0.013053323258645833
125,0.25,0.001,0.013911273495494566,0.010768864138782778,17.610061790369734,0.012569637252226791,0.016270512831397355
126,0.25,0.001,0.013773410797182015,0.010506879440056875,18.305640635108144,0.013066124650327013,0.01669803005643189
127,0.25,0.001,0.013801557440232124,0.010598516182085885,17.949843845286953,0.012812165485572414,0.01447541720699519
128,0.25,0.001,0.013947165355023453,0.010792184059158407,17.680514709858954,0.012619924846437511,0.015033804811537266
129,0.25,0.001,0.01378401167659317,0.01064331751741186,17.600450596225915,0.012562777013722994,0.016018142690882087
130,0.25,0.001,0.013798294050563991,0.010639499377789376,17.70188665591212,0.012635179625918714,0.019594177487306297
131,0.25,0.001,0.013753655806718244,0.01065154938726737,17.38420480816676,0.012408425987271064,0.016473730851430446
132,0.25,0.001,0.013651122908866355,0.01046811005705771,17.83760438589104,0.01273205166730267,0.016019751550629735
133,0.25,0.001,0.013675057305659674,0.01052499747980496,17.652936026013855,0.012600239847261852,0.010161622485611588
134,0.25,0.001,0.013717386961957826,0.010532691406738405,17.847035468379154,0.01273878334645193,0.014153544558212161
135,0.25,0.001,0.013632607579482758,0.010461903460135188,17.76862601590056,0.012682816570949721,0.013861470681149513
136,0.25,0.001,0.013645825805417596,0.010463551535636564,17.8334656164113,0.01272909751349843,0.012397029669955373
137,0.25,0.001,0.013634706081091604,0.010516059820693506,17.47689346120327,0.012474584911636883,0.013446489931084216
138,0.25,0.001,0.013633690074966426,0.010479110524938579,17.678264376483387,0.01261831861276473,0.011755453888326883
139,0.25,0.001,0.013707481183205979,0.010547239746002458,17.70999132631197,0.012640964544119894,0.012177360709756613
140,0.25,0.001,0.013672763238099054,0.01045771057517091,18.017155884690425,0.012860211195353622,0.013947002589702606
141,0.25,0.001,0.013632574016503392,0.010532162199386312,17.374707362822843,0.012401646939916376,0.014595659100450575
142,0.25,0.001,0.013625844142042131,0.010356472325727407,18.321560839560465,0.013077488108180204,0.015758170979097486
143,0.25,0.001,0.013626597468045693,0.010476418672608926,17.653600982472867,0.012600714477139804,0.013031923968810588
144,0.25,0.001,0.013616755455417975,0.01045889226240322,17.696665792022575,0.01263145309923096,0.014475444564595819
145,0.25,0.001,0.013575588557319048,0.01034979300990009,18.07735831828057,0.012903182240028958,0.015581233543343842
146,0.25,0.001,0.01361300245336088,0.010447935633487088,17.737033739371643,0.012660266766146783,0.013582885847426951
147,0.25,0.001,0.013529246311461875,0.010419507707441657,17.426975491680675,0.012438954669293845,0.012919016182422638
148,0.25,0.001,0.013578050663765473,0.01044307900239018,17.568380645558804,0.0125398862566444,0.015103349229320884
149,0.25,0.001,0.013551182168602693,0.010374455795257906,17.80237527839242,0.012706905980294376,0.012633416161406785
150,0.25,0.001,0.013597176076239172,0.010479721951962524,17.47021331465194,0.012469816784191248,0.012626868323422968
151,0.25,0.001,0.013500712340391135,0.010353240239500749,17.63843374614474,0.012589888469767838,0.010980605729855597
152,0.25,0.001,0.013517979909724828,0.01034494974740824,17.781660876696623,0.012692120540111793,0.012161203776486218
153,0.25,0.001,0.013466392773427541,0.010339448986897237,17.52339262499588,0.012507774892930677,0.015209956909529865
154,0.25,0.001,0.013455286028673125,0.010315919581816418,17.593009087606823,0.01255746544440173,0.012879179557785392
155,0.25,0.001,0.013461836472247975,0.01029310672532154,17.757562307365838,0.012674919562716516,0.011209219868760556
156,0.25,0.001,0.013439362212418253,0.010322073580626446,17.469285321135057,0.012469154404807321,0.015395132708363235
157,0.25,0.001,0.013352679351997023,0.01019965340913851,17.669557466788635,0.01261210383068425,0.009705233271233737
158,0.25,0.001,0.013457840080628416,0.010358361523394092,17.369478628102232,0.012397914795219294,0.010728872497566044
159,0.25,0.001,0.013425551142685021,0.010209841956286238,18.020834315175247,0.012862836770289255,0.012093261815607548
160,0.25,0.001,0.013399560648932236,0.010317036874183623,17.274463066068883,0.012330094979349667,0.01430699130287394
161,0.25,0.001,0.01347596213252987,0.010406363221034722,17.2020326606332,0.012278395903378444,0.01707706367596984
162,0.25,0.001,0.01347911566936014,0.01030114420418498,17.809352029727982,0.012711885817079216,0.01613549725152552
163,0.25,0.001,0.013477458559636828,0.010433804448143843,17.056637502420802,0.012174616347195433,0.015277436119504273
164,0.25,0.001,0.013445467975006325,0.01035063941314628,17.343419352664224,0.01237931431310794,0.02015982777811587
165,0.25,0.001,0.013500547657410303,0.010329247432670512,17.771966918108333,0.012685201226344279,0.01723102410323918
166,0.25,0.001,0.013418608734124824,0.010313833053793586,17.399162590252196,0.012419102491257814,0.011686977930366993
167,0.25,0.001,0.013478214345589469,0.010307414252861139,17.76916433084866,0.01268320080717249,0.01574272190919146
168,0.25,0.001,0.013470238954897672,0.010338982826546777,17.54755927138188,0.012525024462085567,0.01465426932554692
169,0.25,0.001,0.013450742777798497,0.010280446455920045,17.76634012697115,0.012681184958580408,0.013329382054507732
170,0.25,0.001,0.013353107512814585,0.010197222602203928,17.685579645985793,0.012623540075650102,0.016372615296859294
171,0.25,0.001,0.01327123061482665,0.010171757936320476,17.36944608245721,0.012397891564923061,0.01436383358668536
172,0.25,0.001,0.013351372737861886,0.010236706443225281,17.45458920796712,0.012458664673780958,0.014445037173572928
173,0.25,0.001,0.013374860017297137,0.010195302993122032,17.818238632588447,0.012718228859806172,0.013144520460627973
174,0.25,0.001,0.013361154179155576,0.010212978316698899,17.642377829249902,0.012592703661134835,0.010495254071429372
175,0.25,0.001,0.013299753508267271,0.010163056338009452,17.578051031893317,0.012546788745105866,0.013612116628792137
176,0.25,0.001,0.013356088688164824,0.010220953734898114,17.56929738813312,0.012540540605376958,0.011526459245942533
177,0.25,0.001,0.013402905617742347,0.01025481477678451,17.641900895517082,0.012592363237342672,0.013545194524340332
178,0.25,0.001,0.013320083914615434,0.010138777198607911,17.828042959865137,0.012725226952080754,0.016819397336803377
179,0.25,0.001,0.013343678362950494,0.010224793601451041,17.47823043211603,0.01247553920921915,0.01970598753541708
180,0.25,0.001,0.013329132012079787,0.01018968700796743,17.593450312875998,0.01255778038035403,0.0169452439295128
181,0.25,0.001,0.01330294522539347,0.010094479233309438,17.980242966599604,0.012833863644967598,0.011778594402130693
182,0.25,0.001,0.013361205665182464,0.01021387523142346,17.637638727823894,0.012589321004870731,0.01569976657629013
183,0.25,0.001,0.013365123865002066,0.010199464645378197,17.740354457485022,0.012662637014621714,0.0133282431634143
184,0.25,0.001,0.013338096384823573,0.010175334584392324,17.724116675461396,0.012651046877559883,0.013354032998904586
185,0.25,0.001,0.01322503592268827,0.010127803629052036,17.356889990311636,0.012388929329273116,0.010697806894313544
186,0.25,0.001,0.013229378640557392,0.010089168682662998,17.59773607696662,0.012560839455365182,0.012724103056825697
187,0.25,0.001,0.013246482340343894,0.010153829010069873,17.331228521805777,0.012370612792152588,0.014900706592015922
188,0.25,0.001,0.01333908511144954,0.010178108762493868,17.714110998161736,0.0126439050664966,0.013441251241602004
189,0.25,0.001,0.013234962740685115,0.010062048117382616,17.781014277462216,0.012691659013177883,0.011223657173104584
190,0.25,0.001,0.013207537640782096,0.010129457127444352,17.249563378120776,0.012312322182812831,0.016108166775666177
191,0.25,0.001,0.013211510493911269,0.010157732069020785,17.113374758370316,0.01221511403167046,0.013231708901003003
192,0.25,0.001,0.013222954695737815,0.010009776164270654,18.006652268679332,0.0128527139676512,0.01252370240399614
193,0.25,0.001,0.01335371144210236,0.01020295141885678,17.656859353624817,0.012603040223857827,0.015003000036813319
194,0.25,0.001,0.013249602506746722,0.010086332962608538,17.726962624722894,0.012653078247482437,0.012042569927871227
195,0.25,0.001,0.013169698967335093,0.010054901391582147,17.455326378093993,0.012459190848032828,0.012294791522435844
196,0.25,0.001,0.01325484051247312,0.010081852750876282,17.781424622998458,0.01269195190792181,0.018426465219818056
197,0.25,0.001,0.013220814936931878,0.010159378498006723,17.156290183087442,0.012245746026472121,0.015117547125555575
198,0.25,0.001,0.013184335275321318,0.010100088903546836,17.28411759807088,0.012336986151371077,0.018399692722596228
199,0.25,0.001,0.01331080529320089,0.01016850635912348,17.609444404956157,0.01256919657741339,0.015667072380892932
200,0.25,0.001,0.01330424614942275,0.010134210079153882,17.76488256655665,0.012680144587121092,0.012246345053426921
201,0.25,0.001,0.01317323383163928,0.010008106632983382,17.737372329969446,0.012660508443946785,0.01144864788511768
202,0.25,0.001,0.013170559996668297,0.010030867339343713,17.594837317486856,0.01255877039078291,0.01745076442603022
203,0.25,0.001,0.0132547665686044,0.01013305939671108,17.49404772826891,0.012486829213610927,0.01874505146406591
204,0.25,0.001,0.013075675929303159,0.010036759774047362,17.03008615517918,0.012155664636102199,0.0124909175792709
205,0.25,0.001,0.013229491975048423,0.010057672598882567,17.774876968770087,0.012687278350299848,0.016980908229015768
206,0.25,0.001,0.013261966022195192,0.010031162635403594,18.105422788531467,0.012923213981821176,0.01891943655209616
207,0.25,0.001,0.013206051395349363,0.010114545269794604,17.32480056376397,0.012366024670780849,0.01685509644448757
208,0.25,0.001,0.013284678453037256,0.010169099906325843,17.459703075231882,0.012462314828859303,0.024953918298706412
209,0.25,0.001,0.013180901504707236,0.009957630179413764,18.063212793084638,0.012893085505413732,0.0169431169051677
210,0.25,0.001,0.013211630096163931,0.010100915733300433,17.432444101647487,0.012442858031154523,0.016794161405414343
211,0.25,0.001,0.013138427858865714,0.010003371431417605,17.56885631577375,0.012540225778567988,0.014527104329317808
212,0.25,0.001,0.013133830379081678,0.010012376597662012,17.492626986926116,0.012485815122716713,0.012048831209540367
213,0.25,0.001,0.013106939410358542,0.009963651309536478,17.614986274815813,0.012573152230418138,0.011571512965019792
214,0.25,0.001,0.013123999998162064,0.010006967755152455,17.467849216380703,0.012468129347880587,0.012873828411102295
215,0.25,0.001,0.013125303268181121,0.010034651994579452,17.32000972248834,0.012362605083860343,0.012586157186888158
216,0.25,0.001,0.013065880746089456,0.009870405623272753,17.90744268039108,0.012781900557024325,0.015603858919348568
217,0.25,0.001,0.01316450795999685,0.010104379589170343,17.148960089381738,0.012240513982428078,0.016415495774708688
218,0.25,0.001,0.013112007946813409,0.010005431131848807,17.409257518591257,0.012426308007559783,0.016597696230746806
219,0.25,0.001,0.013143500619674032,0.010007190647759016,17.575881056644747,0.012545239869125443,0.014874039217829704
220,0.25,0.001,0.013047464400184054,0.009885362141180139,17.720421159317723,0.012648409107293165,0.015106317936442792
221,0.25,0.001,0.013107313141855509,0.010078291412647263,16.97463894292775,0.012116087753695753,0.012401844724081457
222,0.25,0.001,0.013064397396794854,0.00996246938259667,17.38320459293414,0.012407712057768836,0.013228924362920225
223,0.25,0.001,0.01311733099761643,0.010017671712717427,17.370490432288577,0.0123986369966371,0.014128191862255335
224,0.25,0.001,0.0130533891010888,0.009896087872831128,17.693515713204814,0.01262920464896846,0.01704262208659202
225,0.25,0.001,0.013040142067028249,0.009885999173680438,17.67581803688017,0.012616572474575424,0.015216028899885714
226,0.25,0.001,0.013120655976393052,0.009962799534484555,17.6966271863205,0.012631425543412208,0.010422367660794407
227,0.25,0.001,0.013044697594070485,0.009888654228944315,17.68646801976715,0.012624174175422663,0.011491518351249397
228,0.25,0.001,0.013091884459121317,0.009910716070058728,17.827267691052917,0.012724673583906436,0.014291725819930434
229,0.25,0.001,0.013010293367134116,0.009888798120246909,17.492859321304515,0.012485980957390803,0.009595110546797514
230,0.25,0.001,0.013089083135128021,0.009940634469819975,17.643905985707473,0.012593794422346519,0.013430085382424295
231,0.25,0.001,0.013115575144122421,0.00996057661682493,17.68061177539423,0.012619994129474826,0.01282894250471145
232,0.25,0.001,0.013062275399921565,0.00990225863937713,17.708735244686594,0.012640067983359453,0.013466904521919787
233,0.25,0.001,0.013074802329080015,0.0099568406968743,17.4730579842998,0.01247184724075646,0.013379163341596723
234,0.25,0.001,0.013005781855890016,0.009849644148180002,17.686995437879602,0.01262455063374704,0.01592136756516993
235,0.25,0.001,0.012931366344984574,0.009846568402327314,17.28720833178814,0.012339192242532576,0.01027684542350471
236,0.25,0.001,0.012967343182786356,0.009847205132246017,17.485253684128388,0.012480552237065231,0.011107899597845972
237,0.25,0.001,0.013013747980511641,0.009882804760827294,17.5458055971041,0.012523772731694575,0.009662005584686995
238,0.25,0.001,0.012945993661974804,0.00982394694637523,17.495949676771204,0.01248818677856617,0.011246672424022108
239,0.25,0.001,0.012943527142552636,0.009782378624668856,17.715077251321656,0.012644594754690689,0.011785189271904528
240,0.25,0.001,0.012999221937974545,0.009946460132231692,17.107678441558708,0.012211048138157536,0.014407502952963114
241,0.25,0.001,0.013033136528944165,0.009904394814359488,17.533469642767926,0.012514967625102017,0.0261981007643044
242,0.25,0.001,0.013052223093084646,0.009954084606864784,17.361968784895627,0.012392554450318078,0.022774604964070022
243,0.25,0.001,0.013023809521981684,0.009949522674523828,17.228303160848498,0.012297147152639899,0.020149011397734284
244,0.25,0.001,0.012981744549917018,0.009874038871786388,17.415582914392658,0.0124308229224787,0.016938185784965754
245,0.25,0.001,0.012997085197125306,0.009929003402244944,17.19352987748158,0.012272326821899772,0.01790722890291363
246,0.25,0.001,0.013027310799728718,0.009928244016750201,17.367171066219797,0.012396267713218985,0.014483921928331256
247,0.25,0.001,0.013016990216975473,0.009881265111707685,17.572604167310498,0.012542900904575658,0.015637344564311206
248,0.25,0.001,0.012982541082214706,0.009902537662834558,17.260339165538674,0.012320013679899126,0.01629718509502709
249,0.25,0.001,0.012951244439002332,0.009833846095839382,17.46990081529577,0.012469593729690056,0.015487368800677359
250,0.25,0.001,0.012990088245285211,0.009867339839034945,17.499882903280138,0.012490994220756701,0.012904764560516924
251,0.25,0.001,0.012976969344706475,0.009839541744440794,17.582144878081632,0.012549710833748487,0.011130792321637273
252,0.25,0.001,0.01294011972404482,0.009839779100054678,17.374308405043205,0.012401362173478377,0.011118543334305286
253,0.25,0.001,0.012892243020110744,0.009778504719651198,17.449389904360228,0.012454953536302804,0.01260282046860084
254,0.25,0.001,0.012946499735588514,0.009830930619991782,17.459650096008044,0.012462277013567483,0.01310630957596004
255,0.25,0.001,0.012920907089478859,0.009767073473818442,17.674083516567567,0.012615334415822674,0.017819179105572402
256,0.25,0.001,0.012956377806511358,0.009844989327218714,17.436221006047372,0.012445553894394983,0.013044952705968171
257,0.25,0.001,0.012888751790430475,0.009731263971498495,17.694561704804627,0.012629951252537207,0.014511701941955835
258,0.25,0.001,0.01285691736541091,0.009730917943900899,17.518101969851724,0.01250399855092914,0.012618990032933652
259,0.25,0.001,0.012897216982133529,0.009856023562419767,17.042848055875755,0.01216477377293059,0.011494731879793108
260,0.25,0.001,0.012974604107596703,0.009751484458205065,18.062363290585544,0.012892479151024656,0.013367101200856268
261,0.25,0.001,0.012914562527137467,0.009806545030812925,17.41732975601647,0.012432069775886132,0.011950337677262723
262,0.25,0.001,0.012848774057651873,0.009683418681035566,17.738651847034568,0.012661421732358721,0.010132483032066375
263,0.25,0.001,0.0128251881444756,0.009749751255104813,17.23474860694338,0.012301747756562013,0.012350124306976795
264,0.25,0.001,0.012803588966339952,0.009720422056373915,17.278067399680864,0.0123326676657251,0.01255350629799068
265,0.25,0.001,0.01284982072275902,0.00972817591411152,17.493698120117188,0.012486579671746743,0.012921793560963124
266,0.25,0.001,0.012939572310711763,0.009868097513175338,17.212544260145744,0.012285898829511595,0.012725725537166
267,0.25,0.001,0.0129090389511882,0.009654409487885011,18.23894303559251,0.013018517512913996,0.013981933938339353
268,0.25,0.001,0.012843060955593857,0.009756103723864012,17.299309122914504,0.012347829495299433,0.012881350005045533
269,0.25,0.001,0.012885870702784775,0.009734976592666238,17.65760985909635,0.012603575916556996,0.013952626381069422
270,0.25,0.001,0.012773115187883377,0.009719139915981374,17.11447789799815,0.012215901426122876,0.012732681643683463
271,0.25,0.001,0.012873383042430074,0.009685364640258912,17.86565626925054,0.012752074424875474,0.016992697375826538
272,0.25,0.001,0.012895629949521918,0.009832251467250822,17.167172524496472,0.012253513579226603,0.016941221780143678
273,0.25,0.001,0.01286262864804972,0.009723855151091447,17.589687516417683,0.0125550945870219,0.01562952541280538
274,0.25,0.001,0.012924157562449511,0.009767812900716745,17.688156119881803,0.012625379100558033,0.015178833971731365
275,0.25,0.001,0.01291703768388883,0.009833627683012294,17.2794299709143,0.012333640236198644,0.015650112181901932
276,0.25,0.001,0.012849055611791742,0.009705098970687087,17.618732822595266,0.012575826425835308,0.013492734462488443
277,0.25,0.001,0.01277423954572733,0.009599338269906457,17.792146232057725,0.012699604733802801,0.015009150607511401
278,0.25,0.001,0.01288166508581568,0.009792555606912208,17.311370543789764,0.01235643864653088,0.014784651808440685
279,0.25,0.001,0.01293467888254908,0.00975316818331993,17.829186572304256,0.012726043235049432,0.015007343841716647
280,0.25,0.001,0.012899330443848035,0.009798471894476735,17.377212403695793,0.012403434977655812,0.017223277362063527
281,0.25,0.001,0.012893117873886214,0.009765760890573641,17.525709771908787,0.012509428816494495,0.014617508044466376
282,0.25,0.001,0.012852952359755079,0.009729108863553418,17.506019302561313,0.012495374234519139,0.01069221820216626
283,0.25,0.001,0.012780350660472983,0.009688434446474168,17.327098363562474,0.012367664784841166,0.011558753554709256
284,0.25,0.001,0.012825564414514268,0.00969185688010248,17.561297509237683,0.012534830484823472,0.014475508593022823
285,0.25,0.001,0.012830364580741663,0.009605184767222354,18.07390814994458,0.012900719593108192,0.01341644482454285
286,0.25,0.001,0.012780323703203523,0.009613806766925482,17.74516207859989,0.012666068578586645,0.013155867462046444
287,0.25,0.001,0.012811461400696496,0.009773513115549515,17.024662597269952,0.012151793431313312,0.011632271576672792
288,0.25,0.001,0.012833325498843496,0.009742314255313028,17.32202742371378,0.012364045270316761,0.015200210036709905
289,0.25,0.001,0.012812726077808359,0.009623753390263152,17.871003742459454,0.012755891322240866,0.012619126820936799
290,0.25,0.001,0.01284730710670792,0.009665196451048056,17.83254909917775,0.012728443325608673,0.012636237777769566
291,0.25,0.001,0.012766708466636984,0.0096336258418135,17.5577956895788,0.012532330970434546,0.012383893132209778
292,0.25,0.001,0.012770768942680791,0.009673557330693121,17.35677381105061,0.012388846403319493,0.012005922268144786
293,0.25,0.001,0.01279659902496177,0.009599682371984806,17.91552053523969,0.01278766633493197,0.014492096961475909
294,0.25,0.001,0.012817864585274886,0.009712941563424933,17.399988681455202,0.012419692135228552,0.014181835460476577
295,0.25,0.001,0.012708938130440843,0.009560990960726256,17.64109622778269,0.012591788884926973,0.013731049664784223
296,0.25,0.001,0.012766356693918695,0.009676671724467841,17.314594381469213,0.012358739744089374,0.01142141129821539
297,0.25,0.001,0.01274695265488031,0.009673292556078123,17.224792134409714,0.012294641066673601,0.011332361376844347
298,0.25,0.001,0.012819995671384948,0.009616685650048125,17.951350369030916,0.01281324080587503,0.01222282717935741
299,0.25,0.001,0.01272340646241536,0.009593020649116,17.542683436397763,0.01252154420870647,0.010078315273858607
300,0.25,0.001,0.01275389514203313,0.009654929173740908,17.36660579085853,0.012395864233303732,0.011854664888232946
301,0.25,0.001,0.012705860887398699,0.009541042777807904,17.735640658607966,0.012659272418706614,0.013172755832783878
302,0.25,0.001,0.012758556250404205,0.009654510530489909,17.395071174525008,0.012416182137419705,0.012439781217835844
303,0.25,0.001,0.012758818333221891,0.00964584093902433,17.445126263904168,0.012451910252608257,0.012330072582699358
304,0.25,0.001,0.012726022799023847,0.009585162675801963,17.60138023151124,0.012563440564961626,0.012883874063845724
305,0.25,0.001,0.012802013184262228,0.009699727054921132,17.38521207334623,0.012409144948855269,0.018020020215772092
306,0.25,0.001,0.012815993742915146,0.009625930673116621,17.87711401025957,0.012760252683982563,0.01631776080466807
307,0.25,0.001,0.012824593017561526,0.009591267994341719,18.119553690721215,0.012933300278887377,0.013460535206831992
308,0.25,0.001,0.012838511888865176,0.00972426321970511,17.452249446498694,0.012456994608493002,0.018330070073716342
309,0.25,0.001,0.012798784068836694,0.009618831660897168,17.820453812804402,0.012719810002001715,0.01697578397579491
310,0.25,0.001,0.012718705326821733,0.009656685934979705,17.159557245954684,0.012248077977126827,0.016274411347694695
311,0.25,0.001,0.012697464715736576,0.009488751687392404,17.98162775804222,0.012834852075690377,0.01086442224914208
312,0.25,0.001,0.012774479096040193,0.009670042971204102,17.39726065784567,0.012417744937791343,0.010575384134426713
313,0.25,0.001,0.012680019090887364,0.009499131886579316,17.825692615428554,0.01272354933292545,0.01086570299230516
314,0.25,0.001,0.012716304455816996,0.009586643093591753,17.538623294749843,0.012518646177551636,0.012333841994404793
315,0.25,0.001,0.01273640117093229,0.009595320827253005,17.602613923921865,0.012564321144840731,0.014677676488645375
316,0.25,0.001,0.012660816948436484,0.009515713617394242,17.62515931592209,0.012580413501728829,0.012875965447165072
317,0.25,0.001,0.012713363669215376,0.009575236514053516,17.58606484972475,0.012552508814935581,0.018324642267543823
318,0.25,0.001,0.0126960172479037,0.009553018684267117,17.613364086875432,0.012571994351802592,0.011002304730936885
319,0.25,0.001,0.012750971335367563,0.009618260968429378,17.555708623636622,0.01253084127311679,0.013023741252254695
320,0.25,0.001,0.012726902222960306,0.009542453935849264,17.84564699905331,0.012737792290544833,0.01688453066162765
321,0.25,0.001,0.012662870817295106,0.009521714706398263,17.60303906146987,0.01256462459776579,0.01216434349771589
322,0.25,0.001,0.012645940952600306,0.009513031750257257,17.556824028240477,0.012531637422013188,0.01014130626572296
323,0.25,0.001,0.01263104021973625,0.009437910237895789,17.89430019523524,0.012772519768190748,0.011431917897425592
324,0.25,0.001,0.012725250991965144,0.009614690277678303,17.431583758647935,0.012442243939077755,0.011480882880277932
325,0.25,0.001,0.012725421553674126,0.009576608556546743,17.645948683662255,0.012595252450865279,0.010878253960981965
326,0.25,0.001,0.012677182482736271,0.009539675486238696,17.582589378839806,0.012550028107665815,0.012588982237502933
327,0.25,0.001,0.012672208092383695,0.009483095977596844,17.87178404924739,0.012756448286400705,0.01208250387571752
328,0.25,0.001,0.012650515561931244,0.009522873778603499,17.527304130264476,0.012510566831023895,0.014383736997842789
329,0.25,0.001,0.012688702860462012,0.009541972218089214,17.634279613253437,0.012586923349931075,0.013126952922903001
330,0.25,0.001,0.012551190590933908,0.009441438472912282,17.42705100498119,0.012439008568865947,0.011427207617089152
331,0.25,0.001,0.01265857355346911,0.009536665899655487,17.49516998967038,0.01248763025672404,0.014688283787108958
332,0.25,0.001,0.012610546183548395,0.009493170463271784,17.469774069162362,0.01246950326135786,0.01426421815995127
333,0.25,0.001,0.01259960643632754,0.009489140213950526,17.4310521717313,0.012441864505161526,0.014445720938965678
334,0.25,0.001,0.012590397345805972,0.009489575408807786,17.3770061766548,0.012403287777769306,0.013728920719586313
335,0.25,0.001,0.012744256593915732,0.009510547331365351,18.121706507879974,0.012934836907837241,0.013210337259806693
336,0.25,0.001,0.012702535943988758,0.009579987528454905,17.498761993923267,0.012490194142700405,0.013486969051882625
337,0.25,0.001,0.012632077367276834,0.009465917893822938,17.743158895758135,0.012664638755002238,0.014280881965532899
338,0.25,0.001,0.012656536157624129,0.009494282446707351,17.72126929367645,0.012649014485136651,0.014589399681426585
339,0.25,0.001,0.012596024994105729,0.009487725507452267,17.41891105265557,0.012433198467277352,0.011740119953174144
340,0.25,0.001,0.012580731553556044,0.009429957470090329,17.656938013648183,0.012603096369484784,0.014062192756682634
341,0.25,0.001,0.012560327262283628,0.009466736557803073,17.336482060106494,0.012374362641046749,0.014285949349869043
342,0.25,0.001,0.012700010594059143,0.009527828406841191,17.776909083756717,0.012688728824951262,0.01326714945025742
343,0.25,0.001,0.012643931979777189,0.009453792407920089,17.877543051031573,0.01276055892293474,0.01319410849828273
344,0.25,0.001,0.012641920660964296,0.009538053479910148,17.394072279145448,0.012415469149996751,0.013511799625121057
345,0.25,0.001,0.012670810393328909,0.009416141429373736,18.23916491576891,0.013018675885630914,0.010963902284856886
346,0.25,0.001,0.012616184819096755,0.009466307155222078,17.651913912487434,0.01259951028728582,0.012821073178201914
347,0.25,0.001,0.01257913686995265,0.009445348334054655,17.561751518571427,0.01253515454573264,0.01570221222937107
348,0.25,0.001,0.012632716887233629,0.00948764715257262,17.624971043711472,0.012580279117567076,0.0135954013094306
349,0.25,0.001,0.012636745753324736,0.009494470153396894,17.609313015193376,0.012569102794570575,0.013774774968624115
350,0.25,0.001,0.012619455989434498,0.009449026209424066,17.767089779366923,0.012681720042374677,0.014423736371099949
351,0.25,0.001,0.012644578781340444,0.00954258397127254,17.38357866665482,0.012407979062565896,0.017626507324166596
352,0.25,0.001,0.012630755887347182,0.009464855844209969,17.74170371751745,0.01266360008388112,0.019243825459852815
353,0.25,0.001,0.012599889955282965,0.009510733143972697,17.311634458067044,0.012356627022174906,0.014196340285707265
354,0.25,0.001,0.012604022889794932,0.00939316308825328,17.993657687545326,0.012843438749140132,0.013922989019192755
355,0.25,0.001,0.012612092375503814,0.009525936324825266,17.294818982796325,0.01234462454161051,0.012708240537904203
356,0.25,0.001,0.012636604046897043,0.009394360519552659,18.169532969028136,0.012968974281961552,0.012133882963098586
357,0.25,0.001,0.012636810977342008,0.009472768800922586,17.731293255769753,0.012656169347444506,0.01749865396413952
358,0.25,0.001,0.012657911956844702,0.009513952128809212,17.61875093033545,0.012575839350703392,0.0141585007077083
359,0.25,0.001,0.012561670571314132,0.009422537902142177,17.591700541822217,0.012556531435990162,0.012688943184912205
360,0.25,0.001,0.01254716836984902,0.009457010944778658,17.317243085128847,0.01236063032485999,0.015172941144555807
361,0.25,0.001,0.012661213821531096,0.00947765947834349,17.840637850862013,0.012734216881414713,0.01297626958694309
362,0.25,0.001,0.01259633453507841,0.00941534223278615,17.826281221607065,0.012723969465815178,0.011895534698851407
363,0.25,0.001,0.012624539631391376,0.009487500803285762,17.57996565581374,0.012548155357468766,0.01154774846509099
364,0.25,0.001,0.01260121285773908,0.009421434532458018,17.819477749273243,0.012719113311401315,0.011283261585049331
365,0.25,0.001,0.01256258694557198,0.009364113136968784,17.924246880575573,0.012793894989704192,0.011513040983118117
366,0.25,0.001,0.012611344055850295,0.009388657941046772,18.05993356986388,0.012890744874992062,0.011114407097920775
367,0.25,0.001,0.012603017446518195,0.00937498681923131,18.089884335481667,0.012912123008909112,0.010654119891114533
368,0.25,0.001,0.012595453716122904,0.009457299222517366,17.58621826654748,0.01255261832016237,0.012327918433584273
369,0.25,0.001,0.012599422769298785,0.009406728717156603,17.891856342428344,0.012770775405016662,0.011031106463633478
370,0.25,0.001,0.012590125737562461,0.009423237679062514,17.747241233471577,0.012667552629173146,0.01449194666929543
371,0.25,0.001,0.012483652881523477,0.009297132888958172,17.85725822126815,0.012746080100833798,0.009972232219297439
372,0.25,0.001,0.01252971627682699,0.00936892006609133,17.713102847714968,0.012643185473029955,0.009923179517500103
373,0.25,0.001,0.01246307742730852,0.009301632607379292,17.71673797253315,0.012645780137425518,0.011753962840884924
374,0.25,0.001,0.012555308840414392,0.009428147682409247,17.524611597825707,0.012508644966328128,0.01888304960448295
375,0.25,0.001,0.012486924075439006,0.009304255223538302,17.835676684158262,0.01273067572031282,0.015193678555078804
376,0.25,0.001,0.012562452795824923,0.009433441202034426,17.534982190353457,0.012516047245077414,0.019718428724445403
377,0.25,0.001,0.012470396200218533,0.009279864702672395,17.87973865879236,0.012762126094783981,0.011377176619134843
378,0.25,0.001,0.012515669979375123,0.009329738869540048,17.853958717378383,0.012743724994559873,0.016482274164445698
379,0.25,0.001,0.012555708212754394,0.009345101005936097,17.992244084676106,0.012842429753516136,0.015308715868741274
380,0.25,0.001,0.012560059092467345,0.009449702628617045,17.430438263003836,0.012441426311922795,0.017632816918194294
381,0.25,0.001,0.012518463373372826,0.009390981203801772,17.526411193332592,0.012509929474184577,0.017150639090687037
382,0.25,0.001,0.012536579263612692,0.009406780804417052,17.539390990502724,0.012519194140258904,0.016250567277893424
383,0.25,0.001,0.012501083448026251,0.009262467331728478,18.149205203800765,0.012954464813562288,0.010987865854986012
384,0.25,0.001,0.01255606384830007,0.00936794480238157,17.866220409860087,0.012752477094832326,0.012055704020895064
385,0.25,0.001,0.012545709140630211,0.009408614220970038,17.58028069830142,0.012548380227195873,0.01966732181608677
386,0.25,0.001,0.012569674550072301,0.0094211397118835,17.64438922898176,0.012594139349737158,0.025512334308587015
387,0.25,0.001,0.0125692308004081,0.009448856421852414,17.486578406160895,0.012481497791692287,0.022882956312969327
388,0.25,0.001,0.012524240379092059,0.00933371517681497,17.879703038855443,0.012762100670132365,0.019494737614877522
389,0.25,0.001,0.012515466597387056,0.009356265038817743,17.70416715275889,0.01263680738954953,0.013533454039134085
390,0.25,0.001,0.01249999253527273,0.009349476058774859,17.655494866994864,0.012602066286220459,0.012419930775649846
391,0.25,0.001,0.01245242071176883,0.009272851592189149,17.81830559098771,0.012718276653096152,0.012934770435094833
392,0.25,0.001,0.012458243729538807,0.009347024220454542,17.435274598970693,0.012444878371856313,0.012793653411790729
393,0.25,0.001,0.012443348702499132,0.009253121918373847,17.878031605909644,0.012760907641620018,0.011646665865555406
394,0.25,0.001,0.012487111015850481,0.00936063544093808,17.520770117200378,0.012505903010135887,0.01182536780834198
395,0.25,0.001,0.012506497674130437,0.009308885775097815,17.919417691130175,0.012790448030785278,0.013853500015102327
396,0.25,0.001,0.01249130154303609,0.009304472807213224,17.858988653255416,0.012747315241438555,0.013594119693152606
397,0.25,0.001,0.012514384907477766,0.009300721231612224,18.00937113379627,0.012854654627977352,0.013663985184393823
398,0.25,0.001,0.012391138299199347,0.00928646616464803,17.398583013800128,0.01241868880356897,0.011507221031934023
399,0.25,0.001,0.012463689982136594,0.009333190861853618,17.543317142921158,0.012521996533134303,0.014176703407429159
400,0.25,0.001,0.012500373257583455,0.009406209196345213,17.339695202147407,0.012376656104316493,0.016953572863712907
401,0.25,0.001,0.01251235774046258,0.009283488188017521,18.094586344207894,0.012915479189298995,0.011250500683672726
402,0.25,0.001,0.012483081965066712,0.009340562437216943,17.61067914359177,0.012570077904062648,0.014718524063937366
403,0.25,0.001,0.012427400719012893,0.009273074052536287,17.676845920739797,0.012617306153276086,0.01296994590666145
404,0.25,0.001,0.012513037983186637,0.009364505648172858,17.644375378572487,0.01259412946364917,0.01224543375428766
405,0.25,0.001,0.012416038615039633,0.009213595214901091,17.946492971750253,0.012809773712883835,0.01122483069775626
406,0.25,0.001,0.012480831563567059,0.009360438731463649,17.486681523705332,0.012481571394507732,0.012467313674278557
407,0.25,0.001,0.0124939554783551,0.00927110805415906,18.060837282913145,0.012891389923563987,0.010901973699219525
408,0.25,0.001,0.012387100072726922,0.009237403372294792,17.650901070123986,0.012598787344842245,0.012050761375576258
409,0.25,0.001,0.012427695775365276,0.009314395314404733,17.44693586293152,0.012453201900736276,0.012860827264375985
410,0.25,0.001,0.012508316299551901,0.009254511237490277,18.234323244054607,0.013015220017169598,0.01366226002573967
411,0.25,0.001,0.012447653731276214,0.009370933565849494,17.241940912818105,0.01230688145097652,0.0122999781742692
412,0.25,0.001,0.012462099353912511,0.009205669156798331,18.249034945974874,0.013025720875071287,0.01203482854180038
413,0.25,0.001,0.012383750942437457,0.009300425656548532,17.278955338876457,0.012333301455300826,0.016163808875717223
414,0.25,0.001,0.01241398858543061,0.009262115258393409,17.663097727650833,0.012607493024732928,0.02215110429096967
415,0.25,0.001,0.012581930283598507,0.009314975760216955,18.308013272184862,0.013067818181431021,0.01956552267074585
416,0.25,0.001,0.012502566695150444,0.009380126560602007,17.498154459120354,0.012489760499015241,0.017347316490486264
417,0.25,0.001,0.012394181370169302,0.009289542297569382,17.39839763882794,0.012418556487386111,0.0184272772166878
418,0.25,0.001,0.01248605219246466,0.00930260494351387,17.84003882267304,0.012733789309545353,0.02097471314482391
419,0.25,0.001,0.012444024815180884,0.009257225634113646,17.85882317265378,0.012747197125377429,0.013245623093098402
420,0.25,0.001,0.012416467754335343,0.009273859998407746,17.61117376657478,0.012570430954014831,0.013607611181214452
421,0.25,0.001,0.012415898256475412,0.009170420994424116,18.18765419746753,0.012981908777635639,0.01284803741145879
422,0.25,0.001,0.012443484683454287,0.00929639641714247,17.63628295705288,0.012588353288403199,0.014509276836179197
423,0.25,0.001,0.012501918227423596,0.009276519879258635,18.075131967600893,0.012901593124625904,0.019817557535134256
424,0.25,0.001,0.012439652365722738,0.0092271033179345,18.00312529133342,0.012850196496312218,0.012829981278628111
425,0.25,0.001,0.012409623150364004,0.009092609260529908,18.588546213721425,0.013268055827067398,0.011978652619291097
426,0.25,0.001,0.012387675520048363,0.009289481983626191,17.36227783975722,0.01239277504622214,0.011984052835032344
427,0.25,0.001,0.012429230877901683,0.009244689867214814,17.84616808348064,0.012738164228037575,0.011583635408896953
428,0.25,0.001,0.012390569241458102,0.009156213796261367,18.12532846635907,0.012937422174417608,0.010700849117711186
429,0.25,0.001,0.01242751858043897,0.009266072648424136,17.716743477286165,0.012645784066585414,0.0129641720559448
430,0.25,0.001,0.012335481216447263,0.009094789710666056,18.160835040772515,0.012962765910615643,0.011978819849900901
431,0.25,0.001,0.01242250152215173,0.009300322928131884,17.49668936588593,0.0124887147508108,0.01592822337988764
432,0.25,0.001,0.012475373419905513,0.00921241440790615,18.285623067541966,0.013051836593534594,0.013044976629316807
433,0.25,0.001,0.012437903149375684,0.009241841890640902,17.910727730280236,0.012784245346381324,0.01193047419656068
434,0.25,0.001,0.012350853273197066,0.009183465499226554,17.75004094763647,0.012669550997599194,0.015212844242341816
435,0.25,0.001,0.012422498012991143,0.009216340079919321,17.967309340143004,0.012824631934434692,0.015425839461386204
436,0.25,0.001,0.012375519952819318,0.009173114882302687,17.94627810932916,0.012809620349271349,0.012932195095345378
437,0.25,0.001,0.012361724758795796,0.009175835047624533,17.853726592244982,0.012743559309239816,0.011291853268630803
438,0.25,0.001,0.012357622447899123,0.009162694659822852,17.904375092389714,0.012779710986716427,0.012320280307903886
439,0.25,0.001,0.012401492723935767,0.009242299991317942,17.704116933959448,0.012636771544582048,0.015881157713010907
440,0.25,0.001,0.01237518930186828,0.00914377178446653,18.108864667546396,0.01292567071202455,0.012482474092394114
441,0.25,0.001,0.012360310126960528,0.00919136640769017,17.75876141801665,0.012675775458969772,0.010070381162222475
442,0.25,0.001,0.012338552796890967,0.009099208439389864,18.15328580317115,0.012957377446945861,0.010780929762404412
443,0.25,0.001,0.012316056916230842,0.009091731942875728,18.0691167614128,0.01289729961556945,0.010974411328788847
444,0.25,0.001,0.012332037354540472,0.009215268428252718,17.466372920491022,0.012467075603491093,0.013254566700197756
445,0.25,0.001,0.012326873540249556,0.009114850886197533,18.000174928818073,0.012848090598728103,0.011930510168895125
446,0.25,0.001,0.012376599060960962,0.009196216354484548,17.82286600523357,0.012721531766762006,0.016288847313262522
447,0.25,0.001,0.012388906822803152,0.009154605973936334,18.12502201096418,0.012937203433950164,0.015749322599731386
448,0.25,0.001,0.01239450498708064,0.009196001010699362,17.92441634488005,0.012794015949236296,0.01212167157791555
449,0.25,0.001,0.012321888099774279,0.009143504526324665,17.811661008038097,0.012713533910091434,0.00977015565149486
450,0.25,0.001,0.012339535660507307,0.00916053668324706,17.81510979213795,0.012715995568977836,0.011251388117671013
451,0.25,0.001,0.012354375169718568,0.009201720266559707,17.667478086576182,0.012610619619254948,0.011609813082031906
452,0.25,0.001,0.012313570842964236,0.00908158681618702,18.112038173756016,0.012927935884194159,0.011930475477129221
453,0.25,0.001,0.012354611258026418,0.009194113911455694,17.711426843570756,0.012641989181706463,0.013391206273809075
454,0.25,0.001,0.012329376569874427,0.009114423275528326,18.0165987537883,0.012859813528756817,0.01122866093646735
455,0.25,0.001,0.012307998468855766,0.0091443526153826,17.729071886730598,0.012654583787816273,0.011654327507130802
456,0.25,0.001,0.012291539444702085,0.0090159345064548,18.356490412844888,0.013102419994892854,0.011677079019136727
457,0.25,0.001,0.012332142480032102,0.009215688046052235,17.464610956892184,0.012465817956382715,0.012823819415643811
458,0.25,0.001,0.012291466129574343,0.009111217258474495,17.82211476740455,0.012720995551323732,0.010428199893794954
459,0.25,0.001,0.012310046109249068,0.009084673834186567,18.07498613993327,0.012901489036354939,0.011023254133760929
460,0.25,0.001,0.012335044056774443,0.00912118417049762,18.010471641765868,0.01285544014401561,0.01255008450243622
461,0.25,0.001,0.01228767195284241,0.009081944540331635,17.964896495835188,0.01282290970437915,0.010942994034849107
462,0.25,0.001,0.012305886425738093,0.009178036741346499,17.528470131918347,0.012511399094873909,0.010416157194413245
463,0.25,0.001,0.012296352221115732,0.009007827646024367,18.42889164469916,0.013154098247465495,0.012722132378257811
464,0.25,0.001,0.012363154181762587,0.009163072258076839,17.933259674265415,0.012800328104400724,0.013411685358732939
465,0.25,0.001,0.01232194652945935,0.009074759319864747,18.197238197809533,0.012988749605859766,0.014602380455471575
466,0.25,0.001,0.012364814230849975,0.00913028223322162,18.12631743869701,0.012938128079012855,0.012977186008356512
467,0.25,0.001,0.012316393155117327,0.00913933344295382,17.804242878523556,0.012708239028210961,0.010137512697838247
468,0.25,0.001,0.012313512260023552,0.009101698646628404,17.99900489517405,0.012847255456940793,0.01606053812429309
469,0.25,0.001,0.012319834541356513,0.009029261944697628,18.44036931227028,0.013162290729671863,0.01641699206084013
470,0.25,0.001,0.012254742084204647,0.009090667107154298,17.731476280759658,0.012656299986266708,0.012879357091151178
471,0.25,0.001,0.012302713460811583,0.009106118074826551,17.913719998130315,0.01278638115498238,0.012222199351526797
472,0.25,0.001,0.012262347551212029,0.009045267697690911,18.028515055209777,0.012868319097223253,0.012566757155582309
473,0.25,0.001,0.012409940472006295,0.00917855063492613,18.108709222656763,0.012925559759212536,0.013171353843063116
474,0.25,0.001,0.012358814477920532,0.00902204811258658,18.699238966285932,0.013347065643316154,0.015079750795848668
475,0.25,0.001,0.012427963795855578,0.00925802141192216,17.764357442091285,0.01267976976594667,0.019763172487728298
476,0.25,0.001,0.012409058937857926,0.009198099105591386,17.99421855266587,0.012843839081131956,0.017369402339681983
477,0.25,0.001,0.012331151592109022,0.009108412574646594,18.060230070025607,0.012890956509654251,0.0103741604834795
478,0.25,0.001,0.012295460725352482,0.009184726612162993,17.43255312633917,0.012442935850349156,0.013169277692213655
479,0.25,0.001,0.012292479219913232,0.008934516290729307,18.818023947220816,0.013431851496945622,0.01444167597219348
480,0.25,0.001,0.012343099348655732,0.009178600105052255,17.733853802902285,0.012657997004212908,0.014196002390235662
481,0.25,0.001,0.012254090798932289,0.009066419117938616,17.86371196473198,0.012750686627217688,0.013420743402093649
482,0.25,0.001,0.01233719345889514,0.009082341680641164,18.24018888030877,0.013019406766815683,0.011976902897004038
483,0.25,0.001,0.012233961687938071,0.009032066361310613,17.94342238188796,0.012807581999920029,0.010543354321271181
484,0.25,0.001,0.012290744665019874,0.009106037254103376,17.8471011874042,0.012738830255106495,0.012721612467430532
485,0.25,0.001,0.012283546150610919,0.009058510452383178,18.073100922982903,0.012900143413977803,0.012374089797958732
486,0.25,0.001,0.012260357868948064,0.009083173567830007,17.80494109688932,0.012708737399635489,0.014634366030804813
487,0.25,0.001,0.012285759252052015,0.009042691628012476,18.174151497048165,0.012972270875837376,0.013087564264424145
488,0.25,0.001,0.012328455959474236,0.009105479714110933,18.06155855042019,0.012891904746909487,0.01811921037733555
489,0.25,0.001,0.012300823610826132,0.009040859502343311,18.268839646995318,0.013039856992858898,0.016499585355632007
490,0.25,0.001,0.012343153534339199,0.00920922882689894,17.56251495296945,0.012535699466787616,0.020036864443682134
491,0.25,0.001,0.012321202583485263,0.009064650988277,18.249714766876608,0.013026206114829842,0.013272729702293873
492,0.25,0.001,0.012198267402402459,0.008997673467430384,17.936128350752817,0.01280237569646882,0.01121615944430232
493,0.25,0.001,0.012256110409266838,0.009112175648348242,17.618610623516613,0.012575739203081094,0.014266794139984995
494,0.25,0.001,0.012352282491823038,0.009075587348155835,18.36259924812156,0.013106780334133875,0.011511427350342274
495,0.25,0.001,0.012285022442288037,0.009010191533305852,18.352152643324455,0.013099323799660568,0.011189953540451825
496,0.25,0.001,0.012218088815420991,0.009028297632869789,17.875590505479256,0.012759165243025878,0.012799665099009871
497,0.25,0.001,0.01219839456526539,0.009018308141186267,17.821204672382855,0.012720345947453858,0.013104311772622168
498,0.25,0.001,0.012232459720051238,0.009047898951179117,17.846279007473072,0.012738243402907261,0.014380700537003577
499,0.25,0.001,0.01225980867156248,0.009007060318745139,18.228402190067598,0.013010993711682796,0.012704240623861551
500,0.25,0.001,0.012327007257737188,0.009089518994690245,18.14288413776124,0.01294995298912294,0.010332072153687477
