epoch,beta,learning_rate,train_loss,train_reconstruction_loss,train_kl_unnormalized,train_kl_normalized,mean_unclipped_gradient_norm
1,0.0,0.001,0.07765559504429499,0.07765559504429499,28.121036434173583,0.020072117369146027,0.1034541493281722
2,0.02,0.001,0.055497344583272934,0.05165600876013438,269.08557942708336,0.19206679473738997,0.09515906451269984
3,0.04,0.001,0.050820019592841464,0.04659540727734566,147.96703033447267,0.10561529645572638,0.06897063553333282
4,0.06,0.001,0.04801452706257502,0.04553284843762716,57.94719772338867,0.04136131172261861,0.04244369734078646
5,0.08,0.001,0.0447150689860185,0.04290049523115158,31.77771275838216,0.022682164709765997,0.032062442507594824
6,0.1,0.001,0.041534181435902914,0.03949340432882309,28.591286849975585,0.020407770770860516,0.027016618521884084
7,0.12,0.001,0.039625273644924165,0.03740520551800728,25.91930160522461,0.0185005721664701,0.021520519396290183
8,0.14,0.001,0.03731583058834076,0.03532461374998093,19.92638257344564,0.014222971144500813,0.02472204517107457
9,0.16,0.001,0.03456104720632235,0.03218366752068202,20.81692975362142,0.014858622236703369,0.02878367039375007
10,0.18,0.001,0.031477537999550505,0.02859597330292066,22.428181330362957,0.016008694739730874,0.023285001749172807
11,0.2,0.001,0.029611162841320038,0.026271808768312137,23.3921760559082,0.01669677091785025,0.026591521222144365
12,0.22,0.001,0.02820599600672722,0.024643527592221895,22.686448923746745,0.016193039917021233,0.026216640835627913
13,0.24,0.001,0.027547659228245418,0.024097822358210882,20.138424428304038,0.014374321504856558,0.04182225186377764
14,0.25,0.001,0.02687460680802663,0.02341447112460931,19.390601603190103,0.013840543613982943,0.035538247087970376
15,0.25,0.001,0.02608723590771357,0.022739105423291526,18.762924194335938,0.013392522622652347,0.04469708749093115
16,0.25,0.001,0.025586592654387157,0.02221911698579788,18.87133534749349,0.013469903888289428,0.040489955339580774
17,0.25,0.001,0.024862042566140493,0.021532558898131052,18.658426920572918,0.013317934989702298,0.06301311193965375
18,0.25,0.001,0.024271484712759653,0.020954570546746255,18.58798688252767,0.01326765658995551,0.05625424790196121
19,0.25,0.001,0.023353542511661846,0.019964493190248806,18.992232513427734,0.013556197368613658,0.05801295000128448
20,0.25,0.001,0.02229123587409655,0.018611165011922517,20.623118591308593,0.014720284504859809,0.03238842147402465
21,0.25,0.001,0.021420476337273914,0.017708629245559375,20.801191075642905,0.01484738834806774,0.04427336575463414
22,0.25,0.001,0.02064493435124556,0.016942469278971355,20.74861323038737,0.014809859550597694,0.05774776893667877
23,0.25,0.001,0.020047889649868013,0.01639601749678453,20.465090179443358,0.014607487637004538,0.03516693727578968
24,0.25,0.001,0.019764695316553116,0.01607155129313469,20.696378962198892,0.014772575990149103,0.06052131881006062
25,0.25,0.001,0.019544562076528868,0.016120122683544954,19.19055913289388,0.013697758124835034,0.0645728373201564
26,0.0,0.001,0.015178834398587545,0.015178834398587545,26.712222544352212,0.019066540003106505,0.054357548244297504
27,0.02,0.001,0.01444210105886062,0.013696124963462352,52.25562210083008,0.03729880235605288,0.048996964236721396
28,0.04,0.001,0.014781896707912285,0.012754870454470317,70.99659729003906,0.05067565830837906,0.02792709367349744
29,0.06,0.001,0.015323508655031522,0.012660212193926176,62.18797200520833,0.04438827409365334,0.030470027355477214
30,0.08,0.001,0.015441316428283851,0.01292248343427976,44.11105982462565,0.031485410295949784,0.018868390354327857
31,0.1,0.001,0.01565330686668555,0.013364742137491703,32.062791697184245,0.02288564717857548,0.01886757352622226
32,0.12,0.001,0.016173427862425645,0.013455168157815934,31.735683949788413,0.022652165560163036,0.035563686047680676
33,0.14,0.001,0.016521951494117577,0.013512441764275233,30.116590372721355,0.021496495626496328,0.03384559019468725
34,0.16,0.001,0.01696796255807082,0.013670795783400535,28.870816548665363,0.02060729232595672,0.043549283291213214
35,0.18,0.001,0.017032521963119506,0.01364455595612526,26.369669087727864,0.018822033610084127,0.04098461824469268
36,0.2,0.001,0.01725535566608111,0.013835717178881168,23.95456911722819,0.01709819351693661,0.041604442754760385
37,0.22,0.001,0.017481164634227754,0.013781189421812693,23.562115224202476,0.016818069396290134,0.033446009387262166
38,0.24,0.001,0.01760499452551206,0.013709979380170505,22.73715159098307,0.016229230257661008,0.03454022470396012
39,0.25,0.001,0.017831057558457056,0.01414096678296725,20.67926928202311,0.01476036351322135,0.02887889975681901
40,0.25,0.001,0.01758521410326163,0.01380208929379781,21.200632858276368,0.015132500255729028,0.02222773095127195
41,0.25,0.001,0.01744910205403964,0.01377367948492368,20.597069676717123,0.014701691418070751,0.018376434803940356
42,0.25,0.001,0.017382709433635075,0.01371279259522756,20.566215006510415,0.014679668098865393,0.018595357425510883
43,0.25,0.001,0.01730098153154055,0.013626365798215072,20.592547098795574,0.014698463311060367,0.017244024551473558
44,0.25,0.001,0.017143434286117552,0.013560934240619342,20.076330693562827,0.014330000495048413,0.022833745810203254
45,0.25,0.001,0.017028029511372247,0.013343058340251446,20.650579071044923,0.014739885132794377,0.014089927193708718
46,0.25,0.001,0.017015016078948973,0.01345008034259081,19.977901713053384,0.014259744263421402,0.020757703692652285
47,0.25,0.001,0.016858505023022493,0.013317427473763625,19.844197845458986,0.014164309668421832,0.01084532483946532
48,0.25,0.001,0.016654986453553042,0.013121803291141987,19.799959564208983,0.014132733450541744,0.01288777799345553
49,0.25,0.001,0.016635401546955107,0.013165966173013051,19.442715708414713,0.013877741405006933,0.013471949729137123
50,0.25,0.001,0.016480563084284465,0.012975848838686943,19.640418243408202,0.014018856704788153,0.016152250580489635
51,0.0,0.001,0.012694432027637958,0.012694432027637958,23.92668762207031,0.0170782923783514,0.030484833056107163
52,0.02,0.001,0.011994984621802965,0.01132176878551642,47.15878041585287,0.033660799725805046,0.016515620576683432
53,0.04,0.001,0.012663427243630091,0.01088951639831066,62.13123601277669,0.04434777731104689,0.01935036585200578
54,0.06,0.001,0.01316454807917277,0.010927129909396172,52.243719736735024,0.03729030673571379,0.018168820184655488
55,0.08,0.001,0.01331880030532678,0.011250146416326363,36.22730433146159,0.025858175825454383,0.01339914504205808
56,0.1,0.001,0.013593147819240889,0.011590142734348774,28.06209971110026,0.02003004975810154,0.0134493641089648
57,0.12,0.001,0.013926571669677893,0.011626883596181869,26.848857625325522,0.019164066827498587,0.017584662709850818
58,0.14,0.001,0.014306834836800893,0.011626804682115714,26.81944351196289,0.019143071743014196,0.017473473504651338
59,0.16,0.001,0.014631734974682332,0.011751604390641053,25.219144821166992,0.018000817145729472,0.012830482563003898
60,0.18,0.001,0.014872632796565692,0.011894469087322553,23.18003972371419,0.01654535312185167,0.018739768478553742
61,0.2,0.001,0.015183043479919434,0.012047406037648518,21.96514015197754,0.015678187117756988,0.0207048513693735
62,0.22,0.001,0.01547272043923537,0.012099332734942436,21.482347106933595,0.015333581089888361,0.016599929658696055
63,0.24,0.001,0.015630791212121645,0.012222673060993354,19.89489148457845,0.014200493565009601,0.014063095033634454
64,0.25,0.001,0.015838387235999108,0.012379938922822475,19.381144332885743,0.013833793242602243,0.019406717154197395
65,0.25,0.001,0.015633013285696506,0.012151692435145378,19.509322611490884,0.013925283805489568,0.012342538917437196
66,0.25,0.001,0.015658308006823062,0.012352646390597025,18.52492764790853,0.013222646429627788,0.01849562954157591
67,0.25,0.001,0.015708557143807412,0.012234432312349478,19.46899477640788,0.013896498769741526,0.022743613459169865
68,0.25,0.001,0.015602908097207546,0.012294589852293333,18.539815012613932,0.013233272671387531,0.022934334469027817
69,0.25,0.001,0.01558673804004987,0.012239983181158702,18.755215326944988,0.013387020219089928,0.020034724730066955
70,0.25,0.001,0.015429071212808291,0.01211118424932162,18.593439483642577,0.013271548525083924,0.02326735877431929
71,0.25,0.001,0.015406674208740393,0.012096385719875495,18.550857798258463,0.013241154745366497,0.019194133463315666
72,0.25,0.001,0.015306312466661136,0.012026041001081466,18.38264185587565,0.013121086264008316,0.013439980510156602
73,0.25,0.001,0.015257690536479155,0.011994106695055962,18.28912353515625,0.013054335142866703,0.016278232564218342
74,0.25,0.001,0.01507997487982114,0.011845530569553375,18.12582639058431,0.012937777580716854,0.015622824896126986
75,0.25,0.001,0.015116521095236143,0.011886043970783551,18.10359433492025,0.012921908875746074,0.020008005551062524
76,0.0,0.001,0.011387440748512745,0.011387440748512745,22.50167922973633,0.016061155767120864,0.025997737771831453
77,0.02,0.001,0.011041791550815106,0.010425319274266561,43.18389689127604,0.030823623762509664,0.010115510027389973
78,0.04,0.001,0.011668025515973568,0.01006701992203792,56.07522150675456,0.040025140261780556,0.010634650476276875
79,0.06,0.001,0.01203890424221754,0.01010066301872333,45.25793965657552,0.032304025450803374,0.009361290489323437
80,0.08,0.001,0.01219752977291743,0.010430768753091494,30.94040323893229,0.022084513375397782,0.007579438737593591
81,0.1,0.001,0.012476853653788566,0.010677069860200087,25.21497065226237,0.017997837724669785,0.008769796171691269
82,0.12,0.001,0.012858482326070468,0.010721201884249847,24.952750651041665,0.017810671414019746,0.014933912316337228
83,0.14,0.001,0.013210639916360378,0.010786035594840844,24.26336212158203,0.017318602513620295,0.011656550341285765
84,0.16,0.001,0.013509779485563438,0.010892853265007336,22.91446050008138,0.016355789079287208,0.009872102877125144
85,0.18,0.001,0.013731039687991142,0.010966737816731135,21.515482330322264,0.015357232212935236,0.011682807409670204
86,0.2,0.001,0.014122626930475234,0.011158390653630097,20.76447474161784,0.014821181114645138,0.018828198313713074
87,0.22,0.001,0.014361926602820556,0.011177343937257925,20.280002085367837,0.014475376220819298,0.01505191798787564
88,0.24,0.001,0.014669333584606647,0.01136917204906543,19.26469332377116,0.013750673321749578,0.011676939204335213
89,0.25,0.001,0.01473567560315132,0.01138362754136324,18.784876759847005,0.013408191834294793,0.01224072021432221
90,0.25,0.001,0.01470862291753292,0.01143571436405182,18.341380437215168,0.013091634858825958,0.015884806402027607
91,0.25,0.001,0.014735384037097295,0.011419546169539293,18.58195597330729,0.013263351872453456,0.012457857839763165
92,0.25,0.001,0.014689066633582114,0.011393831421931585,18.466498565673827,0.013180941160366758,0.009936238289810717
93,0.25,0.001,0.014600588257114093,0.011375516715149084,18.073302205403646,0.012900287084513667,0.01372949464712292
94,0.25,0.001,0.014569920549790064,0.011376266553997993,17.897237650553386,0.012774616452928898,0.011222528701182455
95,0.25,0.001,0.014574999734759331,0.011420198033253353,17.679509735107423,0.012619207519705513,0.015215822611935437
96,0.25,0.001,0.014617964873711269,0.0113911846652627,18.082877095540365,0.012907121410093052,0.015782274305820465
97,0.25,0.001,0.014596398919820786,0.011393373770018419,17.949751790364584,0.01281209977898971,0.016472941730171442
98,0.25,0.001,0.014555263270934423,0.011298423819243907,18.25132802327474,0.013027357618326012,0.012802364362869412
99,0.25,0.001,0.014461245636145275,0.011294651341934999,17.745594787597657,0.012666377435829877,0.015973707369994372
100,0.25,0.001,0.014457574114203453,0.011328765315314133,17.53384323120117,0.012515234283512613,0.01328321231994778
101,0.25,0.001,0.014496339112520218,0.011281746625900268,18.014575831095378,0.012858369615342882,0.014359553519170731
102,0.25,0.001,0.014452993000547091,0.011258291018505891,17.903108723958333,0.012778807083482037,0.014487988781183958
103,0.25,0.001,0.01447603739798069,0.011247839157780012,18.09082310994466,0.012912793083472278,0.0142686334438622
104,0.25,0.001,0.01440910982588927,0.01122908095518748,17.820881398518882,0.012720115202368938,0.011020769830793142
105,0.25,0.001,0.014373542182147503,0.011227089973787466,17.632719167073567,0.012585809541094624,0.012290065176784992
106,0.25,0.001,0.01435285285115242,0.01119259384771188,17.71009178161621,0.012641036246692513,0.011193898390047252
107,0.25,0.001,0.01433214166512092,0.011184263539810975,17.640709686279298,0.012591512980927408,0.01291983644478023
108,0.25,0.001,0.014299224192897479,0.011118211597204209,17.82639389038086,0.012724049886067708,0.012892296363133937
109,0.25,0.001,0.014398332126438618,0.011225126559535663,17.782643381754557,0.0126928218285186,0.01477134576998651
110,0.25,0.001,0.0142683956772089,0.011128506561120351,17.595938618977865,0.012559556473217605,0.012288485537283123
111,0.25,0.001,0.01435286874572436,0.011191189754754305,17.718049875895183,0.012646716542394848,0.01192484307102859
112,0.25,0.001,0.014363612979650497,0.011144421373804411,18.040350087483723,0.01287676665773285,0.011357067036442459
113,0.25,0.001,0.014258774556219577,0.011176649170617262,17.272232055664062,0.012328502537947225,0.011749320081435144
114,0.25,0.001,0.014234859123826027,0.011065526430805524,17.760941823323567,0.012677331779674209,0.012230719206854701
115,0.25,0.001,0.014277284468213717,0.01108481828123331,17.89058100382487,0.012769865099089844,0.0100296875461936
116,0.25,0.001,0.014143060644467671,0.010985624666015307,17.694272232055663,0.012629744633872708,0.013577048666775227
117,0.25,0.001,0.01416189589848121,0.01105897103746732,17.388790639241538,0.012411699242856202,0.013080373464617878
118,0.25,0.001,0.014169082418084145,0.011083028217156728,17.29424794514974,0.012344216948715016,0.012617524189408869
119,0.25,0.001,0.01417313627898693,0.011008542403578759,17.73438440958659,0.012658375738462947,0.01464479265268892
120,0.25,0.001,0.014127243061860402,0.010989748996992905,17.582518259684246,0.01254997734452837,0.01475096249487251
121,0.25,0.001,0.014174601311484973,0.011102430770794551,17.21644337972005,0.01228868192699504,0.011673962697386742
122,0.25,0.001,0.01412194687873125,0.010939919265607993,17.83208262125651,0.012728110364922563,0.014053163933567703
123,0.25,0.001,0.014207665746410688,0.011114326367775599,17.33507448832194,0.012373357950265482,0.01776058308314532
124,0.25,0.001,0.014227397615710895,0.011041983341177305,17.851061630249024,0.012741657123660974,0.012451512971892953
125,0.25,0.001,0.014113252485791842,0.010984000811974207,17.536327362060547,0.012517007396188827,0.014259321731515229
126,0.25,0.001,0.014101505589981874,0.011037677278121312,17.169693756103516,0.012255313173521425,0.01371595001546666
127,0.25,0.001,0.01406651387612025,0.01089776965479056,17.757643127441405,0.01267497725013662,0.01178255199920386
128,0.25,0.001,0.014144378465910752,0.011077493242919446,17.186825307210288,0.01226754126139207,0.013012220268137753
129,0.25,0.001,0.014011240874727568,0.010822676060100397,17.86871770222982,0.012754259601877102,0.014231001783628017
130,0.25,0.001,0.014034930740793546,0.010981383671363195,17.11207784016927,0.012214188322747517,0.015421874937601388
131,0.25,0.001,0.014083636924624443,0.010974740174909433,17.422257486979166,0.012435587071362718,0.016451909206807613
132,0.25,0.001,0.014106990272800128,0.011008977703750134,17.361263275146484,0.012392050874480004,0.012043603230267763
133,0.25,0.001,0.014111890271306039,0.010921228180329005,17.880469512939452,0.012762647760841865,0.014005078002810478
134,0.25,0.001,0.014023456474145253,0.010873188264667988,17.654102834065757,0.012601072686699327,0.011260773404501379
135,0.25,0.001,0.013968091333905856,0.010850244636336962,17.47241185506185,0.012471386049294682,0.009502914908807725
136,0.25,0.001,0.014013764634728431,0.01090344755599896,17.430216471354168,0.012441268002394125,0.011843857355415821
137,0.25,0.001,0.013953368117411932,0.010841668955981732,17.43796132405599,0.012446796091403277,0.012364269234240055
138,0.25,0.001,0.013991124927997589,0.010878500466545423,17.443147786458333,0.012450498063139423,0.00915365619584918
139,0.25,0.001,0.013972873923679192,0.01087465255210797,17.362433115641277,0.012392885878402054,0.011474892846308649
140,0.25,0.001,0.013970781986912092,0.010880726886292299,17.316668446858724,0.012360220161926285,0.01025221822783351
141,0.25,0.001,0.013983755620817344,0.010879626125097274,17.39554214477539,0.012416518304621978,0.013264349545352161
142,0.25,0.001,0.014029958099126816,0.010875733010470868,17.67627868652344,0.01261690127517733,0.014342572831083089
143,0.25,0.001,0.013957284018397331,0.010879007478555044,17.25066197713216,0.01231310633628277,0.01720829214900732
144,0.25,0.001,0.013968698928753536,0.010797553261121114,17.77110061645508,0.012684582881124253,0.01576220686547458
145,0.25,0.001,0.013965229069193204,0.010871808665494124,17.335529073079428,0.012373682421898236,0.012802770943380892
146,0.25,0.001,0.013845772420366605,0.010735676375528176,17.428978856404623,0.012440384622701372,0.013454676023684442
147,0.25,0.001,0.013917641465862591,0.0108522929251194,17.17821362813314,0.012261394452628936,0.014111521653831005
148,0.25,0.001,0.013956215356787045,0.010865589107076327,17.319869232177734,0.012362504805266048,0.011681907169986516
149,0.25,0.001,0.013864802693327268,0.010720295583208401,17.621819051106772,0.012578029301289631,0.016906804288737476
150,0.25,0.001,0.013857305484513442,0.01079347226768732,17.16972147623698,0.012255332959483925,0.009327763167675585
151,0.25,0.001,0.013843377803762753,0.010733641684055328,17.426962280273436,0.01243894523931009,0.011670284264255315
152,0.25,0.001,0.013929299699763456,0.010754198208451271,17.793268585205077,0.01270040584240191,0.012651714438106865
153,0.25,0.001,0.013889771203200023,0.010716559241215388,17.782680892944335,0.012692848603100881,0.012205140315927565
154,0.25,0.001,0.013886069506406784,0.010787865829964478,17.362334950764975,0.012392815810681638,0.012554487446323037
155,0.25,0.001,0.01392325156678756,0.01077895009269317,17.6206662495931,0.012577206459381228,0.012161564198322594
156,0.25,0.001,0.013845070451498031,0.010736243675152461,17.421866099039715,0.012435307708094015,0.01366975111886859
157,0.25,0.001,0.01394959402581056,0.010819066253801187,17.543476359049478,0.012522110177765508,0.019983054837211967
158,0.25,0.001,0.013929108219842116,0.0108584463596344,17.207990137736,0.012282648206806567,0.025814730441197753
159,0.25,0.001,0.013945017072061697,0.01082633857925733,17.4770751953125,0.012474714629059601,0.022483013104647398
160,0.25,0.001,0.013834980875253677,0.010707119417687257,17.528535334269204,0.012511445634738903,0.013650845910888165
161,0.25,0.001,0.013779330626130104,0.010718263934055965,17.15421816507975,0.01224426707000696,0.012224282254464924
162,0.25,0.001,0.01381558421999216,0.01079650738586982,16.918906529744465,0.0120763073017448,0.01220168441068381
163,0.25,0.001,0.01378900334239006,0.010611789984007676,17.805104446411132,0.01270885399458325,0.011418830428738147
164,0.25,0.001,0.01377236663053433,0.01074409286181132,16.9704470316569,0.012113095668563098,0.012190756038762629
165,0.25,0.001,0.013744255838294825,0.01065198207894961,17.329102325439454,0.012369095164482122,0.014595601009204984
166,0.25,0.001,0.013757581077516078,0.010713658668100834,17.0581418355306,0.01217569010387623,0.014358057349454612
167,0.25,0.001,0.013800611533224583,0.010641513143976529,17.7035888671875,0.01263639462326017,0.01495096564758569
168,0.25,0.001,0.013804420580466588,0.010749908660848935,17.11748441060384,0.012218047402286823,0.012096413876861334
169,0.25,0.001,0.01375503297895193,0.010652717699607213,17.385375849405925,0.012409261848255478,0.011746998119633645
170,0.25,0.001,0.013745418811837832,0.010663533521195253,17.270884704589843,0.012327540831256133,0.011485557304695249
171,0.25,0.001,0.013802713962892692,0.010685112575689952,17.471037673950196,0.01247040519197016,0.013249037729110569
172,0.25,0.001,0.013784537091851234,0.01066073551774025,17.505783971150716,0.012495206260635772,0.013979005976580083
173,0.25,0.001,0.013751283536354702,0.010696890453497568,17.116819636027017,0.01221757290223199,0.015181167051196098
174,0.25,0.001,0.013782087589303653,0.010702285232643287,17.259212748209634,0.012319209670385177,0.013266055146232247
175,0.25,0.001,0.013764007389545441,0.010605995357036591,17.697499338785807,0.012632048064800718,0.013331832422409207
176,0.25,0.001,0.013728162025411923,0.010614141511420408,17.45097122192383,0.012456082242629429,0.012798897281754762
177,0.25,0.001,0.013734559466441473,0.010706927441060544,16.966850153605144,0.012110528303786684,0.010591762722469866
178,0.25,0.001,0.013745793824394543,0.01059487077097098,17.65777333577474,0.012603692602266051,0.013618356664665043
179,0.25,0.001,0.013694412137071291,0.010617744674285253,17.241644795735677,0.012306670089747092,0.014902289491146803
180,0.25,0.001,0.013736192012826602,0.01064131675908963,17.343681462605794,0.012379501400860667,0.011279941070824862
181,0.25,0.001,0.013668176593879859,0.010553584309915702,17.454175567626955,0.012458369427285478,0.010335865488741547
182,0.25,0.001,0.013638860421876113,0.0105654401704669,17.223447036743163,0.012293680968410537,0.0102994226035662
183,0.25,0.001,0.013702090084552764,0.010658502827088039,17.056262842814128,0.012174348924207086,0.011486069532111287
184,0.25,0.001,0.01365409754216671,0.010512916433314482,17.60317980448405,0.012564725056733797,0.01214777014683932
185,0.25,0.001,0.013649769561986129,0.010578571135799091,17.21099573771159,0.012284793531557165,0.011405640456359833
186,0.25,0.001,0.013709643855690956,0.01057629728068908,17.55927416483561,0.012533386270403719,0.011067024082876742
187,0.25,0.001,0.013686205570896467,0.010626060639818509,17.14905331929525,0.012240580527691112,0.017360401223413646
188,0.25,0.001,0.013765952363610268,0.010646474175155162,17.481556701660157,0.012477913420171419,0.018391928751952946
189,0.25,0.001,0.013672371084491411,0.010551523168881733,17.48923110961914,0.012483391227422655,0.010335604369174689
190,0.25,0.001,0.013736792840063572,0.010638232653339704,17.364332071940105,0.01239424130759465,0.011249577859416604
191,0.25,0.001,0.0136996416375041,0.01058669841537873,17.44493408203125,0.012451773077823875,0.01120333920698613
192,0.25,0.001,0.013721716528137525,0.010653183050453662,17.19606246948242,0.012274134524969608,0.015104871476069093
193,0.25,0.001,0.01367437584946553,0.010486242858072122,17.86629778544108,0.012752532323655304,0.014052872429601848
194,0.25,0.001,0.013660296238958836,0.010577213888367017,17.27759335835775,0.012332329306465202,0.014097586274147034
195,0.25,0.001,0.013603182757894199,0.010518339152137438,17.287464396158853,0.01233937501510268,0.010521516960579902
196,0.25,0.001,0.0135640487074852,0.01038584920267264,17.81062978108724,0.012712797845172905,0.011017767828889191
197,0.25,0.001,0.013630297966301441,0.010586944098273912,17.05495465596517,0.012173415171995125,0.012183979153633118
198,0.25,0.001,0.013634493947029114,0.010497055947780609,17.582202275594074,0.012549751802708118,0.011018459044862539
199,0.25,0.001,0.013602912053465843,0.01041866298764944,17.844532012939453,0.012736996440356498,0.01161355385556817
200,0.25,0.001,0.01362260195116202,0.010579310916364193,17.054602559407552,0.012173163853966848,0.01027365936897695
201,0.25,0.001,0.013637417554855346,0.010547903552651405,17.313635889689127,0.012358055595780962,0.015794583479873836
202,0.25,0.001,0.013647385314106942,0.010577920886377493,17.201278177897134,0.012277857371803808,0.015152666019275784
203,0.25,0.001,0.013620294506351154,0.010515733622014523,17.39795913696289,0.012418243495333967,0.017066892934963107
204,0.25,0.001,0.013558617606759072,0.010527494798103968,16.986411158243815,0.012124490476976313,0.016723055741749704
205,0.25,0.001,0.013710059970617295,0.01064900370935599,17.154159800211588,0.012244225410572154,0.020460978150367737
206,0.25,0.001,0.013610308244824409,0.010462210886180401,17.641938781738283,0.012592390279613334,0.013979723560623825
207,0.25,0.001,0.01362503133714199,0.010500465519726276,17.510067876180013,0.0124982640086938,0.014383570523932576
208,0.25,0.001,0.013529474971195062,0.01037464632342259,17.679660288492837,0.012619314981079826,0.013328607310540974
209,0.25,0.001,0.013560389665265878,0.01047839888681968,17.271477762858073,0.012327964141940095,0.012452330207452178
210,0.25,0.001,0.013599466035763423,0.010452607025702795,17.634998194376628,0.012587436255800591,0.013063337770290673
211,0.25,0.001,0.013555712066590786,0.010482273374994596,17.22354990641276,0.012293754394298901,0.012048923643305898
212,0.25,0.001,0.013440178210536639,0.010334886362155278,17.402055740356445,0.012421167552003173,0.011312557267956436
213,0.25,0.001,0.013445140731831392,0.010373634720842044,17.212720489501955,0.012286024617774415,0.010118047357536852
214,0.25,0.001,0.013500345312058926,0.010413993212083975,17.295917892456053,0.012345408916813742,0.010534537374041975
215,0.25,0.001,0.01351730227470398,0.01044375536342462,17.22415771484375,0.012294188233293183,0.010344547976274043
216,0.25,0.001,0.013593673147261143,0.010462790230909983,17.545468012491863,0.0125235317719428,0.011841269617434591
217,0.25,0.001,0.013569967138270538,0.01050108124812444,17.19803670247396,0.012275543684849365,0.013184030307456851
218,0.25,0.001,0.013526787733038266,0.010309337203701337,18.03059336344401,0.012869802543500362,0.00975075998576358
219,0.25,0.001,0.013483042642474175,0.010386211176713308,17.354644139607746,0.01238732629522323,0.011159716348629445
220,0.25,0.001,0.013489293865859509,0.010390875985225041,17.363533528645835,0.012393671326656556,0.011853075120598078
221,0.25,0.001,0.013455303385853767,0.010351659543812276,17.392819849650063,0.012414575196038589,0.010196653543971479
222,0.25,0.001,0.013475109077990054,0.010401084336141746,17.226834360758463,0.012296098758571352,0.010234221932478249
223,0.25,0.001,0.013461193380256494,0.010302597284317016,17.700773111979167,0.012634384805124316,0.012619588989764452
224,0.25,0.001,0.013597400796910127,0.010574445190529028,16.94064292907715,0.012091822219184261,0.02063625690061599
225,0.25,0.001,0.013554550210634867,0.01041839768489202,17.57499910990397,0.012544610356819393,0.016884352429769933
226,0.25,0.001,0.013536995276808739,0.010484535184999307,17.1059871673584,0.012209840947436403,0.01258749223779887
227,0.25,0.001,0.013523404424389204,0.01038184966892004,17.60527318318685,0.012566219259947787,0.01382562390062958
228,0.25,0.001,0.013480741220215956,0.010425977905591329,17.11889394124349,0.012219053491251597,0.011731331003829837
229,0.25,0.001,0.013545737850169342,0.010422006932397683,17.50538787841797,0.012494923539199123,0.013519099331460893
230,0.25,0.001,0.013486659775177637,0.010354564587275187,17.55226224263509,0.012528381329503992,0.011946268263272941
231,0.25,0.001,0.013540057465434074,0.010400843371947606,17.592156600952148,0.012556856959994395,0.011247968766838312
232,0.25,0.001,0.013465287412206333,0.010387380979955197,17.24858881632487,0.012311626564114825,0.011538723018020391
233,0.25,0.001,0.013519126921892166,0.01041245497763157,17.409788513183592,0.012426687018689217,0.013690392952412367
234,0.25,0.001,0.013462673562268416,0.010373721458017826,17.310488001505533,0.01235580870914028,0.012767290347255766
235,0.25,0.001,0.013457095188399156,0.010298131654659906,17.70283228556315,0.012635854593549715,0.013915409799665213
236,0.25,0.001,0.013527087805171808,0.010411217684547107,17.461336008707683,0.012463480377378789,0.012072439538314939
237,0.25,0.001,0.01347402377674977,0.01038692065825065,17.30012664794922,0.01234841302494591,0.011789600946940482
238,0.25,0.001,0.013578884862363338,0.010402943131824334,17.797978337605795,0.012703767550039824,0.010263516451232135
239,0.25,0.001,0.013501618926723798,0.010364791688819727,17.57877998352051,0.01254730905319094,0.009794051293283701
240,0.25,0.001,0.013393984238306681,0.010255284296969572,17.589275360107422,0.012554800399791165,0.012116377998609096
241,0.25,0.001,0.013479735950628917,0.01035744696855545,17.49730707804362,0.012489155658846266,0.01283462275750935
242,0.25,0.001,0.013367634142438571,0.010280995195110639,17.297525278727214,0.0123465562303549,0.011758680338971317
243,0.25,0.001,0.013394122384488583,0.010273022577166557,17.49064432779948,0.01248439994846501,0.012547240301501006
244,0.25,0.001,0.01343214176595211,0.01037303004413843,17.14326146443685,0.012236446441425304,0.011974122142419219
245,0.25,0.001,0.013512041668097179,0.01033034094919761,17.83025156656901,0.012726803402261963,0.012383112800307572
246,0.25,0.001,0.01346852829058965,0.010370622078577677,17.360665130615235,0.012391623933344208,0.015129308449104428
247,0.25,0.001,0.01342917929093043,0.010343618256350358,17.291484196980793,0.012342244251949174,0.012790878652594984
248,0.25,0.001,0.01343727099398772,0.010320183572669823,17.468157958984374,0.01246834972090248,0.010631149867549539
249,0.25,0.001,0.013364407668511073,0.010281636503835519,17.275850423177083,0.012331085241382643,0.010359071136917919
250,0.25,0.001,0.013468079268932343,0.010355691549678643,17.4418207804362,0.012449550878255673,0.010114477772731334
251,0.25,0.001,0.013418903698523839,0.010287898406386376,17.546153513590493,0.01252402106608886,0.012818375835195184
252,0.25,0.001,0.013412764482200145,0.010331047077973684,17.269944636027017,0.012326869832995729,0.012472305563278496
253,0.25,0.001,0.013401382106045882,0.010278896863261859,17.498407872517905,0.012489941379384658,0.010848495294339955
254,0.25,0.001,0.013392783577243488,0.010251519332329432,17.603645451863606,0.01256505742459929,0.013330464949831367
255,0.25,0.001,0.013448165853818257,0.010338074279328186,17.428952026367188,0.012440365472067944,0.01648697827477008
256,0.25,0.001,0.013359247396389643,0.010286846136053403,17.2177370707194,0.012289605332419273,0.011613947281148285
257,0.25,0.001,0.013357850288351377,0.010274398885667325,17.279661432902017,0.012333805448181311,0.011081632517743856
258,0.25,0.001,0.013392452771464983,0.010222505033016204,17.764386622111,0.012679790593940757,0.01242262334562838
259,0.25,0.001,0.013398784523208937,0.010310882826646169,17.304602559407552,0.012351607822560708,0.011562426865566522
260,0.25,0.001,0.013362408988177777,0.010216034265855949,17.632283782958986,0.012585498774417548,0.013816730002872646
261,0.25,0.001,0.013382115152974923,0.01025727353990078,17.511611557006837,0.012499365850825723,0.010865929769352078
262,0.25,0.001,0.013339741776386896,0.010214155539870262,17.515786743164064,0.012502345997975776,0.009178168082144111
263,0.25,0.001,0.013401218752066294,0.01024442898730437,17.690650685628256,0.012627159661404893,0.014088188298046589
264,0.25,0.001,0.01332971602678299,0.010273379956682522,17.12770767211914,0.012225344519713875,0.017736826499458402
265,0.25,0.001,0.013359195739030837,0.010232566793759664,17.521629587809244,0.01250651647952123,0.014896563370712101
266,0.25,0.001,0.013413600499431293,0.010283097686866919,17.543337376912437,0.01252201097566912,0.012179722485598177
267,0.25,0.001,0.013314075209200383,0.010148925955096881,17.73749720255534,0.012660597574985966,0.011199458385817707
268,0.25,0.001,0.013345698577662308,0.010251143450538317,17.34188741048177,0.012378220849737167,0.012314304825849831
269,0.25,0.001,0.013392462208867074,0.010294873019059498,17.35889040629069,0.012390357177937681,0.01191206491785124
270,0.25,0.001,0.013371660808722178,0.010215438654025395,17.6874698638916,0.01262488926758858,0.010138877318240702
271,0.25,0.001,0.013354219061632951,0.010206661994258563,17.638909912109376,0.012590228345545594,0.011508245603181422
272,0.25,0.001,0.013328847785790762,0.010215692967176438,17.446119435628255,0.012452619154624022,0.013984841760247946
273,0.25,0.001,0.013406289617220561,0.010309994220733643,17.35163942972819,0.012385181605801706,0.014208254986442626
274,0.25,0.001,0.013343350713451703,0.01019769652436177,17.628246434529622,0.012582617012512221,0.014824056182987988
275,0.25,0.001,0.013325404934585094,0.010244463259975115,17.265597025553387,0.01232376661352847,0.014576474553905427
276,0.25,0.001,0.013321506480375925,0.010208836384117603,17.44340286254883,0.012450680130298951,0.013552854885347188
277,0.25,0.001,0.013360490277409553,0.010246413139005503,17.45128936767578,0.012456309327391706,0.017473526997491717
278,0.25,0.001,0.013315230732162793,0.010198042914271354,17.4687198638916,0.01246875079506895,0.014235159615054727
279,0.25,0.001,0.013278427595893542,0.01016794703900814,17.431133143107097,0.012441922300576086,0.011341986304614693
280,0.25,0.001,0.013386953249573707,0.01024208664894104,17.62383130391439,0.012579465598796852,0.014592968276701868
281,0.25,0.001,0.013324948027729988,0.01023678785810868,17.306048838297524,0.01235264014153999,0.010411483817733824
282,0.25,0.001,0.013373617952068647,0.010201319493353367,17.777560679117837,0.012689193917999884,0.011188661912456155
283,0.25,0.001,0.013265274899701278,0.010146129814287027,17.47968889872233,0.01247658022749631,0.011585359112359583
284,0.25,0.001,0.013270579030116398,0.010197586566209792,17.2210511525472,0.012291970844073663,0.011736853746697307
285,0.25,0.001,0.013262696626285712,0.010138309746980666,17.50906448364258,0.01249754781130805,0.011018504621461034
286,0.25,0.001,0.013231774667898814,0.010158577933907509,17.222194544474284,0.01229278696964617,0.01063734560739249
287,0.25,0.001,0.013263861027856668,0.010132212564349175,17.549756876627605,0.012526593059691367,0.010575216147117317
288,0.25,0.001,0.013238806153337161,0.01011000523964564,17.53380076090495,0.012515203969239792,0.009790452080778778
289,0.25,0.001,0.013363690177599589,0.010231495338181655,17.55282071431478,0.012528779953115476,0.013029251946136355
290,0.25,0.001,0.013321808973948161,0.010167320445179939,17.677753702799478,0.012617954106209478,0.013162949006073177
291,0.25,0.001,0.01325042818983396,0.01013192031532526,17.47611821492513,0.012474031559546845,0.011728555662557483
292,0.25,0.001,0.013282894218961398,0.010096994539101919,17.853782908121744,0.012743599506153993,0.013114214176312089
293,0.25,0.001,0.013248316757380963,0.010169681223730246,17.25267327626546,0.012314541953080273,0.012081804918125272
294,0.25,0.001,0.013205983241399129,0.010099481356640657,17.408836364746094,0.012426007398105706,0.011725437187124044
295,0.25,0.001,0.013239085053404173,0.010190906003117561,17.0819953918457,0.012192716196892007,0.010466875392012298
296,0.25,0.001,0.013308640941977501,0.010111083214481672,17.91911366780599,0.012790231026271229,0.01502334710676223
297,0.25,0.001,0.01324549571921428,0.010162655885020891,17.276234690348307,0.012331359522018777,0.015444754040800035
298,0.25,0.001,0.013238639011979103,0.010158423458536466,17.261529413859048,0.012320863250434723,0.014670852338895202
299,0.25,0.001,0.013312456322213014,0.010162078775465488,17.654715220133465,0.012601509793100261,0.011424975702539086
300,0.25,0.001,0.013258485744396845,0.010136650626858075,17.49476496378581,0.012487341159019135,0.012410832627210766
301,0.25,0.001,0.013231125846505164,0.010096359190841515,17.56723378499349,0.012539067655241607,0.012925205752253532
302,0.25,0.001,0.013205892654756706,0.010076116397976875,17.539265950520832,0.012519104889736498,0.012049100536387414
303,0.25,0.001,0.013244762892524402,0.010125987293819586,17.477617899576824,0.012475101998270396,0.011625565879512578
304,0.25,0.001,0.0132047139108181,0.010040993864337603,17.729488118489584,0.012654880884003987,0.010625141556374729
305,0.25,0.001,0.013223980305095513,0.010088153555989266,17.573173650105794,0.012543307387655812,0.013179211411625147
306,0.25,0.001,0.013277350117762883,0.010145177071293195,17.552699025472005,0.012528693094555322,0.01453648239839822
307,0.25,0.001,0.013246015831828117,0.01008512961367766,17.71360600789388,0.012643544616626609,0.011179812951013446
308,0.25,0.001,0.013167895252505939,0.010027323352793853,17.599765268961587,0.012562287843655665,0.014085036120377481
309,0.25,0.001,0.013196646918853123,0.010071295748154322,17.514467620849608,0.012501404440292367,0.011928914114832878
310,0.25,0.001,0.013188706710934639,0.01010818760842085,17.263228861490884,0.012322076275154093,0.009629908192437142
311,0.25,0.001,0.013126205652952194,0.010032964932421843,17.334520212809245,0.012372962321776763,0.01197319250786677
312,0.25,0.001,0.013167800195515156,0.010043149689833324,17.51054229736328,0.012498602639088708,0.012666032300330698
313,0.25,0.001,0.013287087467809518,0.010146390522519748,17.600466028849283,0.012562788029157232,0.014620152418501675
314,0.25,0.001,0.01317578312009573,0.010012169989446798,17.728888702392577,0.01265445303525523,0.013927624095231295
315,0.25,0.001,0.013246379730602106,0.010148312710225583,17.36156768798828,0.012392268157022327,0.016866392688825727
316,0.25,0.001,0.01322668045759201,0.010105889228483041,17.48891372680664,0.01248316468722815,0.013046759064309299
317,0.25,0.001,0.013121841723720233,0.009979140323897203,17.611698404947916,0.012570805428228348,0.013191354111768305
318,0.25,0.001,0.013218849524855613,0.010091357802351316,17.526463063557944,0.012509966497900031,0.011615811963565648
319,0.25,0.001,0.013177696801722049,0.01000298298895359,17.791096242268882,0.012698855276423185,0.012693727388978004
320,0.25,0.001,0.013240297759572665,0.010125920735299587,17.452969360351563,0.012457508465632807,0.012309759622439742
321,0.25,0.001,0.013233424536883831,0.01009410818417867,17.592728932698567,0.012557265476587129,0.012494643684476614
322,0.25,0.001,0.013209383562207222,0.01007518700013558,17.564037322998047,0.0125367860977859,0.01138244295725599
323,0.25,0.001,0.013129547797143459,0.009992928678790728,17.57761433919271,0.012546477044391656,0.010391080169938505
324,0.25,0.001,0.013164623950918516,0.010100689902901649,17.170286305745442,0.012255736121160201,0.012460130965337157
325,0.25,0.001,0.013155727212627729,0.009998425965507825,17.693515396118165,0.012629204422639661,0.011263252643402666
326,0.25,0.001,0.01315599133570989,0.010049597298105558,17.408231989542642,0.01242557600966641,0.011462826165370643
327,0.25,0.001,0.01308960219224294,0.00997014765938123,17.481423568725585,0.012477818393094637,0.010125902423169464
328,0.25,0.001,0.01317498212059339,0.010007971214751403,17.747928365071616,0.012668043087131774,0.012603740848135203
329,0.25,0.001,0.013202546847363312,0.010024637666841347,17.809002939860026,0.01271163664515348,0.012829574407078326
330,0.25,0.001,0.013165184545020263,0.010034805039564769,17.542646725972492,0.012521518005690572,0.01197034539654851
331,0.25,0.001,0.013140761603911718,0.010010556566218536,17.54166946411133,0.012520820459751128,0.011345111881382763
332,0.25,0.001,0.013155927198628585,0.010005048848688603,17.657522201538086,0.0126035133487067,0.010608764016069472
333,0.25,0.001,0.0131436995541056,0.009985077815751234,17.70091552734375,0.012634486457775696,0.00941027351655066
334,0.25,0.001,0.013101266200343768,0.009985171010096867,17.462596384684243,0.0124643800033435,0.008930411248002201
335,0.25,0.001,0.013109931101401648,0.009993731292585533,17.463182957967124,0.012464798685201374,0.009001083148177713
336,0.25,0.001,0.013151755928993225,0.009949084743857384,17.94776865641276,0.012810684265819243,0.009215397119987756
337,0.25,0.001,0.013154643277327219,0.010011936289568741,17.611730575561523,0.012570828390836205,0.011045166989788413
338,0.25,0.001,0.013156945755084356,0.010059989988803864,17.355339558919272,0.012387822668750373,0.011163203744217753
339,0.25,0.001,0.013188657599190872,0.009980521847804387,17.978392283121746,0.012832542671749997,0.01346321334131062
340,0.25,0.001,0.013125367710987728,0.00999768041074276,17.52756004333496,0.012510749495599544,0.010668403352610767
341,0.25,0.001,0.013178856670856475,0.010006535425782203,17.77768834431966,0.012689285042340943,0.011016521486453712
342,0.25,0.001,0.013147227590282758,0.009969801766177018,17.806295267740886,0.01270970397411912,0.010226798942312598
343,0.25,0.001,0.013139214490850766,0.009947853535413742,17.8843869527181,0.012765443934845182,0.013145235367119312
344,0.25,0.001,0.013104477462669213,0.010012898345788319,17.325210189819337,0.012366317051976687,0.011094502289779484
345,0.25,0.001,0.01310705505311489,0.009982853444914024,17.508025868733725,0.012496806473043343,0.010338413645513356
346,0.25,0.001,0.013186377907792727,0.010013258395095667,17.782161966959634,0.012692478206252416,0.010875773499719799
347,0.25,0.001,0.0131416080519557,0.009914376027882098,18.085408147176107,0.012908928013687442,0.013319789548404515
348,0.25,0.001,0.013125811703503132,0.009963728425403436,17.720315806070964,0.01264833390868734,0.011659622192382812
349,0.25,0.001,0.013104526077707608,0.009971585869789124,17.55699780782064,0.012531761461684967,0.01185697631444782
350,0.25,0.001,0.013064946234226226,0.009922107867896556,17.612467193603514,0.012571354171023208,0.01154992962256074
351,0.25,0.001,0.013162029907107353,0.010003622372945149,17.69971618652344,0.012633630397233005,0.01173591217957437
352,0.25,0.001,0.013131736467281977,0.0099752988666296,17.688677724202474,0.012625751409138098,0.013439009780995548
353,0.25,0.001,0.013152820120255152,0.010037882129351298,17.456112416585288,0.012459751903344246,0.01341876876540482
354,0.25,0.001,0.013147344750662645,0.009969520630935829,17.808526484171548,0.012711296562577835,0.011537067359313369
355,0.25,0.001,0.013138391450047493,0.00998656867692868,17.662814966837566,0.0126072911968862,0.0136818818282336
356,0.25,0.001,0.013168906110028427,0.009957725120087465,17.995457967122395,0.012844723745269375,0.019204831565730274
357,0.25,0.001,0.013074499430755775,0.01000209351380666,17.217763646443686,0.01228962430153011,0.016006363555788994
358,0.25,0.001,0.013060592797895272,0.009889645998676618,17.769987106323242,0.012683788084456275,0.014894122490659356
359,0.25,0.001,0.013055453201134999,0.009915922457973162,17.593930816650392,0.012558123352355741,0.01150336570572108
360,0.25,0.001,0.013105837690333525,0.009905276695887248,17.93594462076823,0.012802244554438421,0.011301184655167162
361,0.25,0.001,0.013103121891617775,0.009929149722059568,17.78694076538086,0.012695889197273989,0.011932778230402619
362,0.25,0.001,0.013076364124814669,0.009902782179415226,17.7847536722819,0.012694328102984941,0.010274897795170546
363,0.25,0.001,0.01298703004916509,0.009812532365322113,17.78988545735677,0.012697991047363862,0.009557042038068175
364,0.25,0.001,0.01303555965423584,0.009909088847537835,17.52074228922526,0.012505883147198617,0.012328995973803103
365,0.25,0.001,0.013009984729190667,0.009821503795683384,17.86824760437012,0.012753924057366252,0.010075425379909575
366,0.25,0.001,0.013065284180144469,0.009893855080008507,17.772689819335938,0.012685717215800097,0.015089688822627068
367,0.25,0.001,0.013092236469189326,0.009962995226184527,17.536267852783205,0.01251696491990236,0.018604526878334582
368,0.25,0.001,0.013055592402815818,0.009872136637568474,17.84008763631185,0.012733824151543076,0.01366867299657315
369,0.25,0.001,0.013070370877782504,0.009906133264303207,17.732388814290363,0.012656951330685484,0.011444432253483683
370,0.25,0.001,0.013105286285281181,0.009915567313631376,17.875185139973958,0.012758875902907894,0.011588525027036667
371,0.25,0.001,0.012988762309153875,0.00988803623865048,17.376468404134116,0.01240290392871814,0.010217201663181186
372,0.25,0.001,0.013003001486261686,0.009847677126526833,17.68243802388509,0.012621297661588217,0.011341482575517148
373,0.25,0.001,0.013055207828680674,0.009901132186253865,17.675440979003906,0.012616303339760104,0.013695149682462215
374,0.25,0.001,0.012973163028558094,0.009829821065068245,17.61528803507487,0.0125733676196109,0.011678602662868798
375,0.25,0.001,0.01304151142636935,0.009892684283355872,17.646029154459637,0.01259530988897904,0.011889032670296729
376,0.25,0.001,0.013030607750018438,0.00985307414084673,17.806899770100912,0.012710135453319709,0.011736053740605712
377,0.25,0.001,0.013026025146245956,0.0098699485262235,17.686653900146485,0.012624306852352952,0.011139500536955893
378,0.25,0.001,0.013035408159097036,0.009823461001118024,17.99975128173828,0.012847788209663298,0.0114371218951419
379,0.25,0.001,0.013003598091502984,0.009862420770029226,17.603157552083335,0.01256470917350702,0.010712992982007563
380,0.25,0.001,0.013020028546452522,0.009847950314482053,17.776326624552407,0.012688313079623417,0.013562866719439626
381,0.25,0.001,0.013007476118703683,0.009862684023876985,17.62341562906901,0.012579168900120636,0.013990022125653923
382,0.25,0.001,0.013034130508701006,0.009857435959080856,17.802195739746093,0.012706777829940109,0.012973627774044871
383,0.25,0.001,0.01311091681321462,0.0099147812773784,17.911143747965493,0.012784542289768375,0.01325948559679091
384,0.25,0.001,0.013046858956416447,0.009855063197513421,17.88682403564453,0.01276718346584192,0.010926959221251309
385,0.25,0.001,0.013050678744912147,0.009852436681588491,17.9229487101237,0.012792968386954817,0.010540123446844518
386,0.25,0.001,0.013026343534390132,0.009871944474677244,17.67725156148275,0.012617595689852068,0.013213164871558547
387,0.25,0.001,0.013019954537351925,0.009850482394297918,17.76172218322754,0.012677888781746995,0.010988927911967039
388,0.25,0.001,0.013024720301230749,0.009893086863060792,17.54967409769694,0.01252653397408775,0.014290880179032683
389,0.25,0.001,0.01303895382831494,0.009829205647110938,17.987429046630858,0.012838992895525238,0.012571486178785563
390,0.25,0.001,0.013025458219150703,0.009849569449822107,17.797680155436197,0.012703554714800997,0.011105020181275904
391,0.25,0.001,0.01299416832625866,0.009817989791433017,17.799304326375324,0.012704714008833207,0.010832830797880888
392,0.25,0.001,0.01302137312789758,0.00987511444836855,17.6316349029541,0.012585035619524697,0.011602638172917068
393,0.25,0.001,0.013023274578154087,0.009867564588785172,17.684598286946613,0.012622839605243836,0.01376263378188014
394,0.25,0.001,0.012971533959110578,0.009774231351912022,17.917684682210286,0.012789211050828184,0.013165866490453482
395,0.25,0.001,0.013001142193873723,0.009826106391847134,17.792900975545248,0.012700143451495538,0.01209433504845947
396,0.25,0.001,0.013068575039505958,0.009845385886728763,18.062752278645835,0.012892756801317512,0.012566628982312977
397,0.25,0.001,0.012928318418562412,0.009717932157218456,17.99100481669108,0.012841545193926539,0.011024677543900907
398,0.25,0.001,0.013006590741376082,0.009896607510745526,17.428346633911133,0.012439933357538282,0.0117171760648489
399,0.25,0.001,0.012961855903267861,0.009775963549812635,17.853740946451822,0.012743569554926355,0.012254476314410567
400,0.25,0.001,0.0129484369729956,0.009788378576437632,17.70896771748861,0.01264023391683698,0.0126930249389261
401,0.25,0.001,0.012876663357019424,0.00973366741091013,17.61334966023763,0.012571984054416582,0.012311738450080156
402,0.25,0.001,0.012916547556718191,0.009781854475537937,17.566820526123045,0.01253877268103001,0.010792186600156128
403,0.25,0.001,0.012889337788025538,0.00972281564027071,17.745191446940105,0.01266608954099936,0.00965524755883962
404,0.25,0.001,0.012864931424458822,0.009737241206069787,17.527576700846353,0.012510761385329304,0.012772164540365338
405,0.25,0.001,0.01303463423003753,0.009915970017512639,17.47699406941732,0.012474656723352833,0.01244731293991208
406,0.25,0.001,0.012932497449219227,0.009674652169148127,18.256964874267577,0.013031381066572147,0.011488938820548356
407,0.25,0.001,0.012962395325303078,0.009829718433320523,17.555520884195964,0.012530707269233379,0.012178563396446407
408,0.25,0.001,0.012967037968337536,0.009722910076379775,18.180092112223306,0.012976511143628341,0.012815924710594118
409,0.25,0.001,0.013008937115470569,0.009841597701112429,17.74976984659831,0.012669357492218635,0.017147704144008458
410,0.25,0.001,0.013062107314666112,0.009855204386015733,17.971483739217124,0.012827611519783814,0.021110835950821638
411,0.25,0.001,0.013024865773816903,0.009923674104114374,17.37907829284668,0.012404766804315973,0.02029942360240966
412,0.25,0.001,0.013086966735621293,0.009851491761704285,18.131601842244468,0.012941899958775495,0.022018350777216256
413,0.25,0.001,0.013044129560391108,0.009836336784064769,17.97647171020508,0.012831171813137102,0.018949054647237062
414,0.25,0.001,0.012965075547496478,0.0098073814685146,17.695717493693035,0.012630776226761623,0.011643558915238827
415,0.25,0.001,0.012957652782400448,0.009739319638659557,18.03554000854492,0.012873333339432491,0.011264029424637556
416,0.25,0.001,0.012887333519756794,0.00975326138238112,17.56333999633789,0.012536288362839322,0.013210638950113207
417,0.25,0.001,0.012946394955118496,0.009734763763844967,17.99798100789388,0.012846524630902127,0.014623941970057786
418,0.25,0.001,0.012936243414878845,0.009746574734648069,17.87490437825521,0.012758675501966603,0.010954121535178274
419,0.25,0.001,0.012870777522524197,0.009699190966784954,17.773571268717447,0.012686346373103103,0.01039616682101041
420,0.25,0.001,0.012872084975242615,0.009656847019990285,18.018194071451823,0.012860952228017005,0.010503753437660635
421,0.25,0.001,0.012903023883700371,0.009720284678041934,17.836070505777993,0.012730956820683792,0.011589779169298708
422,0.25,0.001,0.012893142923712731,0.009728969261050224,17.732028452555337,0.012656694113172974,0.011792760458774865
423,0.25,0.001,0.012919756832222145,0.009743410162627697,17.80024642944336,0.012705386459274347,0.011236927239224315
424,0.25,0.001,0.012880347979565462,0.00971886853997906,17.71693166097005,0.012645918387558923,0.011290464666672051
425,0.25,0.001,0.012840505254765351,0.009718879933158557,17.493588638305663,0.012486501526270994,0.012422220897860825
426,0.25,0.001,0.012952662259340286,0.009770832334955534,17.830974070231118,0.012727319107945124,0.019662914099171758
427,0.25,0.001,0.01292821355164051,0.00973577710489432,17.890414683024087,0.012769746383314837,0.011654201429337263
428,0.25,0.001,0.012923823359111944,0.009770347798864047,17.672078196207682,0.012613903066529394,0.01179448887705803
429,0.25,0.001,0.012921883103748163,0.009742376953363418,17.817953618367515,0.012718025423531417,0.011615756433457136
430,0.25,0.001,0.012914301703373592,0.00969140933205684,18.06108881632487,0.012891569462044875,0.012656111677642912
431,0.25,0.001,0.013045224050680796,0.009862292495866617,17.837148666381836,0.012731726385711517,0.01530301186721772
432,0.25,0.001,0.012958237839241823,0.009691299311816693,18.307923889160158,0.01306775438198441,0.01945449784398079
433,0.25,0.001,0.012909700969854991,0.009771376848220825,17.587168757120768,0.012553296757402403,0.019877836690284312
434,0.25,0.001,0.012958308309316635,0.009755087705949942,17.95084915161133,0.012812883048973111,0.013212370919063687
435,0.25,0.001,0.012984976358711719,0.009817666312058767,17.749605814615887,0.012669240410146956,0.017561324522830546
436,0.25,0.001,0.012940539047122002,0.009712425246834754,18.090348943074545,0.012912454634599961,0.019363836268894374
437,0.25,0.001,0.012913899061580499,0.00980118770773212,17.44363530476888,0.012450846041947808,0.014937820262275636
438,0.25,0.001,0.012916854023933411,0.009756447312732537,17.710919825236,0.01264162728425125,0.013158297748304904
439,0.25,0.001,0.012875698568920294,0.00972094622751077,17.679232025146483,0.01261900929703532,0.015234143007546663
440,0.25,0.001,0.012962665781378746,0.009774072095751762,17.868880462646484,0.01275437577633582,0.01593992253765464
441,0.25,0.001,0.012881839585800966,0.009712693219383558,17.759896596272785,0.012676585721822117,0.011964804725721478
442,0.25,0.001,0.012858161702752113,0.009649976218740145,17.97867202758789,0.012832742346600921,0.010964772780425847
443,0.25,0.001,0.012914469838142395,0.009697805965940158,18.026185099283854,0.012866656030894971,0.013273482793010771
444,0.25,0.001,0.012892030862470467,0.009721610012153785,17.76703872680664,0.012681683602288822,0.013223049812950194
445,0.25,0.001,0.01286727301776409,0.009632643622656664,18.12686449686686,0.012938518555936375,0.01046474848408252
446,0.25,0.001,0.01278953558454911,0.009609855463107426,17.818926747639974,0.012718720019728747,0.009937552851624787
447,0.25,0.001,0.01285235999772946,0.009681356139481068,17.770305124918618,0.012684015078457258,0.011980642913840711
448,0.25,0.001,0.012876631567875545,0.009714733436703682,17.71927719116211,0.012647592570422634,0.013060484663583338
449,0.25,0.001,0.012955324972669284,0.0097141124928991,18.163754399617513,0.012964849678527847,0.01582955999765545
450,0.25,0.001,0.012870141305029392,0.009691291799147924,17.814272689819337,0.012715398065538428,0.014441724051721394
451,0.25,0.001,0.012857818293074768,0.009614574660857519,18.17513631184896,0.012972973812882913,0.012305727694183588
452,0.25,0.001,0.012856767388681571,0.00967648575703303,17.822299194335937,0.012721127190817942,0.011410364997573197
453,0.25,0.001,0.012815344147384167,0.009596345014870167,18.039271926879884,0.012875997092705128,0.012415597098879516
454,0.25,0.001,0.012819044664502144,0.00964762531220913,17.77263501485189,0.012685678097681577,0.011441291659139097
455,0.25,0.001,0.012836890667676926,0.009681227803230285,17.684334309895835,0.012622651184793601,0.014298823429271579
456,0.25,0.001,0.012930572467545668,0.009651897785564264,18.37369333902995,0.01311469902857241,0.015337802236899734
457,0.25,0.001,0.012840552255511284,0.009649048745632171,17.88518524169922,0.012766013734260685,0.012903845519758761
458,0.25,0.001,0.012877123182018597,0.009668628498911858,17.980405934651692,0.012833979967631472,0.013849306153133512
459,0.25,0.001,0.012817544986804326,0.009571169006327788,18.192691294352212,0.012985504135868816,0.013085682992823422
460,0.25,0.001,0.012847697610656421,0.009666930139064788,17.825020599365235,0.012723069664072259,0.012800349155440927
461,0.25,0.001,0.012794988354047139,0.009540401337047418,18.238705190022788,0.013018347744484503,0.010776754934340715
462,0.25,0.001,0.012890976170698802,0.00973515814791123,17.685204442342123,0.012623272264341272,0.013682243297807872
463,0.25,0.001,0.012873152146736781,0.009593223532040914,18.38072026570638,0.013119714679305053,0.010234107030555606
464,0.25,0.001,0.012834558015068371,0.00958523725469907,18.20919392903646,0.012997283318370063,0.011631811037659645
465,0.25,0.001,0.012843997838596502,0.009650284859041373,17.897567876180013,0.012774852160014285,0.012601537513546646
466,0.25,0.001,0.012806472058097521,0.009596844948828221,17.98675053914388,0.01283850859325045,0.011827185400761664
467,0.25,0.001,0.01278354600071907,0.00958684782187144,17.91429697672526,0.012786792988383484,0.012878200854174793
468,0.25,0.001,0.012737298260132472,0.009523416745165984,18.01059226989746,0.012855526245465711,0.01355645281728357
469,0.25,0.001,0.012736137583851814,0.009544651272396247,17.885089874267578,0.012765945663288779,0.015472090221010149
470,0.25,0.001,0.012803643383085728,0.00960973675052325,17.89865214029948,0.01277562608158421,0.012627865886315703
471,0.25,0.001,0.012853086553514003,0.009620097589989503,18.1176700592041,0.012931955788154249,0.013361096265725791
472,0.25,0.001,0.012796749857564767,0.009579822855691115,18.027659606933593,0.012867708498881936,0.010617514373734593
473,0.25,0.001,0.012773362422982852,0.009522171132266522,18.219676462809243,0.013004765498079402,0.011199903558008373
474,0.25,0.001,0.012769717102249464,0.009639011509716511,17.544474538167318,0.012522822653938129,0.012923107133246958
475,0.25,0.001,0.0126596891010801,0.009506070303420227,17.672880045572917,0.012614475407261183,0.011453712999355048
476,0.25,0.001,0.012770380638539792,0.009515670066078504,18.239398447672524,0.013018842575069611,0.010559128015302122
477,0.25,0.001,0.012761685128013293,0.009569005543986956,17.891776657104494,0.012770718527554957,0.011286750785075128
478,0.25,0.001,0.012809914474685987,0.009580091821650665,18.099926376342772,0.012919290775405263,0.014502677717246115
479,0.25,0.001,0.012829530984163284,0.009604385557274024,18.073715464274088,0.012900582058725258,0.012500519398599863
480,0.25,0.001,0.012766287351648012,0.009555139020085335,17.995276133219402,0.012844593956616275,0.011082723503932357
481,0.25,0.001,0.012809797873099644,0.00961362790937225,17.911336517333986,0.012784679883892924,0.013966096681542695
482,0.25,0.001,0.012899922827879587,0.009685920923948288,18.01126658121745,0.012856007552617735,0.013867009081877768
483,0.25,0.001,0.012797121455272039,0.009527726160983244,18.32169189453125,0.013077581652056566,0.014732658164575696
484,0.25,0.001,0.012686742780109247,0.009572386989990871,17.45284996032715,0.012457423240775981,0.010836610803380609
485,0.25,0.001,0.012799336388707162,0.00957326100518306,18.07892723083496,0.012904302091959287,0.01214717945549637
486,0.25,0.001,0.0128036189203461,0.009525276906788348,18.371828842163087,0.013113368195690997,0.012367165298201144
487,0.25,0.001,0.01277041845023632,0.009608954563736916,17.716844940185545,0.012645856488355136,0.012146717810537666
488,0.25,0.001,0.012737927461663882,0.009475020815928777,18.285329182942707,0.013051626825797793,0.012845344026573002
489,0.25,0.001,0.012832795331875483,0.009631233972807724,17.94154993693034,0.012806245493883183,0.012109030853025615
490,0.25,0.001,0.012786879887183506,0.009540410464008648,18.193214162190756,0.012985877346317455,0.015298816142603755
491,0.25,0.001,0.012780633630851905,0.009542239333192508,18.147962061564126,0.012953577488625358,0.0121427959529683
492,0.25,0.001,0.012734121643006802,0.00955072616537412,17.839748001098634,0.012733581728121795,0.014659926178865135
493,0.25,0.001,0.012811222237845261,0.009540449579556782,18.32941131591797,0.013083091588806545,0.015999258845113218
494,0.25,0.001,0.012837617720166842,0.009600278362631798,18.142049407958986,0.012949357179128469,0.012461599661037326
495,0.25,0.001,0.012821632375319799,0.009573388285934925,18.20315958658854,0.01299297615031302,0.01814681605901569
496,0.25,0.001,0.012744986017545064,0.009512790230413277,18.113225428263345,0.012928783317818233,0.011671023559756577
497,0.25,0.001,0.012802124209702014,0.009576848521828652,18.07444534301758,0.012901103028563583,0.012495853879954666
498,0.25,0.001,0.012676792219281197,0.009449452782670656,18.086011123657226,0.01290935840375248,0.014682993991300464
499,0.25,0.001,0.012926525870958964,0.009700498916208744,18.078654607137043,0.01290410749974093,0.022852982860058546
500,0.25,0.001,0.012760646889607112,0.00954571155210336,18.016497802734374,0.012859741472330032,0.016901481081731617
