epoch,beta,learning_rate,train_loss,train_reconstruction_loss,train_kl_unnormalized,train_kl_normalized,mean_unclipped_gradient_norm
1,0.0,0.001,0.07914682379876724,0.07914682379876724,25.616070294621014,0.018284132972606008,0.09324624282973153
2,0.02,0.001,0.05406135324426372,0.050407753222518496,255.93466186523438,0.18267998705584182,0.11451530829071999
3,0.04,0.001,0.04932442243502597,0.03867913146663194,372.85131990066685,0.26613227687413765,0.10095741120832306
4,0.06,0.001,0.043782009696117556,0.038844128675533066,115.29951477050781,0.08229801197038387,0.0854370945266315
5,0.08,0.001,0.04033820824039103,0.03651920943097635,66.8802164251154,0.04773748495725582,0.057413367820637565
6,0.1,0.001,0.03754823169473446,0.03360913359005042,55.18676218360361,0.039390979431551475,0.03864785177367074
7,0.12,0.001,0.03634731892985527,0.03369376262781596,30.980270674734406,0.022112969789246543,0.03604440949857235
8,0.14,0.001,0.0353483645753427,0.03313057918590729,22.193704084916547,0.01584133053884122,0.02435585350862571
9,0.16,0.001,0.03475884773363971,0.032579372890970924,19.084032540369517,0.013621722013111718,0.015713928267359734
10,0.18,0.001,0.034022700869374804,0.032081378059405266,15.109963889073844,0.0107851276867051,0.021276937132435187
11,0.2,0.001,0.03338047711536138,0.03139915238275672,13.879182333898063,0.009906625505994335,0.021391408517956734
12,0.22,0.001,0.032343322693398506,0.03007304717344467,14.457527632665153,0.010319434427312743,0.032729320494191985
13,0.24,0.001,0.031227497515654325,0.028640200957806422,15.103344483809037,0.010780402914924367,0.04937950189092329
14,0.25,0.001,0.02935366087941208,0.02679217794928888,14.354550920351587,0.010245932134440819,0.017936373129487038
15,0.25,0.001,0.0282447397934668,0.025344572980145013,16.252533594767254,0.011600666377421309,0.025413411802479198
16,0.25,0.001,0.02685367656551828,0.02396875640584363,16.16709123476587,0.01153967968220262,0.03902798837849072
17,0.25,0.001,0.025334952116915672,0.02242776629223366,16.291870396546642,0.011628744037506526,0.02307327583964382
18,0.25,0.001,0.024178974311610663,0.0208801245787228,18.486752327042396,0.013195397806596999,0.02283772892717804
19,0.25,0.001,0.023254223600632014,0.019846263256939976,19.098210151749427,0.013631841650070968,0.024457440711557865
20,0.25,0.001,0.021744610214925776,0.018544043160297653,17.935978128452494,0.012802268471415057,0.0341978111703481
21,0.25,0.001,0.021109541238407897,0.017538421655619384,20.01255621091284,0.014284479807932078,0.04452631462897573
22,0.25,0.001,0.020261600293745897,0.016808819430268775,19.349385752822414,0.013811124734348618,0.03059298691472837
23,0.25,0.001,0.01994083511332671,0.016213695829113323,20.886889698529483,0.01490855795755138,0.02824919085417475
24,0.25,0.001,0.01924173774743321,0.015558742588818675,20.639504095520635,0.014731980082455843,0.02436808935765709
25,0.25,0.001,0.0193449788247094,0.015752159002603905,20.134162421178335,0.014371279386993814,0.05401236803403923
26,0.0,0.001,0.014629108106924428,0.014629108106924428,25.363142090614396,0.018103598922636972,0.04560004108186279
27,0.02,0.001,0.013899847103113478,0.013232782210289227,46.727907623907534,0.033353253121989675,0.031081730366817543
28,0.04,0.001,0.014143989393205353,0.012204764551962868,67.92134695342092,0.04848061881043606,0.01832714583724737
29,0.06,0.001,0.014724403901985197,0.011833214012887141,67.50928119697956,0.048186496214831946,0.013551803438791208
30,0.08,0.001,0.015045288978426746,0.012014755076079658,53.072225628477156,0.03788167425301724,0.0173537354650242
31,0.1,0.001,0.015250546744827068,0.012682692571119829,35.97563433406329,0.025678539853007342,0.03266453503498009
32,0.12,0.001,0.015513871467173701,0.01300667907402973,29.271475897894966,0.020893273303279777,0.03374237726841654
33,0.14,0.001,0.015738604364521576,0.013063733155528704,26.767819221573646,0.019106223570002603,0.018911146292729036
34,0.16,0.001,0.01601495774406375,0.012672765876608665,29.265067534013227,0.02088869916774677,0.02332856479500021
35,0.18,0.001,0.016329402649643446,0.012915812752614117,26.569109059343436,0.018964389050209446,0.030022614502481053
36,0.2,0.001,0.016620617134101463,0.013203793449910602,23.93485038449066,0.017084118761235303,0.023414439654776027
37,0.22,0.001,0.0168125813619958,0.013013363251406136,24.19411279697611,0.017269174016399793,0.024707527165966376
38,0.24,0.001,0.016893821062915253,0.013028547967398408,22.563533166442255,0.0161053056148767,0.01693300503705229
39,0.25,0.001,0.01705646271243541,0.013543851861749032,19.684670592799332,0.014050442964167974,0.029470943313624178
40,0.25,0.001,0.01695591461553116,0.013146732388195968,21.346658263543638,0.015236729667054702,0.034547853017491956
41,0.25,0.001,0.016690696373280852,0.01289910249261543,21.24809280549637,0.015166376021053796,0.023040448581533774
42,0.25,0.001,0.016749148821514664,0.01310457708784426,20.42418379735465,0.014578289648361635,0.03214507895920958
43,0.25,0.001,0.016732669266110115,0.01322827868238844,19.638604848071783,0.014017562346946311,0.040592171783958166
44,0.25,0.001,0.016759000417560038,0.01324578056657555,19.68808530557035,0.01405288030376185,0.033337660399930816
45,0.25,0.001,0.01647798152584018,0.012882511056207045,20.149015099111228,0.014381880870172182,0.030342243345720426
46,0.25,0.001,0.016439500424747514,0.012971715380748114,19.43346615030308,0.013871139293578215,0.04587429788495813
47,0.25,0.001,0.01623665930872614,0.012589811573200153,20.43693434590041,0.014587390682298652,0.02741119877568313
48,0.25,0.001,0.01624722285854696,0.012716740868383586,19.784822040134006,0.014121928651059249,0.019604704874966825
49,0.25,0.001,0.015954503131033193,0.012548433701423082,19.08761188237354,0.013624276861080328,0.020934641361236572
50,0.25,0.001,0.015947152136100665,0.012577546393555222,18.8832700324781,0.013478422578499715,0.03065126296132803
51,0.0,0.001,0.012244905213439706,0.012244905213439706,21.903736885147865,0.01563435894728613,0.03440043090709618
52,0.02,0.001,0.011426877456180977,0.010848815590519496,40.49322898941811,0.02890308992820707,0.0186193459002035
53,0.04,0.001,0.011821282792347248,0.01019231645823127,57.05454604794281,0.04072415849246453,0.012159890428717648
54,0.06,0.001,0.012471082516842417,0.00993048268925361,59.32300305607343,0.04234332837692607,0.018447515155587877
55,0.08,0.001,0.012803434394299984,0.010094828292200661,47.43447035972518,0.03385758055654902,0.013905986877424377
56,0.1,0.001,0.012960012908084224,0.01047717919102823,34.78449644223608,0.024828334362766654,0.01318655362618821
57,0.12,0.001,0.01330777376212857,0.010933062372108301,27.724757743604254,0.019789263200288548,0.01574970981372254
58,0.14,0.001,0.013585381858953924,0.010968550399999426,26.18700724900371,0.018691653996433768,0.017593447252043655
59,0.16,0.001,0.014160036024722185,0.011132141895065404,26.512998985521723,0.018924339033206082,0.021804637940866605
60,0.18,0.001,0.014332998788567504,0.011147063902833244,24.797193469423235,0.017699638450694673,0.026501153196607317
61,0.2,0.001,0.014731401126041557,0.011466189927299215,22.872804198602232,0.01632605581627568,0.023142871912568808
62,0.22,0.001,0.014679720521801047,0.011326669875268985,21.352834894199564,0.01524113839700183,0.014663123791771275
63,0.24,0.001,0.014948544083069068,0.01136938284969691,20.893355398467094,0.014913173018177798,0.016861486581287215
64,0.25,0.001,0.015150248646886662,0.01156726156859988,20.079059176974827,0.014331948020681532,0.02487136104277202
65,0.25,0.001,0.015323082257927669,0.01196106614526173,18.840737718524355,0.01344806403891817,0.02618594161633934
66,0.25,0.001,0.015097245367036926,0.011531624689020893,19.98173846620502,0.014262482845256974,0.023741846371974264
67,0.25,0.001,0.015013136863332204,0.011508191493575019,19.64171388414171,0.014019781501885587,0.024177503639033864
68,0.25,0.001,0.014935875386752263,0.011510512603428027,19.19573331120038,0.013701451328479929,0.015607730285929782
69,0.25,0.001,0.014947023863593737,0.01161882457219892,18.6512297235354,0.013312797804093791,0.01979081758431026
70,0.25,0.001,0.014816649380431634,0.011392240017426737,19.190391771721117,0.013697638666467607,0.020510050867285048
71,0.25,0.001,0.014767438210923262,0.01143820272438755,18.657035943233605,0.013316942143635692,0.01678500563970634
72,0.25,0.001,0.01474490575492382,0.011348492795168752,19.033497319077,0.013585651191346896,0.012532340761806284
73,0.25,0.001,0.01463362080694148,0.011316687799990177,18.58809362276636,0.013267732778562712,0.015661389034773623
74,0.25,0.001,0.014584038876975425,0.011385120630189025,17.926738546352194,0.012795673480622551,0.017157009270574366
75,0.25,0.001,0.014529713965726622,0.011301656959183289,18.09003072796446,0.012912227500331521,0.01912839005568198
76,0.0,0.001,0.01078075888293861,0.01078075888293861,22.16378992254084,0.01581997853143529,0.02622641090835844
77,0.02,0.001,0.010267053156940624,0.009738019159571691,37.058824481386125,0.02645169484752757,0.015087587093668324
78,0.04,0.001,0.01075609265403314,0.009275121125157434,51.87103429466787,0.03702429285843531,0.01268819094236408
79,0.06,0.001,0.011297993192618544,0.009049823761663654,52.4947614958792,0.03746949428685168,0.014835480600595474
80,0.08,0.001,0.01163862089654713,0.009303523284016233,40.89339578031289,0.029188719329274013,0.012726685697478908
81,0.1,0.001,0.011888656718186055,0.00965086513697499,31.351459695835306,0.022377915557341404,0.018102999976170913
82,0.12,0.001,0.012150270930218577,0.00986375699214863,26.695051732689443,0.019054283891998175,0.014313564635813236
83,0.14,0.001,0.01251073471373982,0.01005301552100314,24.594747716730293,0.01755513755655267,0.0153226980141231
84,0.16,0.001,0.012855566341919129,0.010046947709839753,24.592966599897906,0.01755386623832827,0.011923048778304033
85,0.18,0.001,0.01332847714762796,0.010362807811811717,23.08279343807336,0.01647594106928862,0.0225223588890263
86,0.2,0.001,0.013416334638616653,0.010226449449405525,22.345145447085603,0.015949425729540046,0.020748116075992584
87,0.22,0.001,0.013677074517490286,0.01049020289057734,20.294579226561268,0.014485781032520535,0.01756254956126213
88,0.24,0.001,0.013836045090974582,0.010522009663735375,19.34568266435103,0.013808481559137067,0.013276232606066125
89,0.25,0.001,0.013974187227737422,0.010564088708523548,19.110191306682548,0.013640393509409385,0.012781849862741572
90,0.25,0.001,0.013862978413023731,0.010532667474689507,18.663062818122633,0.01332124398152936,0.018672873798225607
91,0.25,0.001,0.013828376289268937,0.010626044735839271,17.94586549624048,0.012809325836003197,0.016282971815339158
92,0.25,0.001,0.013990478693611093,0.010742085176811677,18.203997448237256,0.012993574195743937,0.022587130777537823
93,0.25,0.001,0.013836356086863412,0.010506017547514703,18.663218084007802,0.013321354806572308,0.018719388837260858
94,0.25,0.001,0.013794150918421118,0.010533358882924523,18.273479519468367,0.013043168821890341,0.027709234771983966
95,0.25,0.001,0.013847528702833435,0.01049683288191304,18.777299322263158,0.013402783242157858,0.01753841440326401
96,0.25,0.001,0.013760738733290421,0.010555979701680969,17.959469477335613,0.012819036029504363,0.018359664029308727
97,0.25,0.001,0.013730760654340488,0.010563645173202862,17.748516217626708,0.012668462682103289,0.018893576227128506
98,0.25,0.001,0.013683706954723656,0.01046038656072183,18.063487351542772,0.012893281478617253,0.020717672471489226
99,0.25,0.001,0.013754450396230125,0.010501774216089586,18.22799740415631,0.013010704785265031,0.024132402879851206
100,0.25,0.001,0.013605660326176822,0.010425071674163896,17.824019345370207,0.012722354993126486,0.018151530330734595
101,0.25,0.001,0.013746010628764075,0.01056135774147932,17.846794744934698,0.01273861152386488,0.018361521485660757
102,0.25,0.001,0.013562241286942453,0.010378469967029312,17.841853633071437,0.012735084677424294,0.013945476285048894
103,0.25,0.001,0.013516006934823412,0.010425896957667187,17.316975294941603,0.012360439182684941,0.016466579200433835
104,0.25,0.001,0.013410814727346102,0.010255834200617039,17.68051108928642,0.012619922262160185,0.025962827461106435
105,0.25,0.001,0.013453660457573756,0.010463827703562047,16.755022858128402,0.011959331090741187,0.01709056818591697
106,0.25,0.001,0.013364454232758343,0.010171249602930714,17.894719923385466,0.012772819360018178,0.01588630330349718
107,0.25,0.001,0.013527766697936587,0.010398350975880719,17.537245451801954,0.012517662706496756,0.01833177464348929
108,0.25,0.001,0.013394298116591844,0.01031597714043326,17.250910325483844,0.012313283601344642,0.01838205867846097
109,0.25,0.001,0.01330645333486374,0.010248070018309536,17.139179422397806,0.012233532778299647,0.01125206598745925
110,0.25,0.001,0.013297348151529076,0.01013896559750793,17.69957501960523,0.012633529635692527,0.018882113375834057
111,0.25,0.001,0.013166032091836737,0.009982682510533115,17.839491834544173,0.012733398882615399,0.011684617227209466
112,0.25,0.001,0.013182075618944987,0.010195209851695431,16.73839594137789,0.011947463198699423,0.012191802196736847
113,0.25,0.001,0.013216430264892,0.010139047083529558,17.245655657065036,0.012309532945799454,0.016653916000255516
114,0.25,0.001,0.013156282442687737,0.010078737625118458,17.246561310508035,0.012310179379377612,0.019802986112024103
115,0.25,0.001,0.013027616334382933,0.009950933225377642,17.241732876710216,0.01230673295982171,0.015449456537940673
116,0.25,0.001,0.013095063242045317,0.010097836473523969,16.796459275062638,0.011988907405469406,0.01690917561895081
117,0.25,0.001,0.01312158950087097,0.010052146879259986,17.201156616210938,0.012277770604004952,0.013863164399351393
118,0.25,0.001,0.013139778334233496,0.010081819418554355,17.13680180636319,0.012231835693335611,0.01924085197970271
119,0.25,0.001,0.0130996663179813,0.010038437773332451,17.15512548311792,0.012244914691732991,0.017167486117354462
120,0.25,0.001,0.013069861182811284,0.009918482494399403,17.66032679394038,0.012605515199100914,0.013392322630222355
121,0.25,0.001,0.012949745641137012,0.009958552337731377,16.762648380163945,0.011964774004399676,0.015063400446836437
122,0.25,0.001,0.013000939088412608,0.009908298830116036,17.331156046703608,0.012370561061173168,0.013666945642658643
123,0.25,0.001,0.01290719930759885,0.009878003170168159,16.97561483672171,0.012116784323141835,0.011033797503582068
124,0.25,0.001,0.012962851532255158,0.010011070022227788,16.541783920442214,0.011807126281543337,0.01217653283051082
125,0.25,0.001,0.012952041482985621,0.009878965593272388,17.221517081212514,0.012292303412714143,0.0199409012815782
126,0.25,0.001,0.012916632768030118,0.009857123125005852,17.145492572977087,0.012238038952874437,0.01797406847721764
127,0.25,0.001,0.0130044747463832,0.01014518833747416,16.023441122035788,0.011437145697384573,0.014627924322017602
128,0.25,0.001,0.012894248636909808,0.009882627619486866,16.877124304723257,0.012046484157546935,0.010737653222999402
129,0.25,0.001,0.012960092446795015,0.009910551252577341,17.089627872813832,0.012198164077668688,0.015808261797896454
130,0.25,0.001,0.012794307677658519,0.009759372956298216,17.007774141099716,0.012139738858743553,0.012518241269780057
131,0.25,0.001,0.012791452844711866,0.009803673158390354,16.743517750441427,0.011951119022442133,0.012529534753412008
132,0.25,0.001,0.01282449322517472,0.009829824677470959,16.782123623472273,0.011978674963220751,0.016990572014557465
133,0.25,0.001,0.012828902830604953,0.009806115236697775,16.93970151381059,0.012091150259679223,0.010918032910142626
134,0.25,0.001,0.012627507936247069,0.009665327268944245,16.600060973504576,0.011848723036048947,0.009356957328106676
135,0.25,0.001,0.01271657341846613,0.009750229108965757,16.62339297207919,0.01186537685373247,0.010059453680046968
136,0.25,0.001,0.012613519593471229,0.009600212280121114,16.886574870408182,0.012053229743332035,0.0107041838844972
137,0.25,0.001,0.012684030194926744,0.00970974877815355,16.667873122475363,0.01189712571197385,0.012754444764660937
138,0.25,0.001,0.012665036200272917,0.009628266049078618,17.01806043374418,0.012147080966269935,0.018656248226761818
139,0.25,0.001,0.012753873536683093,0.009694532143196674,17.144549745501894,0.012237365985368946,0.016139077953994274
140,0.25,0.001,0.012721578110799645,0.009611548432572321,17.428607015898734,0.012440119211919154,0.01991323661059141
141,0.25,0.001,0.01277367416957412,0.009773989165709778,16.810235572583746,0.011998740594278192,0.019329243605690345
142,0.25,0.001,0.01258658002497572,0.009623958616319931,16.602530932185626,0.011850486032966186,0.017249143416328088
143,0.25,0.001,0.012522788078646468,0.009566582494763413,16.566576957702637,0.011824822953392317,0.013048260605760984
144,0.25,0.001,0.012527464051740338,0.009613512460180003,16.329785144690312,0.011655806670014498,0.016063461612377847
145,0.25,0.001,0.012517809510381535,0.009544804955672736,16.660717299490265,0.011892018058165785,0.012246467705283846
146,0.25,0.001,0.012534692657716347,0.009636355977919366,16.242277838967063,0.011593346066357646,0.013127815510545458
147,0.25,0.001,0.012421090946053013,0.009454233562479717,16.62627011116105,0.011867430486196323,0.021216484318886484
148,0.25,0.001,0.012523323927789626,0.009556069368063802,16.628493694343952,0.011869017626226946,0.023954387355063642
149,0.25,0.001,0.01234328616034202,0.009363533232850258,16.69853566872953,0.011919011897736994,0.01299846385206495
150,0.25,0.001,0.012535443830520215,0.009698120322116095,15.900361735411364,0.011349294600579133,0.00939906747745616
151,0.25,0.001,0.012437460266731003,0.009503202597525988,16.443579683400163,0.011737030466381273,0.011466539464890957
152,0.25,0.001,0.012441576966507868,0.009411956131872203,16.977995448642307,0.012118483546497007,0.011842859842415367
153,0.25,0.001,0.01244950367871559,0.009548335731255285,16.258144706186624,0.011604671453380887,0.015474922156759672
154,0.25,0.001,0.01251395374084964,0.009566276992737042,16.518781893181078,0.01179070798942261,0.01656083682818072
155,0.25,0.001,0.012520416197602195,0.00953129306435585,16.75104541971226,0.01195649209115793,0.017510931539748396
156,0.25,0.001,0.012513820580536067,0.00959382098017618,16.363678402370876,0.011679998859650875,0.021931583327906474
157,0.25,0.001,0.012464205941392316,0.009523683810851188,16.478685860682017,0.011762088408766608,0.021909133797245368
158,0.25,0.001,0.012413425521567614,0.009448744761146079,16.614071142793907,0.01185872315688359,0.01330583103533302
159,0.25,0.001,0.01243728342832941,0.009549574013987575,16.182724393979466,0.011550838254089554,0.02367460568036352
160,0.25,0.001,0.012417886989435764,0.009467618248303129,16.533306468616832,0.011801075280954199,0.0244311425568802
161,0.25,0.001,0.01241126855026291,0.009483678275813359,16.40621665029815,0.011710361634759563,0.017385083250701427
162,0.25,0.001,0.012363792811002996,0.00941636229893475,16.5173998360682,0.01178972151039843,0.018060530003692423
163,0.25,0.001,0.012360112148929726,0.009470490042609398,16.19344200750794,0.01155848822805706,0.011951624282768794
164,0.25,0.001,0.012393607306435253,0.009354710522474665,17.029977316808218,0.0121555869498988,0.018254468084446022
165,0.25,0.001,0.012301782174318127,0.009405757300555706,16.22932382063432,0.011584099800595517,0.0118410089718444
166,0.25,0.001,0.012295674504430004,0.00938486892993402,16.31215582953559,0.011643223290175296,0.013652501494756766
167,0.25,0.001,0.012254319981568389,0.009349934813199621,16.276173379686142,0.011617539885571836,0.014079570570694548
168,0.25,0.001,0.012309441794500206,0.009436771076059702,16.098447029036706,0.011490683104237478,0.014160378370434046
169,0.25,0.001,0.012179675248611455,0.009271429814021997,16.297808483393506,0.011632982500637764,0.014207707385399513
170,0.25,0.001,0.012354332445697351,0.009414049768538185,16.47734610239665,0.011761132121625016,0.012636532807456595
171,0.25,0.001,0.012157558585808735,0.00915273136901434,16.839051814994427,0.01201930893290109,0.00944334122219256
172,0.25,0.001,0.012251744517172225,0.009249261072413488,16.825916839368414,0.012009933504188733,0.011810187183852707
173,0.25,0.001,0.01221783600296035,0.009323121321321738,16.22198110638243,0.011578858748310085,0.013792662814791714
174,0.25,0.001,0.012240757939941956,0.009316031783442907,16.39016596476237,0.011698905042656938,0.014647175025727068
175,0.25,0.001,0.012170123331474535,0.009163262364877895,16.850449783633454,0.012027444527932515,0.010740520099976234
176,0.25,0.001,0.012260646192413387,0.00935759036942865,16.268725732360224,0.011612223934589739,0.016503079661301205
177,0.25,0.001,0.012244653539976688,0.009256086787302989,16.747927925803445,0.011954266899217306,0.011465898315821375
178,0.25,0.001,0.012190022439968706,0.009213925042951649,16.678049993033362,0.01190438971665479,0.010347401390650443
179,0.25,0.001,0.012120405202637416,0.009176853686721638,16.495662958935053,0.011774206251916526,0.011018265770482165
180,0.25,0.001,0.012252891944213347,0.009363029312079002,16.19479051262441,0.011559450758475668,0.01419439585879445
181,0.25,0.001,0.012170496641310176,0.009272130168598108,16.242445406287608,0.011593465671868386,0.01726823073944875
182,0.25,0.001,0.012025128579651467,0.009141264525665478,16.161174909032958,0.01153545675162952,0.014229741413146257
183,0.25,0.001,0.012151253381461807,0.00925958768530476,16.204894692006736,0.011566662877949134,0.01575808466545173
184,0.25,0.001,0.012164599346843634,0.009228196032721587,16.455605458731604,0.011745614174683514,0.018344175735754625
185,0.25,0.001,0.012136046680612396,0.009283897946729805,15.983441555138791,0.01140859497154803,0.012582507649702685
186,0.25,0.001,0.012139235406812995,0.009203024048621606,16.454528924190637,0.01174484577030024,0.013087361917964049
187,0.25,0.001,0.01219746315230926,0.00924222380148642,16.561161580711904,0.011820957587945683,0.01781181858054229
188,0.25,0.001,0.012177909282271308,0.009239299570897011,16.46796979807844,0.011754439541811877,0.015768762012677535
189,0.25,0.001,0.012180767332514128,0.009241872485915218,16.46956646081173,0.011755579201150414,0.018558830821088383
190,0.25,0.001,0.012227263160501465,0.00932283943161519,16.276388919714726,0.011617693732844202,0.01636641113353627
191,0.25,0.001,0.012148274165211302,0.009206638963084029,16.484923170070456,0.01176654044972909,0.021353574469685555
192,0.25,0.001,0.012083528516343747,0.009124323584590897,16.583384677617236,0.011836819898370618,0.013856413774192333
193,0.25,0.001,0.01206899606481646,0.009070908081614308,16.801285560684974,0.011992352291709476,0.011825832804398877
194,0.25,0.001,0.012099283023013009,0.009266082470239414,15.877255372326783,0.011332801836064799,0.01862803766770022
195,0.25,0.001,0.01215203953060237,0.009233489058761283,16.355557316481466,0.011674202224469283,0.02703494033110993
196,0.25,0.001,0.012069226007419403,0.00899694354809595,17.21707122494476,0.012289130067769279,0.016828487095023905
197,0.25,0.001,0.012056486022592796,0.009243588245502024,15.763479078658904,0.011251591062568811,0.017374242522886822
198,0.25,0.001,0.012096840747152313,0.009319319173392623,15.565231014983823,0.01111008637757589,0.01987832585083587
199,0.25,0.001,0.01210455803407563,0.009120443149121723,16.722980200642287,0.011936459814876722,0.021771496028772423
200,0.25,0.001,0.012106415505210558,0.009206197920697505,16.252819408069957,0.011600870384061355,0.018249296450189183
201,0.25,0.001,0.012048903852701187,0.009197102718506798,15.981494364112315,0.011407205113570532,0.011341052329433816
202,0.25,0.001,0.012021187645844136,0.009108558889817108,16.322371492482194,0.011650514983927333,0.01850631307544453
203,0.25,0.001,0.012106572418953434,0.00919245160890348,16.330733193291557,0.011656483364233803,0.017972132191061974
204,0.25,0.001,0.011954372776954464,0.009084125143485238,16.08486754484851,0.01148099039603748,0.01552065382046359
205,0.25,0.001,0.011958004097745877,0.009110443670340258,15.957728588219846,0.011390241676102673,0.017753399642450467
206,0.25,0.001,0.011898421193237859,0.009063322191136052,15.88789510245275,0.01134039621873858,0.013451783252613885
207,0.25,0.001,0.011976362704628646,0.009021475327887921,16.559189574887053,0.011819550017763778,0.012512661583189453
208,0.25,0.001,0.012004381647766238,0.00902672740395623,16.68677513045494,0.011910617509246924,0.017721009307674
209,0.25,0.001,0.012102085730117378,0.00914937634999403,16.546983468412147,0.011810837593441932,0.019701554839100157
210,0.25,0.001,0.011967912767872665,0.00907886012297387,16.1902509939791,0.011556210559585367,0.013819616088377578
211,0.25,0.001,0.011986989255129086,0.00914334679831459,15.935772365993923,0.011374569854385385,0.016154974832066467
212,0.25,0.001,0.012013987007767263,0.009095210572610599,16.356823006061592,0.011675105643156027,0.014935750115130628
213,0.25,0.001,0.012197064800244389,0.00912470275517365,17.21751690874196,0.01228944818611132,0.03023304351206337
214,0.25,0.001,0.012165280143645677,0.009298250784702373,16.06683245572177,0.011468117384526601,0.024902563409081528
215,0.25,0.001,0.012145239737524528,0.009302252075738378,15.932104332278474,0.011371951700412901,0.020379451103508472
216,0.25,0.001,0.012024314660165045,0.009053284688053108,16.64965196089311,0.01188411988643334,0.01578229306531804
217,0.25,0.001,0.01196361149689465,0.009084145265697228,16.13652880504878,0.011517864957208265,0.022032045759260654
218,0.25,0.001,0.012094945374010789,0.009279491638557779,15.777803286157473,0.011261815336300838,0.02427870041823813
219,0.25,0.001,0.012036234657797549,0.009123804743843849,16.32125678206935,0.011649719330527731,0.020971116343779222
220,0.25,0.001,0.011933829070943775,0.009067061498309627,16.06536551196166,0.01146707031546157,0.021787355920033797
221,0.25,0.001,0.011970762963021042,0.009143356130354933,15.844789148581148,0.01130962822882309,0.0176509182368006
222,0.25,0.001,0.011876941978404618,0.009004799075274154,16.09549001250604,0.01148857245717776,0.018452401405998638
223,0.25,0.001,0.012037065388126806,0.009109578800923897,16.40563560254646,0.011709946896892549,0.019705047298754965
224,0.25,0.001,0.01195004918245655,0.00902472229467498,16.39353282042224,0.011701308222999458,0.015986638542796885
225,0.25,0.001,0.01191471257444584,0.009002400261133608,16.320598563762626,0.011649249510180319,0.014887978322803974
226,0.25,0.001,0.011804920141444061,0.008835969539829578,16.637998946989427,0.01187580224624513,0.010222109899457012
227,0.25,0.001,0.01187193931804763,0.008941833390807263,16.42031382551097,0.01172042385832332,0.013661820840622698
228,0.25,0.001,0.011999723125211519,0.009057770059867338,16.48670497085109,0.011767812256139251,0.019774696257497584
229,0.25,0.001,0.01184810328325539,0.008823714981024916,16.948671706999193,0.012097552967165734,0.014542546855019671
230,0.25,0.001,0.011800221440316451,0.008909446516572828,16.199902813844005,0.011563099795748755,0.010426945053040981
231,0.25,0.001,0.011803060356113646,0.009000493213534355,15.705586269648387,0.011210268572197278,0.015279490500688553
232,0.25,0.001,0.011862427419559523,0.00899451638035702,16.07177420336791,0.011471644684773668,0.013916654512286186
233,0.25,0.001,0.011896432565543989,0.008935930216779011,16.590654874088788,0.011842009189213982,0.017256161996296475
234,0.25,0.001,0.01187981894672519,0.00896650379655337,16.326217844028665,0.011653260416865572,0.012497509497084789
235,0.25,0.001,0.011889286988386602,0.008954740458666677,16.445200110926773,0.011738187088455941,0.01636125406782542
236,0.25,0.001,0.011735506525093859,0.008899100736310386,15.895218020737774,0.011345623141140453,0.015795259337340082
237,0.25,0.001,0.011821014580853058,0.008994060135775745,15.842253713896781,0.011307818496714334,0.015304262616804667
238,0.25,0.001,0.011819608208506999,0.009005147803838204,15.772236159353545,0.011257841655498604,0.01625878124364785
239,0.25,0.001,0.011933805345736369,0.009040615314410793,16.21343680102416,0.011572760029282056,0.026611945991005217
240,0.25,0.001,0.011802992077939438,0.008895521616619644,16.293465161564374,0.01162988234230148,0.018229850567877293
241,0.25,0.001,0.011832387101921167,0.00898210152118194,15.972999900278419,0.011401141970220142,0.013140811917505093
242,0.25,0.001,0.011829929162908082,0.008933544046047962,16.231342556500675,0.011585540725553657,0.011970957342003073
243,0.25,0.001,0.011902717911083289,0.00903970499833425,16.04432460515186,0.011452051823805754,0.01660576236567327
244,0.25,0.001,0.011892754678623845,0.008998184521315676,16.221171147895582,0.011578280619482928,0.014341483957001142
245,0.25,0.001,0.011782277629456737,0.008785724875075047,16.79268139540547,0.011986210846113825,0.013806281079139029
246,0.25,0.001,0.011824406269523833,0.008888541871324332,16.45258402583575,0.01174345754877641,0.013453596936804908
247,0.25,0.001,0.011826545658587205,0.00891363609939663,16.32394644226691,0.011651639145087015,0.017113817589623586
248,0.25,0.001,0.011748123020309992,0.008855135659828331,16.21230144693394,0.011571949640923583,0.012779211093272482
249,0.25,0.001,0.011726653438550656,0.008909302048686178,15.78843756396361,0.011269405827240264,0.011117724435670035
250,0.25,0.001,0.011674173891243308,0.008737046525559643,16.45966086724792,0.011748508827443197,0.01259221715320434
251,0.25,0.001,0.011753481201300717,0.008860637509085313,16.211494888922182,0.011571373939273506,0.013450210647923606
252,0.25,0.001,0.011789396743882786,0.00885970921566089,16.417968538072373,0.011718749848731173,0.018889892979391983
253,0.25,0.001,0.011765720322728157,0.00883973826362629,16.397203194974647,0.011703928047804887,0.016924302891961167
254,0.25,0.001,0.011748828050313574,0.008864723475217218,16.162522537539704,0.011536418656345257,0.014262627145009381
255,0.25,0.001,0.011820607178966807,0.00893115998725548,16.19246203489978,0.011557788747251805,0.012587775675845998
256,0.25,0.001,0.011732844024369813,0.008787597346147804,16.505161805586383,0.011780986299490637,0.011997264011629991
257,0.25,0.001,0.01164651761828649,0.008754495879390626,16.206889451152147,0.011568086688902317,0.01598985313570925
258,0.25,0.001,0.011750988163656056,0.008965853319475145,15.607895908933697,0.011140539549560098,0.010959400928446226
259,0.25,0.001,0.011726571435127595,0.008813333297806859,16.32578643644699,0.011652952488541748,0.01081363730398672
260,0.25,0.001,0.01171266601769009,0.00884481727832345,16.071423887002346,0.01147139463740353,0.01668916576142822
261,0.25,0.001,0.011600322456973972,0.008745931709806124,15.996005010123204,0.011417562462614706,0.0127042959710317
262,0.25,0.001,0.011742161332883617,0.008857926541958192,16.163251260314325,0.01153693880108089,0.012728163706404822
263,0.25,0.001,0.011624030580725333,0.008694906069925337,16.414813003154716,0.0117164975040362,0.01418293799672808
264,0.25,0.001,0.011584221112607705,0.008723670405081728,16.03052555431019,0.01144220239422569,0.014576498019908155
265,0.25,0.001,0.011763825692763233,0.008829313951234022,16.44500559026545,0.01173804824430082,0.0198686651087233
266,0.25,0.001,0.011994342366703834,0.008951551873575558,17.05179784755514,0.01217116191831202,0.03687526897660324
267,0.25,0.001,0.011805877945564612,0.008916684200592113,16.191042216137202,0.011556775314873091,0.020267633322094167
268,0.25,0.001,0.011875362276579395,0.008990942255941907,16.16428916622894,0.011537679633282612,0.016020593898636953
269,0.25,0.001,0.011662278559548085,0.008795953402766074,16.062886883514096,0.011465301130274158,0.01141957685883556
270,0.25,0.001,0.01167693201715898,0.00880775407822144,16.0788736632376,0.011476712107949752,0.010436295132551874
271,0.25,0.001,0.011643950046613963,0.008776638967295488,16.06841118167145,0.011469244241021736,0.011830943836165326
272,0.25,0.001,0.011620349429472529,0.008717870640784803,16.265492699363016,0.011609916273635272,0.012414417096546717
273,0.25,0.001,0.01161382876035541,0.008802218414429162,15.756264436124551,0.011246441424785546,0.012031741706388337
274,0.25,0.001,0.011618235741149296,0.008813344186755142,15.718613248882871,0.011219566915690843,0.011206903561417545
275,0.25,0.001,0.011726133544186149,0.008781033060090109,16.504344670459478,0.011780403048150949,0.01949585841170379
276,0.25,0.001,0.011722372713113072,0.008751873801829237,16.64667591904149,0.011881995659558522,0.019503569629575526
277,0.25,0.001,0.011689596395525668,0.008713327545785543,16.679012182987098,0.011905076504630335,0.017316047168735946
278,0.25,0.001,0.011619784135484335,0.008835387091632143,15.603761355082193,0.011137588404769588,0.020351672944213663
279,0.25,0.001,0.011670968297756079,0.00873082879497999,16.476542174214064,0.011760558297083558,0.014871070294507913
280,0.25,0.001,0.011646893628016866,0.008692544160617722,16.556175386062776,0.011817398562500197,0.02286035075251545
281,0.25,0.001,0.011707463743861276,0.008958000106492428,15.40799454968385,0.010997854782072698,0.022341238733913218
282,0.25,0.001,0.01166037575464056,0.008825125690135691,15.888740751478407,0.011340999822611282,0.01566948781588248
283,0.25,0.001,0.011567838838079362,0.008655638208217693,16.31997223093052,0.011648802448915432,0.013781830003218991
284,0.25,0.001,0.011617527578515236,0.008818803308061276,15.68405112834892,0.011194897307886451,0.017978818421917304
285,0.25,0.001,0.011707741710724253,0.008776094613954274,16.428951109298552,0.01172658894311103,0.02107381315103599
286,0.25,0.001,0.011630674316124483,0.0086698871472794,16.59225082397461,0.011843148339739193,0.015432417525776796
287,0.25,0.001,0.011547108105562552,0.008708191527561708,15.909288271509036,0.011355666146687392,0.017444908618927002
288,0.25,0.001,0.011695598769519065,0.008848220269863654,15.956708811750316,0.011389513784261467,0.021241304065499986
289,0.25,0.001,0.011738041331144896,0.008864580860568417,16.102872386123195,0.01149384181736131,0.015209159414683069
290,0.25,0.001,0.01156491840803864,0.008721153477601933,15.93645810599279,0.01137505931905267,0.017145640549382994
291,0.25,0.001,0.011582024564797228,0.008813979518082406,15.512124957460346,0.011072180554932438,0.012309774357293333
292,0.25,0.001,0.01153442370846416,0.008654199898092433,16.14077505439219,0.011520895827546174,0.010240738745778799
293,0.25,0.001,0.011510251955402017,0.00869451668301616,15.779380278153853,0.011262940955141937,0.012998975746865784
294,0.25,0.001,0.011518432504751465,0.008634740585517702,16.160209617229423,0.011534767749628425,0.01236138612564121
295,0.25,0.001,0.011482507216207909,0.00856536195961514,16.347682548291754,0.011668581404919168,0.012007444298693113
296,0.25,0.001,0.011472950924677079,0.008612605310374439,16.02937777355464,0.011441383136013304,0.00932326280911054
297,0.25,0.001,0.011551879760291841,0.008693793092412179,16.016718219024966,0.011432347051409683,0.015089810825884342
298,0.25,0.001,0.011522309506556602,0.008654339756402705,16.072101862743647,0.011471878560131083,0.010403425499264683
299,0.25,0.001,0.011518930000337687,0.008681479559251757,15.901071452131175,0.011349801179251374,0.010900751953678471
300,0.25,0.001,0.011618565165936345,0.00866227684486093,16.567038333777226,0.011825152272503374,0.013626099763704198
301,0.25,0.001,0.01163202320987528,0.008791093526389262,15.920570123075235,0.011363718860153629,0.020382896464850222
302,0.25,0.001,0.011634191225348698,0.008730381501443459,16.272951646284625,0.011615240289996163,0.01588806909109865
303,0.25,0.001,0.011660620015152175,0.008639679831273929,16.929349359839854,0.01208376114192709,0.012413412598626954
304,0.25,0.001,0.011702170670785085,0.008823141869571473,16.13407760196262,0.01151611534758217,0.014625912133072103
305,0.25,0.001,0.011637412792429178,0.008752035861364518,16.169652457189077,0.011541507820977214,0.014446411015731948
306,0.25,0.001,0.011644471352073279,0.008770779621872034,16.104169055668994,0.011494767348800138,0.012576001696288586
307,0.25,0.001,0.01160282004775122,0.008731335617902906,16.09180030437431,0.011485938832529843,0.01126357021608523
308,0.25,0.001,0.011522336166841214,0.008668154017115482,15.994838175147471,0.011416729603959652,0.01056467735075525
309,0.25,0.001,0.011526106866170662,0.008662885609976571,16.04549342454082,0.011452886098887094,0.01295271668849247
310,0.25,0.001,0.011533309893701413,0.008617393249137835,16.34079723165493,0.011663666832016365,0.014520357229879923
311,0.25,0.001,0.011501189706978774,0.00862284777027489,16.130227801775693,0.011513367453087574,0.013621584911431586
312,0.25,0.001,0.011429090052843094,0.008643305117283204,15.611538896657,0.011143139826307638,0.013283401993768556
313,0.25,0.001,0.011500158112006957,0.00867879358731737,15.810926129119565,0.011285457622497904,0.010762195235916547
314,0.25,0.001,0.011508821067635459,0.008660865345537061,15.959943886959191,0.011391822902897353,0.014799349009990692
315,0.25,0.001,0.011518223982567738,0.00861157039462617,16.288886147316056,0.011626613952402609,0.0159322199012552
316,0.25,0.001,0.011594692339198758,0.008586379120860136,16.858587024187802,0.012033252693924199,0.023289752458887442
317,0.25,0.001,0.01152657201005654,0.00862861205494464,16.24016752146711,0.011591839772638909,0.019712806014078006
318,0.25,0.001,0.01148681410334327,0.008583747217375221,16.2687865363227,0.011612267334991221,0.01557320509372013
319,0.25,0.001,0.01157718872406868,0.008727513178430422,15.969581546205463,0.011398702031552794,0.01122465037873813
320,0.25,0.001,0.01152722586435501,0.008596687737588931,16.422735975246237,0.011722152730368477,0.01143327634781599
321,0.25,0.001,0.011556294727882352,0.008673754332568308,16.153756266892557,0.011530161503849078,0.019837506913713047
322,0.25,0.001,0.01149698995016139,0.008645015749892201,15.982462960060197,0.011407896473990148,0.020814793117876564
323,0.25,0.001,0.011440893240047224,0.008607418351627961,15.878793128813156,0.011333899449545435,0.013076326876346554
324,0.25,0.001,0.011428540610153266,0.008589516591393587,15.909891851020582,0.011356096967181002,0.015777606250984327
325,0.25,0.001,0.011391550678797442,0.008516352529628108,16.11261180916218,0.011500793582556873,0.011766064512942518
326,0.25,0.001,0.011403702886191884,0.008578091841002907,15.83472385791817,0.01130244386717928,0.01395853768501963
327,0.25,0.001,0.011475438938824216,0.008647201027758795,15.849445921002012,0.01131295212062956,0.01305228897503444
328,0.25,0.001,0.0114284883620161,0.008562249902899216,16.062400085757478,0.011464953665779784,0.014651759527623653
329,0.25,0.001,0.011518336794894151,0.008722920083638393,15.665515032681553,0.01118166668999397,0.01634381219212498
330,0.25,0.001,0.011456212085304838,0.008579271916074284,16.12237450570771,0.011507761959819921,0.01235691863777382
331,0.25,0.001,0.011465458048865049,0.008562705084455736,16.267028981989082,0.01161101283510998,0.014322935603559017
332,0.25,0.001,0.011494707325567502,0.008662738945485667,15.87035034642075,0.011327873195161134,0.01428865295435701
333,0.25,0.001,0.011395795797609319,0.00853101634467491,16.054224996855766,0.011459118484550867,0.01523700256698898
334,0.25,0.001,0.01153257413946017,0.008619372676493544,16.325581502432776,0.011652806211586564,0.016589330908443247
335,0.25,0.001,0.011490468801272035,0.008629184573738262,16.034637605301057,0.011445137477017172,0.01335172528134925
336,0.25,0.001,0.01155984303866974,0.008636015707231832,16.385127607018056,0.011695308784452574,0.012364810931363277
337,0.25,0.001,0.011494533695054777,0.0086249965290078,16.080885781182182,0.011478148309194991,0.015097358796213354
338,0.25,0.001,0.011449086837320014,0.008541299622844566,16.29524005543102,0.01163114921872307,0.014051132702401705
339,0.25,0.001,0.011359385619259844,0.008501093185534983,16.017871143841983,0.011433169981329039,0.013931221727813994
340,0.25,0.001,0.011380793075218346,0.008569988102247619,15.751751639626242,0.011243220299519088,0.013627953827381134
341,0.25,0.001,0.01145309725343579,0.008556488515677476,16.232594750144266,0.0115864345111665,0.015288679727486201
342,0.25,0.001,0.011498531392502665,0.008579739388266597,16.356911322083135,0.011675168681001524,0.01409825636073947
343,0.25,0.001,0.011536237830766525,0.008660931017889518,16.11321925153636,0.011501227160268638,0.013559300385947739
344,0.25,0.001,0.0114018413699185,0.00850111512335563,16.255671221800526,0.011602905939900448,0.015322559313582522
345,0.25,0.001,0.011537816018016652,0.008638862689787691,16.245734898730962,0.011595813632213393,0.014983555302023888
346,0.25,0.001,0.011348504130963725,0.008494170241509422,15.99568634803849,0.01141733500930656,0.009961119586867946
347,0.25,0.001,0.011525040144345374,0.008719933830728435,15.71981538907446,0.011220424974357216,0.01606646299894367
348,0.25,0.001,0.011416057877317823,0.008517324115441304,16.244502520320392,0.011594933990235826,0.017452105081507137
349,0.25,0.001,0.01144782000343607,0.008490510200234976,16.57276338519472,0.01182923867608474,0.01477921927081687
350,0.25,0.001,0.011389001921722383,0.008532564663751558,16.007474860759697,0.011425749365281726,0.013372909809861864
351,0.25,0.001,0.011408408812124921,0.008566001618299821,15.928850540007003,0.011369629221989296,0.012784962409308978
352,0.25,0.001,0.011449596139066147,0.008553636119221195,16.228961019804984,0.011583840842116335,0.012479490933141537
353,0.25,0.001,0.011335382106328252,0.008497834600733988,15.901617156134712,0.011350190689603648,0.009897809675229447
354,0.25,0.001,0.011396296886783657,0.008598627635475361,15.678139445757624,0.01119067769147582,0.013334738489772593
355,0.25,0.001,0.011428333818912506,0.008575293992768334,15.988435051657937,0.011412159208892176,0.019210771125342165
356,0.25,0.001,0.011416969124716942,0.008551390089019381,16.058705146866615,0.011462316307542195,0.017086889062608992
357,0.25,0.001,0.011389551176266237,0.008620339398733292,15.518661961410984,0.0110768465106431,0.021383565850555897
358,0.25,0.001,0.011481608141853351,0.008531813820203146,16.530647008105962,0.011799177022202685,0.024864646207009043
359,0.25,0.001,0.011541876603256573,0.008665077341250096,16.121583466578013,0.011507197335173457,0.03436068405530283
360,0.25,0.001,0.011581921131547653,0.008762029728692288,15.802672347637138,0.011279566272403382,0.026007003017834256
361,0.25,0.001,0.01150991130770758,0.008600365718582062,16.30509310057669,0.011638182084637181,0.017099634877273014
362,0.25,0.001,0.011522208848460154,0.008627149850280598,16.223909493648645,0.011580235184617163,0.01908888534775802
363,0.25,0.001,0.01142039302397858,0.008532610900624835,16.18313145878339,0.011551128807125903,0.016526016805853163
364,0.25,0.001,0.01141137954299197,0.008603352996887583,15.736181105026091,0.011232106427570372,0.01529256726748177
365,0.25,0.001,0.0113765759525275,0.0084462942310957,16.421298325663866,0.011721126570780775,0.01200427713670901
366,0.25,0.001,0.011332409381113871,0.00843435950163338,16.240672072978935,0.011592199909335427,0.014315299556723662
367,0.25,0.001,0.011356443486580945,0.008600566968923867,15.44393161812214,0.011023505794519729,0.01820616370865277
368,0.25,0.001,0.01153071192704668,0.008664433025952541,16.062626077671244,0.011465114973355634,0.02219375701887267
369,0.25,0.001,0.011480654373463958,0.00844405743886124,17.017088899708757,0.012146387508714315,0.019499705705259527
370,0.25,0.001,0.01141911330209537,0.008593604476614431,15.834151643695254,0.011302035434471986,0.017391004333538667
371,0.25,0.001,0.01137645790974299,0.00855507268899619,15.811043537024295,0.011285541425427762,0.016246064699121883
372,0.25,0.001,0.011412543423398577,0.008492196844232202,16.365621971361566,0.011681386132306614,0.01285112729029996
373,0.25,0.001,0.011369698897305162,0.008492837664718278,16.12193082558988,0.011507445271655875,0.011687990411051683
374,0.25,0.001,0.011429853144694458,0.008519913662563671,16.307301839192707,0.011639758628974095,0.016320756636559963
375,0.25,0.001,0.011454176251785924,0.008418353584905466,17.0127506448765,0.01214329096707816,0.013019054595913206
376,0.25,0.001,0.011321343773166941,0.00841979943027701,16.260254840658167,0.011606177616458364,0.012888799421489239
377,0.25,0.001,0.011395031454587224,0.008598144561278097,15.673755298961293,0.01118754839326288,0.012780026466186558
378,0.25,0.001,0.01130097418684851,0.008388043889267878,16.324060189603554,0.011651720335191688,0.012225475428359849
379,0.25,0.001,0.01133398273301245,0.008494080994466338,15.914809795341107,0.011359607277188512,0.015709932893514633
380,0.25,0.001,0.011398301431626984,0.008544815346749142,15.990935682046294,0.011413944098534114,0.016185386372464045
381,0.25,0.001,0.011480699227464319,0.008502797684585206,16.68816007748999,0.01191160605102783,0.01271374144458345
382,0.25,0.001,0.011394508032485692,0.008583113767507703,15.755053712864115,0.011245577239731703,0.012164698913693428
383,0.25,0.001,0.01122807539209272,0.008440766925688344,15.620076863452642,0.011149234021022586,0.011072901410183736
384,0.25,0.001,0.011237752736743652,0.008393346698898258,15.940051435220122,0.011377624150763828,0.012626638702516044
385,0.25,0.001,0.011369053547204746,0.008533769155466797,15.888934048739346,0.011341137793532723,0.01627354683088405
386,0.25,0.001,0.01130401175657306,0.008477896320247891,15.837550577491221,0.011304461511414147,0.011581949423998594
387,0.25,0.001,0.011360797485468364,0.008469448951684465,16.203117987122198,0.011565394708866665,0.016038190041269575
388,0.25,0.001,0.011297602488687544,0.008435225302372316,16.040761870567245,0.011449508829812452,0.01768373591559274
389,0.25,0.001,0.011363554708283357,0.008530098098245535,15.878691490250404,0.011333826902391438,0.016987302074474946
390,0.25,0.001,0.01135070360444411,0.008508604226840867,15.92712572849158,0.011368398093141741,0.015944835862943103
391,0.25,0.001,0.011400215064335351,0.008606918231405393,15.653635130988228,0.011173187102775322,0.017981299864394323
392,0.25,0.001,0.0113645667831103,0.008444474713707512,16.364195486511846,0.011680367941835723,0.022478623847876276
393,0.25,0.001,0.011271659266015496,0.008363005319478535,16.300097850838092,0.01163461659588729,0.013233148226780551
394,0.25,0.001,0.011268526776646725,0.008440393738147586,15.848858804413766,0.011312533050973423,0.010962982795068197
395,0.25,0.001,0.011302336448370809,0.008453858216678855,15.962872283627288,0.011393913121789641,0.012061916890421085
396,0.25,0.001,0.011262945341642457,0.008353436234021428,16.30488988124963,0.011638037031584317,0.01099900488874742
397,0.25,0.001,0.011262249831825194,0.008363090624863451,16.246888671258482,0.011596637167208053,0.01420004918639149
398,0.25,0.001,0.011270669486486551,0.00854019055406403,15.301603644785255,0.010921915520903108,0.012810810868229185
399,0.25,0.001,0.011313561350107193,0.00840979376149298,16.272714518537423,0.011615071033931066,0.01113850689892258
400,0.25,0.001,0.011253127188544081,0.008307590055270027,16.50679035379429,0.0117821487179117,0.012276146095246077
401,0.25,0.001,0.011248404235400335,0.008403335011216125,15.943767875131934,0.011380276855911444,0.012283515185117722
402,0.25,0.001,0.011284336306606278,0.008542805533818525,15.363537740225743,0.010966122584029795,0.011892862019262143
403,0.25,0.001,0.011288194380926363,0.008462736820519873,15.833864346899167,0.011301830368950156,0.014538423690412725
404,0.25,0.001,0.011265946890820156,0.008397725344908357,16.07351231815839,0.011472885309178008,0.014481668892715658
405,0.25,0.001,0.011297556929139778,0.00847637713557542,15.809892211297546,0.011284719636900462,0.013002284935542516
406,0.25,0.001,0.011315593270189835,0.008491138767714452,15.828242812493835,0.011297817853314657,0.01207501401326486
407,0.25,0.001,0.011307896876877005,0.008449632890823514,16.01771117701675,0.011433055800868487,0.010671413370541163
408,0.25,0.001,0.011420118979959175,0.008530660697042641,16.192524572815557,0.01155783338530732,0.019416282884776592
409,0.25,0.001,0.011348577724261717,0.008491519424650405,16.010956166970608,0.011428234237666387,0.01623485383710691
410,0.25,0.001,0.011279547380076515,0.008361353407228234,16.353558973832563,0.01167277585569776,0.01570384989359549
411,0.25,0.001,0.011319588305372181,0.008519565470215647,15.691328299165976,0.011200091576849376,0.016744729397552355
412,0.25,0.001,0.011331054692467054,0.008508024059913376,15.82026464288885,0.011292123228328944,0.01730418684227126
413,0.25,0.001,0.01121547393914726,0.008246027253041363,16.64077991909451,0.011877787237041049,0.01441631599196366
414,0.25,0.001,0.011254687633628796,0.008391776282076885,16.043755483145667,0.011451645598248156,0.01345024657036577
415,0.25,0.001,0.011272069443054873,0.008417875101469983,15.994905202075689,0.011416777446163946,0.013545537367463112
416,0.25,0.001,0.011278559679560589,0.008406815034422007,16.09325765359281,0.011486979053242549,0.013321950765592712
417,0.25,0.001,0.011297085313032371,0.008431885951208045,16.0565765072601,0.011460796935945825,0.013016226701438427
418,0.25,0.001,0.011320331773598386,0.008458519561423196,16.037596018627436,0.011447249121075972,0.015842417255043983
419,0.25,0.001,0.011266668477669509,0.008427436374165494,15.911057000208382,0.0113569286225613,0.01250762545636722
420,0.25,0.001,0.011349657804451206,0.008534142926260077,15.778146396983754,0.011262060240530874,0.010653583465942315
421,0.25,0.001,0.011332268751405104,0.008416585694772728,16.33948795241539,0.011662732300082362,0.015133862383663654
422,0.25,0.001,0.011239266606292339,0.008387317777507834,15.982321170845417,0.011407795268269391,0.010274907773626702
423,0.25,0.001,0.01131312462567079,0.008566499932321033,15.392084622623944,0.010986498659974264,0.013509630624737059
424,0.25,0.001,0.011221696086453669,0.008315173843217016,16.288151153410325,0.011626089331484886,0.011202497607363122
425,0.25,0.001,0.011217001025950668,0.008371346583119546,15.947045952382714,0.01138261666836739,0.011545608751475811
426,0.25,0.001,0.011166126683655412,0.008318537206511305,15.957891579830285,0.011390358015581931,0.01369813151125397
427,0.25,0.001,0.011263151154524148,0.008417066007927812,15.949462206676753,0.011384341332388831,0.013376027944364719
428,0.25,0.001,0.011234553229778704,0.008294666947966272,16.475122933435923,0.01175954527725619,0.011733044204967362
429,0.25,0.001,0.011231440260554806,0.008334731400916071,16.233157128998727,0.011586835923625072,0.011642149915652615
430,0.25,0.001,0.011287033031083117,0.008517277257686312,15.521710463244506,0.011079022457704858,0.01462469675711223
431,0.25,0.001,0.011250336137082841,0.008330779310052444,16.361195997758344,0.011678226979128011,0.01284343543063317
432,0.25,0.001,0.011254898470008013,0.008320156767061262,16.446292231781314,0.011738966617973814,0.01236674322613648
433,0.25,0.001,0.011275323399464892,0.008392980764384824,16.152648251466076,0.011529370629169219,0.012907597768519605
434,0.25,0.001,0.011314292372477174,0.008427908832226137,16.175294394444936,0.011545534899675186,0.014721231668123178
435,0.25,0.001,0.011197667042113314,0.008393373660216428,15.715260688704674,0.011217173939118254,0.014933790346341473
436,0.25,0.001,0.01131523803177506,0.008512170279793667,15.70839184462422,0.01121227112392878,0.011046200059354305
437,0.25,0.001,0.011265935667912768,0.008377705818286748,16.18564075893826,0.011552919885038015,0.01813860729868923
438,0.25,0.001,0.011376990447516996,0.008500260851261291,16.121193047725793,0.01150691866361584,0.02180252769695861
439,0.25,0.001,0.011213084193642694,0.008364459876008708,15.963690179767031,0.011394496916321935,0.01196437714887517
440,0.25,0.001,0.011255511882329228,0.008442249934593535,15.765519228848545,0.011253047272554278,0.014421434008649417
441,0.25,0.001,0.011207529324850049,0.008322141932869198,16.169711816190468,0.011541550190000334,0.013452244656426566
442,0.25,0.001,0.011289462494202937,0.008410577709325637,16.133271130648527,0.011515539707814795,0.017902394091444358
443,0.25,0.001,0.011244658183193567,0.00842673395468731,15.791647997769443,0.011271697357437147,0.014035123666482312
444,0.25,0.001,0.011288210062893352,0.008422173597294875,16.061268430767637,0.01146414591774992,0.014343035074749164
445,0.25,0.001,0.011258591032314181,0.008331826888024807,16.40158659039122,0.011707056809701084,0.014460568582373006
446,0.25,0.001,0.011269930053991501,0.008402967129391854,16.06646034934304,0.011467851783970763,0.013418412368212427
447,0.25,0.001,0.011217576498636092,0.008341319539179706,16.118543220288824,0.011505027280720075,0.012921703713280814
448,0.25,0.001,0.011308282848936741,0.008487012171459318,15.810400066953717,0.011285082132015501,0.01735962461680174
449,0.25,0.001,0.011227087164768066,0.008259782097255341,16.628778245713974,0.01186922073212989,0.016002479940652847
450,0.25,0.001,0.011241207633054617,0.00836265409798032,16.131415174464987,0.011514214971067086,0.015372088977268763
451,0.25,0.001,0.01117913963066207,0.00834301896769591,15.893619961208767,0.011344482484802831,0.012260511717093843
452,0.25,0.001,0.011250961308527475,0.008424796808435761,15.837825678815745,0.011304657872102603,0.017818721011281013
453,0.25,0.001,0.011233543629071327,0.008378941161238183,15.997192633272421,0.011418410159366468,0.015270767201270376
454,0.25,0.001,0.011245345819101792,0.00839838565261376,15.954364429820668,0.011387840420999763,0.012930976493018014
455,0.25,0.001,0.011256597324678994,0.008348373075326284,16.297689187406288,0.011632897350040177,0.014256613462099008
456,0.25,0.001,0.011170923484094215,0.008262343017967662,16.29968486169372,0.011634321814199657,0.011405866992260729
457,0.25,0.001,0.011195201398522564,0.008368298336110934,15.841964991405757,0.01130761241356585,0.01492320919143302
458,0.25,0.001,0.011216986068345682,0.008381658609994132,15.889175511369801,0.011341310143732906,0.01653689012995788
459,0.25,0.001,0.011185336707517354,0.008310823155698753,16.10877501362502,0.011498054970467539,0.016565993428230286
460,0.25,0.001,0.011245132480381113,0.00831223340385189,16.435967108215948,0.01173159679387291,0.013103089827511991
461,0.25,0.001,0.011262198195162446,0.008394533043934239,16.070396750864358,0.011470661492408536,0.012763605852212225
462,0.25,0.001,0.011168950397257854,0.008341770986038628,15.843513951157078,0.011308718023666722,0.013186550300036157
463,0.25,0.001,0.011222869534083087,0.008421991086292147,15.696123075003575,0.011203513972165293,0.014777240875576223
464,0.25,0.001,0.011226005626447273,0.008450405004274363,15.55446628609089,0.011102402773797922,0.01366134759570871
465,0.25,0.001,0.011159866013460688,0.008316191223760446,15.93595497054283,0.011374700193106945,0.013441391289234161
466,0.25,0.001,0.011158373159817372,0.00832122883223223,15.899357622320002,0.011348577888879373,0.012569978700152465
467,0.25,0.001,0.011093058294118052,0.00829374280316059,15.68736351860894,0.011197261612140571,0.011190864057945353
468,0.25,0.001,0.0110973690006167,0.008334298994429785,15.48424397092877,0.011052279779392412,0.014975737913378648
469,0.25,0.001,0.011086624586070426,0.008296396112953774,15.636440662422565,0.011160914105940447,0.012742120905646257
470,0.25,0.001,0.011110840835655578,0.008240478150922843,16.085513721812855,0.011481451621565207,0.013042359479836054
471,0.25,0.001,0.011139492899405233,0.008358212677065772,15.586294511351923,0.011125120993113436,0.012726951124412673
472,0.25,0.001,0.011161320588805458,0.008304012661818603,16.012354378748423,0.011429232247500658,0.011663920512156827
473,0.25,0.001,0.011094190067414082,0.008246178099076556,15.960259466460258,0.011392048155931662,0.011991816040660654
474,0.25,0.001,0.011174319086201263,0.008334839058042777,15.912446243594392,0.01135792023097387,0.013125569825725896
475,0.25,0.001,0.011102935506237878,0.008249938981889776,15.988193714257443,0.011411986948078118,0.013428597711026669
476,0.25,0.001,0.01106977579419059,0.008256272558649682,15.7668711729724,0.01125401225765339,0.010493827917213951
477,0.25,0.001,0.011061621378317024,0.008313878806251469,15.398350118386626,0.010990970819690667,0.013611283552433764
478,0.25,0.001,0.01115648096634282,0.008348373987834262,15.736631605360243,0.011232427983840287,0.01369976278926645
479,0.25,0.001,0.01104180533627067,0.008209223445090983,15.8737880822384,0.01133032696805025,0.01302934777257698
480,0.25,0.001,0.011057509589150097,0.008264693939550356,15.6509384097475,0.011171262248213775,0.019261331563549384
481,0.25,0.001,0.011182700594266256,0.008316176924666371,16.06399917602539,0.01146609505783397,0.016311851862285818
482,0.25,0.001,0.011062088328404258,0.008145582010837817,16.344103052158548,0.011666026446936865,0.01322891762746232
483,0.25,0.001,0.011164642588207216,0.008391326679048515,15.541661753798977,0.011093263207565294,0.014828604379934924
484,0.25,0.001,0.011141790284050835,0.008276818000306987,16.055305654352363,0.011459889831800402,0.010879262816160917
485,0.25,0.001,0.011214296643932661,0.008335758687345067,16.131326232293638,0.011514151486290963,0.013218994385429792
486,0.25,0.001,0.01123193557364772,0.008288639494114451,16.494231060297803,0.011773184197214705,0.011812583543360233
487,0.25,0.001,0.011064527913777515,0.008257425333740133,15.73100286541563,0.01122841032506469,0.012206706617559706
488,0.25,0.001,0.011129746580439987,0.008313346541289127,15.783106929124004,0.011265600948696648,0.012487358546682767
489,0.25,0.001,0.01119778732383492,0.008375880562446335,15.813964593290079,0.011287626404917973,0.012497317578111376
490,0.25,0.001,0.011176873816911018,0.008352575837775614,15.82736500826749,0.011297191297835468,0.01074165930705411
491,0.25,0.001,0.011158892358041773,0.00825458209999282,16.275756315751508,0.011617242195397223,0.01449257122086627
492,0.25,0.001,0.011104575358331203,0.008241261082767235,16.04601287841797,0.011453256872532454,0.012899568171373435
493,0.25,0.001,0.01111498155226611,0.008300454412220102,15.772610606569232,0.011258108926887389,0.012056207616946526
494,0.25,0.001,0.011147412697248386,0.008257154596386233,16.197006976965703,0.011561032817248896,0.01276421220973134
495,0.25,0.001,0.011166126203883176,0.008308553221550856,16.01383918222755,0.011430292064402247,0.01389184853594218
496,0.25,0.001,0.011100157239295617,0.008237726600708985,16.04106066925357,0.011449722105106046,0.013597990718803235
497,0.25,0.001,0.011228680601249439,0.008368009701371193,16.031200312604806,0.011442684020417421,0.019474235895488943
498,0.25,0.001,0.01125572111006036,0.008323425935073332,16.432580967142126,0.011729179848067185,0.015149373162005628
499,0.25,0.001,0.011134967095021046,0.008238941271121453,16.229327827993064,0.01158410266095151,0.018852441837745055
500,0.25,0.001,0.011148693990150485,0.008342745285857506,15.724536375565963,0.011223794700618104,0.016019598181758608
