epoch,beta,learning_rate,train_loss,train_reconstruction_loss,train_kl_unnormalized,train_kl_normalized,mean_unclipped_gradient_norm
1,0.0,0.001,0.0647728123035212,0.0647728123035212,35.97838499351931,0.025680503207365677,0.08379685692489147
2,0.02,0.001,0.05022758047148927,0.04647908501311483,262.58211534854513,0.18742477897826204,0.08134831534698606
3,0.04,0.001,0.04486524509674323,0.04249549076147766,83.00065951257757,0.059243868317328745,0.06789242709055543
4,0.06,0.001,0.04151661554059803,0.0387575552178574,64.42405493622782,0.04598433614291779,0.041250287322327495
5,0.08,0.001,0.03914950449711843,0.03686153592390158,40.06803417803101,0.028599596129929346,0.02277366816997528
6,0.1,0.001,0.03641180157474785,0.03427376906875529,29.95384416201916,0.021380331307651077,0.02436169923748821
7,0.12,0.001,0.03338456651611965,0.030929918130684745,28.658023682914845,0.020455405912144786,0.02202164987102151
8,0.14,0.001,0.030460585670891785,0.027756559248383706,27.059582250352193,0.019314476980979437,0.019218805362470448
9,0.16,0.001,0.0288281284490433,0.025753315857034137,26.923824549219056,0.019217576409149933,0.024528045440092683
10,0.18,0.001,0.027463744668628328,0.024343544943938672,24.285555534920263,0.017334443636631166,0.0200939899077639
11,0.2,0.001,0.02631749698818352,0.023226244767859484,21.65422085182652,0.015456260422431492,0.02295540797058493
12,0.22,0.001,0.025303015574843997,0.021783683025171214,22.411747408809145,0.015996964603004385,0.04180501576047391
13,0.24,0.001,0.02399967770269121,0.0202471006366119,21.905670751360613,0.015635739294333057,0.028523446759209037
14,0.25,0.001,0.022611519454012085,0.018812766730287627,21.288210823043155,0.015195011294106463,0.023584074690006673
15,0.25,0.001,0.021587713670164408,0.017906880488382,20.627389581317942,0.014723333034488181,0.019941227161325514
16,0.25,0.001,0.020895092777270117,0.017053256136032757,21.52965356910403,0.015367347301287674,0.02605068136472255
17,0.25,0.001,0.020718048927461676,0.01698894387340496,20.897905106833186,0.014916420490244957,0.030418709036894143
18,0.25,0.001,0.020174764228949715,0.016291301654717868,21.762925663671314,0.015533851294554828,0.03248975716996938
19,0.25,0.001,0.019868824385993168,0.016252520663317657,20.265766936204628,0.014465215514778463,0.035087249940261245
20,0.25,0.001,0.01963446765655889,0.016003341443198957,20.348832343465848,0.014524505598476694,0.023015511804260314
21,0.25,0.001,0.019419558120732018,0.015677395955288085,20.971076427770306,0.014968648413826058,0.027904731570743024
22,0.25,0.001,0.019226277511496883,0.01544081349516898,21.213740510084435,0.01514185618135934,0.03175266901962459
23,0.25,0.001,0.018980758144113864,0.015439090618400956,19.847507436987254,0.014166671975008746,0.018834332819096744
24,0.25,0.001,0.01884348305537208,0.015135761119020881,20.77807249256365,0.014830886861216024,0.02309390378650278
25,0.25,0.001,0.018841356719554343,0.015248372668637612,20.1350827545612,0.014371936298758886,0.027482908219099045
26,0.0,0.001,0.014368953076356512,0.014368953076356512,27.546566487354127,0.019662074580552552,0.03461518092080951
27,0.02,0.001,0.01351402623730562,0.012726952036014429,55.134560778145996,0.039353719327727334,0.01584404951427132
28,0.04,0.001,0.014060155276621309,0.011923784209271438,74.82639550067687,0.05340927587485858,0.01229197153588757
29,0.06,0.001,0.014589908760282093,0.011909105970537862,62.59674637700919,0.044680047378307775,0.014834035187959671
30,0.08,0.001,0.014774682980209652,0.01242321533285128,41.18007420995788,0.029393343476058445,0.016692629433237016
31,0.1,0.001,0.015249870507540434,0.012920562815628868,32.63359550842413,0.023293073168040062,0.02791421615984291
32,0.12,0.001,0.015642626442419587,0.012837206719283768,32.75327418094388,0.023378496917161942,0.021738657378591597
33,0.14,0.001,0.015797604167044538,0.01263017172581032,31.696947480044436,0.02262451640260131,0.012598497385624796
34,0.16,0.001,0.01615686894303075,0.013023082443001623,27.44021741831228,0.019586165180808194,0.01949655672069639
35,0.18,0.001,0.016636115014708616,0.013261360431280539,26.26684038325491,0.01874863696163805,0.0178749862825498
36,0.2,0.001,0.01697028903504503,0.013272611084073346,25.902235349683025,0.01848839068499859,0.023734530550427735
37,0.22,0.001,0.017036173994301008,0.0133809329619114,23.277241493814426,0.016614733400295807,0.013824126101098955
38,0.24,0.001,0.01728036070907477,0.01342452524933723,22.508441120697213,0.0160659822417539,0.02097762667108327
39,0.25,0.001,0.017401557909577526,0.013595406907087578,21.329671612861013,0.015224605005611002,0.017047316767275333
40,0.25,0.001,0.017291165759985284,0.013479507664346869,21.360533166777863,0.015246633238242586,0.01688852591905743
41,0.25,0.001,0.017149878339161456,0.01346347998586602,20.65857693745846,0.014745593816886837,0.01953937008511275
42,0.25,0.001,0.017039674301174836,0.01341448539949658,20.315559908841,0.014500756537359742,0.012462979764677584
43,0.25,0.001,0.016833040532743506,0.013134971727657915,20.723976262675944,0.014792274277427511,0.015136888774577528
44,0.25,0.001,0.016838500707843856,0.013160684896489151,20.610480123372565,0.014711263471358005,0.014374328078702092
45,0.25,0.001,0.016777204339915502,0.013234315500332194,19.854347937788994,0.014171554559449673,0.015364944003522396
46,0.25,0.001,0.01657879092421437,0.0130104392471418,19.997043191515576,0.014273406988947593,0.018238026415929198
47,0.25,0.001,0.016525707236784735,0.01293196713470218,20.13932130929075,0.01437496167686706,0.017517565051093698
48,0.25,0.001,0.01666047059715043,0.013152409500456055,19.65917445125062,0.014032244433440843,0.01897918723989278
49,0.25,0.001,0.0163831977885302,0.012890886270396395,19.570915620361838,0.013969247409251847,0.017226627562195063
50,0.25,0.001,0.016284757190712557,0.012791463912762157,19.576415075887468,0.013973172787928242,0.020950641599483788
51,0.0,0.001,0.012199880419170682,0.012199880419170682,24.96931196304353,0.01782249247897468,0.026197747909463942
52,0.02,0.001,0.011697766573279162,0.01098580762261762,49.872724505207486,0.03559794754119021,0.01475789921823889
53,0.04,0.001,0.012344637706813584,0.010510332582981204,64.24653782376666,0.04585762871075422,0.013679913361556828
54,0.06,0.001,0.012782124903574119,0.010554149363866554,52.02323273278477,0.03713292843168078,0.012939945794641972
55,0.08,0.001,0.012911907445818249,0.010909436890828211,35.068264744227015,0.025030881330640267,0.013969449093565345
56,0.1,0.001,0.013310289290385604,0.011297807639896372,28.194864886289846,0.0201248143371091,0.010004889918491244
57,0.12,0.001,0.013638963553440098,0.01119409195129956,28.54387588739893,0.020373929969592385,0.013317543489392847
58,0.14,0.001,0.014025649217215982,0.01132133319810624,27.062477219328752,0.01931654333999197,0.01307962543796748
59,0.16,0.001,0.014355029257516024,0.011458916885152241,25.359084804272104,0.01810070292953041,0.012747732747811824
60,0.18,0.001,0.014714105743020461,0.011655968705304979,23.80250012152877,0.01698965033656586,0.017567742965184152
61,0.2,0.001,0.014909756883185566,0.01171437136261162,22.38367584801915,0.015976927800156422,0.010619771084748209
62,0.22,0.001,0.015141358029385077,0.011758961259836569,21.539718058512456,0.015374531091015315,0.013631491281557828
63,0.24,0.001,0.015491036982090837,0.011937485813379039,20.743855780997706,0.01480646379799979,0.01941887883003801
64,0.25,0.001,0.015516142619458767,0.011993855700705644,19.738896638714944,0.014089148207505314,0.013298618490807712
65,0.25,0.001,0.015419035372256237,0.011938069060460386,19.507337092357787,0.013923866589834253,0.011270520684774965
66,0.25,0.001,0.015431542110887972,0.01198422705991843,19.31875429571546,0.013789260739268708,0.011706528603099287
67,0.25,0.001,0.015441053933882017,0.012023745584914107,19.150596240368166,0.013669233576279919,0.018098136002663523
68,0.25,0.001,0.015403424675473341,0.011986798235450508,19.146773849996993,0.013666505246250531,0.013165992742870003
69,0.25,0.001,0.015299080886600038,0.011979318264724068,18.603949819576766,0.01327905054930533,0.014412925578653812
70,0.25,0.001,0.015227537201659166,0.011864487340358826,18.84653051611277,0.013452198798081922,0.021561663830652833
71,0.25,0.001,0.015344728287970472,0.011997387081477986,18.758501263899195,0.013389365641612559,0.02585973887471482
72,0.25,0.001,0.015168761091777328,0.011814023187240131,18.79995270014307,0.013418952676761648,0.019410548848100007
73,0.25,0.001,0.015222114761649691,0.01193673861463844,18.411248444017637,0.01314150495647226,0.016046016360633075
74,0.25,0.001,0.015096527063491946,0.011707330729213537,18.993057278850134,0.013556786066274185,0.014462893246673048
75,0.25,0.001,0.015012768902164535,0.011700048144432349,18.56448645382684,0.01325088255091138,0.011509757139720023
76,0.0,0.001,0.011189541952501757,0.011189541952501757,23.723470612209375,0.016933240979449947,0.018158560269512236
77,0.02,0.001,0.010776615026941628,0.010103686119668916,47.138682005052026,0.03364645396506212,0.010902373236604035
78,0.04,0.001,0.011458186386055887,0.0097846437580028,58.615841461372774,0.04183857349134388,0.009965174598619342
79,0.06,0.001,0.011809583366430502,0.009855372164328437,45.63083128640448,0.03257018649993182,0.008779874595347792
80,0.08,0.001,0.011979770121438768,0.01023326988773331,30.585585994362084,0.021831253386411197,0.008354678808245808
81,0.1,0.001,0.01230075765821095,0.010467386314555972,25.685533539487324,0.018333714160947413,0.009200471453368664
82,0.12,0.001,0.012666955325822491,0.010408699456096815,26.36513702854483,0.018818798735578037,0.013590210350230336
83,0.14,0.001,0.013091207691905768,0.010555544477306104,25.37474373038975,0.01811187989321181,0.012921164918225259
84,0.16,0.001,0.01337180548349477,0.01071466933080386,23.266549478741926,0.016607101697888597,0.01422772672958672
85,0.18,0.001,0.01361605436356431,0.010788952776217262,22.00427267994413,0.015706118972122863,0.010318854008801281
86,0.2,0.001,0.013923632035455774,0.010859126608142151,21.46686031922916,0.015322526994453361,0.012974394427146763
87,0.22,0.001,0.01414723885060912,0.011013638523712536,19.955336401507353,0.01424363768844208,0.0109527378808707
88,0.24,0.001,0.014486344017881691,0.011168863750714226,19.365792376014536,0.013822835386163123,0.012473253533244133
89,0.25,0.001,0.014600673523227954,0.011145858759048836,19.360782503832855,0.013819259460266135,0.011711114319041371
90,0.25,0.001,0.014683742015885038,0.011360581616223605,18.62299000893356,0.013292640977111749,0.013493958627805114
91,0.25,0.001,0.014636194872006868,0.011245355124746708,19.00226651552077,0.0135633593972311,0.014513535308651626
92,0.25,0.001,0.0145444508373644,0.011239638421801161,18.520169136668546,0.013219249919106743,0.010984588298015296
93,0.25,0.001,0.014593176761474888,0.011209732887873695,18.96081874266049,0.013533774976916838,0.0125540989683941
94,0.25,0.001,0.01450207079556578,0.01122061621654382,18.389272638054134,0.013125819156355556,0.011227571580093354
95,0.25,0.001,0.014589609963224427,0.011186832748742343,19.06916405313448,0.013611109245634889,0.011837198049761355
96,0.25,0.001,0.014493245942545335,0.011189966305063762,18.511579290561237,0.013213118694190748,0.012275832705199718
97,0.25,0.001,0.014367069129390732,0.011136864875841862,18.102065840942128,0.012920817873620363,0.010388073860667646
98,0.25,0.001,0.014507455508261607,0.011129508526035291,18.930014942782407,0.013511787967724773,0.014486910426057875
99,0.25,0.001,0.01433161815671184,0.01113908075667249,17.890980591107013,0.012770150314851543,0.011850252456497401
100,0.25,0.001,0.014452572869203036,0.011193143382730713,18.26584335359004,0.013037718310913661,0.013975377078168094
101,0.25,0.001,0.014386208028005658,0.01107396708999708,18.56179707234488,0.013248962935292563,0.011129509541206062
102,0.25,0.001,0.014390095873951663,0.011162493451807594,18.087484343813458,0.012910409952757643,0.011467167059890926
103,0.25,0.001,0.014280009147611938,0.011061040289886685,18.03910164245733,0.012875875547792525,0.010751464229542762
104,0.25,0.001,0.014291044258530056,0.011065298813883222,18.077078056733644,0.012902982196098247,0.011163193557877094
105,0.25,0.001,0.014330136554708436,0.011055805469573415,18.349351528542027,0.013097324431507514,0.011845504282973707
106,0.25,0.001,0.01425799249140604,0.011009535295324932,18.204353742659215,0.012993828510106506,0.01799063856014982
107,0.25,0.001,0.014305750545822006,0.011105621680772877,17.93352176451235,0.012800515178095896,0.013908572494983673
108,0.25,0.001,0.014297210319757088,0.011070198188915008,18.084175133754915,0.012908047918454615,0.01384538202546537
109,0.25,0.001,0.014266997966565394,0.011073269875475161,17.897652843053255,0.012774912807318526,0.01787979935761541
110,0.25,0.001,0.014225825881254947,0.010972058355792704,18.23411411134087,0.01301507074328399,0.012772710178978741
111,0.25,0.001,0.014181359674944882,0.011025952536900507,17.68290129484364,0.012621628333221726,0.01365673536201939
112,0.25,0.001,0.014153053567964499,0.01093917859753201,18.010554865158177,0.012855499546865223,0.01280389295425266
113,0.25,0.001,0.014105106381182257,0.01098408033033067,17.49023039704325,0.01248410449467755,0.015280601568520069
114,0.25,0.001,0.014129961337233137,0.010908929932481437,18.050659434531575,0.01288412522093617,0.013373766676522791
115,0.25,0.001,0.014091771348750915,0.010878262580576545,18.008502028431426,0.012854034281535635,0.011610420362558216
116,0.25,0.001,0.014034350737073849,0.010898477765332931,17.573431787510753,0.012543491639907747,0.011513320729136467
117,0.25,0.001,0.01414253911108463,0.010901267418641761,18.164086355794694,0.012965086620838468,0.01456755108665675
118,0.25,0.001,0.014111239945278785,0.010873352813229183,18.14511918722961,0.0129515483135115,0.018044171738438308
119,0.25,0.001,0.014099479380738387,0.011023381688011837,17.238452692370323,0.01230439164337639,0.015302457381039858
120,0.25,0.001,0.014071854212494385,0.010794762677526673,18.364821189131767,0.013108366302021246,0.014728520647622645
121,0.25,0.001,0.014047915905340729,0.010844409393850472,17.952450658682743,0.012814026166083329,0.015203184331767261
122,0.25,0.001,0.01405799049020809,0.010937649579738152,17.486391023703558,0.012481364042614958,0.013892013230361044
123,0.25,0.001,0.013992188391440969,0.010845321940262035,17.635040068178437,0.01258746614431009,0.01232181373052299
124,0.25,0.001,0.013977050563487728,0.01088401657336689,17.333362439977847,0.012372135931461704,0.014464061940088868
125,0.25,0.001,0.013937899428721137,0.010787917341889195,17.652499957472894,0.012599928592057741,0.014755791751667857
126,0.25,0.001,0.01399949595860997,0.010890112406261157,17.42498615241001,0.012437534726916496,0.011609401786699891
127,0.25,0.001,0.013977543530608517,0.010793278479874756,17.84462070265991,0.012737059744939265,0.013905197032727301
128,0.25,0.001,0.013987483194249532,0.010880627762720705,17.410818227397623,0.012427422003852693,0.015658089716453105
129,0.25,0.001,0.013966958320433263,0.010785294043401835,17.8300461898517,0.012726656809315989,0.012065488554071635
130,0.25,0.001,0.01389990445607515,0.010761297618997495,17.588752885949887,0.012554427470342532,0.011351841734722257
131,0.25,0.001,0.013921210083464988,0.010805678929130319,17.459435198152736,0.01246212362466291,0.016048631048761308
132,0.25,0.001,0.01391385918354814,0.010782009640043612,17.550885087015235,0.012527398349047278,0.019244305440224707
133,0.25,0.001,0.013924278003904417,0.010765112631240692,17.70396209111542,0.012636661021495662,0.018227479071356356
134,0.25,0.001,0.01396503318528915,0.010803940070166966,17.714766201744,0.012644372735006423,0.019445956451818347
135,0.25,0.001,0.013897445082026758,0.010771870679204548,17.51572009267787,0.012502298424466717,0.01754001551307738
136,0.25,0.001,0.01393339414507275,0.010892184284012103,17.04293994465551,0.012164839360924705,0.014541831100359559
137,0.25,0.001,0.013845669708383855,0.01062639066385638,18.04084052720996,0.012877116721777273,0.01107516058254987
138,0.25,0.001,0.013874239093839873,0.010787822372262562,17.296279716093505,0.012345667177796935,0.010750292101874948
139,0.25,0.001,0.013881286508977289,0.010755897266304194,17.514683359102317,0.012501558429052333,0.014859182178042829
140,0.25,0.001,0.013848088778913146,0.010656935701415036,17.88322205434015,0.012764612458486901,0.01488633593544364
141,0.25,0.001,0.013764250774659792,0.010719602313164878,17.0622095056267,0.012178593508655746,0.01901570486370474
142,0.25,0.001,0.013854515931271561,0.010696048996098231,17.70004869353547,0.012633867732716254,0.01626059494446963
143,0.25,0.001,0.013783240344740901,0.010618214781293043,17.73680271634478,0.012660101867483783,0.010192976333200932
144,0.25,0.001,0.013774221893283296,0.01062758385917339,17.633759635973075,0.01258655220269313,0.009757957479450852
145,0.25,0.001,0.013756122016241008,0.010622789797476164,17.55919442146954,0.012533329351512877,0.012413828226272017
146,0.25,0.001,0.013733400140805384,0.010614385995586133,17.478955752665414,0.01247605692552849,0.012937905034050345
147,0.25,0.001,0.013717506856643955,0.010629242898542474,17.306631124094285,0.012353055763093708,0.01221651688683778
148,0.25,0.001,0.013771335055783297,0.01059523787123923,17.79884819795294,0.012704388435369692,0.015166080323979259
149,0.25,0.001,0.013832940844457308,0.010702377889064259,17.543675460496875,0.012522252291575215,0.01625879411585629
150,0.25,0.001,0.013715951277685812,0.010607718398681762,17.418537573923896,0.012432931887169091,0.015280965017154813
151,0.25,0.001,0.013722858770841846,0.010574367610904892,17.644145611183628,0.012593965461230284,0.01445950218476355
152,0.25,0.001,0.013801871443124555,0.010690002980212329,17.438911844146027,0.012447474549711653,0.016955481260083616
153,0.25,0.001,0.013769055446434867,0.01058434604984049,17.847112416723327,0.012738838270323573,0.013860073522664607
154,0.25,0.001,0.013715316928409833,0.010566985121848439,17.643252287130018,0.012593327828072818,0.01232985284877941
155,0.25,0.001,0.0136007076102097,0.010475847399589414,17.51171652807821,0.012499440776643975,0.009130166610702872
156,0.25,0.001,0.01364331536912719,0.010571338191612902,17.21535994065828,0.012287908594331393,0.011459262575954199
157,0.25,0.001,0.01366877105157037,0.010491280184595967,17.806658818477878,0.012709963467864295,0.012786747189238667
158,0.25,0.001,0.013658325638940911,0.010532570818131925,17.516728968610344,0.012503018535767555,0.00999419781146571
159,0.25,0.001,0.0136240430016825,0.010539241453986575,17.28722858229858,0.012339206696858373,0.010822077514603734
160,0.25,0.001,0.01365336153990665,0.01051936498872298,17.562916885089276,0.012535986356237884,0.011247417132835835
161,0.25,0.001,0.013676708358065818,0.010546615714740032,17.541040249308864,0.012520371341405328,0.014661247609183192
162,0.25,0.001,0.013578039761204934,0.010476003939554189,17.38380843064979,0.012408143062562306,0.01364905567606911
163,0.25,0.001,0.013590126665841811,0.010493151538291778,17.355448055864624,0.012387900111252409,0.014580846822354943
164,0.25,0.001,0.013642917822712024,0.01056514310189727,17.247849048303912,0.01231109853554883,0.011445548967458308
165,0.25,0.001,0.013601758795360682,0.010455947554046153,17.629126112744803,0.012583244905599431,0.01364012120757252
166,0.25,0.001,0.013609700641810645,0.010538571883607383,17.21060568504891,0.01228451512137681,0.011899722332600504
167,0.25,0.001,0.013585452175075053,0.010452925464787786,17.554679615761394,0.01253010679212091,0.011609724606387317
168,0.25,0.001,0.013559752999414108,0.010426886894959872,17.55658198697084,0.012531464658794319,0.010934012825600803
169,0.25,0.001,0.013648670897789938,0.010588339984899149,17.150094977998037,0.012241324038542497,0.013948271400295198
170,0.25,0.001,0.013583789521241113,0.010426754242738628,17.692024617205085,0.012628140340617476,0.0099781290628016
171,0.25,0.001,0.013550548534257054,0.01050467827670385,17.06905689120044,0.012183481007280828,0.01199009409174323
172,0.25,0.001,0.013508386204178623,0.010428429180697881,17.26008031761472,0.012319828920495874,0.015507476404309273
173,0.25,0.001,0.01355474848214669,0.010494996150002848,17.146850558063928,0.012239008249867187,0.012222413904964924
174,0.25,0.001,0.01359163205254053,0.010385887434857747,17.964992969170492,0.01282297856471841,0.011033170390874147
175,0.25,0.001,0.013550976349628046,0.01045584523688714,17.345114956817945,0.012380524594445356,0.011986234225332737
176,0.25,0.001,0.01353628430243325,0.010447172090286751,17.311385527035387,0.012356449341210126,0.01361994119361043
177,0.25,0.001,0.01347218093020931,0.01034801646615991,17.507818134443248,0.012496658197318522,0.01307648333022371
178,0.25,0.001,0.013535975678853052,0.010532414429823018,16.83195765580912,0.012014245293225638,0.01430432463530451
179,0.25,0.001,0.013520701006754829,0.010335640649317078,17.849077985281735,0.012740241245739995,0.014423068729229271
180,0.25,0.001,0.013589483036393289,0.010411979381718317,17.806730238530232,0.012710014445774612,0.01329308410640806
181,0.25,0.001,0.01342190614666222,0.010346663746368412,17.233659652678107,0.012300970487279163,0.012758946162648499
182,0.25,0.001,0.013582237169830933,0.010441181016599833,17.602479194051785,0.012564224977909912,0.012252217333298177
183,0.25,0.001,0.01346499088078364,0.010356676486750486,17.41899433812916,0.012433257914439087,0.01618249446619302
184,0.25,0.001,0.013543009015270713,0.010462907642623826,17.260887962293527,0.012320405397782674,0.016694968566298485
185,0.25,0.001,0.013540133036719732,0.010395409696830712,17.62303036190025,0.012578893905710384,0.017193969571962953
186,0.25,0.001,0.013580498297257439,0.0105335132076963,17.075304453457573,0.012187940366493628,0.014840886695310473
187,0.25,0.001,0.013520750547671741,0.010355089919443295,17.740361781110344,0.012662642242048782,0.011920924065634608
188,0.25,0.001,0.013563086078473074,0.010474314065436231,17.30947828591492,0.01235508799851172,0.01200862298719585
189,0.25,0.001,0.013450981092509,0.01033806139194953,17.444802624696482,0.012451679246749808,0.015026148059405386
190,0.25,0.001,0.013494788496006506,0.010435636678325607,17.143487699345407,0.012236607922444973,0.015945111983455718
191,0.25,0.001,0.01343581140515762,0.0103379229126432,17.360567407468665,0.012391554180919818,0.012009296682663262
192,0.25,0.001,0.013466219421639447,0.01036941774562779,17.354477020295526,0.012387207009490026,0.01144603342982009
193,0.25,0.001,0.013467951868281609,0.010326599142278908,17.60414051063872,0.012565410785609367,0.01299321255646646
194,0.25,0.001,0.013487079548250907,0.01038396991167163,17.38982756103006,0.012412439372612463,0.013362143654376268
195,0.25,0.001,0.013444521882433235,0.010362988419535264,17.268913926062854,0.012326134137089832,0.013028646353632212
196,0.25,0.001,0.013564139019332375,0.010382508590724124,17.829857115456853,0.012726521852574484,0.01625410234555602
197,0.25,0.001,0.013467058749375612,0.010357249394012518,17.427371648258855,0.012439237436301823,0.014270511572249234
198,0.25,0.001,0.01346828791240934,0.01040349289821558,17.175111822395085,0.012259180458526113,0.014973619254305959
199,0.25,0.001,0.013407156059988979,0.010339519185925948,17.19103718401246,0.012270547597439299,0.013336510281078517
200,0.25,0.001,0.013448674684790952,0.010345833407158892,17.388322607211627,0.012411365172884816,0.015375126735307276
201,0.25,0.001,0.013479901679902335,0.01031147419729723,17.75586680131566,0.01267370935140304,0.01207145326770842
202,0.25,0.001,0.013364625596956569,0.010263157545711402,17.3806272239924,0.012405872393998856,0.01141636585816741
203,0.25,0.001,0.013402524244794642,0.01032802427969173,17.229497527279783,0.012297999662583714,0.011448793462477624
204,0.25,0.001,0.013383580309519688,0.010277091144411075,17.40876494469374,0.012425956420195389,0.012004500720649958
205,0.25,0.001,0.013332398530554672,0.010233936809967729,17.363779378584383,0.012393846808411407,0.011982124182395637
206,0.25,0.001,0.01340564452733899,0.010299601205206614,17.40626703473372,0.012424173472329565,0.01328512275358662
207,0.25,0.001,0.013394968545293758,0.0102610391912698,17.5625407551425,0.012535717883756245,0.01024249370675534
208,0.25,0.001,0.013372728159740598,0.01023502193492427,17.583706802017755,0.012550825697371702,0.010985529806930572
209,0.25,0.001,0.013347148572508875,0.010332450612850628,16.894367448970023,0.012058791897908653,0.012286051525734365
210,0.25,0.001,0.013424878638618798,0.010243909645413432,17.826151160954932,0.01272387663165948,0.011621527431998402
211,0.25,0.001,0.013336852019835489,0.010269503564124689,17.189421699539853,0.012269394503597325,0.011794183636084199
212,0.25,0.001,0.013320855041946399,0.010141157624865872,17.819024259212867,0.01271878962113695,0.012711079441942275
213,0.25,0.001,0.013325604370995454,0.010271160186721412,17.117105503918484,0.012217776947836177,0.010799523792229593
214,0.25,0.001,0.013381198787427894,0.010250317138893869,17.54546112506524,0.012523526855863842,0.012479887926019728
215,0.25,0.001,0.013338359998294108,0.010267666253282655,17.2081678386521,0.012282775045433332,0.011541148938704282
216,0.25,0.001,0.013344270974350996,0.010250469881629023,17.337660664058678,0.012375203900113261,0.011342528276145458
217,0.25,0.001,0.013400329794104762,0.010273519333739744,17.52264647593329,0.012507242309731112,0.01195862959139049
218,0.25,0.001,0.013285032279073943,0.0101752081022662,17.42745513756738,0.012439297028956018,0.010494719841517508
219,0.25,0.001,0.013381344857304852,0.010300126356424643,17.26714838223069,0.01232487393449728,0.011482131434604526
220,0.25,0.001,0.013331425553168285,0.01016324752696745,17.754470427001444,0.012672712653105956,0.010382176958955824
221,0.25,0.001,0.01331134723783286,0.010288175767081515,16.94185305139466,0.012092685975299543,0.013092777109704912
222,0.25,0.001,0.01332555597333047,0.010223336517810822,17.384837937006623,0.012408877899362328,0.01572389993816614
223,0.25,0.001,0.013325077994864643,0.010198067449857646,17.52376673067288,0.012508041920537387,0.010658912709914148
224,0.25,0.001,0.013233568214097824,0.01015948267587478,17.227175232761837,0.012296342064783609,0.009795082092750818
225,0.25,0.001,0.013293168280032581,0.010222380092301423,17.208697372786933,0.012283153014123435,0.011026916559785604
226,0.25,0.001,0.013261124631681621,0.010126923205085986,17.56406571023897,0.012536806359913612,0.010574800078757107
227,0.25,0.001,0.013251735189140216,0.010170332371939697,17.268181894417843,0.012325611630562344,0.011880041100084782
228,0.25,0.001,0.013201486912316844,0.010079011451336313,17.498353066175618,0.01248990225993977,0.010220354946795851
229,0.25,0.001,0.013302281679729454,0.010192234072997575,17.42870710886595,0.012440190655864347,0.012589765363372862
230,0.25,0.001,0.01318121362586422,0.010126042911794527,17.121176717674558,0.012220682881994687,0.012897860200610012
231,0.25,0.001,0.013216121583041543,0.01020019182775924,16.901270414444003,0.012063719068125627,0.011023287544958293
232,0.25,0.001,0.013267574369098548,0.010142563925842153,17.512559400968613,0.01250004239897831,0.010249616869259626
233,0.25,0.001,0.013276692090987662,0.010160132280175645,17.465201853710326,0.012466239724275751,0.013847649097442627
234,0.25,0.001,0.013306616064713245,0.010145948305414963,17.71238203188074,0.012642670972077616,0.012976942351087928
235,0.25,0.001,0.013245858605912184,0.010239863777941479,16.845594294633646,0.012023978797026156,0.017581017455086112
236,0.25,0.001,0.013333669416450882,0.010137730418064773,17.910041562201833,0.012783755576161194,0.011867416789755225
237,0.25,0.001,0.013322711119229958,0.010203779692565225,17.478492446134883,0.012475726228504557,0.013536059414036572
238,0.25,0.001,0.013286434145088236,0.010177573966861767,17.42205208875939,0.012435440463068801,0.015222637914121151
239,0.25,0.001,0.013215257988422175,0.010100793527023155,17.45345988900776,0.01245785859315329,0.012002176837995648
240,0.25,0.001,0.013307445299556957,0.010257966970025498,17.089276805551165,0.012197913494326314,0.012947648181580007
241,0.25,0.001,0.013201708390157755,0.010022370304157938,17.81701115825231,0.012717352718238623,0.010893566883169115
242,0.25,0.001,0.013229783338597647,0.010120872583139167,17.422335738180077,0.012435642925182068,0.010773887392133474
243,0.25,0.001,0.013236480584224232,0.010153723491787413,17.275770143576604,0.012331027939740617,0.012487604864872992
244,0.25,0.001,0.013263604035970438,0.010199992826095702,17.168476837413046,0.01225444456631909,0.013004318461753428
245,0.25,0.001,0.0133373357923332,0.01019127670255546,17.630515506720492,0.012584236621499281,0.015018354286439717
246,0.25,0.001,0.01322538162812995,0.010063532072980743,17.719004768419364,0.01264739812164123,0.013006929541006684
247,0.25,0.001,0.013197955300172088,0.010174285970426054,16.94464302859376,0.012094677393714318,0.011187334428541362
248,0.25,0.001,0.013261384406517841,0.010110042215420209,17.660121710663798,0.012605368815605852,0.012182178208604455
249,0.25,0.001,0.013219669725675922,0.01012985496188753,17.31532343344798,0.012359260123802982,0.014165914268232882
250,0.25,0.001,0.013283383029285577,0.01016757035499637,17.461013431588892,0.01246325012961377,0.011162084294483066
251,0.25,0.001,0.013213549219538498,0.009999245412974367,18.012958514665513,0.012857215213894014,0.01196241402067244
252,0.25,0.001,0.013109439023476801,0.010075808715635215,17.000464966998965,0.012134521746608826,0.010799620649777353
253,0.25,0.001,0.013141022481817543,0.010037494173938398,17.392172242007327,0.012414112949327143,0.010677090496756136
254,0.25,0.001,0.013142804838794757,0.009996633679219104,17.631143749133532,0.012584685045776967,0.010222710901871324
255,0.25,0.001,0.013187010467270222,0.010118413910985242,17.196415166516395,0.012274386271603422,0.010096590383909643
256,0.25,0.001,0.013149936895405325,0.010053293328413386,17.35359025449494,0.012386574057455345,0.012055872357450426
257,0.25,0.001,0.01317030903620797,0.010017407743069723,17.668858932303984,0.012611605233621688,0.01127812743652612
258,0.25,0.001,0.013181504950953923,0.010021658713437446,17.707778616090906,0.012639385164947113,0.011056016257498413
259,0.25,0.001,0.013158540978312244,0.010068824203657706,17.314772954315632,0.012358867205078967,0.011540003586560488
260,0.25,0.001,0.013137240415839536,0.010074118160038004,17.165737263593893,0.01225248912462091,0.011598607641644776
261,0.25,0.001,0.013086047639879778,0.009961322824896502,17.51095802052285,0.012498899372250427,0.011296908953227103
262,0.25,0.001,0.01316503770571661,0.010105111986196489,17.147824173929298,0.012239703193382797,0.010393063595984131
263,0.25,0.001,0.013141838131795223,0.009935004938012748,17.971092287832114,0.012827332111229203,0.011466492665931582
264,0.25,0.001,0.013139054725541575,0.010051924772249508,17.300276841898302,0.012348520229763241,0.012127416906878352
265,0.25,0.001,0.013081170624367006,0.009964723865227435,17.46456819187873,0.012465787431747845,0.012128978152759373
266,0.25,0.001,0.013091851097759101,0.010012935343468737,17.254244356414222,0.012315663352187168,0.012907945434562862
267,0.25,0.001,0.0131446206728327,0.01005809626975612,17.29688199228434,0.012346097068011664,0.015907788649201393
268,0.25,0.001,0.01315523510398285,0.01003530138951876,17.48410853264476,0.012479734855563713,0.013653429225087166
269,0.25,0.001,0.013057044820008423,0.0099865438218281,17.207087626287983,0.012282004015908624,0.00955482223071158
270,0.25,0.001,0.013121711782380037,0.010015234977224674,17.40869599344337,0.012425907204456367,0.01091685809660703
271,0.25,0.001,0.013150345432982316,0.010029255951091741,17.490585514299557,0.012484357968807678,0.01174289220944047
272,0.25,0.001,0.013137901738472672,0.00996856301991825,17.760973661578024,0.012677354505052123,0.010749872773885727
273,0.25,0.001,0.013125184106801895,0.00993302569283262,17.888855398572314,0.012768633403691873,0.013115058070980012
274,0.25,0.001,0.013125007746581742,0.010021183633931868,17.393830193856065,0.012415296355357649,0.011141716269776225
275,0.25,0.001,0.013091690157829844,0.010009742540254846,17.271235436138877,0.012327791174974217,0.0126312212087214
276,0.25,0.001,0.013048984847247352,0.009869896309034187,17.81561263767314,0.012716354487989395,0.012051210855133832
277,0.25,0.001,0.013153060047745331,0.010060008531650198,17.33346108852697,0.01237220634441611,0.013759063323959708
278,0.25,0.001,0.013078417139038413,0.009921334905545994,17.692290176678302,0.012628329890562671,0.011840588704217225
279,0.25,0.001,0.013103400090697662,0.010019489857591766,17.2822321611058,0.012335640371952748,0.01081250247079879
280,0.25,0.001,0.013107667756821019,0.010023083800298312,17.286008854748562,0.012338336084759859,0.011727433651685715
281,0.25,0.001,0.013119169116206857,0.009924193414507555,17.90464463363361,0.012779903378753468,0.011906777741387486
282,0.25,0.001,0.013083711832310685,0.010043434522626047,17.03771500796515,0.012161109927169986,0.010443447914440185
283,0.25,0.001,0.013063042212689844,0.009924103449524569,17.59061421531725,0.012555756042339222,0.012332817423157394
284,0.25,0.001,0.013117593771433905,0.009985505290220575,17.552224005936083,0.012528354037070723,0.011787514667958021
285,0.25,0.001,0.013089547742601477,0.010041505078899835,17.081232118706115,0.012192171390939411,0.010955130332149565
286,0.25,0.001,0.013056318328126737,0.009925491326257183,17.54515479850371,0.012523308207354538,0.010781598510220647
287,0.25,0.001,0.013067008900244202,0.009917355543060816,17.650657040590037,0.012598613162448277,0.013355904316995293
288,0.25,0.001,0.013079515119746234,0.009953092097349481,17.52047514865692,0.012505692468705868,0.01149206014815718
289,0.25,0.001,0.013125402983161378,0.01000308736941013,17.497456823360945,0.012489262543441074,0.016180709353648126
290,0.25,0.001,0.013049891815444995,0.009953156704693596,17.354104071917764,0.01238694080793559,0.013522914377972484
291,0.25,0.001,0.01305702389344293,0.00994718612982485,17.427532036767374,0.012439351917749732,0.01215923740528524
292,0.25,0.001,0.013055095727125762,0.009925948008739376,17.535744111572775,0.012516591086061938,0.012194110953714699
293,0.25,0.001,0.013042156621502685,0.00994022006445053,17.383253487764172,0.012407746957718895,0.01377833157312125
294,0.25,0.001,0.013122185883899696,0.010054067481068081,17.1937352501027,0.012272473411921985,0.015146413119509816
295,0.25,0.001,0.013043654184314055,0.009941768925831438,17.382965513958066,0.012407541408963645,0.013898081495426595
296,0.25,0.001,0.013049287497919511,0.009938531162485574,17.432679576515405,0.012443026107434264,0.012064282142091542
297,0.25,0.001,0.013037662014038554,0.009906592878021129,17.546510720302766,0.012524276031622246,0.01345836219843477
298,0.25,0.001,0.013059643147773808,0.009946343543431829,17.446932057995888,0.012453199184865016,0.012431320967152715
299,0.25,0.001,0.013077606921451698,0.009988236021336036,17.31283528321969,0.01235748414219821,0.015284166089259088
300,0.25,0.001,0.013022681146020183,0.009910144635120363,17.442655937656728,0.012450146993330998,0.010320915142074227
301,0.25,0.001,0.013022259422159892,0.009864514300868009,17.696004863571773,0.01263098134444809,0.01061792520340532
302,0.25,0.001,0.01306234107650272,0.009925619351030143,17.578188424319464,0.012546886812504971,0.011536415084265172
303,0.25,0.001,0.013036774626946648,0.009961000132318081,17.236640806735682,0.012303098363123256,0.011809776304289699
304,0.25,0.001,0.01298464920239558,0.009864609476591077,17.484703673201462,0.012480159652534947,0.012386407470330596
305,0.25,0.001,0.013066660488385996,0.010009944833628444,17.129834053660733,0.012226862279557982,0.013918199809268117
306,0.25,0.001,0.01303771530163313,0.00991940011497828,17.47503875541289,0.012473261067389642,0.010281307506375015
307,0.25,0.001,0.013023310187340778,0.009885904637781712,17.58202129515327,0.01254962262323574,0.011712490697391331
308,0.25,0.001,0.013056774083174967,0.009945342688585995,17.43646195238468,0.012445725876077573,0.01503087452147156
309,0.25,0.001,0.01304188225270562,0.009901648906442592,17.597866476453174,0.012560932531372715,0.011273114942014217
310,0.25,0.001,0.013030860380567066,0.009888808923483766,17.608056958383706,0.012568206251522988,0.011476992629468441
311,0.25,0.001,0.013064395616877054,0.009948143272783164,17.46347768222116,0.012465009052263498,0.013631053850986063
312,0.25,0.001,0.013033171775430005,0.009856508385646692,17.802021803089374,0.012706653678150874,0.012551111285574734
313,0.25,0.001,0.013003263620578048,0.009856507674030695,17.63442027942124,0.012587023754047993,0.012286936747841537
314,0.25,0.001,0.013008094441324536,0.009935771883125097,17.217295150916115,0.01228928990072528,0.013845769921317697
315,0.25,0.001,0.013033773827838997,0.009918589739902782,17.457491299304685,0.012460736116562945,0.015657228184863925
316,0.25,0.001,0.012986124526234908,0.009886509316948112,17.37024385296975,0.0123984609942682,0.011528592207469046
317,0.25,0.001,0.012997001510634551,0.009837212746803471,17.707455473802284,0.012639154513777505,0.011868064408190548
318,0.25,0.001,0.013028498847885272,0.009902567775737269,17.51771831711548,0.012503724708861871,0.013769062352366745
319,0.25,0.001,0.013036895166141505,0.009919503233191365,17.469864765637105,0.012469567998313422,0.010614659287966788
320,0.25,0.001,0.013039674536015892,0.009875258563051393,17.73338739956595,0.012657664096763704,0.011323639308102429
321,0.25,0.001,0.012971240099682813,0.009818343054853178,17.66883495705113,0.012611588120664617,0.009429072903003544
322,0.25,0.001,0.012996476283588588,0.009916024655881405,17.262850687747708,0.012321806343859891,0.010662855172995478
323,0.25,0.001,0.012906222814200194,0.009756435121026566,17.651410678234377,0.01259915109081683,0.01202155277132988
324,0.25,0.001,0.01299777159191248,0.009853037651667142,17.623089123369507,0.012578935848229484,0.011868197936564684
325,0.25,0.001,0.012940604541069656,0.009741231744685103,17.929284957853888,0.012797491047718693,0.01165441982448101
326,0.25,0.001,0.012949088673906435,0.009923047174180475,16.957936846388655,0.012104166200134658,0.012825958663597703
327,0.25,0.001,0.012947533454644904,0.009764147867956091,17.839693810098606,0.012733543047893366,0.01050258008763194
328,0.25,0.001,0.012937749352982746,0.009827692454412486,17.428758800403063,0.012440227552036448,0.011230596457608044
329,0.25,0.001,0.01292575198169292,0.009809000950329985,17.46627343323136,0.01246700459188534,0.01577529194764793
330,0.25,0.001,0.012946529284757338,0.009862516221195647,17.282809076329112,0.012336052160120708,0.013289624999742955
331,0.25,0.001,0.012919576490581782,0.009828338201210245,17.323300749872324,0.01236495413980894,0.011463986826129258
332,0.25,0.001,0.012977855427808951,0.009869300038991244,17.420344123760692,0.012434221358858452,0.012287262245081365
333,0.25,0.001,0.01296744803025043,0.009793938275636611,17.784348430115895,0.012694038850903564,0.011521718464791775
334,0.25,0.001,0.012929410617293047,0.009810355025302767,17.479188090824135,0.012476222762900882,0.010357160354033113
335,0.25,0.001,0.012983768497883403,0.00988326832702644,17.375203031089956,0.012402000735967134,0.012834065360948443
336,0.25,0.001,0.012941501684689074,0.009736624552181966,17.960131742760133,0.012819508738586819,0.011461389251053333
337,0.25,0.001,0.012888777371114879,0.009761531837284565,17.52508417499837,0.012508982280512755,0.012597810709849
338,0.25,0.001,0.01291579283805008,0.009859997067514939,17.12468040561875,0.012223183729920593,0.014753227005712688
339,0.25,0.001,0.012957737114210468,0.009773526045188526,17.844318863743283,0.012736844299602628,0.010545042459852993
340,0.25,0.001,0.012940922215394286,0.009826449484861843,17.453505215415873,0.012457890946049873,0.014237002178560942
341,0.25,0.001,0.012874605083577568,0.009770602363089803,17.394830990434937,0.012416010699810805,0.011516553640831262
342,0.25,0.001,0.013008130412929864,0.009863932023995355,17.62008808351011,0.012576793778379808,0.01484959153458476
343,0.25,0.001,0.01300900950366806,0.009879081257247601,17.540117506692205,0.012519712709987299,0.018669963465072215
344,0.25,0.001,0.01299230030315903,0.009807005058001875,17.850395091142435,0.012741181364127363,0.019886893103830516
345,0.25,0.001,0.012885359778906955,0.00975845333982049,17.523183914216425,0.01250762592021158,0.013617443386465311
346,0.25,0.001,0.012905798199156878,0.009809085155306442,17.353980380956216,0.01238685252031136,0.011077751754783094
347,0.25,0.001,0.012898309550992755,0.009740252098329133,17.697753890322247,0.012632229757546215,0.012573956861160696
348,0.25,0.001,0.012854924495477767,0.009856883864188742,16.801020090664604,0.011992162805613564,0.011137280846014619
349,0.25,0.001,0.012917308743444265,0.009759642257664299,17.695562577695586,0.01263066565146009,0.01039590802974999
350,0.25,0.001,0.01292199458506946,0.0097071172568426,18.016172663901692,0.01285950939607544,0.012876332504674792
351,0.25,0.001,0.012941348681416914,0.009867265421920504,17.227163920074016,0.01229633399005997,0.01167892524972558
352,0.25,0.001,0.012880234335527789,0.009715722073725034,17.733927031897306,0.012658049273302859,0.012487565050832927
353,0.25,0.001,0.01297208175086465,0.009784267270365936,17.864513003004866,0.012751258389011325,0.015646564192138612
354,0.25,0.001,0.012840953015864269,0.009799473862589525,17.044448808737737,0.012165916351704309,0.012942165019921958
355,0.25,0.001,0.01284759521624365,0.00970617332349926,17.604529354915737,0.012565688333273189,0.011873455834574997
356,0.25,0.001,0.01283707092895264,0.009681827240936566,17.681986133838247,0.01262097511337491,0.011363680241629481
357,0.25,0.001,0.012890334775776356,0.009759718525011505,17.5439735324995,0.012522465048179514,0.012262606876902282
358,0.25,0.001,0.012865730697417433,0.009755511523179694,17.429668052211436,0.012440876554040997,0.013004136621020734
359,0.25,0.001,0.01290413210778993,0.009719893437399993,17.844474752661082,0.012736955569351236,0.014072612044401467
360,0.25,0.001,0.013000572450256796,0.009893441380299083,17.412362550643888,0.012428524304528114,0.02021152595989406
361,0.25,0.001,0.012894534451463152,0.009736960921008802,17.695042667906566,0.012630294552395836,0.016185709042474627
362,0.25,0.001,0.012835062876934797,0.00971032829375817,17.51101278412566,0.01249893846118891,0.011632138630375266
363,0.25,0.001,0.01294780078699855,0.009796422700123522,17.660323196761542,0.012605512631521444,0.013559505809098482
364,0.25,0.001,0.012844888917277402,0.009652083321612537,17.89248172624624,0.0127712217888981,0.012372668134048581
365,0.25,0.001,0.012914770560840724,0.009792586036088695,17.49672164200243,0.012488737788724075,0.014688361319713295
366,0.25,0.001,0.012874380259586028,0.009761956436773432,17.44202250279564,0.012449694862809165,0.01553468150086701
367,0.25,0.001,0.012855024075053928,0.009732748245692079,17.497234671001394,0.01248910397644639,0.013149487436749041
368,0.25,0.001,0.012856303947532476,0.009686958456960252,17.76101175678548,0.012677381696492133,0.011828874354250729
369,0.25,0.001,0.012862157969033668,0.009744155821477944,17.4732839946707,0.012472008561506568,0.011838435661047697
370,0.25,0.001,0.012818606014291528,0.009667290839325784,17.659970138167537,0.012605260626814802,0.010158171586226672
371,0.25,0.001,0.012847493371550996,0.009678279844915693,17.760273533225806,0.012676854770325343,0.009253248339518905
372,0.25,0.001,0.012882677287967693,0.009761598136174903,17.49052783989956,0.01248431680221239,0.009415669715963304
373,0.25,0.001,0.012867282502477626,0.009727641123508362,17.594550369676817,0.012558565574358898,0.011235882062464952
374,0.25,0.001,0.012813868747716905,0.009634630147966563,17.816452305102896,0.012716953822343252,0.010775206028483808
375,0.25,0.001,0.012853758981245295,0.009769361034533425,17.284966833158425,0.01233759231488824,0.010601725312881172
376,0.25,0.001,0.012912569415905281,0.009772147331970096,17.598925568614472,0.01256168848580619,0.011185418930836022
377,0.25,0.001,0.012835872513174015,0.00966855432130474,17.749651803353135,0.012669273235798098,0.011587359011173248
378,0.25,0.001,0.012823759799819276,0.009659065921365095,17.734943827905834,0.012658775037762908,0.011509629315696657
379,0.25,0.001,0.012890303839923569,0.009720512181676006,17.763513354020727,0.012679167276246057,0.010820586234331131
380,0.25,0.001,0.01284325519082815,0.009719251025087028,17.50692020726851,0.012496017278564248,0.011730791069567204
381,0.25,0.001,0.012894638306568212,0.009688497231281625,17.967215834679333,0.012824565192490601,0.012831119820475578
382,0.25,0.001,0.0129190047654578,0.00968845009352693,18.104027001494405,0.012922217702708355,0.014342097914777696
383,0.25,0.001,0.012906227501921962,0.009730989815344517,17.794032580668343,0.012700951163931723,0.01628151605837047
384,0.25,0.001,0.012860264961601921,0.009720118910789739,17.597378454029187,0.012560584192740318,0.013201719732023776
385,0.25,0.001,0.012818134004845126,0.009715400463152902,17.38771845552767,0.012410933943988343,0.011604673694819212
386,0.25,0.001,0.012855940916437446,0.009708583283010629,17.637792005917223,0.01258943041107582,0.011716268607415259
387,0.25,0.001,0.012842202697159228,0.009660489684153574,17.830319430484654,0.01272685184188769,0.012990776798687875
388,0.25,0.001,0.012835463120102385,0.009686096905806492,17.64904906207186,0.01259746542617549,0.012758425436913967
389,0.25,0.001,0.012820192892687678,0.00967090655048232,17.648601715151603,0.012597146120736334,0.010926115792244673
390,0.25,0.001,0.01284138608280577,0.009688447995620754,17.669066367418132,0.012611753295801664,0.014445127570070326
391,0.25,0.001,0.01282830297215871,0.009655064671827258,17.78282807415861,0.012692953657500792,0.014568320359103382
392,0.25,0.001,0.012785158991144819,0.009614045270922786,17.770921050133435,0.012684454711016013,0.013370875734835863
393,0.25,0.001,0.012861227301690176,0.009729172190600746,17.552036309292024,0.012528220063734493,0.013293923228047788
394,0.25,0.001,0.012815289183797816,0.009675685728517106,17.594337965103183,0.012558413965098632,0.012448337976820767
395,0.25,0.001,0.012788807963544117,0.009660904017706754,17.52877352083401,0.012511615646562464,0.011829453753307462
396,0.25,0.001,0.01281676077456962,0.009624704623318788,17.88828215071453,0.01276822423320095,0.012610084901098162
397,0.25,0.001,0.01286266059157806,0.009647129486569657,18.019835609483817,0.01286212391826111,0.014663246576674283
398,0.25,0.001,0.012806256997762618,0.00965776709384734,17.644137440245434,0.01259395962901173,0.016089739743620157
399,0.25,0.001,0.012854943289139574,0.009719289290973439,17.572205991486168,0.012542616696278493,0.014062403701245785
400,0.25,0.001,0.012793760283972624,0.009640390210880243,17.67148680477899,0.012613480945595282,0.012717417208477855
401,0.25,0.001,0.012751528711324569,0.009607597884171815,17.61858778059607,0.012575722898355509,0.012520308140665293
402,0.25,0.001,0.012763256545417741,0.009643294148551522,17.484268726038287,0.012479849197743247,0.014736863202415407
403,0.25,0.001,0.012858380695769956,0.009756518267328406,17.3828375503763,0.012407450071646182,0.018754664983134717
404,0.25,0.001,0.012784002891242006,0.009577604677598137,17.968655365245077,0.012825592694678856,0.01125496078748256
405,0.25,0.001,0.012700154218581623,0.009566335030880004,17.561922837896486,0.01253527682933368,0.009835604229010642
406,0.25,0.001,0.012836346272495818,0.009624765730912104,17.9976984792562,0.012846322968776731,0.012053686194121838
407,0.25,0.001,0.012799476903313012,0.009593602320439881,17.9657214807817,0.012823498558730691,0.010687808564398438
408,0.25,0.001,0.012748969291066576,0.009610697096272028,17.586877249476807,0.012553088686278949,0.011129002668894827
409,0.25,0.001,0.012733872937104648,0.009621333033390857,17.44267420679144,0.012450160033398602,0.011568544083274901
410,0.25,0.001,0.012776349521473454,0.009583850198722831,17.890765562435778,0.012769996832573717,0.009800296509638429
411,0.25,0.001,0.012768793559491261,0.009587878522721735,17.825847892522315,0.012723660165968818,0.012768900371156633
412,0.25,0.001,0.012841913123889234,0.009648281935065797,17.89710856379945,0.012774524313918236,0.014136467361822724
413,0.25,0.001,0.012751902179454214,0.009606571324628492,17.626435580482564,0.012581324468581416,0.012041725683957338
414,0.25,0.001,0.012715001969689617,0.009525960630159785,17.871387445852005,0.012756165200465385,0.009947825805284083
415,0.25,0.001,0.01272219038395394,0.009566419687907605,17.684939752789777,0.012623083335324609,0.009527875576168299
416,0.25,0.001,0.012746291942816686,0.009572401069229106,17.786483458039157,0.012695562782326308,0.011881163227371871
417,0.25,0.001,0.012753096290539351,0.009588886961333127,17.732229969446745,0.012656837951068341,0.010803612996824086
418,0.25,0.001,0.012699211101846804,0.009515287471246869,17.842708273073328,0.012735694698838921,0.010288134450092912
419,0.25,0.001,0.012704627848928307,0.009606741430988391,17.36055573640636,0.012391545850397118,0.012487982050515711
420,0.25,0.001,0.012670655215707352,0.009517922447236073,17.66791543582287,0.01261093178859591,0.00962707621511072
421,0.25,0.001,0.012763937857460876,0.009531548289516027,18.11431200668558,0.012929558891281641,0.012591557286214083
422,0.25,0.001,0.012768729191296782,0.009627844661956415,17.601516532499755,0.012563537853318882,0.012584612355567515
423,0.25,0.001,0.012725434038546986,0.009576046289117825,17.649169842236226,0.012597551636142916,0.011557124787941575
424,0.25,0.001,0.012641665860155056,0.009471160979914267,17.767507955276393,0.012682018526250102,0.012164824875071645
425,0.25,0.001,0.012756645912790597,0.0095648406645077,17.886877474058146,0.012767221608892324,0.013067300315015018
426,0.25,0.001,0.012693076639480905,0.009465195176372449,18.089047848058392,0.012911525944367161,0.010640804248396307
427,0.25,0.001,0.012784799854494709,0.00961015000550508,17.790737104316346,0.012698598932417092,0.013394402922131121
428,0.25,0.001,0.012706289400340744,0.009569757577179618,17.577124502066532,0.012546127410468616,0.012205976760014892
429,0.25,0.001,0.012772708777377153,0.009594375411503498,17.81138138183721,0.012713334319655397,0.01187725889030844
430,0.25,0.001,0.012668099744334848,0.009492217329775988,17.79764628957856,0.012703530542168849,0.012573880841955543
431,0.25,0.001,0.012726131002253432,0.009583475443462613,17.611442557954092,0.012570622810816626,0.012812970206141472
432,0.25,0.001,0.012758155969712331,0.009597808433723848,17.710588630405496,0.012641390885371518,0.016902592731639743
433,0.25,0.001,0.012780053461347717,0.00953527918524869,18.183715573432302,0.012979097482821058,0.013221585075370967
434,0.25,0.001,0.012722314238190527,0.009565502514047763,17.690772377125654,0.012627246521859854,0.013041003374382854
435,0.25,0.001,0.0127444217634817,0.009558013595625105,17.8566315517545,0.012745632799253748,0.01353213022230193
436,0.25,0.001,0.01271063991139851,0.009541267488299556,17.761164312820593,0.012677490587309489,0.015140953881200403
437,0.25,0.001,0.012676425643716327,0.009516852925335191,17.706245498020117,0.012638290862255616,0.013178359251469374
438,0.25,0.001,0.012637517483037798,0.00950524237955724,17.553269535614206,0.01252910031093091,0.010906251205597073
439,0.25,0.001,0.012746682703603907,0.0094870948281318,18.266730756500817,0.013038351717702224,0.014131388161331415
440,0.25,0.001,0.012695239944332951,0.009564432325249924,17.545046453933875,0.012523230873614472,0.012407106347382069
441,0.25,0.001,0.012749879109616818,0.009550527762816072,17.929163859134427,0.012797404610374322,0.01676304405555129
442,0.25,0.001,0.01267454433517379,0.009503975356997055,17.767868722903703,0.012682276033478731,0.01316015177872032
443,0.25,0.001,0.012655866001820141,0.009502925169275051,17.669080829819457,0.012611763618714815,0.00991828745463863
444,0.25,0.001,0.012612717904710446,0.009458157922178195,17.678154306272376,0.012618240047303622,0.010820900788530707
445,0.25,0.001,0.012718775375728691,0.009555843316547432,17.72507217582432,0.012651728890666895,0.012619431247003376
446,0.25,0.001,0.012692853899785398,0.009468612368053336,18.0686499211385,0.012896966396244469,0.010648908209986985
447,0.25,0.001,0.012727038899829343,0.009562938024984024,17.73162209066817,0.012656404061861649,0.011129736783914268
448,0.25,0.001,0.012718210953418048,0.009490215011516543,18.089688251312193,0.012911983048759595,0.010701717459596694
449,0.25,0.001,0.012712829102740656,0.00950972976781319,17.950169561302488,0.012812397973806202,0.012109636445529759
450,0.25,0.001,0.012749233786677767,0.009546169455091241,17.949971782389664,0.012812256803989766,0.012340565212070942
451,0.25,0.001,0.012634207368177013,0.00942655988931967,17.975657417281436,0.01283059059049353,0.013529383344575763
452,0.25,0.001,0.0127619482296867,0.009533028073593321,18.094868108474635,0.012915680305834858,0.013203755719587207
453,0.25,0.001,0.012621716819781352,0.009440022921247996,17.83021269063611,0.012726775653558965,0.014414814068004489
454,0.25,0.001,0.01270437031004399,0.009574240324377143,17.541248540539833,0.012520520014660837,0.013556128367781639
455,0.25,0.001,0.012650192472189353,0.009412517889727506,18.143928547741726,0.012950698463769969,0.012881891103461385
456,0.25,0.001,0.01263853095059666,0.00946752992429477,17.770289411126697,0.01268400386233169,0.013372609042562544
457,0.25,0.001,0.012591395482405367,0.00939611098213833,17.906375869082012,0.012781139092849402,0.011151371523737907
458,0.25,0.001,0.012625503841795354,0.009444185660953687,17.828107137023032,0.012725272760187745,0.013459136243909597
459,0.25,0.001,0.01260074257990637,0.009446840564135096,17.674467528787186,0.012615608514480504,0.012160339509136975
460,0.25,0.001,0.012603303934748835,0.009415140581591394,17.866467246929638,0.012752653281177471,0.011634211987257004
461,0.25,0.001,0.012681618591455552,0.009405828039268798,18.357530653601152,0.013103162493648218,0.011622859281487763
462,0.25,0.001,0.012606798362041316,0.009455156304517718,17.661802267978484,0.012606568356872579,0.011270411312580109
463,0.25,0.001,0.01259545083225769,0.009376099217480869,18.041246613281505,0.012877406576218062,0.01181744912173599
464,0.25,0.001,0.01260412521349239,0.00942126596793688,17.836743770909955,0.012731437381092045,0.013257606653496623
465,0.25,0.001,0.012713233430895154,0.009487887894995278,18.07483691810815,0.01290138252541624,0.013599336962215602
466,0.25,0.001,0.012674584452039514,0.009482394410044516,17.88903298507404,0.012768760160652419,0.01208558026701212
467,0.25,0.001,0.012586149898414074,0.0093768067222423,17.985159135312774,0.012837372687589417,0.01135337381856516
468,0.25,0.001,0.01262194594263346,0.009435234439708992,17.858331767900502,0.012746846372519988,0.013414421817287803
469,0.25,0.001,0.012664500314796767,0.009449498842631725,18.016868220988297,0.01286000586794311,0.013340327190235257
470,0.25,0.001,0.012596701448763835,0.00939147913389079,17.962066435365937,0.012820889675493174,0.011222510365769267
471,0.25,0.001,0.012557789869995357,0.009384088006282773,17.78542508262682,0.012694807339490948,0.012341238092631102
472,0.25,0.001,0.012567183374191998,0.00934423557395166,18.061400140750383,0.01289179167790891,0.013331805937923491
473,0.25,0.001,0.012636802915584817,0.009512314040190492,17.50963570628634,0.012497955536250063,0.012418138503562659
474,0.25,0.001,0.012640465657559217,0.009340079911519814,18.495361805957643,0.013201543044937647,0.011598119745031
475,0.25,0.001,0.012723842941006813,0.009566968104691247,17.691127450580638,0.012627499964725652,0.01687663106713444
476,0.25,0.001,0.012684513124518702,0.009411474823998385,18.342107693188375,0.013092153956594129,0.018084596726112068
477,0.25,0.001,0.012657576331981538,0.009443798184099302,18.010012791898404,0.012855112628050253,0.015163127682171762
478,0.25,0.001,0.012682526984829495,0.009475092827449388,17.974461740641107,0.01282973714535411,0.01218032545875758
479,0.25,0.001,0.012590583791034704,0.009322536498743707,18.31413788685968,0.013072189783625753,0.010249045328237116
480,0.25,0.001,0.01257234101333424,0.00936639350926453,17.966129617551672,0.012823789876910545,0.011800856213085353
481,0.25,0.001,0.012500365233604867,0.009265391183297668,18.128794652186258,0.012939896254237158,0.010382182081229985
482,0.25,0.001,0.01254882669321306,0.00943931140441113,17.425723906100917,0.012438061317702295,0.011036991840228438
483,0.25,0.001,0.012552188198025765,0.009324171277062504,18.089806913085173,0.012912067746670359,0.0116380286635831
484,0.25,0.001,0.012542922685548881,0.009351787903970243,17.883120045034772,0.012764539646705762,0.011176810134202242
485,0.25,0.001,0.01259673512803239,0.009359485016735213,18.14154965394723,0.012949000466771755,0.013481547008268535
486,0.25,0.001,0.012601896099715118,0.009392347155694921,17.986313367935214,0.012838196550988732,0.01144456653855741
487,0.25,0.001,0.01253925798371403,0.009314905749031174,18.0692701837464,0.012897409124729765,0.010738341137766838
488,0.25,0.001,0.01259031344306245,0.009353283578860486,18.140315798478735,0.012948119770505877,0.012855684384703636
489,0.25,0.001,0.012555659719449243,0.009351297489723234,17.957245956134198,0.01281744893371463,0.010384088614955544
490,0.25,0.001,0.012554130227244721,0.009293190961886423,18.274303050031243,0.013043756638137931,0.011783283785916865
491,0.25,0.001,0.012520777257956518,0.009320370088834977,17.935081481933594,0.012801628466762022,0.011375503265298903
492,0.25,0.001,0.012532735832564392,0.009334308318871547,17.92398808744108,0.012793710269408337,0.011964492034167051
493,0.25,0.001,0.012609338912809567,0.009356163827107446,18.23079239003096,0.013012699778751578,0.014492420596070588
494,0.25,0.001,0.012552663816104105,0.00937959858233844,17.781857229722565,0.012692260692164573,0.015007446403615177
495,0.25,0.001,0.012570522142290323,0.009418401427738103,17.664486110583727,0.012608484018974823,0.014157040161080658
496,0.25,0.001,0.012577289499591313,0.009297448434013415,18.38022913365374,0.013119364121094745,0.01495810120832175
497,0.25,0.001,0.012513549634817373,0.00939247722393349,17.490489111563857,0.012484289158860712,0.014409423572942615
498,0.25,0.001,0.01255423634357766,0.009288955810392326,18.298632846744674,0.013061122660060438,0.012921286863274872
499,0.25,0.001,0.012514140523021305,0.009332102153738009,17.832143596418216,0.012728153887521925,0.011925610015168786
500,0.25,0.001,0.012589360978104376,0.009321918518579952,18.310747883265105,0.013069770080845899,0.011262323649134487
