epoch,beta,learning_rate,train_loss,train_reconstruction_loss,train_kl_unnormalized,train_kl_normalized,mean_unclipped_gradient_norm
1,0.0,0.001,0.07907327810091952,0.07907327810091952,29.708916013709672,0.021205507504432314,0.10872591100633144
2,0.02,0.001,0.05587079640961092,0.05142526629392572,311.40944336448257,0.22227654772625452,0.096338817384094
3,0.04,0.001,0.04412175864604727,0.03620252141019789,277.37130271241256,0.1979809441202088,0.09431428788229823
4,0.06,0.001,0.03871547134600923,0.03390277011093983,112.37659285158293,0.08021170082197211,0.060718134278431535
5,0.08,0.001,0.03563715207339829,0.03238801941836728,56.90043424662187,0.0406141572067251,0.04847401101142168
6,0.1,0.001,0.03314502270713012,0.030593628430092185,35.74503396644752,0.0255139428739811,0.033056461019441485
7,0.12,0.001,0.031107450192443497,0.02888855098836342,25.905655122701095,0.01849083163647473,0.03305744274985045
8,0.14,0.001,0.028466262219465927,0.025984141032628433,24.838945117455648,0.01772943976977562,0.033409912954084575
9,0.16,0.001,0.026323653967996522,0.023604226676614715,23.81198438540662,0.01699641997530808,0.019983748090453446
10,0.18,0.001,0.02532228451830074,0.022213319690594115,24.198107906964033,0.017272025629524648,0.02428983454592526
11,0.2,0.001,0.024286744251036742,0.021114622464863328,22.22071255799617,0.01586060853532917,0.032012972980737686
12,0.22,0.001,0.02324797739917763,0.019992250879002915,20.733057516888096,0.014798756257593216,0.026082257856614888
13,0.24,0.001,0.02275806829863263,0.019257437928762895,20.434932764604003,0.014585962001858674,0.04012651462107897
14,0.25,0.001,0.02201454648475268,0.018239825566505788,21.153537502847456,0.015098884727228734,0.04160056542605162
15,0.25,0.001,0.021140239813275417,0.017653879425079254,19.53756305263631,0.013945441151060894,0.027057683328166604
16,0.25,0.001,0.020568547201455886,0.01690995915321376,20.502727165381778,0.01463435200955159,0.015026071108877659
17,0.25,0.001,0.020359834991239605,0.016874065973394584,19.53424948528721,0.013943076006628986,0.019804575364105403
18,0.25,0.001,0.02011678641404816,0.016618454969141275,19.604650042545845,0.013993326225942787,0.028473835671320558
19,0.25,0.001,0.01986948538680705,0.016497834168655103,18.89473249523211,0.013486604207874453,0.02016845066100359
20,0.25,0.001,0.01969089943557105,0.016266798117357817,19.188663315074713,0.0136964049358135,0.017546782386489213
21,0.25,0.001,0.019407693670758643,0.01588986373299959,19.713919483966908,0.014071320117035623,0.01397172751603648
22,0.25,0.001,0.01911757037698225,0.01581262528241678,18.52091241780684,0.013219780455251136,0.013283826527185738
23,0.25,0.001,0.019156289236253773,0.01566497193236356,19.565342516081103,0.013965269461870879,0.018154719087760895
24,0.25,0.001,0.018764327291913612,0.015439610869845835,18.63171110592128,0.01329886588573967,0.021619602106511593
25,0.25,0.001,0.018728475916398122,0.01546192828519075,18.30573158583382,0.013066189568760756,0.02314340276643634
26,0.0,0.001,0.014808824281968083,0.014808824281968083,23.931326391307877,0.01708160341991997,0.029537808382883668
27,0.02,0.001,0.014147253866817911,0.013486530756476534,46.2836463162091,0.033036150118636046,0.026381140225566924
28,0.04,0.001,0.01457983613107743,0.012771240248496811,63.34607753993078,0.045214901884318905,0.016110201831907034
29,0.06,0.001,0.014996338199247377,0.012532446973773974,57.53186191574799,0.04106485504336045,0.0100671814288944
30,0.08,0.001,0.015097122171807987,0.012835870711249786,39.600163974522545,0.02826564166632587,0.01068364700768143
31,0.1,0.001,0.015435788102416812,0.013332516921364612,29.466827839488264,0.021032710806201473,0.015028214431367815
32,0.12,0.001,0.01577329660559299,0.013364211223614265,28.12607067698714,0.020075710690212092,0.012891258927993476
33,0.14,0.001,0.016143023998916897,0.01330065000100864,28.444042437246154,0.02030267126141767,0.01626043493160978
34,0.16,0.001,0.016416586467910513,0.013446897112425402,26.003345266046882,0.01856056050395923,0.017214463267009705
35,0.18,0.001,0.016662971743978718,0.013561124375643342,24.142712102275514,0.01723248544059637,0.020550378714688122
36,0.2,0.001,0.016827515080945262,0.013608905969959173,22.54635756584391,0.01609304608554169,0.011000859318301082
37,0.22,0.001,0.01697773379604936,0.013664781743325449,21.097480438743176,0.01505887254728278,0.013993200787808746
38,0.24,0.001,0.01726415690237259,0.013869609259006618,19.815670276785497,0.014143947378148105,0.013140219962224364
39,0.25,0.001,0.017278602596169736,0.013829065206222953,19.331207810086685,0.013798149757378076,0.013016113312914968
40,0.25,0.001,0.01719139559217826,0.01379803840117724,19.016375114728216,0.013573429774966606,0.011253028293140233
41,0.25,0.001,0.017129717121937286,0.013867339735001202,18.28236480138292,0.013049510921757972,0.020109718549065292
42,0.25,0.001,0.017104969628809884,0.01377465004280646,18.6631133586293,0.013321280056123697,0.02098485443275422
43,0.25,0.001,0.016966880509575292,0.013662829605480617,18.515900735575784,0.013216203237384571,0.014559419709257782
44,0.25,0.001,0.016860054657798433,0.013685530277600349,17.790033899091778,0.012698097001493061,0.012382162851281464
45,0.25,0.001,0.01672248661549271,0.013418199665937963,18.51722419611081,0.01321714789158516,0.011692249041516334
46,0.25,0.001,0.016664173609916136,0.013480112034531318,17.843480561068866,0.012736245939378206,0.011350625893101096
47,0.25,0.001,0.016468303379403994,0.0132796167703852,17.86940173224924,0.012754747846002314,0.009945106517989188
48,0.25,0.001,0.016515898904042262,0.01347800255382909,17.024370508712703,0.012151584945547968,0.012618081760592759
49,0.25,0.001,0.016427379039166863,0.013327734205856234,17.370409043762972,0.012398578903471073,0.011372180539183319
50,0.25,0.001,0.016347140634907838,0.013218654865188579,17.53203480612783,0.012513943473324646,0.012749668268952519
51,0.0,0.001,0.012738167401792863,0.012738167401792863,21.93453366586853,0.015656340946372967,0.017399778123944998
52,0.02,0.001,0.012321942002672281,0.011702659403492218,43.38074930741697,0.030964132267963577,0.011745308176614344
53,0.04,0.001,0.012883564546922511,0.01127419046761476,56.368322939054735,0.04023434899290131,0.010657138947863132
54,0.06,0.001,0.013293582205680126,0.011254366343084988,47.61569055852531,0.033986931162402076,0.009476581879425794
55,0.08,0.001,0.013436764813803728,0.011580758541043084,32.503311029537954,0.023200079250205535,0.009410108963493258
56,0.1,0.001,0.013741335753647603,0.0118855604683692,25.999413151122535,0.01855775385519096,0.011840116058010608
57,0.12,0.001,0.014055116612573299,0.011873542989709386,25.469874721191918,0.018179782099351834,0.011486866511404514
58,0.14,0.001,0.014326369647076937,0.011952748471504725,23.753164570700672,0.01695443581063574,0.014992917072959244
59,0.16,0.001,0.01458835004045624,0.01205330565727655,22.197483405907285,0.01584402812698593,0.012609222321771085
60,0.18,0.001,0.014889561095777664,0.012100300689278537,21.709741927589832,0.015495890026830715,0.008715571486391127
61,0.2,0.001,0.015182713900057591,0.012282243099796223,20.317797848370283,0.014502353924604056,0.008490796200931072
62,0.22,0.001,0.015395761736391978,0.012359684438417397,19.334292719054922,0.013800351690974249,0.0118772474816069
63,0.24,0.001,0.015622564774614498,0.012489134975744092,18.291394987864475,0.013055956451009617,0.016751290764659643
64,0.25,0.001,0.015823331049733082,0.01258422665407094,18.15194186605669,0.01295641817705688,0.01640967419371009
65,0.25,0.001,0.01568175562380747,0.01252904592011763,17.66778582010309,0.012610839272022192,0.014260393392760307
66,0.25,0.001,0.015532480981434739,0.012460485568355816,17.215462305555782,0.012287981659925612,0.013306697946973145
67,0.25,0.001,0.015506696750928169,0.012471059072279531,17.011714568197977,0.012142551440541025,0.0118626729818061
68,0.25,0.001,0.015498880803522705,0.012491836660701361,16.85147556799725,0.012028176708063706,0.017377251759171486
69,0.25,0.001,0.015574791004966991,0.012505769807549201,17.198794740014495,0.01227608475375767,0.016882969706784934
70,0.25,0.001,0.015448444254041715,0.01247118551003509,16.684558229965145,0.011909035139161417,0.017204633099026978
71,0.25,0.001,0.015443805160943933,0.012423415235769798,16.926265389350668,0.012081559878194623,0.014905205403920263
72,0.25,0.001,0.01538119975586566,0.012397089560036878,16.722954438820047,0.011936441426709526,0.01835918432334438
73,0.25,0.001,0.015371856057556603,0.012471646499122536,16.252774370265307,0.01160083823716296,0.02293504134286195
74,0.25,0.001,0.015231789802844056,0.012239574084533807,16.768377535512755,0.011968863337268204,0.011789785232394934
75,0.25,0.001,0.015272746680920095,0.012310497030210544,16.60044654143904,0.011848998245138501,0.011047535226680338
76,0.0,0.001,0.011900132389497558,0.011900132389497558,20.781329637790822,0.014833211732898517,0.02061753673478961
77,0.02,0.001,0.01148125238981581,0.010903014068854154,40.505580375384085,0.028911906049524688,0.0110563327325508
78,0.04,0.001,0.012000060710416928,0.010506534531993099,52.310752852691266,0.03733815335666757,0.012392183940391988
79,0.06,0.001,0.012339539479105792,0.010512907280115153,42.6518633215996,0.030443871036116774,0.008777400362305343
80,0.08,0.001,0.012535774425669693,0.010865441714432949,29.251703932694312,0.020879160551530558,0.0058343911077827215
81,0.1,0.001,0.01280265882081317,0.011061015238821756,24.400426728954873,0.017416435923593772,0.009387779864482582
82,0.12,0.001,0.013052802606949496,0.01099631002476774,24.009551650809442,0.017137438722918945,0.007675962056964636
83,0.14,0.001,0.013409065102152994,0.01116169966118231,22.48970706891814,0.016052610327564696,0.007499064551666379
84,0.16,0.001,0.01371095294452362,0.011268806312560536,21.38404587621968,0.015263416042983355,0.01079273340292275
85,0.18,0.001,0.01400539247030743,0.011334211171982677,20.79069463179201,0.014839896239680236,0.012212520698085427
86,0.2,0.001,0.014223891859835162,0.011431510466692588,19.560630742476075,0.013961906311546092,0.009694601816590875
87,0.22,0.001,0.014503611610212585,0.011611250209696123,18.419083703013143,0.013147097575312737,0.01114144833991304
88,0.24,0.001,0.014772545651505433,0.011675210907338304,18.08069317709951,0.012905562581798364,0.010413353913463652
89,0.25,0.001,0.014806442071827885,0.0117023687451205,17.395227296581826,0.012416293573577321,0.008681200677528977
90,0.25,0.001,0.014849531121364947,0.011829272048960919,16.925532720078984,0.012081036916544599,0.009796446654945612
91,0.25,0.001,0.014829725541454978,0.011796632715380092,16.997452588260924,0.01213237158334113,0.010797512019053102
92,0.25,0.001,0.01478112349091838,0.011715607324061782,17.179151519073102,0.012262063896554676,0.013696845097001642
93,0.25,0.001,0.014863006677088878,0.011865173863971831,16.799855603333796,0.011991331622650819,0.01786084531340748
94,0.25,0.001,0.014797723548151709,0.011761714599122562,17.01379457178475,0.012144036096919879,0.014743783976882696
95,0.25,0.001,0.014806567815962447,0.011895699559021195,16.31250562627944,0.011643472966651991,0.020021874690428376
96,0.25,0.001,0.01476203899627949,0.01178429066106116,16.687302134525826,0.01191099367203842,0.0182314682751894
97,0.25,0.001,0.01473827434851784,0.011829067808751282,16.30319461662899,0.011636826992597422,0.01973080961033702
98,0.25,0.001,0.014801157954067116,0.01190455981518559,16.232536619178422,0.011586393018685526,0.016531972272787243
99,0.25,0.001,0.014756425404648402,0.011772443442975627,16.72223419125609,0.011935927331374796,0.01504087558714673
100,0.25,0.001,0.014720704371429139,0.011817875852083562,16.267450891279278,0.011611313983782496,0.018844580161385238
101,0.25,0.001,0.014602109567733739,0.011626051750548464,16.67782853737037,0.011904231646945304,0.013510912074707448
102,0.25,0.001,0.014698453438487762,0.011751722427529272,16.513479863250605,0.011786923528373024,0.013308610068634152
103,0.25,0.001,0.014603217619482942,0.01171070148692969,16.20966125232904,0.011570065133710951,0.011687647318467498
104,0.25,0.001,0.014613273752284349,0.011614658180078702,16.804241172439383,0.011994461936073793,0.01306173304328695
105,0.25,0.001,0.014525624592184521,0.011613772090945284,16.31801977516717,0.011647408833095767,0.00965342199197039
106,0.25,0.001,0.014548356559080808,0.011629184244286316,16.359041812529625,0.011676689373682816,0.014095878635998815
107,0.25,0.001,0.01456912665795457,0.011622437377261567,16.513246711826724,0.011786757110511581,0.01148503104923293
108,0.25,0.001,0.014496214641063283,0.011565702472458823,16.422590112087615,0.011722048616764893,0.01012185972649604
109,0.25,0.001,0.014467391228326694,0.011588430932282654,16.133694640762137,0.011515841999116443,0.015279272454790771
110,0.25,0.001,0.014465363392271257,0.011563262621634426,16.263373490656768,0.011608403633587986,0.01140744931763038
111,0.25,0.001,0.014506693668351762,0.011563648200870557,16.49282660544168,0.011772181731221756,0.01596470968797803
112,0.25,0.001,0.01450746127688735,0.011581620388512332,16.39641241049667,0.011703363604922676,0.011186845949850976
113,0.25,0.001,0.014396605514395188,0.011477536603683707,16.358462010467402,0.011676275524958889,0.009702990821097046
114,0.25,0.001,0.014371060774073192,0.011531522930073689,15.91277084190975,0.011358151921420236,0.00936784321675077
115,0.25,0.001,0.014392834164545128,0.011465989602690711,16.40203661100635,0.011707378023559135,0.011500043096020818
116,0.25,0.001,0.014450647139524316,0.011481600490137623,16.63853725928143,0.011876186480572043,0.012698667065706104
117,0.25,0.001,0.0142898494767407,0.011451986123453124,15.9033854097502,0.011351452826374162,0.010919562191702425
118,0.25,0.001,0.014315771262422516,0.011437842376904258,16.127914312993134,0.011511716140608946,0.009182274923659861
119,0.25,0.001,0.014315576561449961,0.011429584183765256,16.17310136930713,0.011543969571239921,0.011541183339431882
120,0.25,0.001,0.014289149776818114,0.011409094354535246,16.139830497518243,0.011520221625637575,0.010028458433225751
121,0.25,0.001,0.01439135790915544,0.011528144555485897,16.045447497188295,0.011452853317050888,0.012387668364681304
122,0.25,0.001,0.014303030691666833,0.011383028237234848,16.363694051319584,0.011680010029492921,0.01383074780460447
123,0.25,0.001,0.014447079663589659,0.011555714072916798,16.203213077209984,0.011565462581877219,0.015157463727518916
124,0.25,0.001,0.014281022787156464,0.01140247640359726,16.13137390823045,0.011514185516224447,0.012769097229465842
125,0.25,0.001,0.014243863269717874,0.011385045891089919,16.020813143901744,0.011435269909994107,0.012622579524759203
126,0.25,0.001,0.014270983948119017,0.011444446661949905,15.839915574843914,0.011306149589467462,0.010880335234105587
127,0.25,0.001,0.014178357605343084,0.011285539490470826,16.2113532700798,0.011571272855160457,0.00809134659357369
128,0.25,0.001,0.01422169946804331,0.0113277506145598,16.217689466276926,0.011575795479141275,0.012087997165508568
129,0.25,0.001,0.01419766128032028,0.011346010849752685,15.980649684762357,0.011406602201828948,0.011602586193475872
130,0.25,0.001,0.014147907425357207,0.011221706878908258,16.398428733378772,0.011704802807550872,0.012177679862361401
131,0.25,0.001,0.014195027562427222,0.011423603958882797,15.53105881822658,0.01108569508795616,0.010633394471369684
132,0.25,0.001,0.01407500492821927,0.011181513716517382,16.2151251278163,0.011573965116214347,0.011098840506747365
133,0.25,0.001,0.014149309338604307,0.01132510666770541,15.826831462493002,0.011296810465733763,0.010321333887986839
134,0.25,0.001,0.01419312623816554,0.01133339612444699,16.02592673361551,0.011438919866963248,0.008884859795216471
135,0.25,0.001,0.014142800831707452,0.011277362918598132,16.057913860017784,0.011461751506079788,0.010956205253023654
136,0.25,0.001,0.014161215498887594,0.011260460820594592,16.255828897324566,0.011603018484885486,0.00853067880962044
137,0.25,0.001,0.014094394495297676,0.011262560528254908,15.869597407065674,0.011327335765214615,0.014322722447104752
138,0.25,0.001,0.014057818067622484,0.011246974428016771,15.751967657560085,0.011243374487908698,0.01151807198766619
139,0.25,0.001,0.014101318360372567,0.011252579174031772,15.96433484703926,0.01139495706426785,0.013289274706039578
140,0.25,0.001,0.014145401267482895,0.011353414221257595,15.646296808410389,0.011167949185160878,0.016476658638566732
141,0.25,0.001,0.014178300206257209,0.011324312319690713,15.993749873907497,0.011415952800790505,0.01473941671429202
142,0.25,0.001,0.014089917179555574,0.011208153961062681,16.149401612860387,0.011527053256859663,0.014717962127178907
143,0.25,0.001,0.014011911147714409,0.011180346122471358,15.868090821110554,0.011326260400507177,0.014503557875286788
144,0.25,0.001,0.014011905158414002,0.01124776443115837,15.490245068921205,0.011056563218359175,0.012427209876477718
145,0.25,0.001,0.014096829720683178,0.011281879170637998,15.774982859400026,0.01125980218372593,0.012618302251212299
146,0.25,0.001,0.014100994844628676,0.011191484420930492,16.304896582120634,0.011638041814504379,0.013993895729072392
147,0.25,0.001,0.014098385387883525,0.011287729875437883,15.75091325688063,0.011242621882141778,0.010483590420335531
148,0.25,0.001,0.014019964703175562,0.011099631851344178,16.365545735698365,0.011681331717129454,0.00961554842069745
149,0.25,0.001,0.013937878839391045,0.011091602677830093,15.950531133547987,0.01138510430660099,0.009253253927454352
150,0.25,0.001,0.013928520403584176,0.01117445950135277,15.433757554537083,0.011016243793388353,0.009194027283228934
151,0.25,0.001,0.01398924635294591,0.011153351316797434,15.892355851049702,0.011343580193468738,0.008928056806325912
152,0.25,0.001,0.013962852394512257,0.011072356729265537,16.19833782626994,0.011561982745374687,0.01062633324181661
153,0.25,0.001,0.014041748809702227,0.011188200106025989,15.991286696749253,0.011414194644360637,0.012892581522464752
154,0.25,0.001,0.013913520736518515,0.01105615532485511,16.0126761711791,0.011429461935174232,0.00892203242983669
155,0.25,0.001,0.013970859200697563,0.011153955597071967,15.785928391013684,0.01126761484012397,0.010425784508697689
156,0.25,0.001,0.013907910811726518,0.01100170161481557,16.28639628996909,0.01162483675229771,0.008346827584318817
157,0.25,0.001,0.013962913234425887,0.01117533967132723,15.621563763798031,0.011150295334616724,0.01097714394563809
158,0.25,0.001,0.01391568133864692,0.011041397053483391,16.10748809750609,0.011497136400789499,0.009887044841889292
159,0.25,0.001,0.013948690789171093,0.011116786450771108,15.869992064631633,0.011327617462263835,0.012195283139590174
160,0.25,0.001,0.013852814835920992,0.010985849927877033,16.066470613040686,0.011467859109950525,0.011664484743960202
161,0.25,0.001,0.013943581011878895,0.011114957882675915,15.851603823226865,0.01131449237917692,0.014222513476852328
162,0.25,0.001,0.01394657234984711,0.011073192223033646,16.10242227131353,0.011493520536269472,0.014911925012711436
163,0.25,0.001,0.013923855654303,0.011102523888504155,15.810744205778114,0.011285327770005791,0.01591168704908341
164,0.25,0.001,0.013919980576939913,0.011096371505331545,15.823504970662265,0.011294436096118675,0.01409885473549366
165,0.25,0.001,0.01401100889877046,0.011160921102787161,15.971892827724313,0.011400351768539837,0.015739658381789923
166,0.25,0.001,0.013927038821341104,0.01107836141013326,15.96398917002658,0.011394710328355874,0.010614442697260529
167,0.25,0.001,0.013919166106122807,0.011044550546791763,16.109345248553545,0.011498461990402244,0.012146833876613528
168,0.25,0.001,0.01385805041579896,0.010988288017371709,16.082149018802404,0.01147904997773191,0.010395469726063311
169,0.25,0.001,0.013770661363573005,0.010983710987766168,15.618070462757574,0.011147801900612115,0.011113551154267043
170,0.25,0.001,0.01393141117819807,0.011124559050761007,15.729600092357172,0.01122740905949834,0.014287313329987228
171,0.25,0.001,0.013888900795616365,0.011020110666783036,16.07670025446425,0.011475160781202177,0.01699716004077345
172,0.25,0.001,0.013858466452011005,0.01103677177435434,15.81277838511447,0.011286779718140235,0.009698790265247226
173,0.25,0.001,0.013836825484698287,0.01099507045780141,15.92519559022273,0.011367020407011227,0.008470423228573054
174,0.25,0.001,0.013817853570982003,0.011001045484423138,15.785392545755936,0.011267232366706592,0.009647360478993505
175,0.25,0.001,0.013780899014651276,0.01100790054073643,15.539883378160548,0.011091993845939006,0.00958562974119559
176,0.25,0.001,0.013790053362221649,0.010912096973461835,16.128067008621024,0.011511825131064257,0.009080433461349458
177,0.25,0.001,0.013849326234045887,0.010966244188749141,16.156793223265325,0.01153232921003949,0.011294486583210528
178,0.25,0.001,0.013827451594392127,0.010975873113364355,15.980245394686774,0.011406313629326748,0.012211247929371893
179,0.25,0.001,0.013784862801463784,0.010963356063923327,15.811724993973097,0.011286027832957244,0.015829905634745955
180,0.25,0.001,0.01379740683977574,0.011008029316540293,15.631671893546772,0.011157510273766432,0.010869850579183549
181,0.25,0.001,0.013774884147686439,0.010882293937969406,16.21007555398981,0.011570360852241121,0.011120252485852689
182,0.25,0.001,0.013876331027082819,0.011066798814358073,15.744619752572671,0.011238129730601478,0.014145982568152249
183,0.25,0.001,0.013786871866888083,0.01091676103691551,16.084102846089767,0.011480444572512325,0.015113867120817304
184,0.25,0.001,0.013796658948780852,0.010944563572033928,15.983142134534765,0.011408381252344585,0.009775748127140105
185,0.25,0.001,0.013705418858225127,0.010881323975249813,15.826228548792116,0.01129638012047974,0.009171529964078218
186,0.25,0.001,0.013680127270083298,0.010907798775600339,15.53612892597789,0.011089314008549529,0.009365528880152851
187,0.25,0.001,0.013764045454530536,0.010917159261096222,15.953950355242485,0.011387544864555664,0.009750675526447594
188,0.25,0.001,0.013775224532448846,0.010933723916381474,15.92376896527023,0.011366002116538352,0.013105156598612666
189,0.25,0.001,0.013817052263376853,0.010941493211929769,16.114633137212138,0.011502236357753132,0.014102905872277915
190,0.25,0.001,0.01377325416951748,0.010992463085815996,15.583553820973162,0.011123164754441943,0.01347401732346043
191,0.25,0.001,0.013825482739501916,0.011003613927904282,15.813752329997936,0.011287474896501025,0.01334355864673853
192,0.25,0.001,0.013740133899400424,0.010828235284055127,16.31828083054291,0.011647595168124848,0.009983976313378662
193,0.25,0.001,0.013740825879866858,0.010962243425702699,15.571177638225475,0.011114330933779781,0.014079133397899568
194,0.25,0.001,0.013697092433043104,0.010805971534712295,16.20184138629227,0.011564483501993055,0.01118505117483437
195,0.25,0.001,0.013670505059563465,0.010856988305950763,15.766948292943724,0.011254067304028354,0.011589398491196334
196,0.25,0.001,0.013788757218383097,0.010882450248188803,16.286943659124017,0.011625227451194873,0.012125699955504388
197,0.25,0.001,0.013777167197301298,0.010912680600976346,16.052582461464855,0.011457946082416027,0.013516537379473448
198,0.25,0.001,0.01377371909821632,0.010917102197130605,16.008481540440517,0.011426467908951118,0.011877828277647495
199,0.25,0.001,0.013708184445939303,0.01087462857646174,15.879246883312529,0.011334223328559979,0.00949860195396468
200,0.25,0.001,0.013620357309705792,0.010800090840546157,15.804773857404,0.011281066279374731,0.009181861008983105
201,0.25,0.001,0.013667752109000373,0.010907887227864446,15.466282058460443,0.011039458999614877,0.011781900539062917
202,0.25,0.001,0.013727400506453035,0.010881816200662607,15.946654439471256,0.011382337215896685,0.00960901624057442
203,0.25,0.001,0.013741709042543147,0.010859974168989199,16.149242273434435,0.011526939524221581,0.011259624792728573
204,0.25,0.001,0.013729115476574608,0.01092289454424481,15.726062239962143,0.011224883825811665,0.010701513150706887
205,0.25,0.001,0.013637929344277003,0.01079760311038923,15.917189083338782,0.011361305555559444,0.009476229082792997
206,0.25,0.001,0.013640810505615617,0.010810087493398698,15.863372084485936,0.011322892280146992,0.010319158027414232
207,0.25,0.001,0.013685423307993671,0.0108929064288486,15.649265951691312,0.011170068488002364,0.011821826512459666
208,0.25,0.001,0.013699923404278117,0.010792517929365196,16.29310095559603,0.011629622380867973,0.010879614914301783
209,0.25,0.001,0.013708619116396335,0.010869496564330167,15.910443046601747,0.011356490397288898,0.014035218395292759
210,0.25,0.001,0.013673171260740967,0.01088812637481854,15.607392259222694,0.011140180056547247,0.012310691527090967
211,0.25,0.001,0.013665704142349036,0.010778919407887439,16.17754229541603,0.011547139397156337,0.011826270434539765
212,0.25,0.001,0.013688937659574104,0.010900336691805759,15.627320469173926,0.011154404332029926,0.009979582158848643
213,0.25,0.001,0.013648072008246158,0.010828137627674197,15.802911383337555,0.011279736890319454,0.013845481385942549
214,0.25,0.001,0.013697664904170456,0.010867675123385555,15.859262418547434,0.011319958899748347,0.014093233970925212
215,0.25,0.001,0.013755987129450841,0.010904757255322016,15.978293263263783,0.011404920245013406,0.01662940240930766
216,0.25,0.001,0.013654572959350244,0.010830993035410737,15.823343117366775,0.011294320569141167,0.014262101205531508
217,0.25,0.001,0.013665757839525096,0.010814945353779583,15.975953177926929,0.011403249948555981,0.009290528658311814
218,0.25,0.001,0.013598482825921918,0.010817762491562128,15.583155620048236,0.011122880528228577,0.010875637352000922
219,0.25,0.001,0.013629811258682647,0.010747663053259192,16.151558584747953,0.011528592851354713,0.009310485911555588
220,0.25,0.001,0.013547753693076108,0.010832540702589136,15.216053767184333,0.010860852082215797,0.010889569181017578
221,0.25,0.001,0.013651495464302008,0.010731130187637387,16.365727141312476,0.011681461200080283,0.010991710238158703
222,0.25,0.001,0.013646507113548503,0.010770531086773304,16.116968474128754,0.01150390326490275,0.011006858083419502
223,0.25,0.001,0.013599202391461597,0.010846720755131425,15.424907955664471,0.011009927163215184,0.011516902828589082
224,0.25,0.001,0.013589591041176139,0.010806044423368187,15.598994857596553,0.011134186193859067,0.010946935741230845
225,0.25,0.001,0.013583346694770218,0.010750568164005938,15.874890914023172,0.011331114142771714,0.010229392151813954
226,0.25,0.001,0.013520886026572233,0.010701237293155124,15.80131136124104,0.011278594833148494,0.0107204903033562
227,0.25,0.001,0.013513057597885571,0.010699503552402413,15.76715864396993,0.01125421744751601,0.009177383850328624
228,0.25,0.001,0.013515763008133138,0.010722845188774574,15.65151077334352,0.011171670787539986,0.010237486276309937
229,0.25,0.001,0.013597022028928272,0.010737870667893518,16.022683351109716,0.01143660481877924,0.010865480755455792
230,0.25,0.001,0.013561560121602593,0.010722306214085932,15.911178740497414,0.011357015517842552,0.010184313519857824
231,0.25,0.001,0.013502210468272036,0.010715074229315235,15.619111767373823,0.01114854515872507,0.009746336669195443
232,0.25,0.001,0.013511030751603917,0.0107569202866452,15.434034846317818,0.011016441717571605,0.009478018269874156
233,0.25,0.001,0.01351137461616155,0.01073255107024973,15.572527143246958,0.011115294177906465,0.012408190872520208
234,0.25,0.001,0.013554211394183306,0.010804169752857177,15.411234536430326,0.011000167406445629,0.013909484376199543
235,0.25,0.001,0.013614714204111608,0.010773717078953108,15.920947701362387,0.011363988366425687,0.014680835767649114
236,0.25,0.001,0.013614365507587479,0.010792369888043303,15.814464952157632,0.011287983549006161,0.011313791677821428
237,0.25,0.001,0.013562589498026351,0.010737249580948422,15.83320515524892,0.01130135985385362,0.010355851496569812
238,0.25,0.001,0.013603628897517296,0.010762062087405676,15.924141768132294,0.01136626821422719,0.013390063890255988
239,0.25,0.001,0.01351123585299468,0.010696879385436679,15.77165413301859,0.011257426219142462,0.01113330025691539
240,0.25,0.001,0.013608407696794765,0.010800151801258949,15.737465902352433,0.011233023484905376,0.013158599787857383
241,0.25,0.001,0.013562279449440695,0.010670798670921366,16.20385827180232,0.011565923106211507,0.012924710288643837
242,0.25,0.001,0.01346471586954394,0.010747601488550588,15.226708264530453,0.010868457005375056,0.010301432339474559
243,0.25,0.001,0.013508986825879398,0.010694208773141376,15.774016759385624,0.011259112604843415,0.011490953154861927
244,0.25,0.001,0.013540868877304648,0.010707927224806912,15.875804952996544,0.011331766561739147,0.01400402351282537
245,0.25,0.001,0.013562459471366644,0.010733113008469467,15.855658056346941,0.011317386192967124,0.01415246189571917
246,0.25,0.001,0.013573912638687688,0.010724635463535286,15.967348960653009,0.011397108465847973,0.01302677986677736
247,0.25,0.001,0.013570451126998938,0.010736493179457707,15.881500419712467,0.01133583184847428,0.01085126108955592
248,0.25,0.001,0.013512982133479796,0.010767870972314889,15.38360283664081,0.010980444565767886,0.01135268050711602
249,0.25,0.001,0.013539238365281326,0.01074139416124282,15.679120087723353,0.011191377650052358,0.012590985861606896
250,0.25,0.001,0.013507583805956102,0.01068422462105377,15.82210605413844,0.011293437583253704,0.010523587581701577
251,0.25,0.001,0.013517907972615133,0.010798611393720535,15.23893902192056,0.010877187024925452,0.010756106930784881
252,0.25,0.001,0.013685105462016919,0.010642958594540671,17.048191278050634,0.012168587636010446,0.015103127108886838
253,0.25,0.001,0.013510306584005824,0.010652189532676751,16.016887995987258,0.011432468234109391,0.011734285741113126
254,0.25,0.001,0.013550865670440088,0.010801229146640421,15.408963686252738,0.010998546528374545,0.009961944248061627
255,0.25,0.001,0.013483497434954264,0.01057134320078784,16.319712291701567,0.011648616910565,0.009848797344602644
256,0.25,0.001,0.013474946385678139,0.010752914605903824,15.25426571738271,0.010888126850380235,0.011032930866349488
257,0.25,0.001,0.01342269528470154,0.010607597367471732,15.775808741358034,0.011260391678342637,0.010434242780320346
258,0.25,0.001,0.013522629844313136,0.010706396668245353,15.782170958100004,0.011264932875160602,0.009185596834868193
259,0.25,0.001,0.013474889465892165,0.01065479902059588,15.80378795767429,0.011280362567933112,0.012746997643262148
260,0.25,0.001,0.013448068599321851,0.010714030680422005,15.321547907266657,0.010936151254294545,0.0096216484089382
261,0.25,0.001,0.013483072463500948,0.010588675850386649,16.22019841182182,0.011577586303941342,0.00959255947964266
262,0.25,0.001,0.013510423879992513,0.010689730666359597,15.80716471093469,0.011282772812944104,0.013384737772867084
263,0.25,0.001,0.013448254727450624,0.01066342571352815,15.606181739264452,0.011139316016605604,0.014701932319439948
264,0.25,0.001,0.013551202684516189,0.010722639089816534,15.851270643737028,0.011314254563695237,0.014963250723667443
265,0.25,0.001,0.013498875865845252,0.01066696561997655,15.87002565471697,0.011327641438056367,0.011961936485022306
266,0.25,0.001,0.013466028808362814,0.010679866350937837,15.613654499772203,0.011144649892771023,0.012574965483509004
267,0.25,0.001,0.013414100510025374,0.0106045582008287,15.744675624320697,0.01123816961050728,0.010744601080659777
268,0.25,0.001,0.013405725394987411,0.010594213221643011,15.75571399353538,0.011246048532145168,0.010789479478262365
269,0.25,0.001,0.013300549168778762,0.01054021098093757,15.468936066248427,0.011041353366344344,0.00929792964598164
270,0.25,0.001,0.013422775799291653,0.010637038453602891,15.61127280390911,0.011142949895723847,0.009219519037287682
271,0.25,0.001,0.013442799534695418,0.010682585699850046,15.468238463461649,0.011040855434305245,0.012191057903692126
272,0.25,0.001,0.013407732508141377,0.010572656883885421,15.88776353812118,0.011340302311292776,0.009807359136175364
273,0.25,0.001,0.013360539591524391,0.010629660313535934,15.303847332878592,0.010923517011333756,0.010956894606351852
274,0.25,0.001,0.013451466570651181,0.010607157822183985,15.93950719314639,0.011377235683901777,0.009512793738394976
275,0.25,0.001,0.013466238227349445,0.010613647581830185,15.985918092927175,0.011410362664473359,0.011028649052605033
276,0.25,0.001,0.013368946574160743,0.0106248161034604,15.378108012626361,0.010976522492952435,0.01064619910903275
277,0.25,0.001,0.013471621957658225,0.010583344882034607,16.1859046904113,0.01155310827295596,0.01131686253938824
278,0.25,0.001,0.013465257268009326,0.010685659812521736,15.576864952821612,0.011118390401728488,0.014740019105374813
279,0.25,0.001,0.013454626887163857,0.010668021887852557,15.61613436423585,0.011146419960196895,0.010273116175085306
280,0.25,0.001,0.01348391926173261,0.010624912731100077,16.021872125410137,0.011436025785446209,0.011134028783999383
281,0.25,0.001,0.013483468224937447,0.010692804229589936,15.638881639456649,0.01116265641645728,0.01223457243759185
282,0.25,0.001,0.013441378585838373,0.010583687109958427,16.014503933894584,0.011430766548104628,0.013207069772761315
283,0.25,0.001,0.013500706838233451,0.010722027261542725,15.571720586162233,0.011114718476918082,0.015773271210491657
284,0.25,0.001,0.013445256897501616,0.01064144700344761,15.712549963755588,0.01121523908904753,0.014060110552236438
285,0.25,0.001,0.013450765725084928,0.01063417722802282,15.784161400096686,0.011266353604637177,0.012554986809846014
286,0.25,0.001,0.013284218657340963,0.010520654446036247,15.48701406423018,0.011054257005160729,0.011750208330340683
287,0.25,0.001,0.013451383336131544,0.010694503714038238,15.449553860780085,0.011027518815688855,0.012877112370915711
288,0.25,0.001,0.013384780936161345,0.01056034326023387,15.828148925653561,0.011297750839153149,0.012949433643370867
289,0.25,0.001,0.013487929080819486,0.010646871844439078,15.921284416230653,0.011364228705375198,0.016602477408014238
290,0.25,0.001,0.013436988300047659,0.010642915457549454,15.657984809396655,0.011176291798284551,0.015678300231229514
291,0.25,0.001,0.013448557695646665,0.01066409053366678,15.604154618714144,0.011137869106862344,0.014060520916245878
292,0.25,0.001,0.013335357225309107,0.010540191836218704,15.664105698653344,0.011180660741365698,0.010474078415427357
293,0.25,0.001,0.01337954309227327,0.010606672190067409,15.539169096048905,0.011091484008600218,0.010168605367653072
294,0.25,0.001,0.013358185301577695,0.010575477033853531,15.594295944628856,0.011130832223146935,0.01052840257762
295,0.25,0.001,0.013390678846156497,0.010566558938270833,15.826367286458673,0.011296479148078995,0.012043998809531331
296,0.25,0.001,0.013413354076413928,0.010636725805886869,15.560225510696986,0.011106513569376864,0.010446214117109776
297,0.25,0.001,0.013335264221644301,0.010454202741072767,16.145468815600022,0.011524246121056405,0.011420016060583293
298,0.25,0.001,0.013312318826008541,0.010592016870756029,15.244571382530564,0.010881207268044656,0.01202272460795939
299,0.25,0.001,0.01340972279903779,0.010614709792245632,15.66325363653973,0.011180052559985531,0.010714649688452482
300,0.25,0.001,0.013364388603545631,0.010579338889553458,15.607419987602713,0.01114019984839594,0.012121622217819095
301,0.25,0.001,0.013360140354189413,0.01058138274123978,15.572158518196648,0.011115031062238864,0.013003287778701633
302,0.25,0.001,0.013384937873757035,0.010624678232648632,15.468495193385678,0.011041038681931247,0.017328110057860613
303,0.25,0.001,0.013353004584003193,0.010593411298351807,15.464761179361384,0.011038373432806127,0.015530913893599063
304,0.25,0.001,0.013361916425306677,0.010601393270567371,15.46997150516909,0.011042092437665303,0.011154883715789765
305,0.25,0.001,0.013389500988078416,0.010584127274828974,15.721314625760003,0.011221495093333336,0.010373890632763505
306,0.25,0.001,0.013365904644723967,0.010574004004970505,15.645812373779808,0.011167603407408857,0.009433452505618334
307,0.25,0.001,0.013343474099015092,0.010540171331535075,15.709709370984193,0.011213211542458381,0.011654297937639058
308,0.25,0.001,0.013282474282365214,0.01047113717038761,15.754733576435424,0.011245348734072394,0.010108564049005508
309,0.25,0.001,0.0133963381271482,0.010661523134513878,15.325902096895993,0.01093925916980442,0.011249980540014803
310,0.25,0.001,0.013343283049294639,0.010489142117982879,15.994606049988558,0.011416563918621383,0.011095822090283036
311,0.25,0.001,0.01330817201677476,0.010508469263068303,15.689534542450845,0.011198811236581617,0.01054377795662731
312,0.25,0.001,0.013397354819659908,0.01060043185341433,15.67395720621532,0.011187692509789664,0.013749959354754537
313,0.25,0.001,0.01333496464751505,0.010561937146730503,15.540047258512745,0.011092110819780688,0.00981281022541225
314,0.25,0.001,0.013302674333888367,0.01049168566124958,15.752781740292345,0.01124395556052273,0.009016860800329596
315,0.25,0.001,0.013315935701007125,0.010467869447832576,15.96056249450939,0.011392264450042391,0.010700868966523558
316,0.25,0.001,0.013343514364103642,0.01053054618676462,15.763874341254454,0.011251873191473557,0.011758027249015868
317,0.25,0.001,0.013394896899618864,0.010553038425774755,15.925775284547687,0.011367434178834894,0.016629898571409285
318,0.25,0.001,0.01333885906833111,0.01055992725909255,15.573133811791072,0.011115727203276997,0.015681826858781278
319,0.25,0.001,0.013319644913326746,0.01050012467904445,15.80059229878701,0.011278081583716638,0.014200278208591044
320,0.25,0.001,0.013371261701798339,0.010579234359310512,15.646521943383636,0.011168109881073258,0.012188365799374878
321,0.25,0.001,0.013335362341738146,0.010511439102682358,15.825265740749726,0.011295692891327428,0.013079744472634047
322,0.25,0.001,0.013335939434407645,0.010522628226414884,15.765796174564121,0.011253244949724569,0.015106122009456158
323,0.25,0.001,0.013303235597970845,0.010557199578934882,15.388786627158959,0.010984144630377559,0.013200063491240144
324,0.25,0.001,0.013224526795570322,0.010445363975469038,15.574427532850448,0.01111665063015735,0.008994972158689052
325,0.25,0.001,0.013260566808719764,0.010473085376414544,15.621046704727236,0.011149926270326365,0.009116067492868751
326,0.25,0.001,0.013292249112884869,0.010529768158327086,15.480942662290948,0.011049923384932868,0.01272255927324295
327,0.25,0.001,0.013184165706756724,0.01038155894508297,15.705808192616228,0.011210426975457693,0.009727739030495286
328,0.25,0.001,0.013341249142107105,0.010568076694017924,15.540858751560355,0.011092690043940296,0.00881494372151792
329,0.25,0.001,0.013220861203438567,0.01042431819342295,15.67182651424009,0.01118617167326202,0.009779462066944689
330,0.25,0.001,0.013231266831597274,0.010469292680183465,15.478103541928855,0.011047896889313957,0.011375330563168973
331,0.25,0.001,0.013239145773817556,0.010434519281322488,15.717126327578493,0.011218505587136683,0.010872060200199485
332,0.25,0.001,0.013249834520142199,0.01042957383375537,15.804741456418855,0.01128104315233323,0.01078775164205581
333,0.25,0.001,0.013206833587748984,0.010467009123991473,15.353975092516784,0.010959296996799988,0.01055285765323788
334,0.25,0.001,0.013273337887109073,0.010433899581619386,15.91221287859035,0.011357753660664062,0.011273377400357276
335,0.25,0.001,0.013258646589131036,0.01048401761488311,15.54902100662806,0.011098516064688122,0.011047134641557932
336,0.25,0.001,0.01322928471997318,0.010451031961793929,15.569329353555975,0.011113011672773716,0.011190805002115667
337,0.25,0.001,0.01322087923758449,0.01050649925474093,15.211387594374653,0.010857521480638581,0.011869714129716158
338,0.25,0.001,0.01323528149044414,0.010425195448630525,15.74772321629225,0.011240344908131514,0.013186244643293321
339,0.25,0.001,0.01334443288586379,0.010496309444027714,15.960883264262307,0.011392493407753253,0.010924906877335161
340,0.25,0.001,0.01329764209407144,0.01051130152412663,15.614652067048779,0.011145361932226108,0.009156325890216976
341,0.25,0.001,0.013225521767613279,0.010406758842763791,15.79634858773842,0.011275052525152334,0.010115179000422359
342,0.25,0.001,0.01325288921142597,0.010505578122160176,15.395930912704149,0.010989244049039363,0.010126662091352046
343,0.25,0.001,0.013238053164877403,0.01047334863675688,15.493405214413439,0.011058818853971048,0.010354576050303876
344,0.25,0.001,0.013250488783992733,0.01044503255712188,15.72177680266951,0.011221824984061034,0.013901323138270527
345,0.25,0.001,0.01324059184500363,0.010467183460563297,15.542180619978007,0.011093633561725914,0.009164977353066206
346,0.25,0.001,0.01323923006045893,0.010461553607806252,15.566099095045272,0.01111070599218078,0.013295831391587853
347,0.25,0.001,0.01327170868828955,0.010490594155088878,15.585365558767917,0.011124457929170533,0.013697987771593034
348,0.25,0.001,0.013231341610175546,0.010448465193914071,15.595238793345176,0.011131505205813831,0.011071515793446451
349,0.25,0.001,0.013235506223647166,0.010478248959991722,15.451670315475145,0.011029029489989397,0.011553418298717588
350,0.25,0.001,0.013205109319988653,0.010474176660460658,15.304145884813126,0.010923730110501875,0.01212809351272881
351,0.25,0.001,0.013163849076248362,0.010367790965760851,15.669109903120097,0.011184232621784508,0.011330448789522052
352,0.25,0.001,0.01311803444690036,0.010365719326370431,15.423973965345565,0.011009260503458648,0.010700516519136727
353,0.25,0.001,0.013177468059545531,0.0104302183830152,15.395587182942794,0.010988998703028404,0.011987511767074466
354,0.25,0.001,0.013206973215993728,0.01041832621984776,15.627577737784286,0.011154587964157235,0.011989782797172666
355,0.25,0.001,0.013233710840250906,0.010437581559573007,15.669509700152664,0.011184517987261002,0.011325318948365748
356,0.25,0.001,0.0132510307591767,0.010444868332608973,15.72573426378322,0.01122464972432778,0.010777246905490756
357,0.25,0.001,0.01322906751918244,0.010449249585739739,15.57809950617068,0.011119271596124683,0.011290967755485326
358,0.25,0.001,0.013271728791608222,0.010445916596566284,15.835851904737401,0.011303249039784012,0.011601578327827156
359,0.25,0.001,0.013249552952881638,0.010397562874036852,15.982551694415104,0.011407959810431908,0.009229600662365556
360,0.25,0.001,0.013281702590038587,0.01045009028945882,15.868355136536156,0.011326449062481196,0.012002046220004559
361,0.25,0.001,0.01323999136795434,0.010421271081312432,15.796109546677338,0.011274881903409948,0.011482920148409903
362,0.25,0.001,0.013230830656995833,0.010397112417857018,15.880156836250338,0.011334872831013802,0.010423582629300654
363,0.25,0.001,0.013231568654149647,0.0104766263778489,15.438696773481169,0.011019769288708901,0.010608428507111967
364,0.25,0.001,0.013196718992049723,0.010452883910372168,15.376451260873962,0.010975339943521742,0.012072065263055265
365,0.25,0.001,0.013279420962736446,0.010449497442240496,15.858891120016825,0.011319693875815008,0.015540641266852617
366,0.25,0.001,0.013270657836892116,0.010398394607443939,16.096163825509937,0.011489053408643781,0.014235103037208319
367,0.25,0.001,0.013248651643053756,0.010454064562417972,15.660866438095539,0.011178348635328721,0.016407525399699807
368,0.25,0.001,0.013175337080489142,0.010446079020781996,15.294762575476739,0.010917032530675759,0.010603398899547756
369,0.25,0.001,0.013209446906170586,0.010390096425885436,15.799640583692733,0.011277402272443065,0.009631832130253315
370,0.25,0.001,0.01319027259150933,0.010383403302797713,15.729696134144293,0.011227477611808917,0.009432892082259059
371,0.25,0.001,0.0132484314339742,0.0103680850298896,16.14146082570862,0.01152138531456718,0.011272060102783144
372,0.25,0.001,0.013272195512810761,0.010492403317383143,15.577955597115361,0.011119168877312891,0.011341023026034236
373,0.25,0.001,0.013200932116126914,0.010380765076368174,15.80421614547155,0.011280668198052499,0.012344190152361989
374,0.25,0.001,0.013188234923960774,0.010434139278331561,15.433953815923076,0.011016383880030746,0.011742496397346258
375,0.25,0.001,0.01318894988744204,0.010365124480120806,15.82471774113228,0.011295301742421328,0.014093657431658357
376,0.25,0.001,0.013230333194354838,0.010485965637762926,15.379436349270234,0.01097747062760188,0.01114806771511212
377,0.25,0.001,0.013144506671501004,0.010337519759475935,15.730355526114108,0.011227948269888727,0.010009533143602312
378,0.25,0.001,0.013217319855193713,0.01033975096676639,16.12589628227585,0.0115102757189692,0.01173131336690858
379,0.25,0.001,0.013150314208135694,0.010434416360436124,15.219891787572884,0.010863591568574507,0.011926048318855464
380,0.25,0.001,0.013263289037328135,0.010406068346958031,16.011864490588838,0.011428882577151205,0.013358781579881907
381,0.25,0.001,0.013192307196214607,0.010392796813225896,15.688456052516793,0.011198041436485933,0.011499970103614032
382,0.25,0.001,0.013252268783031148,0.010453407005816075,15.684821791229886,0.011195447388458162,0.013953702873550355
383,0.25,0.001,0.013260876549462394,0.010399128809166004,16.037233791590733,0.011446990572156127,0.013027513166889548
384,0.25,0.001,0.013258437103899703,0.010465624060279156,15.65092400826171,0.011171251968780663,0.012969613540917635
385,0.25,0.001,0.013105857466585217,0.010239968473816516,16.060442050630577,0.011463556067545023,0.010466444015037268
386,0.25,0.001,0.013149153211282636,0.010437596417869982,15.195564665056173,0.010846227455429102,0.010730396024882793
387,0.25,0.001,0.013168717224041787,0.01034682592431621,15.8138785382195,0.011287564980884726,0.009445953590329736
388,0.25,0.001,0.013167586407495593,0.010380437114435759,15.619185555430137,0.011148597826859483,0.010809134924784303
389,0.25,0.001,0.013164973385226776,0.010352859277449642,15.759088883340109,0.011248457447066458,0.012968631461262703
390,0.25,0.001,0.013139017218544644,0.010321258200979382,15.790722128736425,0.011271036494458547,0.01405425724806264
391,0.25,0.001,0.013096286622986633,0.010347197296012146,15.40589607111081,0.010996356938694368,0.010699116217438132
392,0.25,0.001,0.013163471781496723,0.01038269600032139,15.583468796319044,0.011123104065895107,0.012070669676177204
393,0.25,0.001,0.013070262048907858,0.0102530969423729,15.787393382403641,0.01126866051563429,0.009925365855451673
394,0.25,0.001,0.013175999488541272,0.010380505490658424,15.665948612420628,0.01118197616875134,0.009784720255993307
395,0.25,0.001,0.013126268678940988,0.010282951999440104,15.93394719606663,0.011373267092124646,0.010599941539112478
396,0.25,0.001,0.013160752787188507,0.010411285647195003,15.408012821085782,0.010997867823758589,0.010441932361572981
397,0.25,0.001,0.013101674752722973,0.010260954035531776,15.919399556754524,0.01136288333815455,0.01071595138637349
398,0.25,0.001,0.013209183540616076,0.01041427470946287,15.66266770941443,0.01117963433933935,0.011021413723938167
399,0.25,0.001,0.01308425094651752,0.010267871837268065,15.7829878260401,0.011265515935788794,0.013577974867075682
400,0.25,0.001,0.013184106211220868,0.010464457935306816,15.240908674615197,0.010878592915499783,0.013441936462186277
401,0.25,0.001,0.01317303262214531,0.010333846408920558,15.91079946142859,0.01135674479759357,0.013376174145378172
402,0.25,0.001,0.013122895132422947,0.010389262116728467,15.319279439279724,0.010934532076573678,0.011469776567537338
403,0.25,0.001,0.013150266508053536,0.010373795892123647,15.55934108750092,0.011105882289436774,0.0145620679249987
404,0.25,0.001,0.01322597935873719,0.010430070618362357,15.66827383799533,0.011183635858669043,0.012964126188308
405,0.25,0.001,0.013103326143517655,0.010330893099308014,15.536715100499876,0.011089732405781497,0.011587101849727333
406,0.25,0.001,0.013163843433758454,0.010327374558724369,15.895571002401567,0.011345875090936165,0.01126019807998091
407,0.25,0.001,0.013153832012234122,0.01034645927547785,15.732516651871812,0.011229490829316069,0.012925907038152218
408,0.25,0.001,0.013113120555191858,0.010390524471872272,15.257428225114255,0.010890384172101539,0.01017833047080785
409,0.25,0.001,0.013085303894364934,0.010299991449988038,15.608891203812476,0.01114124996703246,0.013102433644235134
410,0.25,0.001,0.01324938932457105,0.010441699817340245,15.734292592962417,0.011230758453220854,0.014959046966396272
411,0.25,0.001,0.013204612625006851,0.010330396447190431,16.107107034786974,0.011496864407413971,0.014270827057771385
412,0.25,0.001,0.01316936547910818,0.010379515077809659,15.63432149607766,0.011159401496129664,0.01353477721568197
413,0.25,0.001,0.013136088493510022,0.010282395220513623,15.992097643129995,0.011414773478322622,0.012268031598068774
414,0.25,0.001,0.013151065364604714,0.010377143848702997,15.545056610426643,0.011095686374323085,0.014818691357504576
415,0.25,0.001,0.013156082449971882,0.010327595289968048,15.850843437545969,0.011313949634222676,0.011743828770704567
416,0.25,0.001,0.013125964054627398,0.010305181527549253,15.807666491265078,0.011283130971638172,0.012528754654340446
417,0.25,0.001,0.013114889265353709,0.01030733077260802,15.733557760964876,0.011230233947869291,0.01329702662769705
418,0.25,0.001,0.013130448146812836,0.010339477742441528,15.640598668214167,0.011163881990160005,0.011909288470633328
419,0.25,0.001,0.013155106318701511,0.010379215351707266,15.55609255754798,0.011103563567129179,0.014804766862653196
420,0.25,0.001,0.013168538414004208,0.010360676803037712,15.73525650231908,0.011231446468464726,0.01137420255690813
421,0.25,0.001,0.01317647722974482,0.010369320107803184,15.73130832656158,0.011228628355861227,0.011820283019915223
422,0.25,0.001,0.01309589555713048,0.010277729048919727,15.793006242568524,0.011272666839806227,0.011347528372425586
423,0.25,0.001,0.013037221198394957,0.010293548139568153,15.37554324720694,0.01097469182527262,0.010284758755005896
424,0.25,0.001,0.013051401250937244,0.010311098091273127,15.35665923082679,0.010961212869969157,0.012970923911780119
425,0.25,0.001,0.013162139070582689,0.010351588598853873,15.750324253257848,0.011242201465565916,0.011647848063148558
426,0.25,0.001,0.013087052805154393,0.010264510090100466,15.817529558636654,0.011290170991175342,0.01092357118614018
427,0.25,0.001,0.013073979799000539,0.01032345859668993,15.413920685835961,0.01100208471508634,0.00987304246518761
428,0.25,0.001,0.013071495509671367,0.010289747303032226,15.588917923771687,0.0111269935216072,0.010404512635432184
429,0.25,0.001,0.013147448236317565,0.010327766294821038,15.801497231966282,0.011278727503187924,0.012047814729157835
430,0.25,0.001,0.01304880482881139,0.010221392637173251,15.844818693823395,0.011309649317504208,0.010282413684763014
431,0.25,0.001,0.013048596485326979,0.01033139033983442,15.227223360388848,0.010868824668371769,0.01099420920945704
432,0.25,0.001,0.013093355832676009,0.010303327221438974,15.63531994520371,0.011160114165027631,0.012180136982351542
433,0.25,0.001,0.013155417360957697,0.010351561376178115,15.712809566673375,0.011215424387347163,0.012531416723504663
434,0.25,0.001,0.013133051345382027,0.010358073885034317,15.550974482771743,0.011099910408830651,0.014826286234892905
435,0.25,0.001,0.013056062208683421,0.010210708442249307,15.945362079093647,0.01138141476023815,0.01020158437313512
436,0.25,0.001,0.01300138628273953,0.010320365658832644,15.024439699979007,0.010724082583853682,0.011081139091402292
437,0.25,0.001,0.013146984476642878,0.010287486913002186,16.024624118246294,0.01143799009153911,0.012052339850924909
438,0.25,0.001,0.013058407582872583,0.010222136140430821,15.894465562189971,0.011345086054382563,0.011717717279680073
439,0.25,0.001,0.013128167220925187,0.010322585425273395,15.722480526529097,0.01122232728517423,0.011333380127325654
440,0.25,0.001,0.013026061841914096,0.010225920669079824,15.69199096807376,0.011200564573928451,0.011353509617038071
441,0.25,0.001,0.01309846235228757,0.010302584540395059,15.668099606885072,0.011183511496705975,0.011485968134365976
442,0.25,0.001,0.013047131604542293,0.010294181742865172,15.427530101153641,0.011011798787404454,0.011666694306768477
443,0.25,0.001,0.013089141660373829,0.010239346911468267,15.97024998605002,0.011399179147787309,0.013304318650625646
444,0.25,0.001,0.01310539252229939,0.010318885650875428,15.615584505153002,0.011146027484049251,0.011775981402024627
445,0.25,0.001,0.013089122679318345,0.010307556933968886,15.587895888164951,0.01112626401724836,0.00984593026805669
446,0.25,0.001,0.013064901379548854,0.010298247893329195,15.504327015896722,0.011066614572374534,0.010055390186607838
447,0.25,0.001,0.01304728967998816,0.010262466316349087,15.606150990250718,0.011139294068701441,0.010073936951812357
448,0.25,0.001,0.013022365021250487,0.010240445864312818,15.589876099111645,0.011127677444048283,0.0109571028733626
449,0.25,0.001,0.013004662488513162,0.010247253275098412,15.45252139199229,0.011029636967874583,0.009786821727175266
450,0.25,0.001,0.013087756082290885,0.010232707766122399,15.999690909764757,0.011420193368854217,0.010787331208121032
451,0.25,0.001,0.013056154499243492,0.01021918103441783,15.898399472735417,0.011347893984821854,0.009873584611341357
452,0.25,0.001,0.013049699779147883,0.010252119186158959,15.677642371365216,0.01119032289176675,0.012296162312850356
453,0.25,0.001,0.01303765357756465,0.010210020167589437,15.846057859923551,0.011310533804370844,0.011789660900831223
454,0.25,0.001,0.013065719969227722,0.01026169058309564,15.713781815692471,0.011216118355240879,0.01024090574355796
455,0.25,0.001,0.01301820689975966,0.010236908097178617,15.58639943749336,0.011125195886861785,0.013124420074746013
456,0.25,0.001,0.013088469568904972,0.010252879944213015,15.890644193194401,0.011342358453386438,0.010624692949932069
457,0.25,0.001,0.013056194581184927,0.010250257807452558,15.724470138549805,0.01122374742223398,0.009512730757705867
458,0.25,0.001,0.013078468185401362,0.010322528739292253,15.444283617091479,0.011023757042891848,0.011329736793413758
459,0.25,0.001,0.013039500027832626,0.010235077802824425,15.715982101951184,0.011217688866489068,0.012597182183526456
460,0.25,0.001,0.013019439776011091,0.010250215216005946,15.518734724451807,0.011076898447146186,0.011531980067957193
461,0.25,0.001,0.013090908613102706,0.010308506072471581,15.592584494267548,0.011129610631168843,0.012059399741701782
462,0.25,0.001,0.013114065543658814,0.010298208625807923,15.780061833529293,0.011263427432925978,0.012671396834775805
463,0.25,0.001,0.013041564442653785,0.01024023086908098,15.698673834860575,0.011205334643012545,0.01222187525127083
464,0.25,0.001,0.013023147285452199,0.01020415341208794,15.797642544223674,0.011275976120074,0.009436996770091355
465,0.25,0.001,0.013079223904961322,0.010195012668061955,16.16312018597974,0.011536845243383111,0.009313336166087538
466,0.25,0.001,0.01307672422737756,0.010242542345466473,15.882755311463168,0.011336727559930884,0.010911243327427655
467,0.25,0.001,0.012993617349588722,0.010243874386139993,15.409560462919737,0.010998972493161839,0.010724207968451083
468,0.25,0.001,0.013062938954291484,0.010306214072028464,15.448687317979884,0.011026900298343956,0.011030343535821885
469,0.25,0.001,0.013068332071864206,0.010170642785322715,16.238650082544304,0.01159075666134497,0.011556858837138861
470,0.25,0.001,0.013018620960320887,0.010258068634532236,15.470135632917971,0.01104220958809277,0.011001209961250424
471,0.25,0.001,0.013042591056283798,0.010228739498050641,15.768823815190144,0.011255406006559703,0.009699850925244391
472,0.25,0.001,0.013007754397629195,0.010233547908709888,15.546652949504772,0.011096825802644377,0.010630401142407209
473,0.25,0.001,0.013008419276219032,0.010253965426002586,15.435959357098056,0.011017815386936514,0.009152581682428718
474,0.25,0.001,0.012983574352722039,0.010176461186088528,15.731062525984633,0.011228452909339496,0.009804512839764357
475,0.25,0.001,0.01302619392605631,0.010243052562160971,15.596723915642775,0.011132565250280353,0.010887671378441155
476,0.25,0.001,0.013031825758360918,0.010256746312346169,15.551545390524126,0.011100317909010796,0.01149305806029588
477,0.25,0.001,0.013056826512777406,0.01021275030659457,15.938202526778856,0.011376304444524522,0.01178908278234303
478,0.25,0.001,0.013062577729725189,0.01028150784155689,15.585115955464511,0.011124279768354398,0.01104393054265529
479,0.25,0.001,0.0130471449703851,0.010181851178470017,16.057107753833467,0.011461176126933238,0.010571553488261998
480,0.25,0.001,0.013045329105685694,0.010244461088188024,15.696065084704793,0.011203472580089075,0.011415158631280065
481,0.25,0.001,0.01305101104236547,0.010273331897060492,15.566114130379265,0.011110716724039448,0.013807774404995143
482,0.25,0.001,0.01298504412002768,0.010242708865163467,15.36804730722595,0.010969341404158423,0.013168383855372667
483,0.25,0.001,0.013014434447130149,0.010159439415082523,15.999392976321934,0.01141998071115056,0.011348545434884727
484,0.25,0.001,0.013026492549379251,0.010203386376374187,15.820687525441956,0.011292425071693046,0.010418856400065124
485,0.25,0.001,0.012973554241451508,0.01016325959896817,15.748890330103151,0.011241177965812385,0.010261253511998802
486,0.25,0.001,0.013043341885426054,0.01024233004678368,15.696869518966356,0.0112040467658575,0.011077848263084888
487,0.25,0.001,0.013000568016490677,0.010190950036360629,15.745098776398343,0.011238471646251495,0.010632009012624621
488,0.25,0.001,0.012969652299913403,0.010219264869036534,15.413170343662406,0.011001549138945329,0.011568496469408274
489,0.25,0.001,0.012983120112800698,0.010222104249451948,15.47273184165795,0.01104406269925621,0.009938383591361344
490,0.25,0.001,0.012970272560748097,0.010184188774751819,15.61321383041318,0.011144335353613975,0.0093986582942307
491,0.25,0.001,0.013086857500186027,0.010293770604864324,15.652459252329551,0.011172347788957567,0.013059541583061218
492,0.25,0.001,0.013108710267397898,0.010206555854139468,16.263673455146566,0.011608617741003973,0.013779840781353414
493,0.25,0.001,0.013033442113501756,0.010264481850373696,15.517253676218967,0.0110758413106488,0.012420444982126355
494,0.25,0.001,0.012995442609345563,0.010197942215310231,15.67719287154066,0.011190002049636445,0.009819315688218921
495,0.25,0.001,0.013010288121093018,0.010167187247347383,15.932737956984772,0.011372403966441664,0.010743994847871363
496,0.25,0.001,0.012943133559841741,0.010192250275680461,15.415949957141317,0.011003533159986664,0.01456967368721962
497,0.25,0.001,0.012955643221050127,0.010199182943507218,15.44720293787234,0.01102584078363479,0.010767034138552845
498,0.25,0.001,0.012938904953988027,0.010139722821291022,15.686616586342017,0.01119672846990865,0.010993202682584524
499,0.25,0.001,0.0130282625727449,0.010261815563467756,15.503168505106013,0.011065787655321922,0.011206665774807334
500,0.25,0.001,0.012959514023681565,0.010150778193073542,15.740155738766722,0.011234943425243914,0.01167329540476203
