epoch,beta,learning_rate,train_loss,train_reconstruction_loss,train_kl_unnormalized,train_kl_normalized,mean_unclipped_gradient_norm
1,0.0,0.001,0.06977797674485686,0.06977797674485686,159.06915853416746,0.11353972771889183,0.11882059276103973
2,0.02,0.001,0.057706205738175635,0.05037923434084293,513.2544160337189,0.3663486195815267,0.12473702151328325
3,0.04,0.001,0.05070790391034274,0.047289693366448414,119.72280434626379,0.0854552493549349,0.10154300555586815
4,0.06,0.001,0.04373804848477835,0.039421366920426394,100.79452636495762,0.07194470118840658,0.08730833930894732
5,0.08,0.001,0.03723716538298354,0.03422357305293292,52.7755464621526,0.03766991182166495,0.13713089749217033
6,0.1,0.001,0.035631341956913594,0.03257832326197176,42.77279055043899,0.03053018597461741,0.09209330100566149
7,0.12,0.001,0.03477798293428282,0.03244530073598432,27.234065587435982,0.019439018977470364,0.08168579824268818
8,0.14,0.001,0.03415083462111885,0.032085508022589575,20.668018456540675,0.014752332945425179,0.0809828492347151
9,0.16,0.001,0.0334449233040058,0.031409248853557295,17.824877621485445,0.012722967609911096,0.03676332219038159
10,0.18,0.001,0.03313469223771439,0.031123100466917353,15.65689347133756,0.01117551282750718,0.07695349492132664
11,0.2,0.001,0.032560928691652974,0.030577953500451525,13.890737201077455,0.009914873091418598,0.0887497344519943
12,0.22,0.001,0.03157971310963959,0.02939439035314359,13.916535976784214,0.009933287635106505,0.07012968696653843
13,0.24,0.001,0.030437335286421667,0.028059670763840756,13.879618033486766,0.009906936497849227,0.05100924998987466
14,0.25,0.001,0.02910862540309016,0.026633011643815638,13.873339951660538,0.00990245535450431,0.06757434690371156
15,0.25,0.001,0.02821113939916167,0.025402853934245965,15.737632134264347,0.011233142137233653,0.06536876666359603
16,0.25,0.001,0.02707367435113249,0.02430347912402392,15.5241743318721,0.011080781107688864,0.0522337278816849
17,0.25,0.001,0.026366424585433992,0.023276146551854674,17.317916903963667,0.012361111280487985,0.046547723235562444
18,0.25,0.001,0.02617879283453079,0.02321771399306604,16.593885704470576,0.011844315277994701,0.12275046168360859
19,0.25,0.001,0.025300949500846465,0.02219626729013029,17.39863946791233,0.01241872909915227,0.03715507441665977
20,0.25,0.001,0.024747167245362398,0.02163559739285446,17.437238784821893,0.012446280360329688,0.09944421984255314
21,0.25,0.001,0.024197225526970713,0.020857314588910353,18.716860363030484,0.013359643371185214,0.07923584431409836
22,0.25,0.001,0.023633139639595107,0.020410652772089883,18.058814922802632,0.012889946411707803,0.051525595248676836
23,0.25,0.001,0.02332742363292265,0.019881874785636064,19.308856673429805,0.013782196055267527,0.05253136984538287
24,0.25,0.001,0.02332095239148135,0.02001621279017786,18.519762086967834,0.013218959376850702,0.0973923368146643
25,0.25,0.001,0.023210268113801027,0.01972837004196171,19.5125593173479,0.013927594088042755,0.13795808074064553
26,0.0,0.001,0.018916248404158433,0.018916248404158433,25.854173305885777,0.018454085157662937,0.10942083271220326
27,0.02,0.001,0.01797663757581427,0.01725234928500055,50.736389606133386,0.03621441085377115,0.08171830978244543
28,0.04,0.001,0.018262483125128678,0.016262951690027012,70.03358921377544,0.049988286376713376,0.06913323793560266
29,0.06,0.001,0.01840903193131867,0.01567591126572675,63.81837464175294,0.045552016161137,0.05232925445307046
30,0.08,0.001,0.01819393040694001,0.015733909526828186,43.081120289939925,0.03075026430402564,0.03956439532339573
31,0.1,0.001,0.018403190135613614,0.01624660845651507,30.213707312661573,0.021565815355218825,0.07592259161174297
32,0.12,0.001,0.018600445544047745,0.016122467753658214,28.930387632334156,0.020649812728289904,0.07352298242039979
33,0.14,0.001,0.018814992451250928,0.015945736101064402,28.713059371597833,0.02049468905895634,0.061885928735136986
34,0.16,0.001,0.01880100176967136,0.015720187276135156,26.9763830738426,0.01925509141601899,0.03002678375924006
35,0.18,0.001,0.019146093643719567,0.015975106099235487,24.680852101590787,0.01761659678914403,0.040979068144224584
36,0.2,0.001,0.01925219417722713,0.015876984503703475,23.6433426572286,0.01687604757832163,0.06396081228740513
37,0.22,0.001,0.01929831126848691,0.015903053513586146,21.62161994727021,0.015432990683276382,0.04016636637970805
38,0.24,0.001,0.01962615595061122,0.016026278407485973,21.014285308583048,0.014999489870508956,0.062433459679596126
39,0.25,0.001,0.019504168177789587,0.016056613724422106,19.320096133397367,0.013790218510633381,0.04263884969986975
40,0.25,0.001,0.01960362900351806,0.016025102856745924,20.054059623925323,0.014314103942844627,0.05862767016515136
41,0.25,0.001,0.019165370267250095,0.015823606218917135,18.727245693166967,0.01336705616928406,0.03569419088307768
42,0.25,0.001,0.019133097323003792,0.015701560116915463,19.230335410801004,0.01372614947237759,0.035553470137529075
43,0.25,0.001,0.01909183391169616,0.01571822174803387,18.905721648500958,0.01349444800035757,0.02648252062499523
44,0.25,0.001,0.018946887524740184,0.015482640442183719,19.41364088038562,0.013856988494208152,0.023237730842083693
45,0.25,0.001,0.01883163350966753,0.01553393674660513,18.480290809105732,0.013190785730981964,0.07261738227680326
46,0.25,0.001,0.018649246594197814,0.015362289848898796,18.42010482517314,0.013147826427675332,0.0598823803011328
47,0.25,0.001,0.01874187747347081,0.015402699857639122,18.712753216259664,0.013356711788907683,0.08966913959011436
48,0.25,0.001,0.018785991692343934,0.015526204772433558,18.267845595803788,0.013039147463100491,0.08342529344372451
49,0.25,0.001,0.01851381836284053,0.015177121452038372,18.698850822846925,0.013346788595893593,0.04887735121883452
50,0.25,0.001,0.018272014595334864,0.014993270207779765,18.374085006236033,0.013114978591174898,0.037971872836351395
51,0.0,0.001,0.014455892598656995,0.014455892598656995,21.90216967158626,0.01563324030805586,0.04818382114171982
52,0.02,0.001,0.013895496714370235,0.013327719857585704,39.77277094735482,0.028388844359282527,0.044092471711337566
53,0.04,0.001,0.014412060953552266,0.012848123258644704,54.776919108094155,0.03909844333197299,0.04232876654714346
54,0.06,0.001,0.014910232668474223,0.01267130278237553,52.2790221371581,0.03731550473744333,0.03250639303587377
55,0.08,0.001,0.015140025627591291,0.012964703828982993,38.09532625043069,0.027191524804019047,0.03084697888698429
56,0.1,0.001,0.015333859432714219,0.013324619560562743,28.149451990466027,0.02009239970768453,0.03390306979417801
57,0.12,0.001,0.01572128980651902,0.013505030942532489,25.874818539071928,0.01846882122703207,0.047488536685705185
58,0.14,0.001,0.015885680035098857,0.013303718829064752,25.838054437975792,0.018442579898626545,0.02443165599834174
59,0.16,0.001,0.016330811377840277,0.013582024960496729,24.06906147839381,0.017179915402136908,0.017291627591475844
60,0.18,0.001,0.016367520365109647,0.013436596889227692,22.812354038055357,0.016282907950075202,0.027300628717057407
61,0.2,0.001,0.01664088817317202,0.013679420629940103,20.74507953826968,0.014807337286416618,0.054404799826443195
62,0.22,0.001,0.016883629698905167,0.01383327599420428,19.425207341140396,0.01386524435484682,0.03886015142779797
63,0.24,0.001,0.017170817680688018,0.013829297500823883,19.50612364034314,0.013923000457061485,0.04263543745037168
64,0.25,0.001,0.0170989060669453,0.013864104793502294,18.1278268419875,0.012939205454666309,0.03850535198580474
65,0.25,0.001,0.017037214096907782,0.013951032115282619,17.29496390834482,0.012344727985970605,0.017151709063909948
66,0.25,0.001,0.017013482998333294,0.013819021717227202,17.901762701524323,0.012777846325142271,0.020183990709483624
67,0.25,0.001,0.016896717343673824,0.013882499460387578,16.891677844499497,0.01205687212312598,0.026264654588885605
68,0.25,0.001,0.016698981388345642,0.013634669318375234,17.172406548995813,0.012257249499640124,0.028343640151433647
69,0.25,0.001,0.016605986511657532,0.013546035488939111,17.14796597872995,0.012239804410228372,0.033001529169268906
70,0.25,0.001,0.01666819455883697,0.013676709769631975,16.764279873236735,0.011965938524794243,0.035472983377985656
71,0.25,0.001,0.016523387619451716,0.013472834986970918,17.09529570497899,0.012202209639528188,0.026937349932268262
72,0.25,0.001,0.016402146434858596,0.013469154370991446,16.43648761597954,0.011731968319756989,0.0251651854487136
73,0.25,0.001,0.016416024887207156,0.013529630685089028,16.175352650047095,0.011545576481118555,0.018434654222801328
74,0.25,0.001,0.016279644455317415,0.013318051823214598,16.596765727240257,0.011846370968765351,0.021257467742543668
75,0.25,0.001,0.016244402301103064,0.0133392568094372,16.280434487010343,0.011620581361177974,0.02257023996207863
76,0.0,0.001,0.01300574365482201,0.01300574365482201,19.917656036408808,0.014216742352897079,0.03092684189323336
77,0.02,0.001,0.01264654450888487,0.012123397197613264,36.646490172702734,0.026157380565812086,0.02580953831784427
78,0.04,0.001,0.013056370515244116,0.011677951060064402,48.27914634178974,0.03446048989421109,0.01531107013579458
79,0.06,0.001,0.013479948316026082,0.01163893658084511,42.98762211968854,0.030683527565801956,0.02417936024721712
80,0.08,0.001,0.013621588344520468,0.011881573973437441,30.472006564847113,0.02175018312979808,0.012763632519636303
81,0.1,0.001,0.013835719382168729,0.012168009804332306,23.364612029838163,0.016677096381040802,0.017578233557287604
82,0.12,0.001,0.014133827132804783,0.012248476395589574,22.011472530803005,0.01571125805196503,0.025892861536704004
83,0.14,0.001,0.014383547260797347,0.012224411387735343,21.606781396089367,0.01542239928343281,0.024916492635384202
84,0.16,0.001,0.014752403897134147,0.012400078161431006,20.597556331212434,0.014702038780308662,0.025855247979052365
85,0.18,0.001,0.014966086809190928,0.012434424356108293,19.70477322795446,0.014064791740153074,0.022472847835160792
86,0.2,0.001,0.015191294212042041,0.012527110523666743,18.662607192993164,0.013320918767304185,0.01814271172042936
87,0.22,0.001,0.015486843390137518,0.012702299530825934,17.732483300386242,0.012657018772581187,0.027654627105221152
88,0.24,0.001,0.015672832155806286,0.012687660020723596,17.425943231283995,0.01243821786672662,0.02723141136812046
89,0.25,0.001,0.01570831688163736,0.012723971311866242,16.724272785704418,0.011937382430909648,0.021024228539317846
90,0.25,0.001,0.01571837262034665,0.012796881622275132,16.372034972794122,0.011685963578011507,0.013075150083750486
91,0.25,0.001,0.015687808999111236,0.012768119888570711,16.361937337728033,0.011678756129713086,0.012698641861788929
92,0.25,0.001,0.015558324357599705,0.012667118575587277,16.202316256306116,0.011564822452752402,0.011615740368142724
93,0.25,0.001,0.015589754620181992,0.012701793764338738,16.184132868661262,0.011551843589337089,0.01639898424036801
94,0.25,0.001,0.015521937343515533,0.012643135512453779,16.132806118943247,0.011515207793678263,0.020341916591860354
95,0.25,0.001,0.015486773539000114,0.012655959571546454,15.863882317672443,0.011323256472285827,0.020024222088977695
96,0.25,0.001,0.015439524484452226,0.012575908707909767,16.04770370316157,0.011454463742442234,0.014093885023612529
97,0.25,0.001,0.015394709265493401,0.012668473749092949,15.277824686564085,0.010904942674207056,0.018182627973146737
98,0.25,0.001,0.015353025817983085,0.012539358360455654,15.76779371114265,0.011254670743142505,0.015559999854303896
99,0.25,0.001,0.015452800159165656,0.012594807768602213,16.01618945971909,0.011431969635773797,0.017864667577669024
100,0.25,0.001,0.015265648500188906,0.012557541337136435,15.176232543021502,0.010832428653120273,0.019011787488125265
101,0.25,0.001,0.01544205056375091,0.012715196579165897,15.281290506271331,0.010907416492699024,0.02154418866848573
102,0.25,0.001,0.015286710832680192,0.012411877575149615,16.110564180107357,0.01149933203433787,0.017717260983772576
103,0.25,0.001,0.015240303087116283,0.012574285076297275,14.94036482171873,0.010664071964110441,0.025841980590485036
104,0.25,0.001,0.015338649012786112,0.012575569918421962,15.484295958516991,0.011052316886878652,0.027285515214316547
105,0.25,0.001,0.015263553094391036,0.012478646903934583,15.606613509590293,0.01113962420384746,0.02479034406132996
106,0.25,0.001,0.015242760085222741,0.01258895696492745,14.871914588832656,0.010615213839280982,0.01935584773309529
107,0.25,0.001,0.015158557212505187,0.012435992800539246,15.257250033241224,0.010890256983041559,0.016088680480606854
108,0.25,0.001,0.015140168034395744,0.012359682762205974,15.581839442004242,0.011121941072094391,0.015399943862576038
109,0.25,0.001,0.015158950209244309,0.012447769874181901,15.193454212833794,0.010844721065548747,0.024578620214015245
110,0.25,0.001,0.015134811918552584,0.012385179485060228,15.408939936962406,0.010998529576704073,0.015367295069154352
111,0.25,0.001,0.015092502610606292,0.012343482810436186,15.405507525720775,0.010996079604368861,0.020134571474045515
112,0.25,0.001,0.014998113765674868,0.01232514433788295,14.979321141332575,0.010691878045205263,0.017211279715411365
113,0.25,0.001,0.015043613666159127,0.012345308445720682,15.121302479244225,0.010793220898818148,0.0145040174247697
114,0.25,0.001,0.015047389337314693,0.012281731068543576,15.498748564272185,0.01106263280818857,0.0208047159248963
115,0.25,0.001,0.015025993494126394,0.01232617543835294,15.129780819122379,0.01079927253327793,0.019686200888827443
116,0.25,0.001,0.014975570954989043,0.012218310596860774,15.451687621672118,0.011029041842735274,0.019972466165199876
117,0.25,0.001,0.014827049467595983,0.012222419043765686,14.596346275791495,0.010418519825689861,0.017974965507164598
118,0.25,0.001,0.014985908929157481,0.01225091382814474,15.326913290083533,0.010939980935106019,0.014520788681693375
119,0.25,0.001,0.014907781563559255,0.01220696999463943,15.135347545520249,0.010803245928279978,0.018646617652848363
120,0.25,0.001,0.014933990946502303,0.01226410760674509,14.962026283487148,0.010679533392924446,0.015987037448212504
121,0.25,0.001,0.014883689998429353,0.012149540205838038,15.32217688152337,0.01093660020094459,0.01255103258881718
122,0.25,0.001,0.014822192200399266,0.012153584191221783,14.95487914553266,0.010674431938281699,0.02156154636759311
123,0.25,0.001,0.014915120206571073,0.012242723610213255,14.97611162508206,0.010689587169937231,0.03480885876342654
124,0.25,0.001,0.014919209373737675,0.012176163737625196,15.37202880278012,0.010972183299628922,0.027195011265575886
125,0.25,0.001,0.014913949104403156,0.01227695432672421,14.777718735139405,0.01054797911144854,0.0265554211800918
126,0.25,0.001,0.014798362434128132,0.012091997884493904,15.166467208703027,0.010825458393078535,0.01824661309365183
127,0.25,0.001,0.014818542922743925,0.012125622918576563,15.091125141852585,0.010771681043435106,0.018311187101062387
128,0.25,0.001,0.014822236046443902,0.012108566229754673,15.207406002195992,0.010854679516199851,0.02654019871260971
129,0.25,0.001,0.014778169360019593,0.012096823698652438,15.026261427208377,0.010725382888799697,0.023389846552163363
130,0.25,0.001,0.014755918154403537,0.012043945874342217,15.19789188042563,0.010847888565614297,0.020188594004139304
131,0.25,0.001,0.01472829323114209,0.012032272095844492,15.108501480118466,0.01078408385447428,0.02602958638453856
132,0.25,0.001,0.014729832915398672,0.0120860890413407,14.815539911544896,0.010574974954707278,0.022904375102370977
133,0.25,0.001,0.014743477471623889,0.012088509019860893,14.878443833432765,0.010619874256554437,0.020708083058707416
134,0.25,0.001,0.014653586698909891,0.012002241185288837,14.858139888229848,0.010605381790313954,0.020197751000523567
135,0.25,0.001,0.014605538361552239,0.011921977344317079,15.038675350037895,0.010734243647421766,0.015436464978847653
136,0.25,0.001,0.014623066235434785,0.012009649082536116,14.64558934070372,0.010453668337404512,0.01599645329406485
137,0.25,0.001,0.01460314145805567,0.01191107490700757,15.086341264601291,0.01076826642726716,0.012453371833544225
138,0.25,0.001,0.01458171657276863,0.011920888155760994,14.911281916194271,0.010643313287790343,0.013113562949001789
139,0.25,0.001,0.014568419392086519,0.011911630576052596,14.888644093013756,0.010627154955755714,0.01750959362834692
140,0.25,0.001,0.014671161708602826,0.011932553361813559,15.347162286523488,0.010954434180245174,0.020702067180536687
141,0.25,0.001,0.014655517550313647,0.01200828422444225,14.8350950491951,0.010588932940182084,0.02745442552259192
142,0.25,0.001,0.014478183022869405,0.011828955144296733,14.846273943875179,0.010596912165506909,0.012718568090349436
143,0.25,0.001,0.014525080671327845,0.011852243199695625,14.978581394681353,0.010691350031892472,0.011383158038370311
144,0.25,0.001,0.014509725328029322,0.011813778585767945,15.108085602459678,0.010783787011034746,0.00986046763136983
145,0.25,0.001,0.014485685584487273,0.011795850336505003,15.073837793943529,0.010759341751565689,0.013350025750696659
146,0.25,0.001,0.014502297344156746,0.011879105809181617,14.700366273055744,0.010492766790189682,0.013688825769349933
147,0.25,0.001,0.014423688251470723,0.011788340623729661,14.768489660450212,0.010541391620592585,0.013601322192698717
148,0.25,0.001,0.014468751688310896,0.01178826327923693,15.021457727866283,0.010721954124101558,0.014993946999311447
149,0.25,0.001,0.014483562309007181,0.011849086263094541,14.763603439410694,0.010537903953897712,0.016095329774543643
150,0.25,0.001,0.014403072234422032,0.011723027377931832,15.018970714481489,0.010720178953948244,0.015110043052118272
151,0.25,0.001,0.014481590947987889,0.011863374227117397,14.672485940889427,0.01047286648171979,0.012742248130962253
152,0.25,0.001,0.014446415080998039,0.011741853585478409,15.156361826775218,0.010818245415257114,0.01258639374282211
153,0.25,0.001,0.014404914825999164,0.011749774060116805,14.879408880166071,0.010620563083630316,0.01346782932523638
154,0.25,0.001,0.014500445989592464,0.011799583262093133,15.13563462139918,0.010803450836116474,0.013274462660774589
155,0.25,0.001,0.014435796549306533,0.011804998630661681,14.742992592256105,0.010523192428448326,0.01977534592151642
156,0.25,0.001,0.014393022455010633,0.011713378372483561,15.016726025957652,0.010718576749434442,0.012808642582967877
157,0.25,0.001,0.014422771180659096,0.011761779747203396,14.91219638235136,0.010643966011671205,0.015671102330088615
158,0.25,0.001,0.014416293680496779,0.011741804826172509,14.987834960284463,0.010697955003771922,0.014646061812527478
159,0.25,0.001,0.01428308996657738,0.011652869767351913,14.739755501080156,0.01052088187086378,0.017681667406577617
160,0.25,0.001,0.01439455869395698,0.01178362263106043,14.631686318144668,0.010443744695320962,0.011193697631824762
161,0.25,0.001,0.014383141744671884,0.011721826259567867,14.914012277798264,0.010645262154031594,0.015069096931256354
162,0.25,0.001,0.014364460306261552,0.011716689994181496,14.83810639232086,0.010591082364254718,0.013899935642257333
163,0.25,0.001,0.014302723953550941,0.01162229992044868,15.02109572384701,0.010721695734366174,0.01721932296641171
164,0.25,0.001,0.014279274861007493,0.011642544269795085,14.776238965092222,0.010546922887289237,0.020561669021844864
165,0.25,0.001,0.01429409021220028,0.011678879158979668,14.65564278023228,0.01046084423999449,0.013855039665941149
166,0.25,0.001,0.01429251335475726,0.011603263984502357,15.070552061395507,0.01075699647494326,0.01657918654382229
167,0.25,0.001,0.014304650679137363,0.01167199846808186,14.75338546020253,0.010530610606854054,0.016919247689656913
168,0.25,0.001,0.014221225484101284,0.011626755293762012,14.539411367603533,0.010377881061815513,0.01838459010468796
169,0.25,0.001,0.014267628759705697,0.011625458358053996,14.806722678819629,0.010568681426709229,0.023119451943784952
170,0.25,0.001,0.014341169171081953,0.011719370956896243,14.69255767535566,0.010487193201538658,0.020769676542840898
171,0.25,0.001,0.0142313433706076,0.011552746551566307,15.010856819551027,0.010714387451499663,0.020337556372396648
172,0.25,0.001,0.014243792948587205,0.011575276267351213,14.954367573923259,0.010674066790808893,0.01611080882139504
173,0.25,0.001,0.014296685271587277,0.011624916689956487,14.97259123290506,0.010687074398932949,0.021748287486843765
174,0.25,0.001,0.01427604776023574,0.011617647038698818,14.897678208002716,0.010633603289081167,0.023704554769210517
175,0.25,0.001,0.014264776645566576,0.011610629180901234,14.873842900381705,0.010616590221542974,0.022507708403281868
176,0.25,0.001,0.0141852832922327,0.011534969300996038,14.852359994717082,0.010601256241768081,0.01543581928126514
177,0.25,0.001,0.014206066997896779,0.011539499211224236,14.94344619719121,0.01066627137558259,0.011963540804572403
178,0.25,0.001,0.014214923970852366,0.011528671553867843,15.05375883424954,0.010745009874553563,0.013174473657272756
179,0.25,0.001,0.014210832779663216,0.01161774763514702,14.531649101751084,0.010372340543719546,0.023576843726914376
180,0.25,0.001,0.014228353766813905,0.011532667343794429,15.1066267196719,0.010782745695697288,0.01839873008430004
181,0.25,0.001,0.014209989252226088,0.011514411165937004,15.10601928288852,0.010782312121976103,0.018506252905353904
182,0.25,0.001,0.014153995887533856,0.011548179281498296,14.602996244808827,0.010423266413139776,0.023596066690515727
183,0.25,0.001,0.014142671835245195,0.011489478072116545,14.868497760908092,0.010612774989941535,0.014146904461085796
184,0.25,0.001,0.01413901593722792,0.011481524721207972,14.892581756528086,0.010629965564973651,0.009876076015643775
185,0.25,0.001,0.014189971045110694,0.011490879016529792,15.125711389274835,0.010796367872430289,0.013910003821365535
186,0.25,0.001,0.014098043625470492,0.011437033145593203,14.912302644367259,0.010644041858934517,0.01616835070308298
187,0.25,0.001,0.01415924292003312,0.011565741171014334,14.53398323258179,0.01037400658999414,0.013819277402944863
188,0.25,0.001,0.014132462721901298,0.01147194612296862,14.909534973988702,0.01064206636259008,0.015688491868786514
189,0.25,0.001,0.014071494949464384,0.011454472831588448,14.665792614532663,0.010468088946847011,0.013655763992574066
190,0.25,0.001,0.014088603296552421,0.011468972439152464,14.68041195600665,0.0104785238800904,0.014514213951770216
191,0.25,0.001,0.014072225644935646,0.011418072522339841,14.87387421036563,0.010616612569854125,0.011903451289981604
192,0.25,0.001,0.014049645898268716,0.011420313859968941,14.734777028476023,0.01051732835722771,0.012088002520613372
193,0.25,0.001,0.014024563052055732,0.011367649442685422,14.889343146242528,0.010627653923085316,0.013762609101831913
194,0.25,0.001,0.014029453979077941,0.011451679124401606,14.445850734670874,0.010311099739236884,0.016809069318696856
195,0.25,0.001,0.014075006327216585,0.011392163604669008,15.034650215276347,0.010731370603337865,0.014101601904258132
196,0.25,0.001,0.01405232064698148,0.011411068572163084,14.801575804055359,0.010565007711674061,0.012261973461136222
197,0.25,0.001,0.014168981641593208,0.011484532239837164,15.043655548812453,0.01073779839315664,0.02010209922445938
198,0.25,0.001,0.014099227713658192,0.011377967371058987,15.24994210062047,0.010885040757045304,0.011669404106214643
199,0.25,0.001,0.013971977791358135,0.011364681980648468,14.611285016531735,0.010429182738423793,0.01229543803492561
200,0.25,0.001,0.01407405715980149,0.011424927958646995,14.84572006018525,0.010596516816691827,0.01964263163972646
201,0.25,0.001,0.014029800701334232,0.011347668301819635,15.030669656327472,0.010728529376393627,0.017635980038903654
202,0.25,0.001,0.014174481323047198,0.011557937971081017,14.66310920396777,0.010466173593124746,0.030046145082451403
203,0.25,0.001,0.014239476204291763,0.011529634397531352,15.185954482172129,0.010839367938738137,0.02907648542895913
204,0.25,0.001,0.01408417039163924,0.011438026757899181,14.828989235991475,0.010584574758023893,0.020626984420232475
205,0.25,0.001,0.014085875151363942,0.011470482682727573,14.656659765382898,0.010461570139459598,0.01687974075321108
206,0.25,0.001,0.014000732276689782,0.011360677268301644,14.794868343807213,0.010560220088370601,0.01794349355623126
207,0.25,0.001,0.014042725047730454,0.011358743947629266,15.04102985644888,0.01073592423729399,0.015628574299626052
208,0.25,0.001,0.014053980588508548,0.011431599014471742,14.695826066560686,0.010489526100328826,0.015615478157997131
209,0.25,0.001,0.013992626801335364,0.011331409635897221,14.913460504535843,0.010644868311588753,0.010497295821551234
210,0.25,0.001,0.013969540195481264,0.011386234274363468,14.476845723353248,0.010333223214384903,0.01227899658260867
211,0.25,0.001,0.013991210211091723,0.011331462559906575,14.905225240114088,0.010638990178525402,0.014023112831637263
212,0.25,0.001,0.01394992345061332,0.011267523854846497,15.032167144010858,0.010729598246974203,0.014620951027609408
213,0.25,0.001,0.01399455439019365,0.01134176546851628,14.866229985103727,0.010611156306283887,0.014339772518724203
214,0.25,0.001,0.013964128229448218,0.011352141451922737,14.637574108259166,0.010447947257858078,0.012011644197627902
215,0.25,0.001,0.013888879220287212,0.011185516867716652,15.149642526232375,0.010813449340636955,0.012179768877103925
216,0.25,0.001,0.013956342753808408,0.011302998586944722,14.869340134065187,0.010613376255578292,0.015452065505087376
217,0.25,0.001,0.013963006269614482,0.011341020927641984,14.693606613573301,0.01048794190833212,0.010308396304026246
218,0.25,0.001,0.013992871278371965,0.011320253546371091,14.977350019960662,0.010690471106324527,0.014506372972391546
219,0.25,0.001,0.014046466679920856,0.011400463049823032,14.828204109175967,0.010584014353444658,0.019864455447532237
220,0.25,0.001,0.01394807063198662,0.011277142029434506,14.967885280202973,0.010683715403428246,0.017829014686867595
221,0.25,0.001,0.013967774417601324,0.011340197269067884,14.724942089869234,0.01051030841532422,0.00988962035626173
222,0.25,0.001,0.014025711347514253,0.011361095560461843,14.93250780364417,0.01065846381416429,0.019254265003837645
223,0.25,0.001,0.013933209712094082,0.01119288493196688,15.356779100501711,0.010961298430051185,0.018035026732832193
224,0.25,0.001,0.013909661444390119,0.01128903665970661,14.685982960997643,0.010482500329048995,0.014608990866690874
225,0.25,0.001,0.013959591286665214,0.011295516440539867,14.929475636970027,0.0106562995267452,0.01672874577343464
226,0.25,0.001,0.013988440448033287,0.01138444369686048,14.592797960269426,0.010415987123675537,0.018964195740409195
227,0.25,0.001,0.014041354521984597,0.011408467069346,14.754702134022882,0.010531550416861444,0.014386204304173589
228,0.25,0.001,0.014005668653809079,0.011261923604164592,15.3759471280092,0.010974980105645396,0.020846803206950426
229,0.25,0.001,0.013918264187670202,0.011246045427260792,14.975113659661597,0.010688874846296643,0.016967035131528974
230,0.25,0.001,0.013870574417281002,0.011226358032145679,14.818187952539368,0.010576865062483488,0.011937757022678852
231,0.25,0.001,0.013868214193117146,0.011217852749148216,14.852626153472071,0.010601446219466147,0.011441375128924847
232,0.25,0.001,0.013913066453049601,0.011306408053897866,14.60771367345822,0.0104266335998988,0.010941622662357986
233,0.25,0.001,0.013934427942295165,0.011242698045886882,15.08445440702498,0.010766919633850807,0.01186065492220223
234,0.25,0.001,0.013873439910189717,0.011236046423400618,14.779953731624468,0.010549574398018893,0.01542375679127872
235,0.25,0.001,0.013816878683709526,0.01114931551152393,14.949025062529179,0.010670253435067223,0.012625806732103229
236,0.25,0.001,0.013827335449141725,0.011210761287702648,14.663282129610257,0.010466297023276415,0.00906771729933098
237,0.25,0.001,0.013797610239874346,0.011156611902822034,14.800154546606267,0.010563993252395622,0.014131112373434007
238,0.25,0.001,0.013861565541530452,0.011177683321055266,15.040476179819764,0.010735529036273922,0.014382842229679227
239,0.25,0.001,0.01392424700000092,0.011332507254964127,14.524109386452055,0.01036695887683944,0.017930176225490868
240,0.25,0.001,0.01391032984818571,0.01118473444203992,15.274237300259584,0.010902382084410838,0.01862335088662803
241,0.25,0.001,0.0138533347070466,0.011283857263780213,14.399352280730245,0.010277910264618304,0.01379846059717238
242,0.25,0.001,0.013847512733541227,0.011120075043018651,15.284561244829213,0.010909751066973028,0.02112022426445037
243,0.25,0.001,0.01381545523978723,0.011197682123996768,14.670001262911676,0.01047109297852368,0.02402561972849071
244,0.25,0.001,0.013804395976699966,0.011151838229117538,14.86493403130135,0.010610231285725446,0.01812484866240993
245,0.25,0.001,0.013816556953562575,0.011222571887013684,14.5366930434002,0.010375940787580442,0.018040301161818206
246,0.25,0.001,0.013848164704062495,0.011207876542275907,14.796175691927152,0.010561153241918024,0.017972956993617117
247,0.25,0.001,0.013826935705660778,0.011142207696520585,15.045216261718368,0.010738912392375708,0.016293710563331842
248,0.25,0.001,0.01379302128107289,0.01116023475735882,14.754134980522267,0.010531145596375637,0.013696222216822207
249,0.25,0.001,0.01389005711002738,0.011249070965718004,14.80008793872682,0.01056394570929823,0.020580951939336956
250,0.25,0.001,0.013873021250555685,0.011164359530601223,15.179340523817345,0.010834647054830367,0.01856349757872522
251,0.25,0.001,0.013804763893835977,0.011239028617444143,14.378380118431776,0.010262940841136171,0.01649434387218207
252,0.25,0.001,0.013781778304400175,0.011109514193053286,14.975369033335644,0.010689057125864128,0.015196330612525344
253,0.25,0.001,0.013815049710051625,0.011194994902561005,14.682786828043067,0.010480219006454723,0.01349652570206672
254,0.25,0.001,0.01383880640930323,0.011177445826021514,14.914264812350025,0.010645442407102088,0.011996966553851962
255,0.25,0.001,0.013833520961205993,0.01119741213766543,14.772754024115386,0.010544435420496349,0.014497816853690892
256,0.25,0.001,0.013750677047557896,0.011101017175300635,14.848693688378702,0.010598639320755675,0.016487604123540223
257,0.25,0.001,0.013811739097448506,0.011148145469002783,14.926778924738938,0.010654374678614516,0.017315286735538393
258,0.25,0.001,0.013836147862492374,0.011245308445848229,14.5190650187355,0.010363358328861884,0.025583761278539896
259,0.25,0.001,0.013911065729121076,0.011255924657982676,14.879409101163668,0.010620563241373069,0.02929414843674749
260,0.25,0.001,0.01383428823296175,0.011198330670595169,14.77190684874023,0.010543830727152198,0.026682827388867736
261,0.25,0.001,0.013778573108179834,0.011197127757636764,14.466419888936404,0.010325781505307925,0.01889630639925599
262,0.25,0.001,0.013714256540858547,0.011073105536899015,14.801009950657727,0.010564603819170397,0.01501276413910091
263,0.25,0.001,0.01378440620505984,0.011149754156679351,14.764590571966949,0.010538608545301177,0.013786906318273395
264,0.25,0.001,0.013719291980368609,0.01099780253047174,15.251227838759133,0.010885958485909446,0.010312506754416972
265,0.25,0.001,0.013766375648359416,0.011153574150234524,14.642139160060683,0.010451205681699275,0.011577404104173183
266,0.25,0.001,0.013735441491007805,0.011107061272156512,14.729443181780534,0.010513521186138854,0.012572283623740077
267,0.25,0.001,0.01374824677199312,0.011126644429138284,14.691460601472158,0.010486410136668208,0.011548070702701807
268,0.25,0.001,0.013800894843496087,0.011156853156199286,14.817209363232575,0.010576166569045378,0.014494832721538842
269,0.25,0.001,0.01370707162440072,0.011047923468862172,14.901866277722576,0.010636592632207406,0.010211386019364
270,0.25,0.001,0.013761845681746345,0.011105862086432711,14.88413231158804,0.010623934555023582,0.014930175966583192
271,0.25,0.001,0.01372365171715835,0.011048233105425794,14.993045659553035,0.010701674275198454,0.019358074758201838
272,0.25,0.001,0.013696907636454807,0.011111822815335867,14.486815954299958,0.010340339724696616,0.024696113425306976
273,0.25,0.001,0.01376582001820051,0.011152928010686953,14.642646180314161,0.010451567580524027,0.016628705663606524
274,0.25,0.001,0.013768794602230346,0.011065795873768146,15.147604484398828,0.010811994635545202,0.012157463643234223
275,0.25,0.001,0.013710119446549013,0.011074430840031587,14.770398562039114,0.0105427541484933,0.011121158953756094
276,0.25,0.001,0.013785279668976469,0.011149965380250412,14.768300655739292,0.010541256713589787,0.02444039867259562
277,0.25,0.001,0.01380274745213774,0.011137408735172235,14.936558600009608,0.010661355174881947,0.024883418227545917
278,0.25,0.001,0.013712135872692804,0.011102091701845162,14.626689140383535,0.0104401778303951,0.021817527362145483
279,0.25,0.001,0.013894326557135035,0.01121954868366798,14.989454440632544,0.010699110949773407,0.023922594264149666
280,0.25,0.001,0.01367121513365206,0.011021066301488677,14.851435416426689,0.010600596300090427,0.019596844911575317
281,0.25,0.001,0.013780554334607776,0.011171398906033322,14.621708549388018,0.010436622804702369,0.01655923994258046
282,0.25,0.001,0.013728835544158123,0.011030630128835338,15.120743108442781,0.010792821633435246,0.014664919930510223
283,0.25,0.001,0.01378975394288844,0.011118491674094831,14.969754796436286,0.010685049819012337,0.012473273789510131
284,0.25,0.001,0.013678718570207629,0.011051010818751471,14.725673161867018,0.010510830236878672,0.010870366939343512
285,0.25,0.001,0.013760947136282299,0.011105102319698119,14.88335539951205,0.010623380013927231,0.014416165417060256
286,0.25,0.001,0.013687822489468439,0.011006874240359335,15.024032640556701,0.010723792034658602,0.01556054298998788
287,0.25,0.001,0.013734884072087379,0.011173601946667116,14.353424378874903,0.010245128036313278,0.014029778889380395
288,0.25,0.001,0.013668104387928648,0.010934293483984744,15.320276256394038,0.01093524358058104,0.0115550592308864
289,0.25,0.001,0.013692066662542381,0.011044475539647712,14.837101191717798,0.010590364876315345,0.012190669542178512
290,0.25,0.001,0.013683719181364289,0.01106022701973955,14.702050340449388,0.010493968836866086,0.013040196150541306
291,0.25,0.001,0.013709511806204572,0.01103323827534603,14.997837150271103,0.010705094325675305,0.015358258329797536
292,0.25,0.001,0.013731502268720022,0.011110294320560323,14.68924919200093,0.01048483168593928,0.02085598127450794
293,0.25,0.001,0.013715243645572339,0.010986440492276732,15.292213242835441,0.010915212878540644,0.011871541617438197
294,0.25,0.001,0.013701853023488114,0.011074309836147598,14.724752390310012,0.010510173012355468,0.013495712366420776
295,0.25,0.001,0.013652516377308174,0.010935368844636547,15.226894380653079,0.010868589850573217,0.012939393753185868
296,0.25,0.001,0.013587040949169554,0.011014765939268912,14.415030129020547,0.01028910073449004,0.01481265015900135
297,0.25,0.001,0.01374368172815548,0.011035698761537453,15.17553644439124,0.010831931794711806,0.018683497211895883
298,0.25,0.001,0.013643130889485176,0.010963832158478666,15.01478945188582,0.010717194469583026,0.011810927535407245
299,0.25,0.001,0.013625501933077929,0.011045167098183473,14.460197185922516,0.010321339890023208,0.010623755399137735
300,0.25,0.001,0.013640623209154183,0.010945811885212682,15.101723135388719,0.010779245635537987,0.012345462862867862
301,0.25,0.001,0.013607943514148103,0.011001181325997714,14.60829647000498,0.010427049586013547,0.010282184812240303
302,0.25,0.001,0.01363419620650733,0.010915066308044442,15.238004272317587,0.010876519823210268,0.011007786844857037
303,0.25,0.001,0.01361216828499246,0.010983310756516606,14.73211800927658,0.010515430413473647,0.012809020816348493
304,0.25,0.001,0.013677242194498755,0.011037867082698983,14.791057477166607,0.010557499983702074,0.013210965145844966
305,0.25,0.001,0.013688433528459769,0.010980247496578664,15.176673044989155,0.010832743072797399,0.011557979276403785
306,0.25,0.001,0.013709133203162778,0.011061977805075915,14.834660165742942,0.010588622530865769,0.013778783148154616
307,0.25,0.001,0.013754692231936844,0.011105959723647179,14.843496929877487,0.010594929999912553,0.012771323148626834
308,0.25,0.001,0.013670322681643022,0.010954769277684623,15.217961480572727,0.010862213762007657,0.011030956346075982
309,0.25,0.001,0.013601577811580858,0.01100829002566029,14.532784750665654,0.010373151142516527,0.013040741498116404
310,0.25,0.001,0.01360296243160092,0.010960981284806774,14.805663246202569,0.010567925229266644,0.017091481597162783
311,0.25,0.001,0.013683243693554451,0.010998214808893477,15.046902081165035,0.010740115689625292,0.01279334822902456
312,0.25,0.001,0.013595125531011682,0.010946792202354224,14.841259860793334,0.010593333233970974,0.01474799367133528
313,0.25,0.001,0.013655015728232259,0.011027959350395427,14.72202266183427,0.01050822459802589,0.011298472178168595
314,0.25,0.001,0.013647101722299928,0.010997194888182996,14.850078871454228,0.01059962803101658,0.014013491803780198
315,0.25,0.001,0.013657090081084745,0.011033583844628861,14.702130285832478,0.010494025899951805,0.01632794551551342
316,0.25,0.001,0.0136662359059728,0.01102455440200943,14.803982641104616,0.010566725653893373,0.014877747627906501
317,0.25,0.001,0.013630768869437728,0.01093326866751175,15.116790464875097,0.010790000331816629,0.020804319065064192
318,0.25,0.001,0.013533779052484757,0.010969328118530967,14.371182248587399,0.01025780317529436,0.015568546019494534
319,0.25,0.001,0.013638058805639909,0.010935746104162893,15.143759034620695,0.010809249846267448,0.01152340299449861
320,0.25,0.001,0.013513687226166929,0.010935018990103287,14.450857763748328,0.010314673635794667,0.010488494765013456
321,0.25,0.001,0.013648903895643907,0.010949857223833404,15.125457439143872,0.010796186608953514,0.013609213987365365
322,0.25,0.001,0.013580299544465069,0.010950747068528093,14.736013211387682,0.010518210714766368,0.013373152120038867
323,0.25,0.001,0.013612485094100922,0.010940207915073396,14.975441801274245,0.01068910906586313,0.01440238079521805
324,0.25,0.001,0.013587280446838487,0.010897818460889426,15.071745217468644,0.01075784812096263,0.012766053318046033
325,0.25,0.001,0.013650447684330458,0.011073586949009239,14.440727142302128,0.01030744264261394,0.010471517220139503
326,0.25,0.001,0.01354486213720915,0.010816362110940673,15.290513653844782,0.010913999752922756,0.011634456517640501
327,0.25,0.001,0.01366812320881074,0.011039772733952655,14.729277182720399,0.01051340270001456,0.01855039584916085
328,0.25,0.001,0.013541533244241006,0.01089558379611852,14.827901864101593,0.010583798618202422,0.01455327495932579
329,0.25,0.001,0.013534989248813443,0.01097727712197132,14.333417675440396,0.010230847734075944,0.013733304454945028
330,0.25,0.001,0.01351758611188241,0.010884380016654793,14.756487677142117,0.01053282489446261,0.012554579065181315
331,0.25,0.001,0.013509986618833153,0.01087129802009507,14.787211567474557,0.010554754866148864,0.013107525301165879
332,0.25,0.001,0.013542966711060736,0.010944771059324074,14.560289637778647,0.010392783467365201,0.016026989789679646
333,0.25,0.001,0.013641048432765276,0.010981857844692557,14.902104184622555,0.010636762444412959,0.017275214893743396
334,0.25,0.001,0.01352398839073415,0.010825652815790416,15.121473774282817,0.010793343165084094,0.012613856873940676
335,0.25,0.001,0.013573868484051592,0.011003307558767233,14.405424261391785,0.010282244297924186,0.010788991407025605
336,0.25,0.001,0.013563333802500696,0.010866896099642323,15.11083826690228,0.010785751796504124,0.013593824696727097
337,0.25,0.001,0.013578842380443793,0.010983003972249886,14.547079594000895,0.010383354456817198,0.0149381939554587
338,0.25,0.001,0.013522003194033353,0.010846617007491982,14.99286469238536,0.010701545105200114,0.020340947608929127
339,0.25,0.001,0.01350866502543643,0.01089357426448381,14.654968420996298,0.010460362898641183,0.016892070998437703
340,0.25,0.001,0.013570154799315651,0.010915267339563444,14.87798926128475,0.010619549793922019,0.010592441714834422
341,0.25,0.001,0.013476454403974691,0.010821134688056585,14.880411191872614,0.01062127850954505,0.015133522916585207
342,0.25,0.001,0.013513118232792878,0.010948360987038728,14.372899814040277,0.010259029132077286,0.012844497454352677
343,0.25,0.001,0.013574394477154118,0.010849171486296274,15.272150218860093,0.010900892376060024,0.012439825979527086
344,0.25,0.001,0.013488755855001587,0.010869212242500518,14.679921799263527,0.010478174018032495,0.014752441784366965
345,0.25,0.001,0.013509808289031021,0.01091904684294614,14.518626131443988,0.010363045061701633,0.015597602468915284
346,0.25,0.001,0.013483681735467936,0.010845309570587254,14.785437785011244,0.010553488783020159,0.013464631279930472
347,0.25,0.001,0.013605383036187645,0.011005542546292935,14.569506505834783,0.010399362245420972,0.014528721570968628
348,0.25,0.001,0.013533167962941472,0.010859033143408364,14.985851658162096,0.010696539370565378,0.022260025143623352
349,0.25,0.001,0.013532788924375132,0.01097461518817941,14.336006244189555,0.010232695391998255,0.016303666692692786
350,0.25,0.001,0.013563411146993429,0.010946079913627877,14.667523626992498,0.010469324501779086,0.01176556502468884
351,0.25,0.001,0.013524460857092463,0.01087304392522337,14.858540628548704,0.010605667829085442,0.011298308614641428
352,0.25,0.001,0.013524210187441248,0.010902479493170043,14.692179399143928,0.010486923197104875,0.01087104034377262
353,0.25,0.001,0.013522418630008035,0.010854941897778645,14.94853890962541,0.010669906430853256,0.014626655029132962
354,0.25,0.001,0.013493077524224129,0.010850936415486644,14.806558688647563,0.010568564374480774,0.012963563203811646
355,0.25,0.001,0.013497325566467015,0.010902466168841017,14.541591773700118,0.010379437383083596,0.01180008437950164
356,0.25,0.001,0.013547723016279723,0.01088374622733894,14.92892667296535,0.010655907689482762,0.0114341996377334
357,0.25,0.001,0.013530530420468347,0.010826480604070463,15.153496708402056,0.010816200362885121,0.01460305624641478
358,0.25,0.001,0.0135070618576446,0.010881176677246682,14.715460185964819,0.010503540461074103,0.015209645323920995
359,0.25,0.001,0.01353296717834933,0.010894215677423493,14.78756410841653,0.010555006501367974,0.016553366323933005
360,0.25,0.001,0.013561196741891057,0.010910873400486834,14.852411955035056,0.010601293329789476,0.014529139967635274
361,0.25,0.001,0.013596169098371753,0.010948270965670867,14.838821072668024,0.010591592485844414,0.019974699360318482
362,0.25,0.001,0.013541682055589426,0.0108588765101169,15.034441607481254,0.01073122170412652,0.013564788270741701
363,0.25,0.001,0.013480900539890211,0.010918804053567148,14.35798807084436,0.010248385489539158,0.014535793685354292
364,0.25,0.001,0.013595165885082739,0.010930179705792778,14.934583281674316,0.010659945240310003,0.012322711409069598
365,0.25,0.001,0.013535272205610117,0.010808965346789559,15.27822412279802,0.01090522778215419,0.011907843290828168
366,0.25,0.001,0.013434907403970934,0.010813189289359558,14.692109090052467,0.01048687301217164,0.01410950708668679
367,0.25,0.001,0.013502539236619602,0.010851904327955898,14.854158831538637,0.010602540208093246,0.013049072003923357
368,0.25,0.001,0.01350661059005462,0.010856152521854652,14.853166558299533,0.010601831947394384,0.014924508519470692
369,0.25,0.001,0.013482550186317001,0.01086504681770824,14.668489141603601,0.010470013662814847,0.018909519305452704
370,0.25,0.001,0.01352803564644059,0.010862467532475831,14.93784419280751,0.010662272800005361,0.017845236929133534
371,0.25,0.001,0.013545510374662896,0.010914967463415949,14.741562807485305,0.01052217188257338,0.013970657833851874
372,0.25,0.001,0.01347433750776259,0.010884910895798301,14.511146670841224,0.010357706403170039,0.014340409659780562
373,0.25,0.001,0.013464221271972068,0.010787124904980863,15.002448362696892,0.010708385697856454,0.013806798029690981
374,0.25,0.001,0.01349983194216868,0.01083986221040776,14.906469619846543,0.01063987838675699,0.01165589492302388
375,0.25,0.001,0.013568225131994249,0.010968790969000605,14.567230137006725,0.010397737428270324,0.016779035213403404
376,0.25,0.001,0.01358671519430918,0.01086007180139578,15.280109405517578,0.010906573451475787,0.01535820565186441
377,0.25,0.001,0.013466131585671533,0.010866926903282302,14.565942909622988,0.010396818636418979,0.015408781007863581
378,0.25,0.001,0.013492718865873296,0.010877374005513673,14.656393220379856,0.010461379886066992,0.010252276551909745
379,0.25,0.001,0.01350121657774319,0.01084265814576928,14.898560462266767,0.010634233020889913,0.011469515739008784
380,0.25,0.001,0.013564730868023471,0.01095350953849472,14.633285229788443,0.010444885959877546,0.011824825312942266
381,0.25,0.001,0.013462778906063769,0.010761387148455936,15.138600008970512,0.010805567458223064,0.012510209460742772
382,0.25,0.001,0.013451538943065357,0.010819818649542108,14.74816067283487,0.010526881279682277,0.013942376710474491
383,0.25,0.001,0.013461629698725733,0.01079831392327343,14.925222241554977,0.01065326355571376,0.014309164136648178
384,0.25,0.001,0.013463614842930268,0.010833095661938066,14.74142992820023,0.010522077036545488,0.015069543791469187
385,0.25,0.001,0.013561402099490912,0.010873961182688373,15.060419345449555,0.01074976398675914,0.022504750406369567
386,0.25,0.001,0.013513620273989776,0.010869648832524495,14.81681610298555,0.0105758858693687,0.01273237552959472
387,0.25,0.001,0.013433423202430406,0.010755222856547364,15.008634959481704,0.01071280154138594,0.013951972126960754
388,0.25,0.001,0.013499664150505075,0.010861624024481764,14.783577100717947,0.010552160671461775,0.012006762437522411
389,0.25,0.001,0.013449041188416501,0.010824377275225639,14.708615524037148,0.010498654906521876,0.012246485333889723
390,0.25,0.001,0.01349352030686272,0.010797013130062308,15.1112266433015,0.010786029010208066,0.012963342131115496
391,0.25,0.001,0.013474121759791464,0.010828040855195925,14.828636681112716,0.010584323112857043,0.010789906373247504
392,0.25,0.001,0.013341302203796104,0.010677821957554847,14.926142596999389,0.010653920483225832,0.010065252427011728
393,0.25,0.001,0.013432757405949161,0.01080664401846726,14.716739208563883,0.010504453396548097,0.015639410470612347
394,0.25,0.001,0.013499512836834832,0.010842296185986856,14.89104270138671,0.010628867024544403,0.015435001696459949
395,0.25,0.001,0.013465211485631158,0.010739128433930102,15.276968906219418,0.010904331838843267,0.012518267496488988
396,0.25,0.001,0.013465120225740375,0.010787614269302633,15.004742986722878,0.010710023545126965,0.01110837678425014
397,0.25,0.001,0.01341698216060507,0.01081779470476701,14.565846968792176,0.010396750156168576,0.011036450392566621
398,0.25,0.001,0.013503310671134508,0.010800747883298078,15.145162088637063,0.010810251312374777,0.011856880155391991
399,0.25,0.001,0.013439154034647663,0.01079879870681026,14.796551626758934,0.010561421575131288,0.013460415997542441
400,0.25,0.001,0.013461600499138205,0.010814003518049552,14.837134092486227,0.010590388360090098,0.01889185083564371
401,0.25,0.001,0.01347308700985911,0.010814382029708965,14.899383584741262,0.010634820545853864,0.014479708683211356
402,0.25,0.001,0.013513304374816522,0.010819333004677719,15.097015663577022,0.010775885555729494,0.013702485244721174
403,0.25,0.001,0.013539174768008245,0.01085858896670237,15.022003440618017,0.010722343640698085,0.017442037467844784
404,0.25,0.001,0.01352609911766331,0.010827956223444301,15.120392277743473,0.010792571218946091,0.023379480466246605
405,0.25,0.001,0.013492389199069248,0.010870956747728498,14.690507444807782,0.010485729796436674,0.019221138558350503
406,0.25,0.001,0.013410308853273973,0.010780200910499797,14.73912524977905,0.010520432012690257,0.01989592151949182
407,0.25,0.001,0.013451484409170633,0.010805808468517655,14.826367864031383,0.010582703685961016,0.020362803945317864
408,0.25,0.001,0.013494887980311673,0.010852667604162822,14.807003849483483,0.010568882119545668,0.016359003959223628
409,0.25,0.001,0.013432170666894236,0.010719986055007433,15.199082862360244,0.010848738659786042,0.018153826822526753
410,0.25,0.001,0.013422485985375147,0.01081139168707899,14.632573054080716,0.010444377626039055,0.017464980366639793
411,0.25,0.001,0.013450988173671456,0.010790166283699068,14.91124600308922,0.010643287653882384,0.01575494313146919
412,0.25,0.001,0.013489894775016572,0.010844302468686237,14.82589930134178,0.010582369237217544,0.01307418494252488
413,0.25,0.001,0.013560949021752046,0.010786825481856666,15.546189240473547,0.011096494818325158,0.015280736144632101
414,0.25,0.001,0.013482144922951318,0.010845567263071745,14.775381024545817,0.010546310510025565,0.01528271078132093
415,0.25,0.001,0.013405599213343323,0.010800490620505213,14.599029638573123,0.010420435145305584,0.012901784619316459
416,0.25,0.001,0.013490147554239799,0.010795583116330035,15.100339746176575,0.010778258205693487,0.018851283937692642
417,0.25,0.001,0.01349181265206638,0.01084956386571824,14.807161868738481,0.010568994909877574,0.02442186907865107
418,0.25,0.001,0.013466086926906989,0.010749184215414126,15.225523188119144,0.010867611126423373,0.016651418642140925
419,0.25,0.001,0.013442946459888043,0.010839786992985795,14.588105187784405,0.010412637535891795,0.018975496757775545
420,0.25,0.001,0.013472143572313801,0.010789498249321615,15.033545215343882,0.010730581881044884,0.01702881045639515
421,0.25,0.001,0.013400739276614467,0.010724051908000775,15.00015586104423,0.010706749365484818,0.011084199766628444
422,0.25,0.001,0.013350007009531113,0.010767651480741193,14.471520230765133,0.01032942200625634,0.00972532166633755
423,0.25,0.001,0.013370620948116689,0.010752648490409139,14.67111670149642,0.010471889151674818,0.014422162203118205
424,0.25,0.001,0.013394068780749849,0.010759316056204614,14.765154657383802,0.010539011175862813,0.014733707648701966
425,0.25,0.001,0.013406959959229995,0.010790558839080727,14.662312250794349,0.010465604747176551,0.01428626268170774
426,0.25,0.001,0.013435143069412738,0.010782064893331557,14.867849228526456,0.010612312083173774,0.014635357074439526
427,0.25,0.001,0.0134310017617921,0.010750758409157924,15.020083664354551,0.010720973350717025,0.009899435972329229
428,0.25,0.001,0.013395245161708562,0.0107081901002092,15.058256543503923,0.010748220230909296,0.011622468940913677
429,0.25,0.001,0.013411283273335415,0.01080431280918186,14.609463578226173,0.01042788263970462,0.012445249361917377
430,0.25,0.001,0.013353486010699779,0.010679296902254503,14.986156648783195,0.010696757065512631,0.012177533935755491
431,0.25,0.001,0.01335220244403983,0.010695872556161532,14.886073202081414,0.010625319915832558,0.00999242381658405
432,0.25,0.001,0.013413247535693496,0.01080669726523141,14.607107855332918,0.010426201181536702,0.01753520325291902
433,0.25,0.001,0.01343139635869506,0.010716721347469003,15.213038633661132,0.010858699952648916,0.016390859032981098
434,0.25,0.001,0.013392602779857798,0.010743034704119777,14.848180314942043,0.010598272887182044,0.012017417990136892
435,0.25,0.001,0.013466247866836246,0.010768387116694002,15.118810355041122,0.010791442080686026,0.01757566980086267
436,0.25,0.001,0.013366260659144045,0.010744280973157704,14.693575052727239,0.010487919380961627,0.020908326492644846
437,0.25,0.001,0.013492665729934588,0.010888204713486182,14.59539968335305,0.010417844170844431,0.018391506280750036
438,0.25,0.001,0.013372152526561551,0.010719006756682237,14.868229392177128,0.010612583434815937,0.014767840213607997
439,0.25,0.001,0.013369728449444307,0.01076309711503211,14.60756185408176,0.010426525234890622,0.014304169453680515
440,0.25,0.001,0.013418463601231077,0.010732155899849714,15.054068573332529,0.01074523095883835,0.010396095342002809
441,0.25,0.001,0.013347037416534781,0.01068798567329792,14.901327395986664,0.010636207991425171,0.010632610064931214
442,0.25,0.001,0.013389300103911777,0.010770376240892924,14.676449700038965,0.010475695717372566,0.01183050381951034
443,0.25,0.001,0.013417269797346289,0.010673053834843984,15.378586494350234,0.010976864021663264,0.011302077677100897
444,0.25,0.001,0.013375891166465018,0.010773486446099266,14.583875498841351,0.010409618485968131,0.010796959744766355
445,0.25,0.001,0.013399577804594174,0.01074744650553562,14.862543452507767,0.010608524948256794,0.011455373140051961
446,0.25,0.001,0.013372165088722627,0.010723866073177478,14.841068534612157,0.010593196669958713,0.013054138864390552
447,0.25,0.001,0.013358641120299915,0.010758730195976,14.569900409164907,0.010399643404114851,0.013391839689575136
448,0.25,0.001,0.013414336838963634,0.010702784808978657,15.195537720443312,0.010846208223014499,0.015760834969114512
449,0.25,0.001,0.013397781520553074,0.010770213580252855,14.724890961776447,0.010510271921325087,0.014578757516574115
450,0.25,0.001,0.013308120234276407,0.010652275777388838,14.883352253780485,0.010623377768579932,0.012862350908108056
451,0.25,0.001,0.013349900377957084,0.01069114061309674,14.899691181541236,0.01063504010102872,0.01430011773481965
452,0.25,0.001,0.013365159658929003,0.010750674578460373,14.651573298619535,0.010457939542198098,0.01298250479158014
453,0.25,0.001,0.013317130521593114,0.010711365622431352,14.602707392985238,0.01042306023767683,0.017078367294743657
454,0.25,0.001,0.013374820336046199,0.010724004010022433,14.855174940662742,0.010603265482271765,0.01526096323505044
455,0.25,0.001,0.01336925784378684,0.010740410610411262,14.732059596226957,0.010515388719648078,0.011950855376198888
456,0.25,0.001,0.013335870736373864,0.010700296311170672,14.769759208026162,0.01054229779302367,0.010006990050897002
457,0.25,0.001,0.013407504524343446,0.01076649881837139,14.800195369441724,0.010564022390750695,0.016848901635967195
458,0.25,0.001,0.01337487954405255,0.010701039209106396,14.98420172195594,0.010695361685907165,0.015129033534321934
459,0.25,0.001,0.013388416926242364,0.010748109681092374,14.796282593044209,0.010561229545356323,0.016011303523555398
460,0.25,0.001,0.013437256368658737,0.01077097245066238,14.941854610323658,0.010665135339274559,0.021552752354182303
461,0.25,0.001,0.013353927303999974,0.010746814965781813,14.610257092995534,0.01042844903140295,0.016350409830920398
462,0.25,0.001,0.013366894623447435,0.010731225576648384,14.77028940117185,0.010542676232099821,0.011553135118447244
463,0.25,0.001,0.013343803885943084,0.010624864074500718,15.236939617387934,0.010875759898206949,0.01050614903215319
464,0.25,0.001,0.013303174635313747,0.010701163106117717,14.581672212525051,0.010408045833351214,0.015142311924137175
465,0.25,0.001,0.013331313005071094,0.010650926195707226,15.020886202196985,0.010721546182867227,0.014967480092309415
466,0.25,0.001,0.01332580013927811,0.010697011145644496,14.731732266929802,0.010515155079892792,0.013090655556879938
467,0.25,0.001,0.01328621509957413,0.010672097024361997,14.649516619321947,0.010456471534134152,0.016772624803707004
468,0.25,0.001,0.013344519548040341,0.010721639654208324,14.698619087951915,0.0104915196916145,0.012415696401149035
469,0.25,0.001,0.013271288215211886,0.010599809377950018,14.970966894591776,0.010685914985433101,0.011260427883826196
470,0.25,0.001,0.013281217369878964,0.01063223261899453,14.844910145801393,0.010595938719344321,0.012535043293610215
471,0.25,0.001,0.013316142541941621,0.01071374604793456,14.583831096243012,0.010409586792464676,0.016371667850762606
472,0.25,0.001,0.01338366043437,0.010670795258997876,15.202896008660748,0.010851460391620806,0.01257215510122478
473,0.25,0.001,0.013315700908387877,0.010731739427559932,14.48052075212833,0.010335846361262191,0.013320973957888782
474,0.25,0.001,0.013416765059396967,0.010729332223130168,15.060374186282864,0.01074973175323545,0.016771611175499856
475,0.25,0.001,0.013391357990436737,0.010735428269898095,14.883830249682847,0.010623718950523088,0.0169242579722777
476,0.25,0.001,0.013352561878168757,0.010729850987302983,14.697672985291929,0.01049084438636112,0.010430597118102014
477,0.25,0.001,0.013326087706024314,0.01062454379675035,15.13945231507367,0.01080617581375708,0.010337583255022764
478,0.25,0.001,0.013317227034998711,0.010713161428173176,14.593183557275442,0.010416262353515662,0.010714120231568813
479,0.25,0.001,0.01333559719390685,0.010687114231459531,14.842098843329635,0.010593932079464408,0.016523395432159305
480,0.25,0.001,0.01335246654106829,0.010643424734566555,15.181471058122797,0.01083616777881713,0.013980985037051141
481,0.25,0.001,0.013366571289248034,0.010712502938393884,14.873399445806514,0.01061627369436582,0.019576031365431845
482,0.25,0.001,0.013329722313890876,0.010682940403376716,14.832566113959773,0.01058712784722325,0.013934811460785568
483,0.25,0.001,0.013267937244649098,0.010627316857351764,14.798037927185568,0.010562482460517893,0.014078807143960148
484,0.25,0.001,0.0133581516762616,0.01071442631199676,14.815437993824109,0.010574902208297009,0.019061111379414797
485,0.25,0.001,0.01337104134401598,0.010703961891831834,14.946314100930486,0.010668318416081717,0.015028542606160045
486,0.25,0.001,0.013254541631531367,0.010654457955619239,14.570870029154799,0.010400335495470949,0.012614255712833256
487,0.25,0.001,0.013250992017057345,0.010582137504876406,14.956261011653256,0.010675418280980196,0.00988945213612169
488,0.25,0.001,0.01332445219081354,0.010636489509774026,15.063343404479216,0.010751851109549761,0.010973175754770637
489,0.25,0.001,0.01329778000860162,0.010706794349037282,14.519883143876937,0.010363942286850062,0.013825984497088939
490,0.25,0.001,0.01333825381391046,0.01070448703527264,14.75962947853423,0.01053506743649838,0.013405400444753468
491,0.25,0.001,0.013322742016196624,0.010589950836588296,15.31456166269386,0.010931164641465995,0.017965382896363735
492,0.25,0.001,0.013290615036834754,0.010720355305937361,14.403735857666907,0.010281039156079162,0.015432454529218376
493,0.25,0.001,0.013271855973951627,0.010613594830253925,14.896894918851912,0.010633044196182663,0.013163387950044125
494,0.25,0.001,0.01333377184249103,0.01069034951775955,14.813739247013482,0.010573689683806911,0.016926077310927212
495,0.25,0.001,0.013346712250799128,0.010690200665580704,14.887091347967159,0.010626046643802397,0.015127806516829878
496,0.25,0.001,0.013359739659023559,0.01066401175617985,15.10685805438207,0.010782910816832312,0.016051872342359275
497,0.25,0.001,0.01329903318575877,0.010675426063153092,14.702694373240302,0.010494428531934549,0.011572976829484105
498,0.25,0.001,0.013294448420825358,0.01065110062523152,14.813321489879632,0.010573391498843421,0.01312627352308482
499,0.25,0.001,0.013265704207262316,0.010611153695740132,14.876101541618713,0.010618202385166819,0.011227084731217474
500,0.25,0.001,0.013326733305054815,0.010745217757287876,14.46681299189685,0.010326062092717237,0.019529962330125272
