epoch,beta,learning_rate,train_loss,train_reconstruction_loss,train_kl_unnormalized,train_kl_normalized,mean_unclipped_gradient_norm
1,0.0,0.001,0.08834741880146021,0.08834741880146021,58.94492084493565,0.0420734624160854,0.11230388177292687
2,0.02,0.001,0.06380463045287492,0.05470553363300391,637.3917124097234,0.4549548268449132,0.15204990016562597
3,0.04,0.001,0.05183153324561095,0.04096885316392937,380.465352228967,0.271566989456793,0.11270403010504586
4,0.06,0.001,0.042455946824862915,0.03834260673607026,96.0465115948348,0.06855568279431463,0.09330020898154803
5,0.08,0.001,0.03895025892694591,0.034605190214191936,76.09301648272074,0.05431335937381923,0.06930804625153542
6,0.1,0.001,0.03674682529094237,0.03392364752833128,39.55272218142108,0.028231778858972933,0.047757421753236225
7,0.12,0.001,0.03525546971961893,0.033003001448039145,26.297574228243505,0.018770574038717704,0.0357218078736748
8,0.14,0.001,0.033598913409998196,0.031195264229884074,24.053660097290347,0.017168922267873196,0.030663699976035526
9,0.16,0.001,0.031256964101786876,0.028654411693176333,22.788601776814883,0.016265954159039888,0.04550582383360181
10,0.18,0.001,0.02879614155899067,0.02534563200881409,26.85646712449696,0.01916949830442324,0.05374210301254477
11,0.2,0.001,0.027372932652719974,0.023271518757083554,28.73040457276313,0.02050706964508432,0.06424302261854921
12,0.22,0.001,0.025866110051421434,0.02177088505468831,26.079136471303944,0.01861465843776156,0.05248676346881049
13,0.24,0.001,0.025067949240619048,0.0210479193130128,23.466924359876504,0.01675012445387331,0.05512207347367491
14,0.25,0.001,0.0238477933157226,0.01984467576504204,22.433470344063018,0.016012469910109222,0.0246076321761523
15,0.25,0.001,0.02326659948778543,0.01953193241312762,20.929075154609585,0.014938668918350882,0.020336990244686604
16,0.25,0.001,0.02284822016672914,0.0189643367909139,21.765284276428993,0.015535534815438254,0.031276551341371875
17,0.25,0.001,0.02224742494504758,0.018415803451006598,21.4724065939185,0.015326485791519271,0.04528657480009964
18,0.25,0.001,0.021865247530623407,0.01845895584850978,19.088859918435816,0.01362516767911193,0.03269907699099609
19,0.25,0.001,0.021099438337182218,0.01720699072071827,21.813275209902518,0.015569789585940413,0.03652393578418663
20,0.25,0.001,0.020770956314067997,0.017020309339242257,21.018626571001874,0.015002588558887848,0.07270318163292748
21,0.25,0.001,0.01990766278104458,0.016229584789658975,20.61194960356359,0.014712312350866232,0.03410186778221812
22,0.25,0.001,0.019207962373417032,0.015563503095425046,20.423549118810698,0.014577836630128977,0.02823051850178412
23,0.25,0.001,0.01916128526012453,0.01552446617249878,20.380733562056303,0.014547275918669738,0.030490766944629804
24,0.25,0.001,0.018833749826706627,0.015006571327821735,21.447508737482412,0.015308714302271528,0.024616556042539223
25,0.25,0.001,0.018590936277727937,0.014764019116871904,21.446044792156076,0.015307669373416186,0.033024503849446774
26,0.0,0.001,0.014173046821817492,0.014173046821817492,23.462580298897002,0.016747023767949322,0.03570635217641081
27,0.02,0.001,0.01364430421799121,0.013036460381104453,42.579454926459555,0.030392187670563564,0.024535195103713443
28,0.04,0.001,0.013640457215327159,0.011857575382708903,62.445439864766385,0.044572048440232964,0.025089286400803497
29,0.06,0.001,0.01431844554025145,0.011483460857113003,66.19689386017076,0.047249745795981984,0.0203647892922163
30,0.08,0.001,0.014573373559684086,0.011527221614696668,53.34573287387339,0.038076897126247955,0.017932825721800327
31,0.1,0.001,0.01472575207632645,0.011981665501629076,38.44465053952311,0.027440864053906572,0.016399925042475973
32,0.12,0.001,0.01506571723640866,0.012372357547940025,31.444976143632786,0.022444665341636534,0.01903277076780796
33,0.14,0.001,0.015281938785870069,0.012314231395346091,29.698270937057227,0.021197909305536923,0.029657349389578615
34,0.16,0.001,0.015570973649020459,0.012322116347606897,28.447805313379398,0.02030535711161984,0.018848282817218984
35,0.18,0.001,0.015814580220344383,0.012417778907629944,26.4384387854665,0.018871119761218056,0.02221792789974383
36,0.2,0.001,0.016485851544239358,0.012912096563604676,25.034154839119324,0.0178687757595427,0.051813951294337
37,0.22,0.001,0.016752145968621564,0.012945831094115448,24.239305169516307,0.01730143124162477,0.05148546557341303
38,0.24,0.001,0.017105039741646882,0.013358804502850515,21.868649912721263,0.015609314712863143,0.03650824685714075
39,0.25,0.001,0.017009755322048136,0.013165190928528832,21.544940362348964,0.015378258645502471,0.0407922196068934
40,0.25,0.001,0.01662795553429601,0.012813723883040305,21.374952969683207,0.01525692574566967,0.03140722940276776
41,0.25,0.001,0.01670091931874716,0.012951376460849187,21.012437388038155,0.014998170869406248,0.02916950240199055
42,0.25,0.001,0.016598656280928055,0.012808122906730668,21.242151226745143,0.01516213506548547,0.03410976965512548
43,0.25,0.001,0.016137398943605292,0.012510983200664034,20.32243328911231,0.014505662590372814,0.016262271840657507
44,0.25,0.001,0.01629217620235246,0.01275866721247696,19.801783035624236,0.014134035000445565,0.01578332922820534
45,0.25,0.001,0.015966665642500225,0.01228081961619839,20.655483457243413,0.01474338576534148,0.01896141908530678
46,0.25,0.001,0.015803743979567544,0.012274080650500898,19.780230654276888,0.014118651430604489,0.019633675260203227
47,0.25,0.001,0.015819145207028245,0.012429726959888822,18.99430187523215,0.013557674429145003,0.014898863155394793
48,0.25,0.001,0.015759154253402345,0.012265621797094868,19.577754484315964,0.013974128825350438,0.017536866744714125
49,0.25,0.001,0.01562942197588589,0.012043098602397016,20.09775571558878,0.014345293158878501,0.014615680357175214
50,0.25,0.001,0.015593664345310378,0.011951300477426059,20.41180662063868,0.014569455118228892,0.014707078558525868
51,0.0,0.001,0.01168554262387137,0.01168554262387137,23.215436988273254,0.016570618835312814,0.025522374947156225
52,0.02,0.001,0.010995673477856127,0.010407316235717508,41.21443123421081,0.029417866691085516,0.01801022408264024
53,0.04,0.001,0.01147598840802983,0.00980496912331365,58.52745034052082,0.04177548204177075,0.013698097318410873
54,0.06,0.001,0.012089914285697475,0.009722680329657172,55.274919610780195,0.03945390407621713,0.012521608865686826
55,0.08,0.001,0.012260571366143166,0.009908919295375834,41.18330780144603,0.02939565153565027,0.015193506543125426
56,0.1,0.001,0.01253939848815464,0.010272915374196747,31.753427529515186,0.022664830499297062,0.011675014293619565
57,0.12,0.001,0.012858956557245789,0.0104037328911781,28.66473884966872,0.02046019903616611,0.013402524337704693
58,0.14,0.001,0.013184702063744105,0.01043017149694095,27.56498017299085,0.01967521782511838,0.012998297744031464
59,0.16,0.001,0.013492087378478622,0.010497965575465628,26.217281207029405,0.018713262817294365,0.013165273171450411
60,0.18,0.001,0.013696818598440522,0.010584444478529527,24.224644711395957,0.017290966960311176,0.015189774533999818
61,0.2,0.001,0.014083231430998077,0.010864972653012882,22.543902879998427,0.016091293990006014,0.0195006993599236
62,0.22,0.001,0.01445621315164665,0.011037120114664737,21.773406141651066,0.015541332006888698,0.016768631857952902
63,0.24,0.001,0.014624655260810023,0.01097661178437078,21.29545451051342,0.015200181663464254,0.01924891916236707
64,0.25,0.001,0.014835977302840735,0.011277722342582584,19.940461141937025,0.014233020087035706,0.01743134836267148
65,0.25,0.001,0.014651626332074178,0.01101810583417827,20.362249028472515,0.014534082104548547,0.01281222009233066
66,0.25,0.001,0.014601075698056208,0.011060181226327978,19.843172467325438,0.014163577778247992,0.022607864812016487
67,0.25,0.001,0.014599532702989332,0.010900474066660747,20.72952356506655,0.014796233808041792,0.020404747554234097
68,0.25,0.001,0.014450925247513827,0.010954034883031616,19.596573759987013,0.013987561570297654,0.019476987421512604
69,0.25,0.001,0.014397176998369489,0.011028285931223436,18.87926503332796,0.013475563906729451,0.012977758688586099
70,0.25,0.001,0.01442636617973109,0.011012709075561549,19.130133972360145,0.013654628103040788,0.015622310074312347
71,0.25,0.001,0.014394111560671696,0.01102803600600144,18.86348711393342,0.013464302008517788,0.018918073336992944
72,0.25,0.001,0.01430318156205662,0.010866313548735167,19.26020864875851,0.013747472268921136,0.020982660220137665
73,0.25,0.001,0.014213461034769375,0.010805101783697492,19.10044631189303,0.013633437767232713,0.01847231268350567
74,0.25,0.001,0.014298447222455922,0.010985542472301787,18.56551844887529,0.013251619164079437,0.018803526514342854
75,0.25,0.001,0.014176294648602266,0.010766187588911813,19.110240820973587,0.013640428851515765,0.013470335996576719
76,0.0,0.001,0.010300051573410593,0.010300051573410593,22.371147520896468,0.01596798538250997,0.022100153512188365
77,0.02,0.001,0.009883405105855964,0.00932162164496985,39.35292450066478,0.028089168094692918,0.01500744785049132
78,0.04,0.001,0.010263852366910173,0.008793692698031288,51.49234374884694,0.03675399268297426,0.013416623497115714
79,0.06,0.001,0.010774537554991335,0.008745521353909592,47.37753273798176,0.03381693985580425,0.00974870047398976
80,0.08,0.001,0.010988181529646406,0.008974971762278895,35.25634114147734,0.025165125725537005,0.009976421416338001
81,0.1,0.001,0.011273766074902014,0.009306150235198157,27.566295916847977,0.019676156971340456,0.010163447952696256
82,0.12,0.001,0.011653349737188679,0.009443657093866721,25.798163219423078,0.01841410650922418,0.010638804308005742
83,0.14,0.001,0.01197043940734578,0.009388471510195612,25.83812135172731,0.018442627660048044,0.012775477021932602
84,0.16,0.001,0.012272828917772103,0.009531889408732992,24.0003546611488,0.0171308741335823,0.018776845253471817
85,0.18,0.001,0.012671311123188707,0.00963461995640915,23.635578611936015,0.016870505790104223,0.01356020090835435
86,0.2,0.001,0.01291968106698029,0.00980062667815301,21.848978523043,0.015595273749495361,0.01078956387937069
87,0.22,0.001,0.013053285640662052,0.009829122007775217,20.53206045981919,0.014655289407436965,0.013668286348027843
88,0.24,0.001,0.013413173191118,0.010036321802613718,19.712370139825854,0.014070214232566634,0.01329251891002059
89,0.25,0.001,0.013580397440012666,0.009995650077797003,20.088924201369586,0.014338989437094636,0.021326348784246614
90,0.25,0.001,0.013682732536863319,0.01033852445032044,18.740941641012427,0.013376832006432852,0.025236627220043113
91,0.25,0.001,0.013641653150808,0.010162180313085129,19.498966029669237,0.013917891527244281,0.02821462002715894
92,0.25,0.001,0.013517498824585895,0.010229678378822821,18.424945985039777,0.013151281930792132,0.02376659241105829
93,0.25,0.001,0.013499491665071294,0.010133091233651944,18.86530901142572,0.013465602434993375,0.018552880867251327
94,0.25,0.001,0.01333470364812039,0.0100485150718719,18.415802429545135,0.013144755481474044,0.015894094881202494
95,0.25,0.001,0.013301757316783033,0.010026857540743327,18.352538164076336,0.01309959897507233,0.011538572875516755
96,0.25,0.001,0.013254470156707452,0.009991701762719778,18.284554959544607,0.013051074203814851,0.013547782653144427
97,0.25,0.001,0.013279492066004865,0.009901674766966167,18.929287557337688,0.01351126877754296,0.013449940830469131
98,0.25,0.001,0.01331884774522532,0.010039302952099658,18.3785690720796,0.013118179209193148,0.015655480724360262
99,0.25,0.001,0.013210236425664023,0.009919739199300257,18.439946436461632,0.013161988891121794,0.01419077128438013
100,0.25,0.001,0.01325601709523339,0.00998679475779047,18.320722022645118,0.01307688938090301,0.0181892029941082
101,0.25,0.001,0.013173634763478633,0.010080422971500858,17.334357525899968,0.012372846199785844,0.015138123716626848
102,0.25,0.001,0.013233775631888238,0.009924256543086969,18.546544274395,0.013238075856099214,0.014866815214710576
103,0.25,0.001,0.013167560501704438,0.00989556983488633,18.33623559889325,0.013087962597354211,0.014059749032769884
104,0.25,0.001,0.013036811151905385,0.009859566384415031,17.80527960923817,0.012708979021583276,0.015801924679960524
105,0.25,0.001,0.013092022494739038,0.00986047794160337,18.10957681862473,0.012926179028283177,0.016869097083274807
106,0.25,0.001,0.013050421333451866,0.00980701246380956,18.17606393636324,0.012973635928881684,0.012510874308645725
107,0.25,0.001,0.012990790032206915,0.009754338702867254,18.137073694608674,0.01294580563498121,0.01169857322903616
108,0.25,0.001,0.01297169328392753,0.009825063979614442,17.633710188589408,0.012586516908343618,0.012119262080107416
109,0.25,0.001,0.012957352455189306,0.009737667308590124,18.04311500568534,0.012878740189639786,0.008927987755409308
110,0.25,0.001,0.01297908337782102,0.00978422974721911,17.903958673741414,0.01277941375713163,0.016236131079494953
111,0.25,0.001,0.012897603157485463,0.009605441411361286,18.449272578549326,0.013168645666344988,0.012823968926178557
112,0.25,0.001,0.012865863787362198,0.009722668975497823,17.614463296885454,0.012572778941388618,0.012678797955491714
113,0.25,0.001,0.01288127543296787,0.00976899381426705,17.441225388188204,0.012449125901633265,0.013881810142525606
114,0.25,0.001,0.01291915286632644,0.009682463005804444,18.138408934739736,0.01294675869717326,0.016063620602445945
115,0.25,0.001,0.012833646550230325,0.009685540391174462,17.641987750151895,0.012592425232085577,0.013787874419774328
116,0.25,0.001,0.012819599566666846,0.00964380086866449,17.797175332941396,0.012703194384683366,0.01592410448938608
117,0.25,0.001,0.012692014419330608,0.009531231422296324,17.713029227268787,0.01264313292453161,0.017094348756862537
118,0.25,0.001,0.012832841329201494,0.009612505501300397,18.04676147672331,0.012881342952693298,0.02174978783088071
119,0.25,0.001,0.01274396926258463,0.009596588207357176,17.637923440044414,0.012589524225584878,0.011964007945997375
120,0.25,0.001,0.012629034401149835,0.009593782010453024,17.009554466612695,0.01214100961214325,0.012718630755054099
121,0.25,0.001,0.012782354332431588,0.009522730135065632,18.26693542057681,0.01303849780198202,0.017292963740016733
122,0.25,0.001,0.012832999804176822,0.009686648460944894,17.632153744060986,0.012585405955789426,0.017559514247945378
123,0.25,0.001,0.01277453292827462,0.009588695152355381,17.853434819718753,0.012743351049049789,0.020466513266520842
124,0.25,0.001,0.012710674747974807,0.009577505996624379,17.558276745774585,0.012532674336741316,0.02105159977717059
125,0.25,0.001,0.012661725029311793,0.009635598675561342,16.958413169726317,0.012104506188241482,0.02103387112064021
126,0.25,0.001,0.012670547860939647,0.009458499376472057,18.00031972351843,0.012848193949691956,0.016234657194997584
127,0.25,0.001,0.012669611053649214,0.009602712715978286,17.1868993293128,0.012267594096583014,0.012297973835042544
128,0.25,0.001,0.012612357986645225,0.00946091675441196,17.66067649975832,0.012605764810676889,0.016550765106720582
129,0.25,0.001,0.012612190423650615,0.009462462956325083,17.651072816824733,0.012598909933493743,0.02197844734681504
130,0.25,0.001,0.01266133735045528,0.009510178628004618,17.65909417870663,0.012604635388084677,0.018958328823958124
131,0.25,0.001,0.0126835125655649,0.009589333565769628,17.33977983220098,0.012376716511206979,0.01551859825849533
132,0.25,0.001,0.012680652760138139,0.009524106320172024,17.689285864457677,0.012626185484980498,0.01749161650825824
133,0.25,0.001,0.012610115368923253,0.009407029848461337,17.950091393228142,0.012812342179320587,0.013821438487086977
134,0.25,0.001,0.012543054311641818,0.00945985121582107,17.2782708775787,0.012332812903339542,0.013723315538040229
135,0.25,0.001,0.012659376717034154,0.00948620877306092,17.782433219160183,0.012692671819529038,0.014649271831980773
136,0.25,0.001,0.012513408784564556,0.009437756385344552,17.23595485639212,0.012302608748317002,0.011655549452240978
137,0.25,0.001,0.012542007849915352,0.009381068363710676,17.713905262406588,0.012643758217278079,0.011353942233004741
138,0.25,0.001,0.012533481950667552,0.009369988107035683,17.72822036550988,0.012653975992512405,0.015034421879265989
139,0.25,0.001,0.0125263866825353,0.009366835371335447,17.70612602329975,0.012638205584082619,0.01528868159013135
140,0.25,0.001,0.012390017321788394,0.00926686530130486,17.502143398640438,0.01249260770780902,0.013889076986483164
141,0.25,0.001,0.012520350009127889,0.009450483924101673,17.203530030526803,0.012279464689883514,0.01997313369065523
142,0.25,0.001,0.01252740616874971,0.00942955340167287,17.360367969541766,0.012391411826939163,0.013045979264591421
143,0.25,0.001,0.01258281178734915,0.009484275718048328,17.364197137674097,0.012394144994770947,0.014786822588316031
144,0.25,0.001,0.012452243121167274,0.009233597008000017,18.03729332123956,0.01287458481173416,0.011988172972840922
145,0.25,0.001,0.01242679175955973,0.00933199892435176,17.34321943518497,0.012379171616834383,0.012628855649381876
146,0.25,0.001,0.012413397701152176,0.00934400474676107,17.200878525260713,0.012277572109393798,0.012766871202204908
147,0.25,0.001,0.012395726174341341,0.009232424898659553,17.727139912564446,0.012653204791266557,0.011384925073278802
148,0.25,0.001,0.012326039012605958,0.009255198360671775,17.208991600824543,0.012283363026998246,0.013157119508832693
149,0.25,0.001,0.012333013919611422,0.009222132123312361,17.433381971844497,0.012443527460274445,0.012195379872407233
150,0.25,0.001,0.012401100705549008,0.009317411133264114,17.28099544342579,0.012334757632709343,0.017807000183633397
151,0.25,0.001,0.012407580662697029,0.009321858039036656,17.292390184378444,0.012342890923896106,0.015072418443326439
152,0.25,0.001,0.012298949309143822,0.009175319555368022,17.50482013423737,0.012494518297100193,0.01767774298787117
153,0.25,0.001,0.012287923763564763,0.009188079695107054,17.371528183483058,0.012399377718403324,0.015136533815945898
154,0.25,0.001,0.01238173612813355,0.009281069732339166,17.37613442082249,0.012402665539487857,0.012496865753616606
155,0.25,0.001,0.012188166515990828,0.009108859093235782,17.256439021612596,0.0123172298512581,0.013499354411448752
156,0.25,0.001,0.01241727204998059,0.009303365097444513,17.450334154989015,0.012455627519620996,0.015934346509831294
157,0.25,0.001,0.01240704530704607,0.009358743003919083,17.082686738943874,0.012193209663771501,0.020796559617987702
158,0.25,0.001,0.012287771296441105,0.009166424406659542,17.49202784963459,0.012485387472972584,0.014942060357757978
159,0.25,0.001,0.012316122231183935,0.009163561950365,17.66694780441015,0.012610241116638223,0.010562153533101082
160,0.25,0.001,0.012194797326282831,0.009165110223708434,16.978366577955576,0.012118748449647092,0.011591946573129721
161,0.25,0.001,0.012308798739756986,0.00927137823245237,17.021705958945326,0.012149683054207942,0.013097844618771757
162,0.25,0.001,0.012233864196977327,0.009120366688564382,17.44804016228587,0.012453990122973498,0.01594201541904892
163,0.25,0.001,0.01224246404136083,0.00920372386873519,17.029099817540242,0.012154960612091537,0.011872556858829089
164,0.25,0.001,0.012427544690462144,0.009304877828046567,17.499424590872277,0.012490667088417043,0.019887599827987806
165,0.25,0.001,0.012447660268103747,0.009287092433562056,17.71182326405715,0.012642272137085759,0.020990758868200437
166,0.25,0.001,0.01236102836070493,0.009342334831429069,16.916759217115732,0.012074774601795669,0.017906159295567443
167,0.25,0.001,0.01236322878036526,0.009220201188993995,17.613527206689945,0.012572110782790824,0.017408556304872036
168,0.25,0.001,0.012337471473427203,0.009219661624797195,17.472207468162555,0.012471240162856927,0.01789172592439822
169,0.25,0.001,0.012343885501382183,0.009293072265795706,17.096756865455763,0.012203252580625098,0.01636015118232795
170,0.25,0.001,0.01223228298249638,0.009160597126001976,17.213727348097024,0.012286743289148482,0.013867379033139773
171,0.25,0.001,0.012136761910781751,0.009141002525985991,16.788235623530237,0.011983037561406309,0.015706535561808517
172,0.25,0.001,0.0121644953387773,0.009116826408896923,17.079136533761204,0.012190675612963029,0.015501100969101702
173,0.25,0.001,0.012066598402181411,0.009052004071623463,16.8937866537637,0.012058377340302427,0.011103783268481493
174,0.25,0.001,0.012093198563087196,0.009026840228296498,17.183873481654402,0.012265434319524912,0.009625138847955636
175,0.25,0.001,0.011970529984917388,0.008907777405055405,17.163664202846267,0.012251009423873138,0.010952337245856012
176,0.25,0.001,0.012024576325316724,0.009068021611767993,16.568532501720362,0.011826218773533449,0.013447954718555723
177,0.25,0.001,0.012089664862498227,0.008896731858327046,17.893197266220746,0.012771732524069055,0.012248131113925151
178,0.25,0.001,0.01208758768473074,0.009001553750664972,17.29413505765593,0.012344136372345417,0.013150198784257685
179,0.25,0.001,0.012029209080379766,0.008951021264534753,17.25016488236204,0.012312751522028579,0.013557641168258019
180,0.25,0.001,0.012099480629436466,0.009036104267542849,17.167161499523097,0.012253505709866592,0.01340909581631422
181,0.25,0.001,0.01209170525419697,0.00913140901202519,16.589499990045272,0.011841184860846019,0.013693864058171
182,0.25,0.001,0.012037722816132478,0.00879388170725002,18.178485577292648,0.012975364437753496,0.01123104923005615
183,0.25,0.001,0.012033502653391296,0.00901220125669346,16.931373908477706,0.01208520621590129,0.013452636477138315
184,0.25,0.001,0.012103712359813959,0.008979398624675925,17.508653477397313,0.012497254444965963,0.014136114423828465
185,0.25,0.001,0.012073235229708686,0.0089837118551623,17.313689167013095,0.01235809362384946,0.01296544008489166
186,0.25,0.001,0.012058865818516434,0.00903009032356724,16.973257530846585,0.012115101735079646,0.011997809633612633
187,0.25,0.001,0.011974048587289505,0.00891818526794463,17.125059416071895,0.012223454258438184,0.013187712989747524
188,0.25,0.001,0.01188689695028424,0.008859191697456824,16.967260644177646,0.012110821302053994,0.011486249377152749
189,0.25,0.001,0.011957643577073624,0.00904522563380093,16.321190442486433,0.011649671978933927,0.011172622575291566
190,0.25,0.001,0.012178966383771122,0.009044689942686174,17.564486823093983,0.01253710694010991,0.021783372786428248
191,0.25,0.001,0.012145252644978182,0.00899646872236987,17.645784824861387,0.012595135492406415,0.022111237182148864
192,0.25,0.001,0.012165429680526106,0.009180975655652113,16.724880525987754,0.01193781622126178,0.019867108868701116
193,0.25,0.001,0.012122837362121275,0.009045573101573686,17.24498953927374,0.012309057486990535,0.021020511830491678
194,0.25,0.001,0.012162304584227821,0.00903517669840934,17.524425448938942,0.012508512097743714,0.015991263490702425
195,0.25,0.001,0.012167467573840612,0.00902424360008474,17.61462689647146,0.012572895714826168,0.015112387681646007
196,0.25,0.001,0.012066849507391453,0.009028236482583305,17.028386793448885,0.012154451672697276,0.014999146174107279
197,0.25,0.001,0.012031737707968173,0.009036311795301642,16.786366152823422,0.011981703178317931,0.014276664704084396
198,0.25,0.001,0.011912068840050577,0.008858044510965309,17.11475246439052,0.012216097404989664,0.014344514746751105
199,0.25,0.001,0.011935618830380272,0.00896580022776157,16.64286454919003,0.011879275195710227,0.010923054801034076
200,0.25,0.001,0.011860387118284589,0.008895733358540223,16.613920427990198,0.011858615580292789,0.012129667614187514
201,0.25,0.001,0.011993131752803884,0.008905964279523875,17.300486840889494,0.012348670121976798,0.01243255047925881
202,0.25,0.001,0.011964598698752653,0.008917451090172347,17.07621539810142,0.012188590576803299,0.014939323998987675
203,0.25,0.001,0.01192994750989249,0.008850049114872886,17.25975113972008,0.012319593961256302,0.011416595761797257
204,0.25,0.001,0.012032068271180545,0.009018498707459466,16.888043684683158,0.012054278147525452,0.014220963165696179
205,0.25,0.001,0.012042549166650105,0.009095587441580422,16.514773070962363,0.011787846588838233,0.012613747268915176
206,0.25,0.001,0.011911588486387237,0.008846866773905922,17.17470071297749,0.012258887018542105,0.014854054232793195
207,0.25,0.001,0.01201012836633161,0.008904115371969095,17.406096278269885,0.012424051590485286,0.01840171018349273
208,0.25,0.001,0.011961829735984279,0.00895587359121074,16.845379060702,0.012023825168238403,0.012276711075433664
209,0.25,0.001,0.011938828200815006,0.008942556999135829,16.791103704149837,0.011985084728158341,0.011750533178980862
210,0.25,0.001,0.011800282752089747,0.008760393676946235,17.035538147318572,0.01215955613655858,0.013446623858596598
211,0.25,0.001,0.011820475441832987,0.008687889585811034,17.555011979879,0.012530344025609565,0.012486495875886508
212,0.25,0.001,0.011865262711603635,0.008897491789397124,16.631388176598538,0.011871083637829077,0.010594999550708703
213,0.25,0.001,0.011813473594503979,0.008779665161984543,17.001462162892224,0.01213523352097946,0.010230741995785917
214,0.25,0.001,0.011807563918776416,0.008755103466793032,17.105988809984336,0.012209842119903166,0.01232866377436689
215,0.25,0.001,0.011835757711015511,0.00871759742470247,17.474170281244465,0.012472641171480702,0.010217198303767614
216,0.25,0.001,0.011879085363721667,0.008824652938233214,17.117039942321007,0.012217730151549613,0.011425693852028676
217,0.25,0.001,0.011872379601902565,0.008748041144490092,17.508793746794503,0.01249735456587759,0.010486335959285498
218,0.25,0.001,0.011814145003011456,0.008751555519549162,17.162752725615608,0.012250358833415851,0.009561899583786726
219,0.25,0.001,0.01181625543626715,0.008913049755866641,16.269565784060383,0.01161282354322654,0.013146391936710902
220,0.25,0.001,0.011878747774536723,0.00880271055845905,17.23811324477496,0.012304149353872206,0.013738964418215411
221,0.25,0.001,0.011861469903937365,0.008727798606703053,17.561094043837386,0.012534685256129469,0.01147972566208669
222,0.25,0.001,0.011949026717872404,0.009023737096666389,16.39332278849796,0.01170115830727906,0.013182063986148154
223,0.25,0.001,0.011893700001296829,0.008737388409448961,17.687970384842803,0.012625246527368168,0.010331657182957445
224,0.25,0.001,0.011789114301278249,0.008781195102114071,16.856379924553167,0.012031677319452653,0.013112367929092475
225,0.25,0.001,0.011847351771551806,0.00888607279404585,16.59500792044536,0.011845116288683342,0.016304593666323593
226,0.25,0.001,0.011893318154349436,0.008745042747942267,17.64293618766727,0.012593102203902405,0.01488540122019393
227,0.25,0.001,0.011808926776820976,0.008746839381791932,17.159938091595166,0.012248349815556864,0.012575915881565638
228,0.25,0.001,0.011761280766662482,0.008794980663196266,16.623145526242197,0.01186520023286381,0.013981768861413002
229,0.25,0.001,0.011824815325270072,0.008869303843142554,16.562687304518384,0.01182204661278971,0.013909024452524526
230,0.25,0.001,0.01175126234674709,0.008670452149392525,17.26486002828372,0.012323240562657902,0.012655417168779033
231,0.25,0.001,0.011735222647224626,0.008750250198237917,16.72778624911753,0.011939890256329428,0.011387684515544347
232,0.25,0.001,0.01188718026471078,0.00885548565761944,16.989617057050808,0.012126778770200434,0.012553796571280276
233,0.25,0.001,0.011775064995273084,0.008756829948828412,16.914188769362134,0.012072939878202809,0.011300429169620787
234,0.25,0.001,0.011795662357577449,0.008750617580361646,17.0644308565846,0.012180179055378016,0.011279911534594638
235,0.25,0.001,0.01192026833536793,0.008771247784102744,17.64711087897082,0.012596081997837846,0.011649092792400293
236,0.25,0.001,0.011793863978377667,0.008774610348890351,16.91989807638173,0.012077015043812799,0.012876372252191817
237,0.25,0.001,0.011798217052814341,0.008774312668167973,16.94596060697618,0.012095617849376288,0.011935807631484099
238,0.25,0.001,0.01169585988338408,0.00872195808109018,16.665746141140648,0.011895607524011883,0.01177047605493239
239,0.25,0.001,0.011735209057421918,0.008721019066307196,16.89152014225496,0.012056759559068495,0.01150073723069259
240,0.25,0.001,0.011748016886976114,0.008730764770575375,16.908680039028678,0.012069007879392347,0.017227219018552984
241,0.25,0.001,0.01182350249121186,0.00879363766320106,16.979362670360345,0.012119459436374266,0.019173137976654937
242,0.25,0.001,0.011767732096784361,0.008748778972483853,16.918212991517496,0.012075812270890433,0.016768441535532475
243,0.25,0.001,0.011686411315589318,0.008679576307272431,16.85030367872877,0.012027340241776424,0.014830326861036676
244,0.25,0.001,0.011704287273570032,0.00871176263950859,16.770107639226264,0.011970098243559076,0.013306975098592895
245,0.25,0.001,0.011714320984066133,0.00866017279259729,17.11544664800918,0.01221659289650905,0.01147901127114892
246,0.25,0.001,0.011742336478469053,0.008714768467869807,16.96649064705414,0.012110271696683897,0.011832238041928836
247,0.25,0.001,0.011696434188024223,0.008760970013136377,16.450340991656788,0.011741856525094067,0.010367227917803186
248,0.25,0.001,0.011664656216105075,0.008653012627468301,16.877250258207923,0.012046574060105583,0.01223939870085035
249,0.25,0.001,0.011766064536736655,0.008661714963080075,17.396775973533803,0.012417398981822843,0.014255267035748278
250,0.25,0.001,0.011688920319718438,0.008632333904636146,17.129110331499305,0.012226345704139404,0.012041016614862851
251,0.25,0.001,0.011710763650873595,0.008699495713660488,16.875146159597247,0.012045072205279976,0.010964395544890846
252,0.25,0.001,0.011748969742573178,0.008682081774956258,17.186839994915786,0.012267551745121903,0.009802393748291902
253,0.25,0.001,0.011587736825517354,0.0085331736618104,17.11777373825573,0.012218253917384531,0.011789176945707627
254,0.25,0.001,0.011621787850874046,0.008655263839397458,16.624400021147068,0.011866095661061433,0.01177070542637791
255,0.25,0.001,0.011612673170432936,0.00863062713989608,16.711385981562156,0.0119281841410151,0.013506681392235416
256,0.25,0.001,0.011784452654102287,0.008688784119971003,17.348126802996966,0.012382674377585272,0.019053800563727106
257,0.25,0.001,0.01167704609295433,0.008651296244535398,16.95630230411174,0.01210299950329175,0.012794012070766516
258,0.25,0.001,0.011783421016122292,0.008801864910523597,16.70864201793142,0.011926225565975319,0.015458492429128714
259,0.25,0.001,0.01166774610747168,0.008619173920199613,17.084198997363035,0.012194289077346921,0.016481054414595877
260,0.25,0.001,0.01173926290753356,0.008810308363091586,16.413860498807892,0.0117158176294132,0.013814004537250315
261,0.25,0.001,0.011642561336364644,0.00858173193527334,17.152888420546986,0.01224331793044039,0.010666132705020053
262,0.25,0.001,0.01165835666106615,0.008522556461299997,17.57302376965732,0.012543200406607651,0.011109512166253157
263,0.25,0.001,0.01160154870995121,0.008567463031850324,17.003016193207326,0.012136342750326429,0.011036010192973273
264,0.25,0.001,0.011636540342957457,0.008687886454033612,16.524255243296587,0.011794614734687072,0.013396784796246461
265,0.25,0.001,0.011530675824440697,0.008460497549296326,17.20527953525034,0.012280713444147282,0.010729196281837565
266,0.25,0.001,0.011735554174602182,0.008737026974183486,16.803746814391474,0.01199410907522589,0.014842730281608445
267,0.25,0.001,0.011586979463208533,0.008586161129495659,16.816586559305264,0.01200327377537849,0.014735819904931955
268,0.25,0.001,0.011568772700387675,0.008641711114823668,16.403253132510244,0.011708246347259275,0.01345835067331791
269,0.25,0.001,0.011621686852811565,0.008634755839488143,16.738760969800975,0.01194772374718128,0.011659483558365278
270,0.25,0.001,0.011610464129587566,0.008548352663271523,17.160072686990503,0.012248445886502857,0.012562273336308343
271,0.25,0.001,0.01154773246252942,0.008501716288890437,17.069875832468796,0.01218406554780071,0.01061816799587437
272,0.25,0.001,0.011521905165644226,0.008593074756883253,16.413166300776023,0.011715322127606013,0.010229983766164099
273,0.25,0.001,0.011548392221294062,0.00858238290746694,16.621516537606265,0.01186403750007585,0.01208619646994131
274,0.25,0.001,0.011567747989852422,0.008458379266656917,17.424902264957765,0.01243747485007692,0.0136583290461983
275,0.25,0.001,0.011706379723151025,0.008698281156419957,16.85738407874888,0.012032394060491705,0.01536098335470472
276,0.25,0.001,0.011608432607739338,0.008568991730998385,17.03302664960962,0.012157763490085382,0.015490690911454814
277,0.25,0.001,0.011628456078282081,0.008714762218390364,16.328341222229774,0.011654776032997697,0.014792776134397303
278,0.25,0.001,0.01158024026292097,0.008440200811819705,17.59678208858,0.012560158521470377,0.015097743698528834
279,0.25,0.001,0.011653254303602638,0.008763283509901848,16.195396413731036,0.011559883236067834,0.016522274086517946
280,0.25,0.001,0.011568906733423697,0.00861534715562083,16.551749169376095,0.011814239235814485,0.013126916385122709
281,0.25,0.001,0.011554658366015335,0.008543422372931948,16.87496650128881,0.012044943969513782,0.011799775862268038
282,0.25,0.001,0.011605039597852555,0.008637590331473488,16.629585636052436,0.011869797027874687,0.013384737207421235
283,0.25,0.001,0.011584604013551693,0.00851636759289341,17.19439828425871,0.01227294666970643,0.013365075258272035
284,0.25,0.001,0.011634642671164997,0.00859839814510994,17.01511422933199,0.012144978036639536,0.00950643147474953
285,0.25,0.001,0.011575711201360304,0.008541956346866766,17.001162022127012,0.012135019287742336,0.0147864102119846
286,0.25,0.001,0.011623840971429943,0.008618979210442199,16.839245207664046,0.012019446971922945,0.0164004722610116
287,0.25,0.001,0.01168947203333492,0.00876667247310994,16.379368481768168,0.011691198059791698,0.016954525240830014
288,0.25,0.001,0.011657054517277393,0.008519653768116791,17.581993842905653,0.012549603028483692,0.01749979638095413
289,0.25,0.001,0.011502922995846428,0.008463593603344048,17.03240151969852,0.012157317287436489,0.010425469039806299
290,0.25,0.001,0.01144501516684627,0.008491551353401442,16.551210955948914,0.0118138550720549,0.012373828395668949
291,0.25,0.001,0.011568243828806229,0.0086055276845054,16.603060715144466,0.01185086417926086,0.012630560036216463
292,0.25,0.001,0.011510944416188173,0.008488593097560351,16.937256541600455,0.01208940509750211,0.01201924036390015
293,0.25,0.001,0.011533314732820621,0.008562897770696083,16.64621572470485,0.011881667183943503,0.013076545271490301
294,0.25,0.001,0.011521478584716542,0.008559038442669798,16.60151528471363,0.011849761088303806,0.010454614912824971
295,0.25,0.001,0.011506955707046938,0.008422024516384082,17.28795441932582,0.012339724781817146,0.010803635498242719
296,0.25,0.001,0.011546838040972687,0.00862991542881472,16.346434792583477,0.011667690786997484,0.011348706936197621
297,0.25,0.001,0.011385949947859538,0.008357672852414757,16.97046527814505,0.01211310869246613,0.011451462882437877
298,0.25,0.001,0.011475530889363823,0.00848483949106759,16.7598346210547,0.011962765611031193,0.010301771041538035
299,0.25,0.001,0.011401970338273408,0.008480502240904032,16.37190818786621,0.01168587308198873,0.01010567182675004
300,0.25,0.001,0.011415299788230013,0.008468813703909178,16.512107930795974,0.011785944276085635,0.011863990021603448
301,0.25,0.001,0.011368198076295914,0.00837035920067458,16.79988859642663,0.011991355172324504,0.015066201066864389
302,0.25,0.001,0.01148426877123583,0.008544154799489365,16.47639926074434,0.011760456288896746,0.013750189649207252
303,0.25,0.001,0.01159681551045825,0.008590592148828716,16.846875178723852,0.012024893061187618,0.014423287739711148
304,0.25,0.001,0.011549492927282223,0.008460896604598244,17.308492593260798,0.01235438443487566,0.012865020693945033
305,0.25,0.001,0.011543504867974848,0.008605836447262644,16.462693778934046,0.011750673646633866,0.014392888306507043
306,0.25,0.001,0.011474949023885751,0.008401623884830577,17.222914743783793,0.012293301030538039,0.014129410630890302
307,0.25,0.001,0.011546297308517342,0.008570881675393965,16.674229179881983,0.011901662512406841,0.013592299606118883
308,0.25,0.001,0.011505047530311181,0.008457913902126047,17.07613779255365,0.01218853518383558,0.011365898086556367
309,0.25,0.001,0.011418147500538706,0.008361212252369455,17.131064412575824,0.012227740480068397,0.010903860508863415
310,0.25,0.001,0.011447115995984533,0.00859268687627928,15.996221816209461,0.011417717213568495,0.011250343306788377
311,0.25,0.001,0.01148247510964234,0.008450168358532698,16.99304801691089,0.012129227706574512,0.012381304454590594
312,0.25,0.001,0.01142453767302955,0.008358984857197072,17.179357819353,0.012262211148717346,0.014074301081044334
313,0.25,0.001,0.011390720212583428,0.008493235034478701,16.23750896117549,0.011589942156442176,0.01179306089345898
314,0.25,0.001,0.011493415489642686,0.00840720008491006,17.295151717716863,0.012344862039769353,0.012609794336770262
315,0.25,0.001,0.011373181236199377,0.008402789842046478,16.646074208564663,0.011881566173136805,0.010439220616327865
316,0.25,0.001,0.011457364274287405,0.008489390796458616,16.632522784792805,0.011871893493785014,0.011969117979918207
317,0.25,0.001,0.011525619758635534,0.008577197848793391,16.522957693719743,0.011793688575103314,0.012623223875250136
318,0.25,0.001,0.011435141686059216,0.008448084769418617,16.73946745509765,0.011948228019341648,0.011681573997650827
319,0.25,0.001,0.011425835171934939,0.008386902349252694,17.030179549824982,0.012155731298947169,0.01154480395572526
320,0.25,0.001,0.011433402486896185,0.008452181216395021,16.706764643979014,0.011924885541740909,0.010975926449256284
321,0.25,0.001,0.011473002555013004,0.00847394657684889,16.806709856470526,0.011996224023176677,0.012634093407541513
322,0.25,0.001,0.011470490876557094,0.008372998660341168,17.35834703997941,0.01238996933617374,0.01434043568692037
323,0.25,0.001,0.011428989751513118,0.00840271283081857,16.95925524252788,0.012105107239491706,0.009559724479913712
324,0.25,0.001,0.011517274303723042,0.008589017531020515,16.409952230957952,0.011713028002111315,0.01449419411697558
325,0.25,0.001,0.011376882171356859,0.008242022874823746,17.567751790774558,0.012539437395270919,0.016110244606222426
326,0.25,0.001,0.011420825796591245,0.008555063977837563,16.059729871581723,0.011463047731321716,0.012271926206137453
327,0.25,0.001,0.011336591507610806,0.008335543250998187,16.81787466102043,0.012004193191306516,0.00940700460757528
328,0.25,0.001,0.011315457546328117,0.008343854231727062,16.65286570051755,0.011886413776243792,0.010463750854666744
329,0.25,0.001,0.01137719482596335,0.008425548738361306,16.541025176156378,0.011806584708177286,0.01247042537267719
330,0.25,0.001,0.011449187487288747,0.008477732208404943,16.652035826099308,0.011885821431905287,0.014285597950220108
331,0.25,0.001,0.011383116139704245,0.008413638978239421,16.64095020053969,0.011877908779828474,0.013965119474700518
332,0.25,0.001,0.011421720753013337,0.00847779317367212,16.497770035597178,0.01177571023240341,0.015151806973985263
333,0.25,0.001,0.01133285379107638,0.008390418182289045,16.489408483433184,0.01176974195819642,0.013636444296155657
334,0.25,0.001,0.011429944246894766,0.008494215970507046,16.451821569831907,0.011742913326075594,0.0155207488153662
335,0.25,0.001,0.011338394641951289,0.008263754542278928,17.23028400142487,0.012298561028854297,0.012086735240050725
336,0.25,0.001,0.011295124006361444,0.00839173923990213,16.270568208670436,0.011613539049729076,0.012908080193613256
337,0.25,0.001,0.01141937749380579,0.008417646388900971,16.82170108343552,0.012006924399311577,0.014433559030294418
338,0.25,0.001,0.011382386787449683,0.008391907100826126,16.758648845951264,0.011961919233369924,0.012844206765294075
339,0.25,0.001,0.011293116562837918,0.008345381992514849,16.51910342017109,0.011790937487631041,0.012029115443250962
340,0.25,0.001,0.011403165954711756,0.008463791752191875,16.47225334302004,0.011757497032847994,0.013905810990503855
341,0.25,0.001,0.011417397314340102,0.008413816281413702,16.832067314263256,0.012014323564784622,0.011903034656175546
342,0.25,0.001,0.011355342395059408,0.008383179179648459,16.65600218880987,0.01188865252591711,0.011299746576696634
343,0.25,0.001,0.01138669249580549,0.008338529677587733,17.08190541303428,0.01219265197218721,0.013318263659519809
344,0.25,0.001,0.011276192273428519,0.008292250379788636,16.7220106196944,0.011935767751387867,0.014828401085521494
345,0.25,0.001,0.011422048850684081,0.00844237659013917,16.69808208311835,0.011918688139270772,0.01691691324646984
346,0.25,0.001,0.01131424402362979,0.0083023789256661,16.878492475456795,0.012047460724808562,0.014513504159237658
347,0.25,0.001,0.011289299836368194,0.00840842002951153,16.14445043030554,0.011523519222202384,0.01115240209868976
348,0.25,0.001,0.01138987488369047,0.008361701825422514,16.969881867281437,0.012112692267866836,0.013575708294021232
349,0.25,0.001,0.011344549712966612,0.008407499052358965,16.459231302179678,0.011748202214261013,0.011351605677711112
350,0.25,0.001,0.011349545102050383,0.008364429817035307,16.72858707610546,0.011940461867312962,0.013138973220650638
351,0.25,0.001,0.01136793869474823,0.008425251255867539,16.490820709343822,0.011770749970980602,0.015581318443374974
352,0.25,0.001,0.0112762179891919,0.008271783198551357,16.83685239556454,0.012017739040374405,0.014450863535915102
353,0.25,0.001,0.0113437557569529,0.008385894526856522,16.575854313463648,0.011831444906112525,0.013970305610980307
354,0.25,0.001,0.011269950922531656,0.008332673047366611,16.46050659054773,0.011749112484331,0.014001555740833282
355,0.25,0.001,0.011308793808974007,0.008303363502532319,16.842431373500105,0.012021721180228484,0.015084038621612958
356,0.25,0.001,0.011396140329333337,0.008478344425146165,16.351327872096142,0.011671183349105026,0.014824253107820238
357,0.25,0.001,0.011330073251288094,0.00832061920202424,16.864980197973757,0.012037815987133303,0.013639195822179317
358,0.25,0.001,0.011299355040006433,0.008339625642510595,16.586324480378657,0.011838918258657143,0.014976141708237784
359,0.25,0.001,0.011491947929358452,0.008556481634949332,16.450353305345818,0.01174186531430822,0.013325899174170834
360,0.25,0.001,0.011405287486423624,0.008296629337720591,17.420920412846716,0.012434632700104722,0.013780724789415087
361,0.25,0.001,0.011385477314555375,0.00844115464917621,16.499984404902616,0.011777290795790589,0.010870488094432014
362,0.25,0.001,0.01124850018724086,0.008215517161052758,16.996836960165567,0.012131932162859077,0.010738383180328779
363,0.25,0.001,0.01124664833088891,0.00836260255979801,16.162192539243915,0.011536183111523136,0.012699466464774949
364,0.25,0.001,0.011421743285389481,0.008405111282031693,16.905204652839103,0.01206652723257609,0.015878335838871344
365,0.25,0.001,0.011363548308761054,0.00831706484226083,17.07249309434098,0.012185933686182,0.01752515829035214
366,0.25,0.001,0.011484000953829258,0.008540920153147627,16.493024263934466,0.011772322815085272,0.017816330705370222
367,0.25,0.001,0.011274097865020448,0.008226226116776916,17.080273611419447,0.012191487231562775,0.010928814432450704
368,0.25,0.001,0.011385873372969159,0.008370285290727386,16.89935603490104,0.012062352630193462,0.012699472584894725
369,0.25,0.001,0.011308830860129532,0.008288304251090856,16.92703074592187,0.012082106171250441,0.01313815957733563
370,0.25,0.001,0.011352965725534209,0.008332386517883173,16.927325457709863,0.012082316529414605,0.01355180556752852
371,0.25,0.001,0.011279009972283762,0.00831672014382384,16.60067265700333,0.011849159640973111,0.014179460305188383
372,0.25,0.001,0.01122972505490861,0.008313194063893269,16.344239621678888,0.01166612392696566,0.012994985761387008
373,0.25,0.001,0.011272795268472857,0.00826451248519817,16.85841754461716,0.012033131723495476,0.013231216464191675
374,0.25,0.001,0.011364040708624446,0.008326908071485515,17.020092406861426,0.012148531339658406,0.013555174294326986
375,0.25,0.001,0.011334835887142933,0.008350007109325238,16.72697948388549,0.011939314406770514,0.016324688281331743
376,0.25,0.001,0.011271762265178658,0.008254802516035229,16.907042174255217,0.01206783881103156,0.011421965435147285
377,0.25,0.001,0.01129764479394974,0.008336154500055374,16.596192086073252,0.011845961517539794,0.011420472192444972
378,0.25,0.001,0.011230526459157017,0.008267234207391363,16.606289539289115,0.011853168836037912,0.011837466087724482
379,0.25,0.001,0.011303209244585609,0.00829399000004084,16.863665064276017,0.012036877276428277,0.01214083590145622
380,0.25,0.001,0.011354736753877825,0.008439303471962511,16.338088273401524,0.011661733242970396,0.013372730064604963
381,0.25,0.001,0.011316285316154398,0.008156872258265913,17.705351625341613,0.012637652837502936,0.015121490029352052
382,0.25,0.001,0.011210903966381807,0.008301259994375466,16.305644638292137,0.011638575758952274,0.01764943583735398
383,0.25,0.001,0.011281383693011793,0.00837955021555125,16.261875118957057,0.011607334132017885,0.020014242535190924
384,0.25,0.001,0.011322743149112994,0.008363973902965373,16.580943734579783,0.011835077612119759,0.013631678186357021
385,0.25,0.001,0.011309057436601941,0.008312338007196446,16.79361498325838,0.011986877218599843,0.016488516038017615
386,0.25,0.001,0.011304940859451702,0.00839923244082282,16.283589831527596,0.011622833569969734,0.013248907003019537
387,0.25,0.001,0.011285315636048088,0.00827845966124377,16.850420058224003,0.012027423310652393,0.01588214375078678
388,0.25,0.001,0.01142244081784706,0.008410760034954818,16.877458553170076,0.012046722736024322,0.01634899473616055
389,0.25,0.001,0.011342326655364608,0.00833161629417381,16.872021259528864,0.012042841727001331,0.017172283492982388
390,0.25,0.001,0.011371870834840184,0.008413241897012935,16.580156463219478,0.011834515676816187,0.02094261907041073
391,0.25,0.001,0.011300611757774196,0.008400477948704129,16.252350276303233,0.011600535529124363,0.014480503275990486
392,0.25,0.001,0.01122056069767445,0.008117816503621844,17.387778740986167,0.012410976974294195,0.013880599556224687
393,0.25,0.001,0.011251477149294066,0.008365501674309711,16.173007230013983,0.011543902376883642,0.017834093687789782
394,0.25,0.001,0.011235974646954602,0.008278275344999371,16.57494652121133,0.011830796945903877,0.014162885690374034
395,0.25,0.001,0.011215334772237903,0.008245674163684887,16.641978703458,0.011878642900398287,0.010811079160443373
396,0.25,0.001,0.01121914072633165,0.00830376470081452,16.337767564980147,0.011661504329036508,0.013355054094323091
397,0.25,0.001,0.011265309663578605,0.008260243865532299,16.84038915562089,0.012020263494376082,0.018926597200334072
398,0.25,0.001,0.011258475125886932,0.008383958394022221,16.108791139924556,0.01149806648103109,0.01644866820424795
399,0.25,0.001,0.011208623323955523,0.008292421135554085,16.342397439990297,0.011664809022120127,0.011017941603703158
400,0.25,0.001,0.011245153236768259,0.008223093898324131,16.9356208676355,0.01208823759288758,0.01082185429653951
401,0.25,0.001,0.011246948965100256,0.008285741708816149,16.594605256087835,0.011844828876579469,0.01191747241786548
402,0.25,0.001,0.011131597689871374,0.008104701744631796,16.96272522136006,0.01210758402666671,0.011527667088168008
403,0.25,0.001,0.011119586173961084,0.00822531388396918,16.21950211032512,0.011577089300731706,0.011030573198305709
404,0.25,0.001,0.011150788166266995,0.00823341318704094,16.348969452327083,0.011669499965972222,0.013231987931898661
405,0.25,0.001,0.01119993038015717,0.008178111801501036,16.934271685122244,0.012087274578959488,0.012380448968282767
406,0.25,0.001,0.011207788610263196,0.008249448007089965,16.578540821219573,0.011833362470535028,0.011895648203790188
407,0.25,0.001,0.011184277458665353,0.008241660735788064,16.4904238799357,0.011770466723722842,0.012364806474319525
408,0.25,0.001,0.011087226791668599,0.008175772441180437,16.315790988335984,0.01164581797882654,0.010124406045568841
409,0.25,0.001,0.011103694697827926,0.008250252744863256,15.990688890894354,0.01141376794496385,0.011408690296645676
410,0.25,0.001,0.011161109158107706,0.008206609045378207,16.55701987509163,0.011818001338395168,0.012489506974816322
411,0.25,0.001,0.011118710653326223,0.008194729329206481,16.385991478446748,0.011695925395036937,0.01269103613282953
412,0.25,0.001,0.011134762720437135,0.008153839231532076,16.70509686938461,0.011923695124471528,0.012770508016858782
413,0.25,0.001,0.011213726258510607,0.008267121452847566,16.51277326876931,0.011786419178279306,0.012794811544673783
414,0.25,0.001,0.011116006369385822,0.008185806876559853,16.42083903584132,0.011720798740786095,0.015901714696415832
415,0.25,0.001,0.011235746336861582,0.008194352333581718,17.04397172231218,0.012165575818923753,0.014016507459538323
416,0.25,0.001,0.011357655919975687,0.00832744073638838,16.98132691275263,0.012120861465205301,0.01640789190839444
417,0.25,0.001,0.011291186827274804,0.008267828178889956,16.942902139812634,0.01209343478930238,0.017173694912344217
418,0.25,0.001,0.01118574672676529,0.008150368128957166,17.010261434752035,0.012141514228945065,0.013231549611581224
419,0.25,0.001,0.011262074056590535,0.008348154014337724,16.32960749273036,0.01165567986633145,0.014509451442531176
420,0.25,0.001,0.011352852106526007,0.008390909002188321,16.5987300104098,0.011847773026702212,0.019580897875130177
421,0.25,0.001,0.011247879009158995,0.00820186014946372,17.069891264216427,0.012184076562609869,0.014104817062616348
422,0.25,0.001,0.011100284070226948,0.008144056530064088,16.56669967901196,0.011824910548902185,0.010850803128310613
423,0.25,0.001,0.011087485187937991,0.008169872083370422,16.35030430330137,0.011670452750393556,0.011545415169426374
424,0.25,0.001,0.011160351495523597,0.00819432070145679,16.62163694559477,0.011864123444393125,0.011256344416843993
425,0.25,0.001,0.011136287469088431,0.008195900595195647,16.477927796486345,0.011761547320832509,0.011772261134215764
426,0.25,0.001,0.011186027861850087,0.00821376013421742,16.656587701600504,0.011889070450821201,0.014611933380365372
427,0.25,0.001,0.011172191767721091,0.008209891014401649,16.600732644799375,0.011849202458814686,0.014561825431883335
428,0.25,0.001,0.011155414798529233,0.008298846280732443,16.008210220625177,0.01142627424741269,0.01323739971433367
429,0.25,0.001,0.01112800608541563,0.00812246310536372,16.84306324399088,0.012022172194140528,0.010642457753419876
430,0.25,0.001,0.011109921105337383,0.008131448106760492,16.691361766017653,0.01191389133905614,0.013873224811894553
431,0.25,0.001,0.01122805532021096,0.008288280597374182,16.474497915215096,0.01175909915432912,0.01651074524436678
432,0.25,0.001,0.011197799382736011,0.008164390241281513,16.99922577259823,0.01213363723954192,0.01661116031131574
433,0.25,0.001,0.01128563537996647,0.008350315269186004,16.449533995813326,0.011741280510930282,0.017116518691182137
434,0.25,0.001,0.0112942532877853,0.008281245217740686,16.884897409818635,0.012052032412433002,0.01454856339842081
435,0.25,0.001,0.011048370200474406,0.008142035660950904,16.287099401056015,0.011625338616028562,0.012005472289664405
436,0.25,0.001,0.011148464537556435,0.0081570914650913,16.76365561209037,0.011965492942248659,0.010785287379154138
437,0.25,0.001,0.011145019941313441,0.008073382850229665,17.21345524823936,0.01228654907083466,0.0105419269363795
438,0.25,0.001,0.01112688754119861,0.008217407327135955,16.304726646288817,0.011637920518407435,0.010459475352295808
439,0.25,0.001,0.011081673474677414,0.008190769786648545,16.20062312070909,0.0115636139334112,0.013015865481325559
440,0.25,0.001,0.011151585638785842,0.008261294981525736,16.197189652949795,0.01156116320695917,0.012286863223250424
441,0.25,0.001,0.011139158731894168,0.008158400546881354,16.70416838215941,0.011923032392690514,0.011678163361336504
442,0.25,0.001,0.011121078943294152,0.008121230273556799,16.81115232606979,0.01199939495079928,0.011480438057333231
443,0.25,0.001,0.011089071101258023,0.00809786682455831,16.762708512601684,0.011964816925483,0.01463632086025817
444,0.25,0.001,0.011134308518874706,0.008201436970092037,16.435812094950254,0.01173148614914365,0.013838620989450387
445,0.25,0.001,0.011153397223060618,0.008141411744029981,16.879167138779493,0.01204794228321163,0.013978253517832075
446,0.25,0.001,0.011187079383684346,0.008208837580658327,16.690067589132852,0.011912967586818595,0.01524246044989143
447,0.25,0.001,0.011133569494471592,0.008185055286339683,16.523473785265868,0.011794056948797907,0.015598323595310961
448,0.25,0.001,0.011154133817110614,0.00827838213509066,16.11571311470243,0.011503007219630572,0.01712339823799474
449,0.25,0.001,0.011146279014365499,0.008087458233266918,17.141632195383835,0.012235283508482395,0.013078260501580579
450,0.25,0.001,0.011098689545105477,0.008162004735921357,16.457181707137178,0.011746739262767435,0.012828491628170013
451,0.25,0.001,0.011183081964213842,0.008182270207233559,16.816550358116476,0.012003247935843309,0.013620102112846715
452,0.25,0.001,0.011180276255257034,0.008181925149873762,16.80275990080173,0.011993404640115437,0.014174026171011584
453,0.25,0.001,0.011254360115798355,0.008239322161344197,16.8962728082383,0.012060151897386368,0.01647053486002343
454,0.25,0.001,0.011255610471483442,0.008221368052027838,17.003895118194503,0.012136970105777661,0.01623035115855081
455,0.25,0.001,0.011120825792458705,0.008127866843034999,16.77254233852742,0.011971836073181598,0.015558670141867228
456,0.25,0.001,0.011141250975035901,0.008186479082673562,16.55854248700274,0.011819088142043355,0.011860309168696404
457,0.25,0.001,0.011245971939688366,0.008244071370436427,16.822651394668693,0.012007602708542965,0.014085728808173112
458,0.25,0.001,0.011210500438620222,0.008198620803109945,16.878574126313254,0.012047519005220024,0.013599064068070479
459,0.25,0.001,0.01122311968590961,0.008210639309804296,16.88194058704136,0.012049921903669778,0.012531014425413949
460,0.25,0.001,0.011052599200223496,0.008068323468493874,16.723880808659704,0.011937102647151823,0.011729983080710684
461,0.25,0.001,0.011194912864538074,0.008289527547984414,16.281778551769495,0.011621540722176657,0.013916797137686185
462,0.25,0.001,0.01110175705188768,0.008145664818584919,16.565940828107166,0.011824368899434095,0.012867218415652002
463,0.25,0.001,0.011059655193286368,0.008107341624214608,16.544765049624502,0.01180925413963205,0.013745908425854785
464,0.25,0.001,0.011157847232459774,0.00825621502506793,16.260745834043103,0.011606528075691009,0.013835995524589504
465,0.25,0.001,0.011126805716182483,0.008022197790828625,17.3982223923921,0.012418431400708137,0.01292919713471617
466,0.25,0.001,0.011154009934786886,0.008222343613597699,16.429057805904513,0.011726665100574242,0.01499345592622246
467,0.25,0.001,0.011189076587351354,0.008176942018121105,16.880001976147707,0.012048538169984087,0.014502615933971745
468,0.25,0.001,0.011141705500332624,0.008130434116991402,16.875164867948826,0.012045085558849982,0.01572211499192885
469,0.25,0.001,0.011172678743862085,0.008289870623058125,16.155256898337107,0.011531232618370526,0.013593725061842374
470,0.25,0.001,0.011186995724173877,0.008146777488666608,17.037383139583866,0.012160873047525958,0.019246757961809635
471,0.25,0.001,0.011255082008088717,0.00820579383550423,17.08821121331126,0.012197152900293549,0.02091640779482467
472,0.25,0.001,0.011097626640961061,0.008154404261653835,16.493819171895908,0.011772890201210497,0.016455706475036486
473,0.25,0.001,0.011141792568436799,0.008182172175562502,16.58571332888279,0.011838482033463804,0.011742864402809314
474,0.25,0.001,0.011092574551457571,0.008142023736737686,16.53488745317051,0.011802203749586373,0.012983879074454308
475,0.25,0.001,0.011039672288058387,0.00811350324381171,16.39825071195511,0.01170467574015354,0.013124346200908934
476,0.25,0.001,0.011112275695245272,0.00813897005200236,16.66240463449012,0.01189322243718067,0.013509469372885568
477,0.25,0.001,0.01108409700122303,0.008111535658313886,16.658233416771107,0.011890245122606072,0.010907699553562062
478,0.25,0.001,0.01108313928022793,0.0081091346148805,16.666322410256797,0.011896018851004138,0.014965798306678022
479,0.25,0.001,0.011048297930311797,0.008142377180692457,16.284780199641844,0.01162368322601131,0.014779441723866122
480,0.25,0.001,0.011120239999942876,0.008124581039636878,16.78767450990845,0.011982637052040291,0.01765440377805914
481,0.25,0.001,0.01114762468164979,0.008242529481461727,16.280154254634674,0.011620381338069004,0.013149447606078215
482,0.25,0.001,0.010979359634032928,0.00804467092476954,16.445996471856642,0.011738755511674977,0.011400605817990643
483,0.25,0.001,0.011032043545687528,0.008126244399349395,16.284098507475193,0.011623196650589003,0.01266935161714043
484,0.25,0.001,0.011025356217956063,0.008116321208926683,16.30223275191838,0.011636140436772576,0.012013608988906656
485,0.25,0.001,0.01106445181889633,0.008121601404429832,16.49173249886078,0.011771400784340314,0.011287333377237831
486,0.25,0.001,0.011089119135920587,0.008193372046194915,16.22776691619335,0.011582988519766845,0.012283537004675184
487,0.25,0.001,0.011045382604453365,0.00801416877797929,16.986922276110132,0.012124855300578252,0.010495858333472694
488,0.25,0.001,0.011119759198212504,0.008270491585510804,15.967297025531606,0.011397071395811281,0.01525340641715697
489,0.25,0.001,0.011023725664491767,0.008039133433224422,16.725654770204944,0.011938368858104885,0.010063587022679192
490,0.25,0.001,0.011094206887806393,0.008109922211157436,16.723930575084925,0.0119371381692255,0.011174654455057212
491,0.25,0.001,0.011076095295830698,0.008079660771372411,16.792018585301165,0.01198573774825208,0.01134104042180947
492,0.25,0.001,0.01110295600419681,0.008153207023025159,16.530393408287683,0.011798996008770652,0.01341783521430833
493,0.25,0.001,0.011111798468667554,0.008112835357674123,16.806189991064578,0.01199585295579199,0.011828944087028503
494,0.25,0.001,0.011075313369595734,0.008072513101683455,16.82769268525938,0.012011201060142312,0.010174740771097797
495,0.25,0.001,0.011098231411813488,0.008156394365452398,16.486054110587094,0.01176734768778522,0.01365155354142189
496,0.25,0.001,0.011139045948026612,0.008168478996049547,16.647056906289357,0.011882267599064494,0.013001772042896067
497,0.25,0.001,0.011146863612817878,0.008165400984324046,16.708118359448026,0.011925851791183458,0.013598063162394933
498,0.25,0.001,0.011231610204283177,0.008133957894420443,17.359244183268896,0.012390609695409633,0.015218758689505714
499,0.25,0.001,0.0111530682034509,0.008145425703273312,16.854828145101628,0.012030569696717792,0.017842773215046952
500,0.25,0.001,0.01105577303026275,0.008194195263800903,16.036281511225088,0.011446310857405488,0.014465161732264928
