epoch,beta,learning_rate,train_loss,train_reconstruction_loss,train_kl_unnormalized,train_kl_normalized,mean_unclipped_gradient_norm
1,0.0,0.001,0.06928137768421495,0.06928137768421495,20.43520677240589,0.014586157582017053,0.11113256588578224
2,0.02,0.001,0.045869575947020125,0.04282173303737922,213.5014196468305,0.15239216248881549,0.11291618691757321
3,0.04,0.001,0.04024504304309435,0.03667408866092626,125.07269596148141,0.08927387292040072,0.10579012054949999
4,0.06,0.001,0.0376908966037543,0.0338466178924474,89.76390658350434,0.06407131090899668,0.06730492459610105
5,0.08,0.001,0.036349529172549265,0.0329072942745082,60.28213830939828,0.04302793598101233,0.05870477110147476
6,0.1,0.001,0.03499960319339475,0.032350592252322896,37.11263986579476,0.026490106970588696,0.04036096902564168
7,0.12,0.001,0.03375659964758636,0.03162721696973853,24.86054060730753,0.017744854109427218,0.03299871273338795
8,0.14,0.001,0.032430948414505785,0.030155752404329647,22.768212161486662,0.01625140054353081,0.02209891879465431
9,0.16,0.001,0.030321675466711513,0.02791811892849232,21.04614017985541,0.015022227109104504,0.021265457151457667
10,0.18,0.001,0.02851795691226605,0.02564021253384618,22.39844308523186,0.015987468297810035,0.02381066232919693
11,0.2,0.001,0.02721064088999722,0.023943523290853964,22.886157812448495,0.016335587303674872,0.02202167664654553
12,0.22,0.001,0.026180760211896796,0.022905584479748952,20.856914673173478,0.01488716250761847,0.014945471659302711
13,0.24,0.001,0.025439737034560757,0.02211133083367901,19.429570998823593,0.01386835902842512,0.016582085052505136
14,0.25,0.001,0.02461001777604914,0.021162132272803332,19.321947910614657,0.013791540264535801,0.03839680925011635
15,0.25,0.001,0.02367280515594573,0.02024745179599599,19.195680392945366,0.013701413556706185,0.03384369215928018
16,0.25,0.001,0.022596769160610715,0.01917461694104259,19.177742221687414,0.013688609722831844,0.03396859858185053
17,0.25,0.001,0.02149747864575074,0.018133964318829247,18.849134276184856,0.013454057299204037,0.03771361126564443
18,0.25,0.001,0.02101538306738757,0.017662783801744256,18.787965726248824,0.013410396663989167,0.026244084641803056
19,0.25,0.001,0.020411132571566456,0.017004471511937645,19.0909271964544,0.013626643252287221,0.033113632700406015
20,0.25,0.001,0.02024804363773845,0.016945231195051962,18.508960570967147,0.013211249515322732,0.036860687541775405
21,0.25,0.001,0.01994151214161251,0.016711169154332156,18.102841936586277,0.012921371831967364,0.03236219263635576
22,0.25,0.001,0.019728924442507043,0.016444522635971945,18.40578753636356,0.013137607092336589,0.026272942021023482
23,0.25,0.001,0.01956453836888452,0.0163609684731827,17.952806062336208,0.012814279844636836,0.032616991898976266
24,0.25,0.001,0.019500368553752135,0.016114197820739404,18.976102812883724,0.013544684377504442,0.026050815591588616
25,0.25,0.001,0.019105782630197108,0.015795299783349037,18.55194577084312,0.013241931313949407,0.013449952006340027
26,0.0,0.001,0.015375442417802187,0.015375442417802187,23.130802862754855,0.016510209038368917,0.02419466630090028
27,0.02,0.001,0.01466904160908506,0.01406793740778407,42.10733965781168,0.030055203181878428,0.019039148348383605
28,0.04,0.001,0.015143784356425332,0.013410026038592123,60.72488614174887,0.04334395870217621,0.02608996455091983
29,0.06,0.001,0.015711659023278875,0.01320684444599388,58.48741998149373,0.041746909337254626,0.019858362735249102
30,0.08,0.001,0.0158891414885531,0.013446329955310258,42.77974024905434,0.030535146501823228,0.028796135331504047
31,0.1,0.001,0.016068288852079508,0.013796566144606484,31.826836316394402,0.022717227920338617,0.0297275607008487
32,0.12,0.001,0.016455778490579078,0.014030310172068922,28.317341108362385,0.020212234909609127,0.02359873743262142
33,0.14,0.001,0.016576945679537356,0.013787594447030297,27.913438668230917,0.01992393909224191,0.018966993549838662
34,0.16,0.001,0.016788679894201363,0.01385339055571878,25.702131182835576,0.018345561158340882,0.012070971890352666
35,0.18,0.001,0.01715994630213277,0.014098018274214197,23.832001778646863,0.01701070790767085,0.015337176155298948
36,0.2,0.001,0.017413644277282404,0.01408762981887231,23.29873147795472,0.016630072432515863,0.011813035001978278
37,0.22,0.001,0.01763757161073041,0.014190688910049225,21.95037445036168,0.01566764771617536,0.022775080404244363
38,0.24,0.001,0.01775048157585321,0.014273983391025398,20.294059141778746,0.01448540980855014,0.016016870620660484
39,0.25,0.001,0.01772614232095485,0.014258710753942843,19.43148598489882,0.013869725899285382,0.01703563320916146
40,0.25,0.001,0.01779681571488139,0.014370346889842915,19.201931064138936,0.013705875135002809,0.025138592580333352
41,0.25,0.001,0.01769969426881412,0.014298894293291911,19.058080793936043,0.013603198282609596,0.02665724273538217
42,0.25,0.001,0.017599639698925904,0.014161332840500753,19.268272005556003,0.013753227698469667,0.02006045402958989
43,0.25,0.001,0.017551973658586354,0.014208113790375773,18.738990180100068,0.013375439100713824,0.022112899576313794
44,0.25,0.001,0.017482764539524975,0.014124084256180731,18.822045008341473,0.013434721633362935,0.029260412673465908
45,0.25,0.001,0.017266540399080592,0.013924303975443548,18.729892706569238,0.01336894554358975,0.021397887729108334
46,0.25,0.001,0.017112102029444295,0.013949516433672312,17.72313092630121,0.012650343273591156,0.025585097377188504
47,0.25,0.001,0.01727992123315103,0.014050225063152453,18.099217072820863,0.012918784491663714,0.02999431756325066
48,0.25,0.001,0.017064661542071573,0.013766719782842865,18.48166513241796,0.013191766689805824,0.024049007275607437
49,0.25,0.001,0.016956891133626806,0.013697258228208194,18.26698320928002,0.01303853191240544,0.02255897514987737
50,0.25,0.001,0.016768501120529095,0.013582839127551403,17.85244932858753,0.012742647629255909,0.015542185283266008
51,0.0,0.001,0.01300794419435635,0.01300794419435635,22.08328057945026,0.015762512904675417,0.019992481917142868
52,0.02,0.001,0.012593114949008333,0.011973976523061342,43.37065034375412,0.03095692387134484,0.009658657072577626
53,0.04,0.001,0.013043330829071848,0.011379121048258075,58.288949749137785,0.041605246073617264,0.010024652990978211
54,0.06,0.001,0.013589278955939952,0.011394717600903933,51.24300854517941,0.03657602322996389,0.016903492622077465
55,0.08,0.001,0.013688151630325407,0.01169002003071806,34.99228288352741,0.024976647311582733,0.01763585244771093
56,0.1,0.001,0.013974639033026334,0.0120624931969283,26.789161674081022,0.01912145729770237,0.014230249333195388
57,0.12,0.001,0.014293865218192717,0.012098209873502012,25.634276860876927,0.018297128380354695,0.014786185405682772
58,0.14,0.001,0.014658671854857653,0.012083755880751439,25.767554440075838,0.01839225870098204,0.012852075567934662
59,0.16,0.001,0.014924410384792818,0.012243982168692576,23.47049923184552,0.016752676111238773,0.017682735051494092
60,0.18,0.001,0.015197481535658051,0.012393799645802643,21.8219916830586,0.015576011194188864,0.014045249787159264
61,0.2,0.001,0.015345039262676038,0.012336649440763368,21.073770675981095,0.015041949090636043,0.014945596340112388
62,0.22,0.001,0.015571108315815905,0.012482445777437104,19.669163909139513,0.014039374667480023,0.020976225088816136
63,0.24,0.001,0.015943521339021906,0.012692380582575808,18.97853519745517,0.013546420554928744,0.016663445625454187
64,0.25,0.001,0.01601827902255682,0.012727641693084551,18.440732046521667,0.013162549640629313,0.01859193027485162
65,0.25,0.001,0.01592519567721378,0.01280997923422086,17.457672473247545,0.012460865434152424,0.025813403888605535
66,0.25,0.001,0.015906264250980146,0.012738415130457295,17.75262594826614,0.012671396108683897,0.02338435302954167
67,0.25,0.001,0.01582229847504997,0.012668254003243104,17.675266362443754,0.0126161787026722,0.01939250319264829
68,0.25,0.001,0.015788401858213078,0.012630535104952533,17.696684406779486,0.012631466385995351,0.019383139675483108
69,0.25,0.001,0.015733636428409487,0.012634799281284527,17.365883903664376,0.012395348967640525,0.019159825635142624
70,0.25,0.001,0.01569695819467935,0.01260279323355558,17.33969990211197,0.01237665945903781,0.02523472683969885
71,0.25,0.001,0.015587293220691792,0.012470559771113757,17.466173518056106,0.012466933274843758,0.01219319726806134
72,0.25,0.001,0.015568004268759917,0.01246604136729668,17.38339988290006,0.01240785145103502,0.017524906899780035
73,0.25,0.001,0.0155441461500362,0.012478129179826014,17.181959232700525,0.012264067974804086,0.014217071002349257
74,0.25,0.001,0.015418769650255577,0.012318474869342042,17.374051452186038,0.012401178766728077,0.014866543118841946
75,0.25,0.001,0.015433476668024113,0.012479544794069061,16.553834826634404,0.011815727927647682,0.01494234916754067
76,0.0,0.001,0.012110667519334248,0.012110667519334248,21.778110101756166,0.015544689580125743,0.028450796846300364
77,0.02,0.001,0.011506539282196433,0.010902773125199326,42.293809496400726,0.030188300853961975,0.013803042587824166
78,0.04,0.001,0.012164497347194938,0.010572291207244375,55.767022450764976,0.0398051552111099,0.014692654542159289
79,0.06,0.001,0.012532315444877127,0.010538321031642614,46.55976975517434,0.03323324036771901,0.011086268350481987
80,0.08,0.001,0.01268465855877988,0.010907848220208526,31.116392835786073,0.02221013050377307,0.007591222121845931
81,0.1,0.001,0.012863973650751235,0.011076211068732075,25.04655327776816,0.017877625465930164,0.00896467687562108
82,0.12,0.001,0.013251105987541536,0.011165608125365484,24.348187619623754,0.01737914890765436,0.01202493195887655
83,0.14,0.001,0.013428260041754457,0.011072312556364365,23.576302121963177,0.016828195661643952,0.008976479759439826
84,0.16,0.001,0.013786134966315096,0.011303722768047439,21.736623426026934,0.01551507739188218,0.012061031477060169
85,0.18,0.001,0.014051510060386819,0.011381536541420196,20.781293217139908,0.014833185736716565,0.008726634201593697
86,0.2,0.001,0.014335163503508025,0.011501858423499368,19.847300774940457,0.014166524464625595,0.009104784461669624
87,0.22,0.001,0.01458431473041134,0.011549095155569069,19.328830582180103,0.013796452949450467,0.007679066737182438
88,0.24,0.001,0.014864245185997918,0.01181786715638537,17.783233586242932,0.012693243102243349,0.008592775731813163
89,0.25,0.001,0.015000669018440107,0.011858588717249124,17.60821753715161,0.012568320868773455,0.018204189196694642
90,0.25,0.001,0.01504602313104561,0.01187737511651677,17.757104165443387,0.01267459255206523,0.015347104636020958
91,0.25,0.001,0.01493252650343416,0.01182791830398111,17.398225309476572,0.012418433482852657,0.011237583006732166
92,0.25,0.001,0.014938870437034575,0.011915006262214877,16.945734796644768,0.012095456671409542,0.01396788633428514
93,0.25,0.001,0.014903071332518562,0.011789961556907948,17.445866476131393,0.012452438598237968,0.011482789239380509
94,0.25,0.001,0.014927501919903333,0.011944946762221523,16.714240146588676,0.011930221375152516,0.013384937425144017
95,0.25,0.001,0.014829639317900068,0.011778929227577986,17.09617933844715,0.012202840355779551,0.013326122076250613
96,0.25,0.001,0.014818533425875606,0.011801780315453996,16.90588519744229,0.012067012988895284,0.015364996856078506
97,0.25,0.001,0.014769150478616043,0.011819642544075658,16.529042481370112,0.011798031749728845,0.014478824217803776
98,0.25,0.001,0.014722817113725193,0.011742205127193456,16.70335043734136,0.011922448563412819,0.01732165482826531
99,0.25,0.001,0.014816876650170938,0.011850546401009781,16.62331476493224,0.011865321031357772,0.01669198169838637
100,0.25,0.001,0.014658994776224286,0.011617155274069762,17.046466646315178,0.012167356635485495,0.014495383948087692
101,0.25,0.001,0.014764761654385032,0.011806894753929934,16.575885680154407,0.011831467294899648,0.016816955350805074
102,0.25,0.001,0.014735240261325857,0.011648372361900182,17.298806806153888,0.012347470953714409,0.022007536492310464
103,0.25,0.001,0.014704203280278398,0.011715803252147975,16.746992594079128,0.01195359928199795,0.010622400033753365
104,0.25,0.001,0.014725586705947225,0.011692444797809617,16.997726665770454,0.012132567213255141,0.012723552179522812
105,0.25,0.001,0.014680955582593061,0.011642818366676444,17.02572207712423,0.012152549662472683,0.015868419781327248
106,0.25,0.001,0.0146013676318564,0.011691022074863881,16.309576964076562,0.011641382558227381,0.014956899569369853
107,0.25,0.001,0.014580048019467275,0.011599553780402313,16.702689351914803,0.011921976696584442,0.019734438392333686
108,0.25,0.001,0.014571784940481437,0.01163140490242449,16.477890030744206,0.011761520364556893,0.0188733913237229
109,0.25,0.001,0.014608572602649278,0.011673334895589934,16.449073453492755,0.01174095178693273,0.019466275814920664
110,0.25,0.001,0.014490365997774188,0.011481712686235894,16.860493913481506,0.01203461378549715,0.011512030905578285
111,0.25,0.001,0.014428891359439379,0.01151544256096525,16.326967372169978,0.011653795411970006,0.01793649303726852
112,0.25,0.001,0.014519308575818056,0.01161384405686131,16.282221701577747,0.01162185703181852,0.012904820148833096
113,0.25,0.001,0.014431106335314517,0.011446810264596204,16.723994854633315,0.011937184050416355,0.00874035560991615
114,0.25,0.001,0.014504224116980779,0.011513085261710333,16.76234125789208,0.011964554787931533,0.012921977147925645
115,0.25,0.001,0.014495482982651091,0.011524999769648167,16.646589102121347,0.011881933691735437,0.01054692204343155
116,0.25,0.001,0.014444351542096601,0.01148465788188363,16.586123937292943,0.011838775115840788,0.020983443246223032
117,0.25,0.001,0.01451219452490032,0.011514764161238188,16.797600251209886,0.01198972180671655,0.014602030219975859
118,0.25,0.001,0.014387792935162657,0.011409333690938064,16.69128591803056,0.011913837200592832,0.01603080180939287
119,0.25,0.001,0.014351430710578015,0.011382680952171736,16.636873446436372,0.011874998891103763,0.012448587513063103
120,0.25,0.001,0.014374836194741576,0.011404588669224128,16.64526742218919,0.011880990308486217,0.011636779294349253
121,0.25,0.001,0.014386986229050009,0.011472988571138574,16.33004336618673,0.011655990982288885,0.01636200922075659
122,0.25,0.001,0.014373677452625353,0.01143286027061411,16.480338672042397,0.01176326814564054,0.010947595234028995
123,0.25,0.001,0.01426434266196273,0.011336667474972296,16.40669120112552,0.011710700357691305,0.014338409237097949
124,0.25,0.001,0.014303131759921206,0.011366998658904547,16.454090263270125,0.011744532664718147,0.017680701101198792
125,0.25,0.001,0.014330092275255843,0.011309231674683748,16.928902694444616,0.012083442322944052,0.01672588032670319
126,0.25,0.001,0.014370478717177981,0.011401115971684205,16.640309023957716,0.011877451123453045,0.015511736972257495
127,0.25,0.001,0.01433880180356246,0.011433118616352605,16.283448344041528,0.01162273257961565,0.011655888170935214
128,0.25,0.001,0.014309090291020236,0.011358928344043498,16.532707117780856,0.011800647478787191,0.010379341838415712
129,0.25,0.001,0.014179411984760047,0.011194430975408494,16.727833731768,0.011939924148299787,0.010715068434365094
130,0.25,0.001,0.01418847081011735,0.011306170024417875,16.152413641853173,0.011529203170487633,0.012969558942131698
131,0.25,0.001,0.014154246642808371,0.011212938095792688,16.483093004186443,0.011765234121474977,0.013590623857453465
132,0.25,0.001,0.014206286598358476,0.01138537364937208,15.808396536589674,0.011283652060378069,0.017842106870375574
133,0.25,0.001,0.01428925488851493,0.011327270430194426,16.59896185025887,0.011847938508393198,0.01981792936567217
134,0.25,0.001,0.014158701987834922,0.011190407724760253,16.634321566875474,0.011873177421038883,0.012383518391288817
135,0.25,0.001,0.014214371562884326,0.011256643704567026,16.575106858201167,0.01183091139057899,0.009840907528996468
136,0.25,0.001,0.014092273731177617,0.011154896045252995,16.461063578158996,0.011749510048650246,0.010138937272131443
137,0.25,0.001,0.014067263039858533,0.0112290692433149,15.90523761234203,0.011352774883898664,0.012459641206078231
138,0.25,0.001,0.014113744139231207,0.011183488096271638,16.421154698239096,0.011721024052990076,0.012622281676158309
139,0.25,0.001,0.014090195042768863,0.011182036635933547,16.297319951439707,0.01163263379831528,0.014435119519475847
140,0.25,0.001,0.01411439766046367,0.011251911756735814,16.041371655363573,0.011449944079488631,0.0152282128110528
141,0.25,0.001,0.014070759429144456,0.011167880984706969,16.267731368793214,0.011611514181865248,0.01633469562511891
142,0.25,0.001,0.014066917617424127,0.011177996817960518,16.189511914796466,0.011555683022695551,0.01797736098524183
143,0.25,0.001,0.014199841775408777,0.011288338851670927,16.316063176730513,0.01164601226033584,0.020029030507430434
144,0.25,0.001,0.01412361200097241,0.01114095752186413,16.714795913374374,0.011930618068075927,0.023021369066555053
145,0.25,0.001,0.014164848516416197,0.011227982256262866,16.458199231433465,0.011747465547061716,0.01753254112554714
146,0.25,0.001,0.014022849437305192,0.011091354460247206,16.4280979864708,0.0117259800046187,0.018013888504356146
147,0.25,0.001,0.014032114289292304,0.011179447732079885,15.986343794231173,0.011410666519793842,0.012252722051925957
148,0.25,0.001,0.014069685515975148,0.011101711344932706,16.63252793082708,0.011871897166900128,0.016813336173072457
149,0.25,0.001,0.01414210306095423,0.011208202477686013,16.441578997841365,0.011735602425297191,0.01846267725341022
150,0.25,0.001,0.014011092869101195,0.011030552158218647,16.70295076732394,0.011922163288596674,0.01455683121457696
151,0.25,0.001,0.014060228870482134,0.011138031286686534,16.375995080682294,0.011688790207482008,0.012902070302516222
152,0.25,0.001,0.01404856249124189,0.011098198121107078,16.533841628062575,0.011801457264855514,0.015454781358130276
153,0.25,0.001,0.014015625427449553,0.011109455366803625,16.286176778093168,0.011624680070016536,0.013453424209728837
154,0.25,0.001,0.013976072232368627,0.011019784929663068,16.56703438336336,0.011825149452793261,0.01248956669587642
155,0.25,0.001,0.013890780347403344,0.01102849669392979,16.04023807863646,0.011449134959769064,0.00993712100898847
156,0.25,0.001,0.013933931528453082,0.011033409239747856,16.25452659301114,0.011602088931485467,0.01210235443431884
157,0.25,0.001,0.013939252810922101,0.011048796995373969,16.198114540003523,0.011561823369024641,0.014930848148651421
158,0.25,0.001,0.014008158841465094,0.0111174153729896,16.199726024257483,0.011562973607607054,0.010061321198008955
159,0.25,0.001,0.01389340576931897,0.010880671229354943,16.883363957143533,0.012050937870909018,0.011786292074248195
160,0.25,0.001,0.01386149480294452,0.011067025151245202,15.660208545153655,0.011177879047218883,0.014445824432186782
161,0.25,0.001,0.013874704823809585,0.010964489773796077,16.30884562464203,0.011640860545783033,0.01082903501810506
162,0.25,0.001,0.013822597144996817,0.010937650664414785,16.16724025549265,0.011539786049602178,0.012199621472973377
163,0.25,0.001,0.013870309771113256,0.010968986600008696,16.259015216103084,0.011605292802357661,0.008781929092947394
164,0.25,0.001,0.013867654425056674,0.01090973987389466,16.576152431310984,0.011831657695439675,0.009037760610226542
165,0.25,0.001,0.013854647294975786,0.010940506763536216,16.33084304423272,0.011656561773185381,0.0122300194343552
166,0.25,0.001,0.013901733137069876,0.011068898606809634,15.875203748292561,0.011331337436325882,0.015423983801156282
167,0.25,0.001,0.013912411426284394,0.011033267611912785,16.134722359572784,0.011516575560009125,0.020786109613254666
168,0.25,0.001,0.013784373257670724,0.010828367909927408,16.565454748612417,0.011824021947617714,0.011927448504138738
169,0.25,0.001,0.013808082694871516,0.010982153913642786,15.836505149487202,0.011303715310126482,0.010458358679898083
170,0.25,0.001,0.013797732459121867,0.01089922034570688,16.243262938809295,0.011594049206858883,0.011681409552693367
171,0.25,0.001,0.013781555456734157,0.010899311878604476,16.152092503092963,0.011528973949388267,0.011607482912950218
172,0.25,0.001,0.013822861345885675,0.010966917354503513,16.004709782982676,0.011423775719473716,0.01564358198083937
173,0.25,0.001,0.0137964521342189,0.010923592523054734,16.099505396331917,0.011491438541279026,0.01170666073448956
174,0.25,0.001,0.013805675599331092,0.010875330357674807,16.421654874262426,0.011721381066568469,0.010200881981290877
175,0.25,0.001,0.013768327402791896,0.010935700001422992,15.874044361999768,0.011330509894361006,0.010262171039357781
176,0.25,0.001,0.013775683672242025,0.010798323239329496,16.685128586201728,0.01190944224568289,0.011449722805991769
177,0.25,0.001,0.013739214180516794,0.01081330724107691,16.396782613504786,0.011703627846898492,0.009497352177277207
178,0.25,0.001,0.013814848828039088,0.01094689775839888,16.071996918207482,0.01147180365325302,0.01151424739509821
179,0.25,0.001,0.013714361322831504,0.010805846801035515,16.29931551695876,0.011634058184838515,0.016102075460366905
180,0.25,0.001,0.013782713577968661,0.010942443266102282,15.916874889583024,0.011361081291636705,0.014344828436151147
181,0.25,0.001,0.013802447533117065,0.01082412543301844,16.690517578446915,0.0119132887783347,0.011592707596719265
182,0.25,0.001,0.013613955620754872,0.01073359818303887,16.141522918572406,0.011521429634955322,0.01209067681338638
183,0.25,0.001,0.013853571864968866,0.010960121344350562,16.214896954564605,0.011573802251652108,0.018097850843332708
184,0.25,0.001,0.013759285624174378,0.01085171504692815,16.29402544528623,0.011630282259304946,0.014573339372873306
185,0.25,0.001,0.013767664851267127,0.010914286362785327,15.990333854900634,0.011413514528836998,0.015832516364753246
186,0.25,0.001,0.013709240341519756,0.010734345174477071,16.671312303985726,0.011899580516763545,0.012108394701499492
187,0.25,0.001,0.013709084747775697,0.010791859216202161,16.348132950344166,0.011668902891037948,0.014864897879306227
188,0.25,0.001,0.013635218603229976,0.010803858450916498,15.866943117938463,0.011325441197671994,0.010779270553030074
189,0.25,0.001,0.013750358472896528,0.010819752649541646,16.42311520314921,0.011722423414096508,0.012579985661432147
190,0.25,0.001,0.013720077230646138,0.010857837290389125,16.039992336482438,0.011448959554948207,0.016139855259098113
191,0.25,0.001,0.01386592139093056,0.010883815877359627,16.71172018091387,0.011928422684449585,0.02093169465661049
192,0.25,0.001,0.01377274742043471,0.010796655040187172,16.678020976263763,0.0119043690051847,0.01258724689250812
193,0.25,0.001,0.013679705226188723,0.010791192349942424,16.187224971594187,0.011554050657811697,0.015031925111543387
194,0.25,0.001,0.01368392570109307,0.010810030746089003,16.105307397963127,0.011495579870066473,0.014597482979297638
195,0.25,0.001,0.013674599735482835,0.010814203365945615,16.029661524647903,0.011441585670698003,0.014428691123612225
196,0.25,0.001,0.01365176161538951,0.010763105280100042,16.18803027511146,0.011554625464033874,0.012232167180627584
197,0.25,0.001,0.013611068422532785,0.010801367265199811,15.74556575243986,0.01123880496248384,0.011689424514770508
198,0.25,0.001,0.013699652190921428,0.010758117411112735,16.484362244103025,0.011766140074306227,0.012398272170685232
199,0.25,0.001,0.013715952108240831,0.010845098951006238,16.088261326657065,0.011483412795615322,0.012129523034673184
200,0.25,0.001,0.013675600934757965,0.010756175340259378,16.360460909107065,0.011677702290583201,0.013734327512793243
201,0.25,0.001,0.013706502343531903,0.010808477932705155,16.24052908048348,0.011592097844741956,0.011789675569161773
202,0.25,0.001,0.013612301658666084,0.01067326426553198,16.470365878398912,0.011756149806137695,0.016550303320400417
203,0.25,0.001,0.013542633692297754,0.010765598183065528,15.562506876917327,0.011108141953545559,0.01183434552513063
204,0.25,0.001,0.01365113010795056,0.010713405396302039,16.46300859089139,0.011750898351813983,0.013481916685122997
205,0.25,0.001,0.013667181008475741,0.010761935259942516,16.280996201913567,0.011620982299724173,0.014362425543367863
206,0.25,0.001,0.0136002250416558,0.010678607310298124,16.372746431374853,0.011686471399982051,0.010603526083286852
207,0.25,0.001,0.013609431440380052,0.010744840826226187,16.05316603133447,0.011458362620509971,0.011716873268596828
208,0.25,0.001,0.013564296986294699,0.01068244510593545,16.149898480765426,0.011527407909183031,0.011873443727381527
209,0.25,0.001,0.013593446982057788,0.010700919445336871,16.209724506748376,0.01157011028318942,0.014205409679561853
210,0.25,0.001,0.013607275074953016,0.010722508634350219,16.166230704713975,0.011539065456612402,0.013496488449163735
211,0.25,0.001,0.013538458078062232,0.010639121064342527,16.24788535395755,0.011597348575273055,0.012887095974292606
212,0.25,0.001,0.013537330175691012,0.010700072939920275,15.899989116040967,0.011349028633862217,0.011312427348457277
213,0.25,0.001,0.013601381858252775,0.010754414319300451,15.954406368078562,0.011387870355516461,0.013245782465673983
214,0.25,0.001,0.013629817325260318,0.010658148856920029,16.65322979794273,0.011886673660201805,0.012666523340158165
215,0.25,0.001,0.013649036117558237,0.010796628444443774,15.984893476912744,0.011409631318281759,0.011247792514041066
216,0.25,0.001,0.013655801987440526,0.010731919043803518,16.385440029675447,0.011695531784208027,0.011107414145953953
217,0.25,0.001,0.013633402673535458,0.010746324702091357,16.179184724509966,0.011548311723418962,0.014326366363093257
218,0.25,0.001,0.013572887859389753,0.010657082960198197,16.340169785897942,0.01166321897637255,0.010808361461386085
219,0.25,0.001,0.013605037240413674,0.01073682753424227,16.073447521225813,0.0114728390586908,0.014810199732892215
220,0.25,0.001,0.013521924571680369,0.010639875093750058,16.15100541899476,0.011528198014985553,0.011311503010801971
221,0.25,0.001,0.01362780394732072,0.010734852513432,16.212099131652575,0.011571805233156728,0.017051333095878363
222,0.25,0.001,0.013607854656246393,0.010637002301555646,16.648657553306613,0.011883410102288803,0.011879113561008126
223,0.25,0.001,0.01354244108928784,0.0106635473959368,16.133320104220747,0.011515574663969127,0.009824302047491074
224,0.25,0.001,0.01357270585852459,0.010676723657340943,16.229084538005072,0.011583929006427603,0.01233673666138202
225,0.25,0.001,0.013484381508663736,0.010570076199932188,16.33176728743541,0.01165722147568552,0.01620409090537578
226,0.25,0.001,0.013608640786810514,0.010737945262798528,16.087377950611998,0.011482782263106351,0.015867201960645616
227,0.25,0.001,0.013525415392679001,0.010601335543086005,16.38654348317078,0.011696319402691491,0.011871488415636122
228,0.25,0.001,0.013460092619847396,0.010640189597846838,15.802736451354209,0.011279612028090085,0.010667633963748813
229,0.25,0.001,0.01345651591283108,0.010578871614256488,16.126319881229964,0.011510578073683058,0.010686063847970217
230,0.25,0.001,0.013478271101251684,0.010557018868813786,16.370698035517826,0.011685009304438134,0.012267072685062885
231,0.25,0.001,0.01346163531443112,0.010599654230764647,16.038541954780932,0.011447924307481037,0.012514335685409606
232,0.25,0.001,0.013495676804978384,0.010544058658528428,16.54086976514084,0.011806473779543783,0.016270348336547613
233,0.25,0.001,0.013472468509704252,0.010635412148816928,15.898862923247904,0.011348224784616634,0.015106457401998341
234,0.25,0.001,0.013514997496540788,0.010615648245949785,16.24795307690584,0.011597396914279686,0.012345778872258961
235,0.25,0.001,0.013546612498818068,0.010645270060732143,16.259123991310346,0.011605370443476336,0.011134462780319154
236,0.25,0.001,0.013513832239096175,0.010582435895779214,16.427545483102275,0.011725585641043737,0.010906288051046431
237,0.25,0.001,0.01360234133663434,0.01067020409673704,16.43169835247571,0.011728549859011927,0.014403633889742196
238,0.25,0.001,0.013474657848665986,0.010563683130224294,16.313101772517594,0.011643898481454387,0.012588747078552842
239,0.25,0.001,0.01350164866145653,0.010612719594049051,16.189557465822887,0.011555715535919263,0.013079433236271143
240,0.25,0.001,0.013458937728769669,0.010593731203882755,16.056617881678328,0.011460826468007371,0.010335162631236017
241,0.25,0.001,0.013489540737075142,0.010637056671931773,15.985320465474189,0.011409936092415552,0.012483741680625826
242,0.25,0.001,0.013391574506769704,0.01048831814970774,16.269848807451595,0.011613025558495072,0.014684294117614627
243,0.25,0.001,0.013473669593595755,0.010627472733898002,15.950087092596771,0.011384787360882777,0.014966121641919017
244,0.25,0.001,0.013518839799465006,0.01055047431182635,16.634719663531467,0.0118734615728276,0.013172397506423295
245,0.25,0.001,0.013504451573020798,0.010648537179620205,16.00454415751912,0.011423657500013647,0.01588690059725195
246,0.25,0.001,0.013493312004057668,0.010511755330275886,16.708642931427132,0.011926226218006519,0.016807161271572113
247,0.25,0.001,0.013491992811173326,0.010638613371720796,15.990338804349618,0.011413518061634273,0.016572205000557005
248,0.25,0.001,0.013492014384848157,0.010607616256781017,16.16416720297769,0.01153759257885631,0.015395190450362861
249,0.25,0.001,0.013498579847473132,0.010562652435138004,16.452936615119,0.011743709218500356,0.013446559431031346
250,0.25,0.001,0.013500119131137047,0.010641358557003962,16.02049467030457,0.011435042591223818,0.016887685167603195
251,0.25,0.001,0.013483280701099066,0.01063871963680545,15.940920568216702,0.01137824451692841,0.012512652901932597
252,0.25,0.001,0.013487204335598503,0.010583373187463494,16.273070009448862,0.01161532477476721,0.01796009053941816
253,0.25,0.001,0.013489743211318421,0.010593688913192678,16.22948824001264,0.01158421715918104,0.011790490825660527
254,0.25,0.001,0.013368031037539118,0.010479935696387844,16.184885576304506,0.011552380853893294,0.009126194345299155
255,0.25,0.001,0.013415172821861783,0.010536308321740306,16.133156571207167,0.011515457938049369,0.010782755736727268
256,0.25,0.001,0.013428118256734142,0.010510406138587601,16.350859018317756,0.011670848692589405,0.010349880729336292
257,0.25,0.001,0.013420799727461257,0.010458408300823804,16.601241276737003,0.011849565508020701,0.011330588487908244
258,0.25,0.001,0.013362653258763537,0.010504278393643063,16.018333366651575,0.011433499904819112,0.011454444844275713
259,0.25,0.001,0.01339691492654226,0.010498430450222914,16.243108226277155,0.011593938776785977,0.013684253382962197
260,0.25,0.001,0.013389345910793115,0.01051085061130393,16.131088715565355,0.011513981952580552,0.012377652281429619
261,0.25,0.001,0.013532228944705257,0.010709514417037179,15.81849310669718,0.011290858748534745,0.02237923175562173
262,0.25,0.001,0.013347638715923083,0.010428609393285548,16.358241278410965,0.011676117971742303,0.010142979328520596
263,0.25,0.001,0.013349279568762468,0.010503147878067151,15.949722402709446,0.011384527054039575,0.012061293586157262
264,0.25,0.001,0.013437054092496759,0.010538201374375116,16.245170746171524,0.011595410953726999,0.012726621702313423
265,0.25,0.001,0.01337418540573447,0.010484813185966719,16.19204213347616,0.011557489031746011,0.013926585437729955
266,0.25,0.001,0.01345044636965301,0.010584348899151202,16.061609734965778,0.011464389532452376,0.011992976302281022
267,0.25,0.001,0.013344802988009363,0.010482720496282296,16.039109813513132,0.011448329631344135,0.012184577353764325
268,0.25,0.001,0.013362418789463707,0.010428210649686524,16.44330289494639,0.011736832901460666,0.010468981810845435
269,0.25,0.001,0.013359529948655814,0.010464232969038848,16.225244485879248,0.011581188069863847,0.011560001410543919
270,0.25,0.001,0.013366483458423917,0.010466019575825975,16.2542001667908,0.011601855936324625,0.013822377077303827
271,0.25,0.001,0.013468906472000894,0.010537524094592922,16.42746772846592,0.011725530141660187,0.011931368382647634
272,0.25,0.001,0.013378648971549318,0.010484212290354167,16.22042357368308,0.01157774701904574,0.013209269498474896
273,0.25,0.001,0.013434225677626546,0.010577925608615207,16.006705811255088,0.011425200436299136,0.013088097563013434
274,0.25,0.001,0.013397150307516509,0.010405918669725771,16.762861622033743,0.011964926211301744,0.012658425606787205
275,0.25,0.001,0.013289221495641435,0.010403024814708575,16.17424617638568,0.011544786706913404,0.011647715233266354
276,0.25,0.001,0.013339226888610592,0.01048428909499434,15.999072239871769,0.011419751777210399,0.01645964477211237
277,0.25,0.001,0.01330577641065362,0.010457604840586457,15.961153368406658,0.01139268620157506,0.013914334471337497
278,0.25,0.001,0.013311080257349376,0.010496447864872745,15.773201415307412,0.011258530631911071,0.012398004822898656
279,0.25,0.001,0.01335689795639696,0.010500872452676547,16.005167816258684,0.011424102652575792,0.017305636894889176
280,0.25,0.001,0.01342528411639139,0.010536916341774071,16.186413608019866,0.011553471526066998,0.017021197825670242
281,0.25,0.001,0.01343451148362728,0.010545944020875143,16.187532368591565,0.011554270070372281,0.015602812636643648
282,0.25,0.001,0.013368336845362237,0.010470458031297987,16.239711962671723,0.011591514605761402,0.014602735871449113
283,0.25,0.001,0.013367572826832408,0.01043148911734925,16.453813335563563,0.011744335000402258,0.009899575961753726
284,0.25,0.001,0.013342332558604232,0.010551763498047484,15.638349235309327,0.011162276399221504,0.01704446494113654
285,0.25,0.001,0.013386385008409808,0.010458190579611792,16.409601968048996,0.011712777992897213,0.014323965180665255
286,0.25,0.001,0.013478375908443193,0.010592543182085084,16.172206653321343,0.011543330944554848,0.01470726344268769
287,0.25,0.001,0.013405761209941363,0.010470926148604743,16.44681585287746,0.011739340366079558,0.015496023697778583
288,0.25,0.001,0.013324680969999309,0.010515531717567755,15.742471976622248,0.011236596699944503,0.01142190140672028
289,0.25,0.001,0.01335443769687716,0.010418997409474497,16.4502080804688,0.011741761656294647,0.009546065295580775
290,0.25,0.001,0.013274277383579483,0.010381862788386485,16.20909165330074,0.01156965856766648,0.010405789129436016
291,0.25,0.001,0.0133373636422278,0.010508195980440211,15.85465666211607,0.01131667142192439,0.01063083449844271
292,0.25,0.001,0.013376163617405207,0.010451317580126006,16.39083811603015,0.011699384808015809,0.01208478829357773
293,0.25,0.001,0.013313773092086808,0.0104389041387142,16.11076515133371,0.011499475482750685,0.013379509327933192
294,0.25,0.001,0.013288687152261473,0.010517777655006461,15.52817690724562,0.011083638049425852,0.016492904163897038
295,0.25,0.001,0.013331548747005342,0.010390753826354375,16.480215322116255,0.011763180101439154,0.011719714617356658
296,0.25,0.001,0.013179211908723483,0.01034078325384654,15.90655396859857,0.011353714467236667,0.009937511407770216
297,0.25,0.001,0.013352055338364614,0.01048393671711286,16.07293637593587,0.01147247421551454,0.015095897717401385
298,0.25,0.001,0.013329803456359774,0.010382551841343506,16.516398663259256,0.011789006897401325,0.01403601048514247
299,0.25,0.001,0.013330226426134633,0.010493086981056611,15.899330139160156,0.011348558272062924,0.014679349842481315
300,0.25,0.001,0.013281828264081025,0.010337829035765763,16.49817072389498,0.011775996234043526,0.009540738421492279
301,0.25,0.001,0.013326103728311726,0.010432066081508302,16.218187271794186,0.011576150800709626,0.011931445042137057
302,0.25,0.001,0.013298806117431021,0.010393829823703455,16.279487207469057,0.011619905215895116,0.012293752399273217
303,0.25,0.001,0.01331118730050099,0.010467185485589354,15.93778647249761,0.011376007475016138,0.010968768037855625
304,0.25,0.001,0.013323327180642618,0.010476614981260984,15.952974866714156,0.011386848584378412,0.012508543208241463
305,0.25,0.001,0.013225368648484538,0.010284769828215178,16.479116190334917,0.011762395567690875,0.01088958908803761
306,0.25,0.001,0.013295348061696638,0.010466400093795881,15.85342527140042,0.011315792484939628,0.011919656535610557
307,0.25,0.001,0.013238591562469298,0.0103315854315422,16.290862546188418,0.011628024658235845,0.010853510757442564
308,0.25,0.001,0.013224163803936057,0.010320862810194242,16.270099016181526,0.011613204151450054,0.01293289614841342
309,0.25,0.001,0.013311201545413789,0.010463029598102037,15.961156209309896,0.011392688229343252,0.016524513950571418
310,0.25,0.001,0.013257007499693064,0.010397840409150606,16.022772277960797,0.011436668292620127,0.019008240196853876
311,0.25,0.001,0.01334236886839575,0.010496155150580506,15.95018119651054,0.01138485452998611,0.020143735804595053
312,0.25,0.001,0.013242517696214125,0.01035490280355205,16.182194319455434,0.01155045989968268,0.019100313424132764
313,0.25,0.001,0.01327477763347988,0.010373566783021522,16.25838629807098,0.011604843895839387,0.01795532286632806
314,0.25,0.001,0.013258302478190464,0.010424352624308207,15.881454797736703,0.01133579928460864,0.015108443680219352
315,0.25,0.001,0.013280140122060786,0.010356004931472776,16.386853286485632,0.011696540532823435,0.015714085777290165
316,0.25,0.001,0.013166840789438803,0.010346355341091941,15.806000794036478,0.011281942037142383,0.013201146852225065
317,0.25,0.001,0.01318360508698577,0.010366083928364238,15.789388326652945,0.011270084458710168,0.011609195324126631
318,0.25,0.001,0.013209418413319669,0.010305414388922952,16.27403957028932,0.01161601682390387,0.014855840418022126
319,0.25,0.001,0.013289141676974196,0.010445307881300207,15.936845030965685,0.011375335496763516,0.011976026115007699
320,0.25,0.001,0.01315368786218423,0.010284987639808705,16.07619630032954,0.011474801070899028,0.012142220977693796
321,0.25,0.001,0.013263393759350234,0.0103886227638221,16.110216414375145,0.011499083807548284,0.010898337524849921
322,0.25,0.001,0.013222262793798236,0.01036491505958863,16.01257663839477,0.011429390891074068,0.013328329077921808
323,0.25,0.001,0.013207545421451708,0.010316191535867467,16.203148294601764,0.011565416341614393,0.012555090710520744
324,0.25,0.001,0.013155925798893981,0.010286353811433044,16.081081873253932,0.011478288274984963,0.015229116077534854
325,0.25,0.001,0.01319058336128917,0.010427264032987603,15.485641559971032,0.01105327734473307,0.014072681544348598
326,0.25,0.001,0.013315435498952866,0.010401809049715221,16.327963374335052,0.011654506334286262,0.011487643467262387
327,0.25,0.001,0.013253807612863775,0.010400015770414458,15.992649408332406,0.011415167315012425,0.016254738555289805
328,0.25,0.001,0.013269164147570666,0.010399213013581083,16.083206249188773,0.011479804603275356,0.01714156474918127
329,0.25,0.001,0.013195865532139686,0.010304478570850338,16.20333286880944,0.011565548086230863,0.010044861526694149
330,0.25,0.001,0.01319550113744625,0.010299016470050259,16.231901522930162,0.011585939702305611,0.010593440849334002
331,0.25,0.001,0.013194801285862923,0.010348031737444773,15.95329679819099,0.01138707837129978,0.012637729989364743
332,0.25,0.001,0.013282374962221217,0.010404760438461596,16.126150549715582,0.01151045720893332,0.01489489059895277
333,0.25,0.001,0.013231007669136746,0.010270064229043476,16.593126498194184,0.011843773374870938,0.015903851599432528
334,0.25,0.001,0.013206002589330895,0.01036499615145635,15.92100045248426,0.011364026018903826,0.010440782702062279
335,0.25,0.001,0.013204206991547774,0.010330619868126851,16.10358350890598,0.01149434939964738,0.010236193134915084
336,0.25,0.001,0.013217064265146034,0.010331403998508735,16.171241148614683,0.011542641790588639,0.011418370646424592
337,0.25,0.001,0.013277269986297007,0.010358980719298753,16.35409265832056,0.011673156786809823,0.010988462425302714
338,0.25,0.001,0.01320303835069077,0.010298697953800109,16.27592262235875,0.01161736090104122,0.01157938817050308
339,0.25,0.001,0.01312019396180342,0.01031243912325504,15.734658028003032,0.011231019291936498,0.011079441173933446
340,0.25,0.001,0.013227719082673894,0.010305450608332952,16.376393201481942,0.011689074376503884,0.012048394768498838
341,0.25,0.001,0.01327668282867484,0.010430956381188414,15.947451744401505,0.011382906312920417,0.017152389860711992
342,0.25,0.001,0.013217855464934296,0.0103384625119499,16.136118466341042,0.011517572067338359,0.014034375199116766
343,0.25,0.001,0.013209621072255609,0.010313773889267495,16.22832731254996,0.011583388517166282,0.01037883060052991
344,0.25,0.001,0.013092882192461802,0.010159828311091737,16.436834045603305,0.0117322155928646,0.009569031128194183
345,0.25,0.001,0.013218618980471343,0.010416722396695161,15.70182902098708,0.011207586738748809,0.012642143876291811
346,0.25,0.001,0.013264350420186288,0.01028717821267461,16.6840736051149,0.01190868922563519,0.013893333380110562
347,0.25,0.001,0.013190711537996927,0.01035344810519792,15.900023387957223,0.01134905309632921,0.012263996410183609
348,0.25,0.001,0.013257436615410987,0.010391458259887585,16.060942195135834,0.011463913058626577,0.01740636769682169
349,0.25,0.001,0.0132686192963571,0.010238200991968566,16.98246500361318,0.01212167380700441,0.016254197398666292
350,0.25,0.001,0.013154338440122986,0.010317711784398253,15.896456038398581,0.011346506808278787,0.014594053383916616
351,0.25,0.001,0.013155108683188504,0.01025742757279536,16.23860445304259,0.011590724092107488,0.011895676027052104
352,0.25,0.001,0.013159809999545163,0.010270085633744168,16.194015100535463,0.011558897288033878,0.010430981987155974
353,0.25,0.001,0.013156974306998121,0.010248614891671934,16.298447798073042,0.01163343882803215,0.013414236484095454
354,0.25,0.001,0.013106906731546176,0.010287594435272841,15.799426384615998,0.011277249382309777,0.014135163510218263
355,0.25,0.001,0.013198574722001824,0.01036171527492975,15.897759868122858,0.01134743745048027,0.01676624227548018
356,0.25,0.001,0.013117110840033126,0.010214790768669879,16.26460157064446,0.011609280207455002,0.015120027936063707
357,0.25,0.001,0.013122972564669601,0.01028560171540402,15.900625671515485,0.01134948299180263,0.01124407263705507
358,0.25,0.001,0.013114162693232423,0.010213120431808229,16.257441959300625,0.01160416984960787,0.013610272319056094
359,0.25,0.001,0.013087888818061302,0.010260780341923237,15.843116953403134,0.011308434656247776,0.010995550896041095
360,0.25,0.001,0.013168437327828086,0.010304811324154024,16.047760315585236,0.011454504151024437,0.013682576478458941
361,0.25,0.001,0.013084111884550706,0.01022369768627711,16.02976248535929,0.01144165773401805,0.012102082837373018
362,0.25,0.001,0.013198692583427901,0.010313834625646032,16.166744328752348,0.011539432069059491,0.014407063601538539
363,0.25,0.001,0.013185387312234202,0.010244628783897005,16.4800107650113,0.011763034093512705,0.014679361833259463
364,0.25,0.001,0.013083483296827677,0.010275111372586545,15.738116694905084,0.011233488004928682,0.014399318723008037
365,0.25,0.001,0.013217432801670667,0.010376506913374748,15.920549376604427,0.01136370405182329,0.014169738278724253
366,0.25,0.001,0.013127301898215139,0.010205351727924266,16.374609701744113,0.011687801357419068,0.011703477299306542
367,0.25,0.001,0.013174991968248968,0.010260483784451766,16.332903169881444,0.011658032241171623,0.01323580025928095
368,0.25,0.001,0.013154836913830117,0.010260550045891654,16.219583664262345,0.011577147511964557,0.012916570296511054
369,0.25,0.001,0.013122419190086141,0.01018613365081921,16.454943749472058,0.0117451418625782,0.010443023638799787
370,0.25,0.001,0.013104948333075529,0.010250422518055902,15.99676387320088,0.011418104120771506,0.00969642587006092
371,0.25,0.001,0.01314530775485411,0.010264878047292243,16.14192887398764,0.01152171939613679,0.015380783006548882
372,0.25,0.001,0.013173608588769968,0.010303212502649062,16.085699817802332,0.011481584452392814,0.015057311626151204
373,0.25,0.001,0.013205808956757627,0.010299937650246963,16.284504105773152,0.011623486156868774,0.018923916737549007
374,0.25,0.001,0.013246613735419537,0.010401933622951247,15.94158770162848,0.011378720700662726,0.014175505784805864
375,0.25,0.001,0.013253985460108846,0.010289355350131727,16.613787731540857,0.011858520864768634,0.019274055142886937
376,0.25,0.001,0.013116068843327746,0.010295304717330993,15.807562461885219,0.011283056717976601,0.01530270098010078
377,0.25,0.001,0.013016480818893839,0.010179423935365577,15.89886840788121,0.011348228699415567,0.014516397612169385
378,0.25,0.001,0.01303071669746929,0.01023343295833481,15.675979207839644,0.011189135765767055,0.0094890296459198
379,0.25,0.001,0.013175719708424329,0.010279547454561362,16.230150496406395,0.011584689861817555,0.013811400276608765
380,0.25,0.001,0.013098942237721465,0.010250089623285497,15.964970097763127,0.011395410490908727,0.018227152759209275
381,0.25,0.001,0.013064782194133047,0.010217489116679766,15.9562314472118,0.011389173052970592,0.01418566599022597
382,0.25,0.001,0.01307529508124424,0.010206124148005423,16.078833801333914,0.011476683655484593,0.010174900002311915
383,0.25,0.001,0.01308030802127807,0.01019669703761988,16.159756181612295,0.011534444098224336,0.010598195134662092
384,0.25,0.001,0.013139091078427773,0.01025759717960398,16.14789246909226,0.011525976066447008,0.012251246254891157
385,0.25,0.001,0.013078949429912154,0.010138968381056176,16.47565269470215,0.0117599234080672,0.012182816630229354
386,0.25,0.001,0.013057777111886172,0.010223500776391493,15.88328556270036,0.01133710604047135,0.01321582484524697
387,0.25,0.001,0.01311366522944049,0.010233700715539827,16.13932169338822,0.011519858453524781,0.01259137678425759
388,0.25,0.001,0.013181813827515402,0.010304046209257112,16.12701030521956,0.011511070881669921,0.013662216952070594
389,0.25,0.001,0.013054030668383409,0.010122815638246165,16.426529819955302,0.011724860685192936,0.0134514031233266
390,0.25,0.001,0.01296813783672037,0.010151765678659521,15.78294986612183,0.011265488840914939,0.012843080330640078
391,0.25,0.001,0.013115925211380806,0.010291577474005865,15.827645667997594,0.011297391625979725,0.012369035161100328
392,0.25,0.001,0.013040049319874637,0.010176848529794799,16.045376121746337,0.011452802370982396,0.012210161774419248
393,0.25,0.001,0.013070602087846285,0.010188702391735612,16.150166620182084,0.011527599300629611,0.016957688611000776
394,0.25,0.001,0.013138678451442015,0.010218065845060952,16.367113620420046,0.011682450835417591,0.013280851417221129
395,0.25,0.001,0.013075395805549018,0.010175498241739434,16.251025018812737,0.011599589592300312,0.014242295175790787
396,0.25,0.001,0.013104994301900331,0.01025436635478891,15.974919230626103,0.011402511941917276,0.012686673668213189
397,0.25,0.001,0.013047357478851005,0.010133204977755054,16.33091039295438,0.011656609845078072,0.01267842238303274
398,0.25,0.001,0.013065208118990503,0.010215790278203627,15.968137990573288,0.011397671656369228,0.012048548669554293
399,0.25,0.001,0.013043171533615278,0.010156800663923915,16.175223088968654,0.011545484003546505,0.011916234157979488
400,0.25,0.001,0.013050905181260048,0.010201997638440333,15.965277458545025,0.011395629877619575,0.012118157930672169
401,0.25,0.001,0.013085191597855544,0.010154692428618795,16.42251684293465,0.011721996319011172,0.013621069607324898
402,0.25,0.001,0.013063390346298992,0.010190341975304145,16.10056245377295,0.011492193043378267,0.012776040006428957
403,0.25,0.001,0.013102536887433458,0.010184928861285563,16.350275401827655,0.011670432121218884,0.015721787931397557
404,0.25,0.001,0.013041932540572393,0.010203073319943644,15.908967408449842,0.011355437122376761,0.0130052087479271
405,0.25,0.001,0.013055873909014186,0.01021972378393643,15.89378471213554,0.011344600080039643,0.011157286062370986
406,0.25,0.001,0.01302515425353865,0.010148676784261118,16.119779932851028,0.011505910016310513,0.010708236368373036
407,0.25,0.001,0.013025703588461323,0.010143974112181724,16.14921244689684,0.01152691823475863,0.011122072406578809
408,0.25,0.001,0.013076460389774057,0.01023686424935166,15.913097840321216,0.011358385324997299,0.017710472806356847
409,0.25,0.001,0.013062730077889901,0.010186226523721018,16.119926219248068,0.011506014432011468,0.013058622716926038
410,0.25,0.001,0.013024556525208779,0.010189546893040339,15.887394144565244,0.0113400386470844,0.013139526592567563
411,0.25,0.001,0.01304046403349452,0.010112788488907653,16.406693285527613,0.011710701845487233,0.012793986825272441
412,0.25,0.001,0.013099569740866308,0.010213134315194963,16.1755845436064,0.01154574200114661,0.014162052189931273
413,0.25,0.001,0.01312685408138273,0.010165864094808887,16.59338733013169,0.011843959550415197,0.014784291503019631
414,0.25,0.001,0.013047993379617541,0.010151876348860656,16.22983971527357,0.011584468033742733,0.013476307271048427
415,0.25,0.001,0.013072431445090328,0.010161840506212369,16.31095109609612,0.011642363380511148,0.014615731197409332
416,0.25,0.001,0.013087195084913622,0.0101859602440573,16.258519941241428,0.011604939287110226,0.01728657982312143
417,0.25,0.001,0.013004463405705958,0.010095263473720993,16.303156687740536,0.011636799919871902,0.013543010572902858
418,0.25,0.001,0.012959006576472696,0.010121980945300703,15.898691728648254,0.01134810259004158,0.013721561175771058
419,0.25,0.001,0.013020828224812882,0.01019553840946296,15.832923752346119,0.01130115899525062,0.013696524081751704
420,0.25,0.001,0.01300279825988701,0.010062077118060257,16.47980162866005,0.011762884817030727,0.012320062494836748
421,0.25,0.001,0.012990020816744883,0.010187607407884255,15.704725949573115,0.011209654496483309,0.014632232021540403
422,0.25,0.001,0.01302832038483665,0.010138180853508193,16.196340987450967,0.01156055745000069,0.013576703611761332
423,0.25,0.001,0.01301854355300026,0.01009551384230832,16.38065799278549,0.011692118481645603,0.015502756868954748
424,0.25,0.001,0.01299506412103835,0.010203747546402462,15.642537201507182,0.011165265668456232,0.013531472533941269
425,0.25,0.001,0.013085210126066258,0.010161288102247796,16.38565947939072,0.01169568842212043,0.015019715763628483
426,0.25,0.001,0.013029710770847929,0.010186517839064577,15.933253083047987,0.01137277165099785,0.018685717368498445
427,0.25,0.001,0.01305017125977494,0.010260583035144877,15.63285314181686,0.01115835342028327,0.01740685396362096
428,0.25,0.001,0.013062590222318465,0.010130788462888842,16.429818736852976,0.01172720823472732,0.017392195179127157
429,0.25,0.001,0.013039909931929303,0.010228617592294256,15.754482494627876,0.011245169517935671,0.0181895992718637
430,0.25,0.001,0.01302503546864926,0.01008780311227222,16.46025109190478,0.011748930115563726,0.013473884435370564
431,0.25,0.001,0.013004781811926436,0.010196288187009624,15.738797771276804,0.011233974140811424,0.014331872342154384
432,0.25,0.001,0.013092919744016752,0.010168187831084436,16.390196876686836,0.011698927106842852,0.011416309862397611
433,0.25,0.001,0.013044365166926183,0.010166112565384383,16.12972840578747,0.011513010996279422,0.011605570325627923
434,0.25,0.001,0.012994027413616452,0.010128794442312124,16.056766188094386,0.01146093232554917,0.009595185809303075
435,0.25,0.001,0.013058576190584823,0.010239812903074776,15.796348869549071,0.011275052726301978,0.016373259481042624
436,0.25,0.001,0.013011894538558486,0.01003207681299765,16.698898750015452,0.011919271056399323,0.009808901930227876
437,0.25,0.001,0.01292691478812242,0.010090154489573044,15.897203743206298,0.01134704050193169,0.01105682150227949
438,0.25,0.001,0.012991830863781618,0.010162327143870577,15.856539263503963,0.011318015177376134,0.011039065138902515
439,0.25,0.001,0.01297160447083948,0.010065844007433718,16.283881026481275,0.01162304141790241,0.01206633192487061
440,0.25,0.001,0.013049774520287785,0.010181627462260456,16.073096158635263,0.011472588264550509,0.014595134067349136
441,0.25,0.001,0.013005410018475248,0.0101626265621135,15.930958365589255,0.011371133737037298,0.010639641201123595
442,0.25,0.001,0.013022054226495295,0.010079191640050854,16.491801636128486,0.011771450132854022,0.011183872586116195
443,0.25,0.001,0.012948746097427381,0.010127806780616191,15.808543965786319,0.011283757291781812,0.01173818449024111
444,0.25,0.001,0.012979826383009742,0.010144618371273647,15.88850603224356,0.011340832285684197,0.012069652206264436
445,0.25,0.001,0.013027727957579154,0.010144905572293429,16.155336903117377,0.011531289723852518,0.012544849538244307
446,0.25,0.001,0.012974114711337451,0.010070202573505133,16.273524030854432,0.011615648844292956,0.011521138134412467
447,0.25,0.001,0.012948453497094444,0.010099057929456737,15.96801265281967,0.011397582193304548,0.017095954390242696
448,0.25,0.001,0.01304691470766495,0.010146131974798215,16.2559870627359,0.011603131379540258,0.017176507622934878
449,0.25,0.001,0.013074828653678865,0.01013132279447991,16.495407205090743,0.011774023700992679,0.01664869801606983
450,0.25,0.001,0.012920896754549022,0.01004324330779319,16.126370305250465,0.01151061406513238,0.015313580341171473
451,0.25,0.001,0.012900971324194837,0.010048867222943387,15.98319107973123,0.011408416188244988,0.0093602851848118
452,0.25,0.001,0.012925974466692546,0.010039038563202202,16.178388989927395,0.011547743747271516,0.01080666808411479
453,0.25,0.001,0.012882498595942173,0.009994433395061564,16.184716663280117,0.011552260287851618,0.01323405175935477
454,0.25,0.001,0.01291975469371689,0.010096243625891862,15.82295646345565,0.011294044584907674,0.013480052351951599
455,0.25,0.001,0.013049625021401588,0.010134048331607495,16.338891580638002,0.011662306624295505,0.015086570288985968
456,0.25,0.001,0.012948887446258642,0.009937754733967378,16.874387403077716,0.01204453062318181,0.014701775857247412
457,0.25,0.001,0.01295245575172363,0.010072389900495735,16.13988957626407,0.011520263794621037,0.010316086816601455
458,0.25,0.001,0.012941404222216032,0.010085649988790857,16.003647071902762,0.011423017181943442,0.010808139515575022
459,0.25,0.001,0.012977661981487074,0.010134158593126993,15.934993458196583,0.01137401388879128,0.011825245339423418
460,0.25,0.001,0.01292729740058571,0.010028023909353003,16.247528840720904,0.011597094104725841,0.010977544880006462
461,0.25,0.001,0.012959448601028838,0.010067275882490324,16.20773609982261,0.011568691006297368,0.014541375683620572
462,0.25,0.001,0.01287911008288966,0.010014466876517745,16.05346002055623,0.01145857246292379,0.012689202558249235
463,0.25,0.001,0.01295408057952732,0.010097830623136794,16.006424425020498,0.011424999589593502,0.0105995963094756
464,0.25,0.001,0.012964510716466461,0.010057290607300992,16.292062018994038,0.011628880812986466,0.01091414294205606
465,0.25,0.001,0.01291562853388897,0.010079296863783262,15.894801980835476,0.011345326181895415,0.01302403211593628
466,0.25,0.001,0.012914033590929921,0.010055233319663298,16.020716506217603,0.011435200932346613,0.01145849347813055
467,0.25,0.001,0.013011489358223691,0.0101431066775498,16.074416426163687,0.011473530639660019,0.01219792605843395
468,0.25,0.001,0.013008340242228427,0.010066937030399148,16.483623013717715,0.011765612429491588,0.013675128109753132
469,0.25,0.001,0.012922730556205858,0.01003625115796232,16.175831094572814,0.01154591798327824,0.011436217231675982
470,0.25,0.001,0.01293080295770103,0.010083218926430252,15.957861497935363,0.01139033654385108,0.012516922317445278
471,0.25,0.001,0.01297258198622787,0.010126052408593114,15.951951952423224,0.011386118452835992,0.01419387524947524
472,0.25,0.001,0.01287451685103686,0.010029354973652945,15.944287006362078,0.011380647399259156,0.015667738392949104
473,0.25,0.001,0.012951922842659025,0.01008077879841066,16.08989103936948,0.011484576045231606,0.017609706497751176
474,0.25,0.001,0.012919657372472658,0.010018931454212605,16.255667312235772,0.011602903149347447,0.013080419972538948
475,0.25,0.001,0.01293997588382743,0.010095415353963647,15.940917147865779,0.011378242075564439,0.0114254557993263
476,0.25,0.001,0.012885938952618007,0.010065224249591807,15.807284745485974,0.011282858490710902,0.01271725760307163
477,0.25,0.001,0.01296750294586903,0.010060942240593805,16.288366856957285,0.011626243295472724,0.011624879611190408
478,0.25,0.001,0.012906520493831564,0.010028346084089722,16.129289675362504,0.011512697841086727,0.011497129104100168
479,0.25,0.001,0.012989733462469488,0.01009859272793627,16.20195313143831,0.011564563262982375,0.014006147044710815
480,0.25,0.001,0.012850824201220199,0.010033986723749949,15.78555816135326,0.011267350579124383,0.01181978383101523
481,0.25,0.001,0.012878578171951358,0.009990260327227005,16.18613288975969,0.011553271156145389,0.011485646537039429
482,0.25,0.001,0.012858827877396773,0.010029124909469599,15.85765630987626,0.011318812498127238,0.010442572413012385
483,0.25,0.001,0.012959592291920246,0.01007493887536762,16.165598712389983,0.011538614355738745,0.012100511463358998
484,0.25,0.001,0.012870116300786598,0.010010503055645695,16.025273117838026,0.011438453331790168,0.012599855428561568
485,0.25,0.001,0.012922012628319395,0.010084088341596258,15.903727776893584,0.011351697199781288,0.010717600758653134
486,0.25,0.001,0.012962810502619432,0.010062015976929715,16.25605395272814,0.011603179124002955,0.011071154789533466
487,0.25,0.001,0.012930355419872431,0.0100665573533703,16.048725196580847,0.011455192859800747,0.012024199706502259
488,0.25,0.001,0.012938216250028289,0.010045051382155107,16.213296833923597,0.011572660124142467,0.010065603535622358
489,0.25,0.001,0.012894958961079141,0.010026271612175154,16.076124078613795,0.011474749520780723,0.012786231469362974
490,0.25,0.001,0.012836834824475054,0.010037875899314127,15.68536562054469,0.011195835560702848,0.009856665215920657
491,0.25,0.001,0.012784645169627566,0.009972272959502437,15.760534024942777,0.0112494889542775,0.011399936745874584
492,0.25,0.001,0.012859040348621611,0.009984610535455907,16.10830509813526,0.011497719556127953,0.011869456968270242
493,0.25,0.001,0.012944753073501687,0.010051105792323748,16.216000243078305,0.011574589752375663,0.014069545781239867
494,0.25,0.001,0.01290932438780361,0.010064027818383546,15.945042392875575,0.011381186575928319,0.013227159040980041
495,0.25,0.001,0.012845912130887498,0.009955159156634336,16.19977988874862,0.011563012054781312,0.01381204801145941
496,0.25,0.001,0.012911500951534585,0.01003172190836336,16.138282912692944,0.011519116996925727,0.013577188132330775
497,0.25,0.001,0.01292365626726724,0.010064976647464786,16.02004109958053,0.011434718843383677,0.013647532148752362
498,0.25,0.001,0.012972578870030395,0.010072781071695597,16.250467135433407,0.01159919138860343,0.01235224271658808
499,0.25,0.001,0.012886520003593421,0.010029925952983808,16.00835346270211,0.011426376490151399,0.011913088441360742
500,0.25,0.001,0.012815668809577383,0.009972673286742803,15.932146430518557,0.011371981749121025,0.012217986397445202
