epoch,beta,learning_rate,train_loss,train_reconstruction_loss,train_kl_unnormalized,train_kl_normalized,mean_unclipped_gradient_norm
1,0.0,0.001,0.09055004265740954,0.09055004265740954,15.115375434296041,0.010788990317127795,0.09098678082227707
2,0.02,0.001,0.08016809997176319,0.07872315974049428,101.21813243753296,0.07224706098324979,0.11430972069501877
3,0.04,0.001,0.06440776059962024,0.05425232273176753,355.6942060124522,0.2538859429068181,0.14078163169324398
4,0.06,0.001,0.05399836162851833,0.04724660962191312,157.65341473028127,0.11252920394738135,0.09791307710111141
5,0.08,0.001,0.04744221942837228,0.044245726055611036,55.978602711158466,0.039956176096472854,0.06543389149010181
6,0.1,0.001,0.04424375070864138,0.04262918515233048,22.6200731333801,0.016145662479214916,0.11602046946063638
7,0.12,0.001,0.041557762253133554,0.039581889420244765,23.06832902642745,0.016465616721218736,0.1329013081267476
8,0.14,0.001,0.04051036239927831,0.03814636236881908,23.656894788460388,0.01688572076264125,0.0858666563872248
9,0.16,0.001,0.03924129599948976,0.0370181918081352,19.46605185013783,0.0138943981799699,0.0844492104370147
10,0.18,0.001,0.03756100187699,0.03539628142545998,16.848738605966044,0.012026223130596748,0.056727775605395436
11,0.2,0.001,0.03544916229849123,0.03286637937972314,18.092395307645518,0.012913915280260898,0.059854482766240835
12,0.22,0.001,0.0324880778003594,0.02955493875602378,18.678767715325336,0.013332453758262195,0.0729046433698386
13,0.24,0.001,0.030473236371821994,0.02705997032926807,19.92494306282655,0.01422194365655,0.039392276434227824
14,0.25,0.001,0.028641404749094684,0.024913503077148385,20.891162292866767,0.014911607632310326,0.051141544012352824
15,0.25,0.001,0.02670087211840012,0.023167334952812153,19.801943815207178,0.014134149761032961,0.04345980496145785
16,0.25,0.001,0.02567697695224597,0.02194004454787522,20.941769941949644,0.014947730151284543,0.09982532635331154
17,0.25,0.001,0.024262989474311155,0.020520374642582884,20.973612893985795,0.014970458882216842,0.10027805645950139
18,0.25,0.001,0.02318688423887587,0.019638939874584666,19.88267994329396,0.014191777261451793,0.0661190627142787
19,0.25,0.001,0.022562112266252817,0.0188386811863018,20.866106797874224,0.014893723624464113,0.069737903540954
20,0.25,0.001,0.022474741508186114,0.018752586025791832,20.858960654665147,0.014888622879846642,0.12819668417796493
21,0.25,0.001,0.02190311298654552,0.01817143255773979,20.91233861899074,0.014926722783005525,0.12029219814576209
22,0.25,0.001,0.021459310248745644,0.017753154734927643,20.76929656563932,0.014824622816302155,0.09377715969458222
23,0.25,0.001,0.0208357726125526,0.01705789006460568,21.171256672983933,0.015111532243386105,0.06713066902011633
24,0.25,0.001,0.020194262313314632,0.016425757130552946,21.11870445380231,0.01507402173718937,0.0365770134376362
25,0.25,0.001,0.020161701955750018,0.016528046882479504,20.363003581888062,0.014534620686572493,0.03802593401633203
26,0.0,0.001,0.015407033681177892,0.015407033681177892,28.03297194146909,0.020009259058864446,0.03165782010182738
27,0.02,0.001,0.01459982224154573,0.01386123245684155,51.73824059208737,0.03692950791726436,0.04212951101362705
28,0.04,0.001,0.015050773890020979,0.013096634471466773,68.4437304790513,0.04885348356820221,0.024557014228776097
29,0.06,0.001,0.01565692327790874,0.012934783226044117,63.56196929030278,0.045369000207211116,0.023773633874952793
30,0.08,0.001,0.015925947954005832,0.013263231017607173,46.63083012898763,0.033283961548171044,0.017902284860610962
31,0.1,0.001,0.01606681872206398,0.01363164833294943,34.11673634364132,0.024351703314519146,0.031139451311901212
32,0.12,0.001,0.01652452290718314,0.01392128446654177,30.392813155419717,0.02169365678473927,0.030845176661387086
33,0.14,0.001,0.016772636711471695,0.01359371907757556,31.811882847975074,0.022706554495342667,0.027962249936535954
34,0.16,0.001,0.01711915644820984,0.013831782005412921,28.785071529919588,0.020546089600228114,0.042224737466312945
35,0.18,0.001,0.017447550462771067,0.01398619315449447,26.940897173016385,0.019229762436128756,0.04946643940638751
36,0.2,0.001,0.017752583779174567,0.014149782126022794,25.23762499330416,0.01801400784675529,0.03829196933656931
37,0.22,0.001,0.01782620820818068,0.013985926006382276,24.455614081917936,0.017455827324709447,0.026462876237928867
38,0.24,0.001,0.01831808191122888,0.014297926126495946,23.467662521555454,0.01675065133587113,0.03466417151503265
39,0.25,0.001,0.01820283593759255,0.014030152424887012,23.383719448298844,0.01669073479535963,0.028298866003751755
40,0.25,0.001,0.017866307940286926,0.014084465923534415,21.193439210014503,0.015127365603150965,0.0194432707503438
41,0.25,0.001,0.01789353582772273,0.014198993627406373,20.7042147399001,0.014778168979229192,0.022283884813077748
42,0.25,0.001,0.017809913709822586,0.013798977130481714,22.47728965855852,0.01604374707962778,0.024283578619360924
43,0.25,0.001,0.017585556403997074,0.013836683909789923,21.00868180029503,0.014995490221481106,0.02125092054484412
44,0.25,0.001,0.01757362380403758,0.01394359869214427,20.342662223783726,0.014520101515905586,0.03295218269340694
45,0.25,0.001,0.01745837746887519,0.013739296007225534,20.841732685073016,0.014876325970787306,0.03174670832231641
46,0.25,0.001,0.017241897996719376,0.01372838329979639,19.689734752671125,0.014054057639308441,0.019394002854824066
47,0.25,0.001,0.017075181887622623,0.01337695555596412,20.724861056492802,0.014792905821907782,0.01735540386289358
48,0.25,0.001,0.017066184619936763,0.013571361857879011,19.584985781319535,0.013979290350692031,0.01401055563474074
49,0.25,0.001,0.01688369762796893,0.013233140692554948,20.457722072359882,0.014602228459928538,0.018994193174876273
50,0.25,0.001,0.01685730514867145,0.013279643507069174,20.04921348185479,0.014310644883550884,0.027755672461353242
51,0.0,0.001,0.01284540166787583,0.01284540166787583,24.724227583358058,0.01764755716156892,0.04097520874347538
52,0.02,0.001,0.012185436197977026,0.011528384632073374,46.02646313437933,0.03285257896815084,0.029090005438774824
53,0.04,0.001,0.012736606733865627,0.011024051530577462,59.98224411332657,0.04281387873899113,0.01988927787169814
54,0.06,0.001,0.013247100066566517,0.01090539047565264,54.6789190879854,0.039028493281931045,0.014935563202016056
55,0.08,0.001,0.013495296837156836,0.011241975900587401,39.461285410048085,0.028166513497536107,0.014746636268682778
56,0.1,0.001,0.013745664803602021,0.011613094216440549,29.877311046616438,0.02132570381628582,0.013071248074993491
57,0.12,0.001,0.014017388507535186,0.011628886197501093,27.88576361096861,0.019904185304046116,0.012228733510710299
58,0.14,0.001,0.014379255536487837,0.011614107908012998,27.671230662221145,0.019751056860971554,0.016809194697998464
59,0.16,0.001,0.014718031255284694,0.011760546157788878,25.89648007742966,0.018484282710513677,0.015141722629778087
60,0.18,0.001,0.015040261753469328,0.011982214483845084,23.801801110118753,0.016989151399085477,0.018847818835638463
61,0.2,0.001,0.015280022054030423,0.011971754874672568,23.174410325062425,0.0165413349929068,0.013221425528172404
62,0.22,0.001,0.015462860842294332,0.012086630889257802,21.500446593208153,0.01534650006652973,0.018556640308815986
63,0.24,0.001,0.015800891648427847,0.012313675300418577,20.356627017636843,0.014530069248848566,0.022618961054831743
64,0.25,0.001,0.01588364594659222,0.012196660155768384,20.661869306604572,0.01474794383055287,0.02155567443696782
65,0.25,0.001,0.015732070784780044,0.012297185660508867,19.249095208534207,0.013739539763407714,0.021502232062630355
66,0.25,0.001,0.01574372232180356,0.012271716884231265,19.457118038386735,0.013888021440675757,0.021153160836547613
67,0.25,0.001,0.015634351217419788,0.01219538244407011,19.27198022930934,0.013755874539121584,0.01870183600112796
68,0.25,0.001,0.015593823261621884,0.01216476544234823,19.216440273236625,0.013716231458413008,0.020227847388014197
69,0.25,0.001,0.015660949452202533,0.012267680143159402,19.01588249206543,0.01357307815279474,0.0169773482484743
70,0.25,0.001,0.015444885656426224,0.012069940967838975,18.91319047952,0.013499779071748751,0.019625746994279325
71,0.25,0.001,0.015320144621223086,0.012000442191738368,18.60361396210103,0.013278810822341919,0.020845917519181967
72,0.25,0.001,0.015447178501871568,0.012126133223123189,18.611137349897295,0.013284180835044464,0.03210170427337289
73,0.25,0.001,0.015229522545315042,0.011921514332577397,18.53807871854758,0.013232033346572148,0.020737344166263938
74,0.25,0.001,0.015295536858560164,0.01205813355413796,18.142407984673223,0.012949613122536206,0.016809531254693866
75,0.25,0.001,0.015063377061882351,0.01184008571904797,18.06332396656149,0.01289316485835938,0.02336899668443948
76,0.0,0.001,0.011543967403502907,0.011543967403502907,21.915952304244545,0.01564307801873272,0.02010797057300806
77,0.02,0.001,0.011017681150559634,0.01043379476160314,40.901244907942505,0.029194321847210925,0.01178543095011264
78,0.04,0.001,0.01157304557346845,0.010044090720954576,53.55164259898512,0.03822387052033199,0.00984779722057283
79,0.06,0.001,0.012014484201962687,0.009992995680573118,47.201757310312004,0.033691475596225554,0.010429210669826716
80,0.08,0.001,0.012207898492079998,0.010299087474554902,33.42805235496553,0.023860137298333712,0.010748206463176757
81,0.1,0.001,0.012489105122879084,0.010628953422832339,26.06072309952748,0.018601515417221614,0.012085603724699467
82,0.12,0.001,0.012885926542842941,0.010711579304581453,25.385501435034385,0.018119558483250812,0.0154725281172432
83,0.14,0.001,0.013210861865069545,0.01068955212674312,25.231106826524694,0.018009355336562952,0.012693531578406692
84,0.16,0.001,0.013463249846601286,0.010858421382899023,22.80852989003628,0.016280178365479143,0.014069643337279558
85,0.18,0.001,0.0137425747578217,0.010913987270701787,22.015839331260715,0.015714374968779952,0.012580345792230219
86,0.2,0.001,0.01402847697950491,0.011039030879641636,20.94106918045237,0.014947229964634098,0.01473203580826521
87,0.22,0.001,0.014235926729151468,0.011058356880135676,20.235341792368185,0.014443498781133608,0.008491342479828745
88,0.24,0.001,0.014451438922607949,0.011177732656367971,19.11026067774004,0.013640443024796603,0.010086855909321457
89,0.25,0.001,0.014656764482647055,0.01129234785347674,18.85419186459312,0.013457667283792376,0.0139239871641621
90,0.25,0.001,0.014635470534678754,0.011323787605995115,18.558670478531077,0.013246731248059298,0.01940577302593738
91,0.25,0.001,0.01472911389568184,0.0114048253666248,18.629312998131862,0.013297154174255433,0.018412339268252254
92,0.25,0.001,0.014654210568228854,0.011425910214991761,18.09139521313116,0.012913201436924454,0.017873775912448764
93,0.25,0.001,0.014583082413811723,0.011334707685412233,18.203892752088073,0.01299349946615851,0.015106157050468028
94,0.25,0.001,0.01449396205036449,0.011257019538416641,18.13982539438497,0.012947769731895055,0.013084438629448414
95,0.25,0.001,0.01456005417816498,0.01128160670195325,18.37242062886556,0.013113790598761998,0.017424214398488402
96,0.25,0.001,0.014575784522961464,0.011304218754298073,18.333854844298543,0.0130862632721617,0.01645451132208109
97,0.25,0.001,0.014556221927237158,0.011344042638088832,18.001051810220325,0.01284871649551772,0.01808152033481747
98,0.25,0.001,0.014545535770901145,0.011297663135399044,18.20107850344372,0.012991490723371678,0.03022904647514224
99,0.25,0.001,0.014451919752271367,0.01127770332863185,17.788308984619654,0.012696865799157497,0.021077809506095946
100,0.25,0.001,0.014453539624810219,0.011256354998498527,17.917023590345423,0.012788739179404299,0.015269368421286345
101,0.25,0.001,0.014397801340160742,0.011228757768963711,17.759319949250685,0.012676174125089711,0.019108317676000297
102,0.25,0.001,0.014403676633813462,0.011165950883509992,18.144214750845222,0.012950902748640416,0.012714628712274134
103,0.25,0.001,0.01433399823820415,0.01117777583122505,17.687469715810526,0.012624889161891882,0.015393482870422304
104,0.25,0.001,0.01436075579988051,0.01120095666623694,17.70751524172755,0.01263919717468062,0.017595228855498135
105,0.25,0.001,0.014331493475611955,0.011119513501283488,17.999936252706664,0.012847920237477991,0.013151692226529121
106,0.25,0.001,0.014245255005384799,0.011085933019340289,17.704840607783964,0.012637288085498903,0.013387252809479833
107,0.25,0.001,0.014250407946386419,0.011053505750522332,17.91544004834654,0.012787608885329435,0.01494560216087848
108,0.25,0.001,0.014215427478343123,0.01105753670324756,17.696821148385478,0.012631563988854731,0.013164876494556665
109,0.25,0.001,0.014171387658371955,0.011031707226129775,17.5947690553303,0.012558721666902427,0.01036023790948093
110,0.25,0.001,0.014188991670932951,0.01106487037731877,17.50757596462588,0.012496485342345381,0.014294672990217805
111,0.25,0.001,0.014217100746709586,0.011008166071451917,17.982870504322936,0.012835739118003522,0.010109798284247518
112,0.25,0.001,0.01416881661862135,0.010988821947499167,17.82068941462392,0.012719978168896445,0.013142022769898176
113,0.25,0.001,0.014144033590481,0.011036139075891882,17.416641565314826,0.012431578561966328,0.01781156985089183
114,0.25,0.001,0.014078394384103736,0.010934547167507153,17.618120217625098,0.01257538916318708,0.012447916436940432
115,0.25,0.001,0.014087254456578428,0.010944958100339028,17.609428220660373,0.012569185025453514,0.013667608494870365
116,0.25,0.001,0.014119486128007562,0.010972389526948144,17.63632914386218,0.012588386255433391,0.01792398316320032
117,0.25,0.001,0.013992807085189638,0.010900799401167324,17.327612832628724,0.012368032000448767,0.014946768118534237
118,0.25,0.001,0.014008132748714479,0.010905227505990977,17.388681162258745,0.012411621100827084,0.011015896801836789
119,0.25,0.001,0.014067436666679785,0.010885073995917155,17.83396064178853,0.012729450850669899,0.015350680565461516
120,0.25,0.001,0.014077187468639658,0.010924265908572492,17.668972594828546,0.01261168636318954,0.022226568777114153
121,0.25,0.001,0.01406772110123926,0.01090710758691347,17.712078995845488,0.012642454672266587,0.020541877602227032
122,0.25,0.001,0.014059228056310854,0.010941779578914118,17.470181501364404,0.012469794076634122,0.014074528240598738
123,0.25,0.001,0.0139841215865773,0.010850001979257739,17.56360590810011,0.012536478164239908,0.010053708276245743
124,0.25,0.001,0.014027266303383851,0.010855869904852114,17.772505273295856,0.012685585491288976,0.011891521862708032
125,0.25,0.001,0.013941267654614106,0.01075173592202774,17.87413565720184,0.012758126807424582,0.016682063695043325
126,0.25,0.001,0.013928983038299194,0.010831748540139902,17.35690194142016,0.012388937859686052,0.011167211225256324
127,0.25,0.001,0.013874685191372527,0.010714781910715475,17.70809866506842,0.012639613608185881,0.010866245836950839
128,0.25,0.001,0.013940602816044027,0.010848761257177163,17.326680058668433,0.012367366208899666,0.01566224091220647
129,0.25,0.001,0.013965068616853232,0.010774893057434367,17.87774473101781,0.012760702877243261,0.01607174298260361
130,0.25,0.001,0.013885398485741033,0.010769063048850634,17.46394352973262,0.012465341562978316,0.011098125018179417
131,0.25,0.001,0.013894593527831357,0.010752568489042767,17.607908442050597,0.012568100244147465,0.011913326103240252
132,0.25,0.001,0.013978551259806639,0.010830240143376564,17.643136213600386,0.012593244977587712,0.013373356545343995
133,0.25,0.001,0.01388935964035837,0.010733378520589086,17.68611837942389,0.012623924610580935,0.014293146086856723
134,0.25,0.001,0.013872920991342028,0.010769461144060525,17.391789488651582,0.012413839749215977,0.020464229281060398
135,0.25,0.001,0.013892443992103203,0.010743354203548864,17.647499502962653,0.012596359388267418,0.019232435384765267
136,0.25,0.001,0.013795146679324943,0.010651557140429563,17.616675670639875,0.012574358080399625,0.01357500976882875
137,0.25,0.001,0.01380688297063238,0.010711024853279067,17.349188036053494,0.012383431860138112,0.012658086605370045
138,0.25,0.001,0.013810562563250589,0.010691946608167661,17.476723924467834,0.012474463900405306,0.017678508069366217
139,0.25,0.001,0.0138119871016859,0.010718967411902886,17.333282116596205,0.012372078598569739,0.01694406010210514
140,0.25,0.001,0.013843615527583075,0.010655841672250742,17.864284974110276,0.012751095627487706,0.01747619512025267
141,0.25,0.001,0.01372319364425125,0.010586239884800046,17.579488279447276,0.012547814617735386,0.015579077647998929
142,0.25,0.001,0.013721998309410071,0.010658220246528523,17.169412725585424,0.012255112580717648,0.011703665484674275
143,0.25,0.001,0.013794714569228109,0.01063398706809252,17.712715921522697,0.01264290929444875,0.013505333801731467
144,0.25,0.001,0.013724240608010363,0.010561967197852799,17.721380861499643,0.012649094119557204,0.011710241786204278
145,0.25,0.001,0.013694336213454415,0.01064995310037448,17.06072165895615,0.012177531519597539,0.014750974252820015
146,0.25,0.001,0.013769560937577158,0.010590132251224689,17.817519191951188,0.012717715340436251,0.014585531665943563
147,0.25,0.001,0.013705825716068473,0.010597015746755187,17.421771858311907,0.012435240441336122,0.010217777220532298
148,0.25,0.001,0.013671774358217474,0.010556060518236352,17.46045996267584,0.012462855076856417,0.010968843882437795
149,0.25,0.001,0.01375986146445893,0.010598084028763107,17.718600510544917,0.012647109572123423,0.013492476020473987
150,0.25,0.001,0.013756478857641984,0.010599734202687498,17.690397737398428,0.012626979113060975,0.012196212133858353
151,0.25,0.001,0.013730393078193886,0.010562556976538922,17.752552821163388,0.01267134391232219,0.016594907152466476
152,0.25,0.001,0.013676629830073204,0.010609986437366733,17.185470001607,0.012266573876950036,0.014798921183682978
153,0.25,0.001,0.013689240554685582,0.010524861113745955,17.73318260128488,0.012657517916691563,0.014514890033751726
154,0.25,0.001,0.013674225367385627,0.010516226401686165,17.69742641368496,0.012631996012623097,0.01772917411290109
155,0.25,0.001,0.013645751166004168,0.010551818339979346,17.338400410197455,0.012375731913060281,0.01391835359390825
156,0.25,0.001,0.013679949228773641,0.010551098938481215,17.534077390839784,0.012515401421013407,0.013557642232626677
157,0.25,0.001,0.01362136624093297,0.01040973889991201,17.99795879895174,0.012846508778695032,0.012063124682754278
158,0.25,0.001,0.013664627133353853,0.010600284838318071,17.172573508089606,0.01225736867101328,0.015168975107371807
159,0.25,0.001,0.01364623133941919,0.010517356001658026,17.534218043717654,0.012515501815644293,0.01319373381556943
160,0.25,0.001,0.013607747459839165,0.01051313813602874,17.342190247547776,0.012378437007528748,0.018290068488568068
161,0.25,0.001,0.013545326118353549,0.010399686038997102,17.628167220811804,0.012582560471671523,0.011556851794011891
162,0.25,0.001,0.01358038491180426,0.0105422235443748,17.025855961731214,0.0121526452260751,0.012879502144642174
163,0.25,0.001,0.01367324599721135,0.010570467740517377,17.387970268474852,0.012411113681994898,0.013005492626689374
164,0.25,0.001,0.013538944986864988,0.010319106799514987,18.043973737628146,0.012879353131783117,0.010639753774739802
165,0.25,0.001,0.013513321842888237,0.010426439757494233,17.29888786444684,0.012347528811168337,0.012325729592703283
166,0.25,0.001,0.013586382189066099,0.010527373613781818,17.142683833963257,0.012236034142728948,0.010149200563319027
167,0.25,0.001,0.013595911847105258,0.010451368578878637,17.622019723497864,0.012578172536401045,0.013680374540854245
168,0.25,0.001,0.013659618747762487,0.010476272537486966,17.839473265635817,0.0127333856285766,0.014212500886060297
169,0.25,0.001,0.013621725224524359,0.010479925687617391,17.606645044898183,0.012567198461740316,0.014205965446308255
170,0.25,0.001,0.013608545842993109,0.010483497757668988,17.512769763479756,0.012500192550663638,0.013380617718212306
171,0.25,0.001,0.013592535873505637,0.010439341384838905,17.670502835688207,0.01261277861219715,0.011396715068258345
172,0.25,0.001,0.013551445846850611,0.01038935412711735,17.72036212003684,0.012648366966478829,0.014939815388061106
173,0.25,0.001,0.01354522654936032,0.010414433917069988,17.544962573152052,0.012523171001536083,0.013521618209779263
174,0.25,0.001,0.013488002722682078,0.010397203062279817,17.3208411413909,0.01236319853061449,0.013106273661833256
175,0.25,0.001,0.013550074126587135,0.0104563056495245,17.337477857050512,0.012375073416881165,0.02050217951182276
176,0.25,0.001,0.013561414688322615,0.010426836375162823,17.566177939563865,0.01253831401824687,0.015200097404886037
177,0.25,0.001,0.013492089519395104,0.010347020973447505,17.624964009860395,0.012580274096973872,0.014518685638904572
178,0.25,0.001,0.013562382289251699,0.010318085767391613,18.18103775797011,0.012977186122748115,0.017616528901271522
179,0.25,0.001,0.013571046870437604,0.010477443933015383,17.3365505556517,0.01237441153151442,0.02178675716277212
180,0.25,0.001,0.013555974475567854,0.010444941301731871,17.434229412159336,0.01244413234272615,0.0236997464671731
181,0.25,0.001,0.013536807774460013,0.010433205674532094,17.39258580268184,0.0124144081389592,0.018514560535550117
182,0.25,0.001,0.013445837600038776,0.010303599830669693,17.609101565075324,0.012568951866577676,0.01336641371017322
183,0.25,0.001,0.01348409172194668,0.010393079507797328,17.322034151745246,0.012364050072623301,0.01489168789703399
184,0.25,0.001,0.01351484070818887,0.010332348477488328,17.834686544877066,0.012729968982781632,0.011913919588550925
185,0.25,0.001,0.013498396058625814,0.010408366922257696,17.316523829592935,0.012360116937610946,0.01516729302238673
186,0.25,0.001,0.013530217845951707,0.010384490442332587,17.62865723235698,0.012582910230090635,0.014621408190578222
187,0.25,0.001,0.013410884914487475,0.010301263191450371,17.42631996734233,0.012438486771836068,0.012951660086400807
188,0.25,0.001,0.013408707690578473,0.01034999474537272,17.14102782076421,0.012234852120459822,0.012120839674025774
189,0.25,0.001,0.013427114078798626,0.010245341697574165,17.83065276005097,0.012727089764490343,0.011020899342838675
190,0.25,0.001,0.013364261086983017,0.010214538219137282,17.651047195563336,0.012598891645655487,0.013432842795737088
191,0.25,0.001,0.013424338454592831,0.010362706257163975,17.157386779785156,0.01224652875073887,0.013536573969759047
192,0.25,0.001,0.013435149730383596,0.01027264820906935,17.72265868850901,0.012650006201648117,0.012138611928094178
193,0.25,0.001,0.013449137763194898,0.010349364456119416,17.37112920093134,0.012399092934283611,0.012858746340498328
194,0.25,0.001,0.01338361092068978,0.010289540404320266,17.33917093880569,0.012376281897791356,0.01248248724732548
195,0.25,0.001,0.013480603903186221,0.010345501420461428,17.56911491039936,0.012540410357172991,0.019590113312005997
196,0.25,0.001,0.013394183129512308,0.010313682372088422,17.26312551216737,0.012322002506900336,0.018051093677058816
197,0.25,0.001,0.013479153943967216,0.010348152043101405,17.546134683150278,0.01252400762537493,0.019779996247962117
198,0.25,0.001,0.013516435564696035,0.010298132310908304,18.035370516877638,0.012873212360369478,0.021149141481146216
199,0.25,0.001,0.013470563656387198,0.010400678765987546,17.203634535713036,0.012279539283164194,0.01873855828307569
200,0.25,0.001,0.013352881283951209,0.010192102367522092,17.713005597078347,0.012643116057871768,0.01417848956771195
201,0.25,0.001,0.013342495999821631,0.010242846605804148,17.37043587567937,0.01239859805544566,0.010265090619213879
202,0.25,0.001,0.01339123876694637,0.010316931123880647,17.228420619723163,0.012297230991950866,0.012460647616535425
203,0.25,0.001,0.013323003343671938,0.010114051609885592,17.98296686969226,0.012835807901279271,0.013284103770274669
204,0.25,0.001,0.013338575843045732,0.010212039370639917,17.521110083986436,0.012506145670225864,0.01712949317879975
205,0.25,0.001,0.013377065683876161,0.01025748803802935,17.48211348006494,0.012478310835164125,0.013584678061306477
206,0.25,0.001,0.013354842947945313,0.010211510654491714,17.615234753250572,0.012573329588330172,0.020164964604191482
207,0.25,0.001,0.013357732134560743,0.010289507984863555,17.19432873464335,0.012272897026868915,0.024500598898157477
208,0.25,0.001,0.01331804236122073,0.010162057724431597,17.68613727585676,0.012623938098398828,0.011420425958931446
209,0.25,0.001,0.013291674776136372,0.010205901962732465,17.29267047125579,0.012343090985907058,0.012983478314708918
210,0.25,0.001,0.013235131003559893,0.010074967683493337,17.709555243641013,0.01264065327883013,0.012239481206052005
211,0.25,0.001,0.0132917175658896,0.010140419029925444,17.65987887965979,0.01260519548869364,0.010706441651564091
212,0.25,0.001,0.01332364915103852,0.010250644035291571,17.22112084239847,0.012292020587008188,0.010364840738475323
213,0.25,0.001,0.01331169210484385,0.010108684802640088,17.949653206998285,0.01281202941256123,0.011770635494031012
214,0.25,0.001,0.013333842260487975,0.010207643756006338,17.51921657771501,0.012504794131131342,0.011820223880931735
215,0.25,0.001,0.013213067343026274,0.010118116070575353,17.34410714901952,0.012379805245552834,0.011345501698087901
216,0.25,0.001,0.013323712905373755,0.010253591836284735,17.204959137027274,0.012280484751625463,0.011472904006950557
217,0.25,0.001,0.013210023132463297,0.010073119672290383,17.57920713464922,0.012547613943361327,0.012279061076696962
218,0.25,0.001,0.013276998315179398,0.010175272594461462,17.382071144973175,0.01240690302995944,0.017014679731801152
219,0.25,0.001,0.013220104872237277,0.010122593504058409,17.358454136908808,0.012390045779378163,0.016866193967871368
220,0.25,0.001,0.01332089853107552,0.010179391401949563,17.605005795442604,0.012566028405026842,0.014088683994486928
221,0.25,0.001,0.013270094413074512,0.010140296244671576,17.539389960373505,0.01251919340497752,0.011981554969679564
222,0.25,0.001,0.013232551833402507,0.010058648636729657,17.786553217891903,0.012695612575226198,0.012848004698753357
223,0.25,0.001,0.013197551937262972,0.010147432784868193,17.092868330106455,0.012200477037906107,0.013563203858211637
224,0.25,0.001,0.013213692621999904,0.010125963347433488,17.303635762210636,0.012350917746046136,0.010761480778455734
225,0.25,0.001,0.013185756579670221,0.01010121108830478,17.285794020705083,0.012338182741402628,0.012095158395823091
226,0.25,0.001,0.01327502403706941,0.010144670265982172,17.54250318792802,0.012521415551697373,0.01489455858245492
227,0.25,0.001,0.013234069181865529,0.010128301521173761,17.404721272142627,0.01242307014428453,0.014811252593062818
228,0.25,0.001,0.013222037897079805,0.010141601263376479,17.262767276683437,0.012321746807054558,0.01989795221015811
229,0.25,0.001,0.013199207259004126,0.01012953096521303,17.20246543562362,0.012278704807725638,0.02167364943306893
230,0.25,0.001,0.013177615621830592,0.010103993931242937,17.22457571874691,0.012294486594394654,0.01658365793991834
231,0.25,0.001,0.01318866060850238,0.010081571695799567,17.412127667841528,0.012428356650850484,0.014142039814032614
232,0.25,0.001,0.013198935721493974,0.010056022208828463,17.61288723362146,0.01257165398545429,0.008857937005814165
233,0.25,0.001,0.013153581530295846,0.010027590797200232,17.518052620223806,0.012503963326355321,0.01312887272797525
234,0.25,0.001,0.01315889744488876,0.010080501779065103,17.251329317374573,0.012313582667647803,0.012155229458585382
235,0.25,0.001,0.013106539185288587,0.009962449946641168,17.6194768253761,0.012576357477070735,0.013275007018819451
236,0.25,0.001,0.013123147331083877,0.010006935952647828,17.46324935140489,0.012464846075235467,0.013006485183723271
237,0.25,0.001,0.013119202881328416,0.010011693462729454,17.41448272833844,0.012430037636215875,0.013581341947428882
238,0.25,0.001,0.013115953516513738,0.009967466069676202,17.644123511978343,0.01259394968735071,0.012958659732248634
239,0.25,0.001,0.013197358210378558,0.010073136550056028,17.50813806912064,0.01249688655897262,0.014270193059928715
240,0.25,0.001,0.013286758941217062,0.01011739382009466,17.76112260295369,0.01267746081581277,0.011427300982177258
241,0.25,0.001,0.013171214681071571,0.010006059200860529,17.737531573460576,0.012660622108108905,0.012272152351215482
242,0.25,0.001,0.013136426670641839,0.010041596466195986,17.34342835824701,0.012379320741075667,0.011411404935643077
243,0.25,0.001,0.013088612982272348,0.00998915538962003,17.369361145083914,0.012397830938675171,0.01191723789088428
244,0.25,0.001,0.013193320644084159,0.010061908281459336,17.548434350057995,0.01252564907213276,0.013088745763525367
245,0.25,0.001,0.013173137496732459,0.010001002036758112,17.776646746864802,0.012688541575206854,0.012549457023851573
246,0.25,0.001,0.013126108080211571,0.009971475075411646,17.67856441771431,0.01261853277495668,0.011181390087585896
247,0.25,0.001,0.013066185709041885,0.009991944909001453,17.228046006794216,0.012296963602279954,0.013164018746465445
248,0.25,0.001,0.013118511215166703,0.00992863974632216,17.87603952110065,0.012759485739543648,0.01401637657545507
249,0.25,0.001,0.013110024748440785,0.009956377039698861,17.673041508670597,0.012614590655724909,0.01188519538845867
250,0.25,0.001,0.013103151092706601,0.009990782972095134,17.441711554547403,0.012449472915451395,0.013860483188182116
251,0.25,0.001,0.013097068569956953,0.009956033888591242,17.602358612833143,0.01256413890994514,0.01428481750190258
252,0.25,0.001,0.013147008727119944,0.009976783441183185,17.765942480996692,0.012680901128477296,0.016425307956524193
253,0.25,0.001,0.013063249115356664,0.00993349572117067,17.539138536413006,0.012519013944620275,0.013019705773331225
254,0.25,0.001,0.0131249441667008,0.009983018673327654,17.607350184444638,0.012567701773336644,0.01169446436688304
255,0.25,0.001,0.013040208497442274,0.00988716249381691,17.669669919879123,0.01261218409698724,0.010486277111340314
256,0.25,0.001,0.013075338487949553,0.009958735352798604,17.465443687599922,0.01246641233947175,0.01314560859464109
257,0.25,0.001,0.013074575278923733,0.009923663691770805,17.65770830081988,0.012603646181884283,0.01410721056163311
258,0.25,0.001,0.013144386240638762,0.009997751512702257,17.633741282209566,0.012586539102219534,0.011687763617374003
259,0.25,0.001,0.013072853436387038,0.009930721389813513,17.608508516464557,0.01256852856278698,0.011893708258867264
260,0.25,0.001,0.013005271404667243,0.009852973315943394,17.66547836432477,0.012609192265756438,0.01391402300214395
261,0.25,0.001,0.013014062099504571,0.009898894682589462,17.457399585579015,0.012460670653518212,0.01339372934307903
262,0.25,0.001,0.013030099238461584,0.00988443367348253,17.628310593874644,0.012582662807904814,0.015159115195274353
263,0.25,0.001,0.013094414752526876,0.009975192192077386,17.48012360842419,0.012476890512793855,0.016374888480640948
264,0.25,0.001,0.013014399576224859,0.009794435275223437,18.044681243252654,0.012879858132228875,0.01714889786671847
265,0.25,0.001,0.01310163945006796,0.01002691225600645,17.230771430937047,0.012298908944280547,0.013722214032895863
266,0.25,0.001,0.013032443322367054,0.009877615494315635,17.679655501611123,0.012619311564319145,0.013303279527463019
267,0.25,0.001,0.013095345835393995,0.009951445230829062,17.61841934944507,0.012575602676263432,0.01220695732627064
268,0.25,0.001,0.013129713882216672,0.009915255473824493,18.01382390758659,0.012857832910482935,0.017858472070656717
269,0.25,0.001,0.01304354278158538,0.009901366031528273,17.60875847571007,0.012568706977666003,0.01373832335229963
270,0.25,0.001,0.013012523507455733,0.009821708553828268,17.881326095967353,0.01276325916914158,0.013292490388266742
271,0.25,0.001,0.012992596304837912,0.009905656864512948,17.299208886512723,0.012347757948974107,0.012409565388225019
272,0.25,0.001,0.01306846750829416,0.009852466715759114,18.022468108165114,0.012864002932309146,0.011580858612433076
273,0.25,0.001,0.013018097877816812,0.00986287355195055,17.681877232805082,0.012620897382444742,0.011151093989610672
274,0.25,0.001,0.012987913673877213,0.009865413368817121,17.498491818391823,0.012490001297924214,0.013852126314304769
275,0.25,0.001,0.013066020035794013,0.009844741387143417,18.05204554851548,0.012885114595657016,0.012273285363335162
276,0.25,0.001,0.012945877022664004,0.0098016171712224,17.62043240704114,0.012577039548209237,0.01367722637951374
277,0.25,0.001,0.012966196716837743,0.009908047296452623,17.1378702252223,0.01223259830494097,0.01369243476074189
278,0.25,0.001,0.012991228388457359,0.009832349271839682,17.702358503381916,0.01263551641925904,0.013058536744210869
279,0.25,0.001,0.012976460182402708,0.009844263610803377,17.55282993558087,0.012528786535032742,0.012724530999548733
280,0.25,0.001,0.012926580388303296,0.00985613443696172,17.206779512172005,0.012281784091486085,0.011808397888671607
281,0.25,0.001,0.013020133729316766,0.009865804367113214,17.676861758976546,0.01261731745822737,0.012278335867449641
282,0.25,0.001,0.013117049761776682,0.00991160933022635,17.96328935743887,0.012821762567765075,0.020754281780682504
283,0.25,0.001,0.012981903707836499,0.009839361788948628,17.61080560000134,0.012570168165596958,0.019529333105310798
284,0.25,0.001,0.012928267367152725,0.009820787947357707,17.414313996391456,0.012429917199422881,0.012132319621741772
285,0.25,0.001,0.012904550330045355,0.009776966803498911,17.526978883059215,0.012510334677415571,0.01264750596601516
286,0.25,0.001,0.012993987256716072,0.009865577690271889,17.531607326072983,0.01251363834837472,0.012483312282711267
287,0.25,0.001,0.013024313277113035,0.009858931701646072,17.7387981897668,0.01266152618827038,0.01651521143503487
288,0.25,0.001,0.012937136968982873,0.009783272643255281,17.674256272456816,0.012615457724808576,0.01150424120714888
289,0.25,0.001,0.012975978515727862,0.009842500856877127,17.56001064445399,0.012533911951787286,0.011086864222306758
290,0.25,0.001,0.012917636854393321,0.00976757685956447,17.652936983712113,0.012600240530843763,0.013967544422484934
291,0.25,0.001,0.012902801208009448,0.009758188613230669,17.62240873409223,0.01257845020277818,0.013381212716922164
292,0.25,0.001,0.013012946284678667,0.009877427084222122,17.571449159066887,0.012542076487556664,0.014688021037727594
293,0.25,0.001,0.0129894427247817,0.009778694406874823,17.99303358214817,0.012842993277764574,0.015671117464080453
294,0.25,0.001,0.013019528255683963,0.009852888357318654,17.74584878849078,0.012666558735539457,0.02072275907266885
295,0.25,0.001,0.012972404146842061,0.009769611736515907,17.948447931667925,0.01281116911610844,0.01762994227465242
296,0.25,0.001,0.012952144933620837,0.009816145925204965,17.574138786219343,0.012543996278529153,0.015208485419861972
297,0.25,0.001,0.012973888030566495,0.009756245721084408,18.031668546330575,0.012870569983105335,0.02054134546779096
298,0.25,0.001,0.013017772115326884,0.009929037090972506,17.30927130944618,0.01235494026370177,0.01634984591510147
299,0.25,0.001,0.012910513867494425,0.009707921349643907,17.947328857228726,0.01281037034777211,0.016727159614674747
300,0.25,0.001,0.012920730385756442,0.009840713888563939,17.260412216186523,0.012320065821689168,0.019163166522048414
301,0.25,0.001,0.012924923031013223,0.009799285815392115,17.516071045952003,0.012502548926446826,0.01596629759296775
302,0.25,0.001,0.012952158651963065,0.009799730437434423,17.666207398040385,0.01260971263243425,0.015414125751703978
303,0.25,0.001,0.012925179435513945,0.00975861085602377,17.745450764265744,0.01266627463545021,0.010834131913725287
304,0.25,0.001,0.012882565796563897,0.009736582125981146,17.63009328077614,0.012583935246806666,0.009990865015424788
305,0.25,0.001,0.012955537580645285,0.009797391524923501,17.69825187715297,0.012632585208531742,0.010349988122470677
306,0.25,0.001,0.01292701347687828,0.009733089351955848,17.898751118012118,0.012775696729487593,0.012507549137808383
307,0.25,0.001,0.012848001802615224,0.00972491123159475,17.50180001399688,0.012492362608134818,0.01542366633657366
308,0.25,0.001,0.012985610984705923,0.009789451284782041,17.911278913795698,0.012784638767877015,0.020057747256942093
309,0.25,0.001,0.012971151580853301,0.009766077654208312,17.961234450843264,0.012820295825013036,0.018489662208594382
310,0.25,0.001,0.012854024115556906,0.009717585597548806,17.576601833230836,0.012545754342063408,0.014696270227432251
311,0.25,0.001,0.012804043310289644,0.009629549317156212,17.78986567887576,0.012697976929961285,0.011112359177786857
312,0.25,0.001,0.012878399196902156,0.009710224089900401,17.75445414193069,0.01267270102921534,0.013570984359830618
313,0.25,0.001,0.012829093510119976,0.009687345526043624,17.606355868311372,0.012566992054469216,0.012127728899940848
314,0.25,0.001,0.012857881920875879,0.009710946464164474,17.635427265730588,0.012587742516581433,0.01327791204676032
315,0.25,0.001,0.0128223528488213,0.009630168281212638,17.889002860346928,0.012768738658348985,0.011583627085201442
316,0.25,0.001,0.012903168518489171,0.009731054899404573,17.776525336478834,0.01268845491540245,0.015590853290632367
317,0.25,0.001,0.012890915834356713,0.00968873133010502,17.94504143920126,0.012808737643969491,0.017532419005874544
318,0.25,0.001,0.012866597217880976,0.009688711418664153,17.808873172550765,0.012711544020378848,0.013216610299423337
319,0.25,0.001,0.012781920104055716,0.009604641102757383,17.805473231062106,0.012709117224169954,0.013965824502520263
320,0.25,0.001,0.01287146231733294,0.009719639065585055,17.662818908691406,0.012607294010486372,0.014998648315668106
321,0.25,0.001,0.012802870181793905,0.009671393516650306,17.54879653705323,0.012525907592471972,0.0152352515142411
322,0.25,0.001,0.012834859112049709,0.009650840989868098,17.843238025777953,0.012736072823538868,0.014036829699762166
323,0.25,0.001,0.012798861682980875,0.009651424084251691,17.63824143389609,0.012589751201924406,0.015234018908813596
324,0.25,0.001,0.01282768782605476,0.009710481343201445,17.46882488556552,0.012468825757006082,0.01280884281732142
325,0.25,0.001,0.012809432457488047,0.00967962035068354,17.53946739711842,0.01251924867745783,0.013425809214822948
326,0.25,0.001,0.012791216589573315,0.00957532181062653,18.021875325134534,0.01286357981808318,0.011486762145068496
327,0.25,0.001,0.012835500750077677,0.009675746355284367,17.707263689000897,0.012639017622413203,0.011946501908823848
328,0.25,0.001,0.012871370041735062,0.00969321172260031,17.810398801972596,0.012712632977853388,0.014648661250248551
329,0.25,0.001,0.012807346790054427,0.009627907367949747,17.81757868191361,0.012717757802936195,0.01416501752100885
330,0.25,0.001,0.012809122653230082,0.00963537645710923,17.785673712879294,0.012694984805766805,0.01227216050028801
331,0.25,0.001,0.012790948144682852,0.009631225351982981,17.707087528856494,0.012638891883552102,0.014040470705367625
332,0.25,0.001,0.012708273405830065,0.009565047742916813,17.614636835669668,0.012572902809186059,0.012465415988117456
333,0.25,0.001,0.012766951270684411,0.009583848021641563,17.83811083121642,0.012732413155757615,0.01044726837426424
334,0.25,0.001,0.012817001752241,0.009669157680328385,17.640518534535598,0.01259137654142441,0.012620016233995557
335,0.25,0.001,0.012802092374188487,0.009611742681025956,17.87872030362801,0.012761399217436124,0.014109807088971138
336,0.25,0.001,0.012735444643703695,0.00955522573997074,17.821947129969857,0.012720875895767206,0.011826786794699728
337,0.25,0.001,0.012846305608780827,0.009713010948921557,17.558983758532044,0.012533178985390466,0.015064280247315764
338,0.25,0.001,0.01283076678241607,0.009605108265163777,18.076591161735955,0.012902634662195543,0.01574802934192121
339,0.25,0.001,0.012772862638350781,0.009574444080361082,17.923938952417817,0.012793675198014146,0.016161336796358228
340,0.25,0.001,0.012736333294414015,0.009670213352150053,17.182535340514363,0.012264479186662644,0.011569117894396186
341,0.25,0.001,0.012792941937340966,0.009586242829225485,17.97034228200148,0.012826796775161655,0.015889709000475705
342,0.25,0.001,0.012799914262182853,0.009622881691981468,17.804089888238707,0.012708129827436621,0.013755029998719692
343,0.25,0.001,0.012770376506139708,0.00958986500207382,17.82358587240871,0.012722045590584376,0.012102837557904422
344,0.25,0.001,0.01274313293947575,0.009592577811126216,17.655710687114215,0.012602220333414857,0.011055052222218364
345,0.25,0.001,0.012756228655230899,0.009619458103041609,17.578462359271473,0.012547082340664864,0.012188954511657357
346,0.25,0.001,0.012812620873724107,0.00956874440192296,18.178683655171454,0.012975505820964635,0.012581416871398687
347,0.25,0.001,0.012792759516005274,0.009682503603555985,17.42987462136313,0.012441023998117865,0.016788161941803992
348,0.25,0.001,0.012824852196381816,0.009607680051544295,18.029033113632526,0.012868688874826928,0.019816720625385642
349,0.25,0.001,0.012801281455511283,0.009620567398609491,17.82472109090427,0.01272285588215865,0.011530625284649432
350,0.25,0.001,0.012706990951067034,0.00948662907749666,18.04690764221964,0.012881447282098245,0.01062282279599458
351,0.25,0.001,0.012691515996926445,0.009550651562899226,17.601404351021166,0.012563457780885915,0.01104640425182879
352,0.25,0.001,0.012664074706943227,0.0095044799376955,17.706369939232676,0.012638379685390918,0.013482702081091702
353,0.25,0.001,0.012735191378978234,0.009585986456161813,17.648144436284962,0.012596819726113463,0.015680829412303865
354,0.25,0.001,0.012770432487664594,0.009606206117645849,17.73232368276089,0.012656904841371084,0.013364164042286575
355,0.25,0.001,0.012732448465021853,0.00952693436860661,17.96370066872126,0.012822056151835303,0.01133299246430397
356,0.25,0.001,0.012670689372479413,0.009503155388723948,17.750860576388202,0.012670136028828124,0.010985869681462646
357,0.25,0.001,0.012731537097114047,0.009607674797627494,17.50612419064035,0.012495449101099464,0.01503222738392651
358,0.25,0.001,0.012753304219824353,0.00956022494987345,17.8940163383001,0.012772317157958674,0.016171363182365894
359,0.25,0.001,0.012749340224083718,0.00957252377966411,17.802880556774543,0.012707266635813378,0.01666641840711236
360,0.25,0.001,0.012729091074647782,0.009550346301294832,17.813686234035572,0.012714979467548588,0.019037964404560626
361,0.25,0.001,0.012685398390430187,0.00957364123314619,17.438286334653444,0.012447028076126656,0.017095290822908282
362,0.25,0.001,0.012804057767402522,0.009659026600106105,17.624753549632143,0.01258012387554043,0.020804101368412375
363,0.25,0.001,0.012729958422827821,0.009502685436279463,18.085638183078686,0.012909092207764943,0.01928969891741872
364,0.25,0.001,0.012713617778811526,0.009624633501885058,17.310668687780193,0.012355937678643963,0.017156394140329212
365,0.25,0.001,0.012701437454906445,0.009453908984356791,18.199150238359024,0.012990114374274822,0.013908360037021339
366,0.25,0.001,0.012625038215128179,0.009444614369343605,17.823095627474885,0.012721695665578077,0.012311278260312974
367,0.25,0.001,0.012692733593127899,0.0095563139805751,17.57649461931317,0.012545677815355582,0.01626423210836947
368,0.25,0.001,0.012730506590650052,0.009530768435024008,17.931331884005903,0.012798952094222629,0.015118636772967875
369,0.25,0.001,0.012655692065001037,0.009450915434598169,17.95956846631529,0.012819106685449885,0.012170566129498184
370,0.25,0.001,0.012652415467842721,0.009485884180551843,17.74524165608209,0.012666125379073584,0.01093889371259138
371,0.25,0.001,0.012636856934377915,0.009418966531564918,18.033058142360254,0.012871561843226449,0.011926958919502795
372,0.25,0.001,0.012669767520315787,0.00952047321803962,17.64864498251098,0.012597177003933605,0.01186225056881085
373,0.25,0.001,0.012729595159868148,0.009550221688762496,17.81720861603942,0.012717493658843268,0.016197299119085073
374,0.25,0.001,0.012645865220749428,0.009451549323393574,17.90094758689655,0.012777264515986117,0.01417716161813587
375,0.25,0.001,0.012644507666806129,0.009502878353659865,17.6056913061987,0.012566517706066167,0.011647624312900007
376,0.25,0.001,0.012688902756867277,0.009522617165832328,17.743865009098617,0.012665142761669248,0.01619691902305931
377,0.25,0.001,0.012656707202677737,0.009451624788029536,17.961282190894277,0.012820329900709691,0.013319435412995517
378,0.25,0.001,0.01266379203285849,0.009489363240164543,17.789499266741146,0.012697715393819519,0.01427555491682142
379,0.25,0.001,0.012668818549767829,0.009435328823919035,18.12047682331584,0.01293395918866227,0.011555377277545631
380,0.25,0.001,0.012643279138370909,0.009435520338421129,17.976280180210807,0.012831035103647971,0.011678415234200656
381,0.25,0.001,0.01267761851067533,0.00949969685357457,17.80907269570395,0.01271168643519197,0.012954576290212572
382,0.25,0.001,0.012666842110360725,0.00945039954869556,18.024945407980102,0.01286577116915068,0.013581081992015243
383,0.25,0.001,0.012591669650331832,0.009394921488148252,17.914575842362417,0.012786992035947478,0.016225613304413855
384,0.25,0.001,0.012570103473238302,0.009473353769740223,17.35418555505165,0.012386998968630727,0.017119106953032315
385,0.25,0.001,0.01260037432947365,0.009412687963448496,17.863794536027225,0.01275074556461615,0.014877231908030808
386,0.25,0.001,0.012654627689046447,0.009472122474844698,17.834758557347808,0.012730020383545902,0.01670291181653738
387,0.25,0.001,0.012676339950176734,0.009549969323922563,17.520181028148794,0.012505482532583009,0.013781012501567602
388,0.25,0.001,0.01267516659769202,0.009437376535045698,18.14457573870566,0.01295116041306614,0.014697035891003907
389,0.25,0.001,0.012600750792064245,0.009375862812599804,18.07227244960608,0.012899552069668864,0.01330565317766741
390,0.25,0.001,0.012632448002224482,0.009464828812277518,17.75133864487274,0.012670477262578686,0.01191692822612822
391,0.25,0.001,0.012601361460669383,0.009349403559045575,18.223971604294917,0.013007831266448906,0.012405958026647568
392,0.25,0.001,0.012579803971990251,0.009347653806303875,18.112969652006896,0.012928600750897142,0.012955788057297468
393,0.25,0.001,0.012538323068857696,0.009389327159190731,17.64697231823885,0.012595983096530228,0.011397194408345968
394,0.25,0.001,0.012655854295892052,0.00944460709952604,17.995829698908683,0.012844989078450166,0.010522355674766004
395,0.25,0.001,0.01259250849296775,0.009372473372154346,18.045076651915217,0.012880140365392732,0.0160426942165941
396,0.25,0.001,0.012554387762388097,0.009402910994075019,17.660875915978025,0.012605907149163473,0.01701174327172339
397,0.25,0.001,0.012650015225578964,0.009476807620769311,17.78265535378758,0.012692830373866938,0.015105813625268638
398,0.25,0.001,0.012647261929537173,0.009442260455465895,17.960829215713694,0.0128200065779541,0.019402479520067573
399,0.25,0.001,0.012638464271393507,0.009450048774103575,17.867880020463517,0.01275366168484191,0.019153066095896065
400,0.25,0.001,0.012617600335099023,0.009409717704613501,17.976974599975073,0.012831530763722393,0.014477765653282404
401,0.25,0.001,0.012639732445877062,0.00951845782026963,17.49162349620449,0.012485098855249458,0.012487612897530198
402,0.25,0.001,0.012574619562502653,0.009372662008201648,17.94376992978124,0.012807830071221441,0.009852692717686296
403,0.25,0.001,0.01252138378876674,0.009354751519780245,17.74580761551354,0.012666529347261628,0.012340912537183613
404,0.25,0.001,0.012597527901174398,0.009449487554011591,17.641618116998472,0.012592161396858296,0.014066974399611354
405,0.25,0.001,0.012595210637001298,0.009362853383684712,18.114129835040256,0.012929428861556213,0.01744973473250866
406,0.25,0.001,0.012571958549918001,0.009420602169783809,17.66020055360432,0.01260542509179466,0.01307081535924226
407,0.25,0.001,0.012542662588007089,0.009361950602020896,17.824710330882656,0.012722848201914815,0.010899776360020041
408,0.25,0.001,0.012597359536129211,0.009413447199617257,17.842644953023534,0.012735649502515014,0.012696112040430307
409,0.25,0.001,0.012520842238443311,0.009313801547143027,17.972256962257095,0.012828163427735257,0.010274547094013542
410,0.25,0.001,0.012555087594323269,0.009367907899215754,17.860955507946418,0.012748719134865395,0.012900773203000426
411,0.25,0.001,0.012529733040633333,0.0093292333342858,17.935599653026724,0.012801998324787098,0.010516274720430374
412,0.25,0.001,0.012532304905606473,0.009365286913853658,17.747969744074698,0.01266807262246588,0.012702235137112439
413,0.25,0.001,0.012497315933841442,0.009282518378635751,18.01572557441293,0.012859190274384674,0.011604583938606083
414,0.25,0.001,0.012618900748276258,0.009372637842935098,18.19205656735706,0.012985051083052862,0.010854989057406783
415,0.25,0.001,0.01258271007959727,0.009418027726972656,17.734880093280776,0.01265872954552518,0.013316052849404514
416,0.25,0.001,0.012603135909177835,0.009462139950397146,17.60214164991419,0.01256398404704796,0.014828933868557215
417,0.25,0.001,0.012500916360111176,0.009292267993847025,17.981265490568138,0.012834593497907307,0.011305037653073668
418,0.25,0.001,0.012513525862608278,0.009359365215187083,17.675916848806388,0.01261664300414446,0.010993568692356348
419,0.25,0.001,0.012489625280290717,0.009280954915951576,17.981389299223693,0.012834681869538681,0.012312280596233904
420,0.25,0.001,0.012525411075146138,0.009385110794680532,17.598242570579302,0.01256120097828644,0.011839243117719889
421,0.25,0.001,0.012549764032668203,0.009331780328623605,18.03358126290237,0.0128719352340488,0.010759780183434486
422,0.25,0.001,0.012536672898862936,0.00929168985472827,18.184885033072298,0.012979932214898142,0.013979697367176414
423,0.25,0.001,0.012588077896757971,0.009464916725984858,17.50219604234655,0.012492645283616382,0.013475783518515527
424,0.25,0.001,0.012505672557696008,0.009330673402623285,17.79269486439379,0.012699996334328188,0.014434835175052285
425,0.25,0.001,0.012599403930647212,0.0093851768517796,18.012529155876063,0.012856908747948653,0.01202273229137063
426,0.25,0.001,0.0125616360023492,0.009288901549602862,18.34040357694344,0.013090937599531364,0.013068186526652426
427,0.25,0.001,0.012495141099148158,0.009335449205137758,17.706913187533996,0.012638767442922196,0.013615502859465778
428,0.25,0.001,0.012516119702078622,0.009361945469922658,17.67599237820267,0.012616696915205334,0.014047611970454454
429,0.25,0.001,0.012568307871525549,0.009335743224067527,18.115291667889945,0.01293025814981438,0.015402092481963336
430,0.25,0.001,0.012596747724001418,0.00935834486288989,18.1480090306278,0.01295361101400985,0.015310179209336638
431,0.25,0.001,0.012545557134639361,0.009353986512948189,17.885560160447778,0.012766281342218256,0.015583759639412165
432,0.25,0.001,0.012540821622632727,0.009254276811416391,18.417797724405926,0.013146179674807941,0.016639985609799623
433,0.25,0.001,0.012538611173692635,0.00936036911411879,17.810868556992414,0.0127129682776534,0.014354362734593451
434,0.25,0.001,0.012517633836103392,0.00933590450005818,17.830411750053052,0.012726917737368346,0.011654385132715106
435,0.25,0.001,0.012472201861786943,0.00926208971186152,17.98946840149441,0.012840448537826132,0.011126172496005893
436,0.25,0.001,0.012473747201012408,0.009280034863559003,17.897564103331746,0.012774849467046214,0.010066623683087528
437,0.25,0.001,0.012491335664023075,0.009315101363016332,17.799617228125722,0.012704937350553691,0.011643669451586902
438,0.25,0.001,0.012412462273479011,0.009175149234648369,18.14190302820648,0.012949252696792635,0.014780781581066549
439,0.25,0.001,0.012421163019060082,0.009286185176375044,17.56841626549572,0.012539911681296017,0.014326034230180085
440,0.25,0.001,0.012467588895326677,0.00928735615143293,17.822024759864004,0.012720931306112779,0.014712547766976058
441,0.25,0.001,0.012424156388055675,0.009274794287853855,17.64902544625198,0.012597448569773004,0.011236268386710435
442,0.25,0.001,0.012506495646440782,0.009305456790774432,17.938622197018393,0.01280415574376759,0.011983301723375916
443,0.25,0.001,0.012486921843408532,0.009185280210735426,18.502399863070075,0.013206566640306977,0.012068709125742316
444,0.25,0.001,0.012461667381352765,0.00927571093325625,17.854101462706232,0.012743826882731072,0.013942217221483588
445,0.25,0.001,0.0124577967968734,0.009303403055523267,17.67722310094391,0.012617575375406073,0.01244015444535762
446,0.25,0.001,0.012514438715916646,0.009252674822628749,18.278925449033327,0.013047055995027357,0.011178868124261498
447,0.25,0.001,0.012463575079722747,0.009264657509666456,17.926733998809684,0.01279567023469642,0.015447471290826797
448,0.25,0.001,0.012496859499327996,0.009306114062839797,17.880937181947605,0.012762981571697076,0.013021942810155451
449,0.25,0.001,0.012439737788043947,0.009189483485644377,18.214426048697298,0.013001017879155816,0.010859660804271698
450,0.25,0.001,0.012479877122972586,0.009298896943592322,17.826213538898195,0.012723921155530475,0.011879721656441689
451,0.25,0.001,0.012510760443654493,0.009294395627776153,18.024508794148762,0.01286545952473145,0.011668380931951106
452,0.25,0.001,0.012544870549490683,0.009332643491746504,18.001321382160427,0.012848908909464973,0.018606545752845705
453,0.25,0.001,0.012494003022961978,0.009238351122692291,18.24467360420066,0.013022607854532948,0.015808985102921724
454,0.25,0.001,0.012440076663712912,0.009255025964151706,17.849023818969727,0.01274020258313328,0.015106091857887805
455,0.25,0.001,0.012500271539082003,0.009269327113900003,18.106213517329863,0.012923778384960644,0.01177676406223327
456,0.25,0.001,0.012469355905043425,0.009213045188363344,18.24836462157688,0.013025242413687993,0.01195537531748414
457,0.25,0.001,0.012438876393255052,0.009297151271772535,17.606227890851628,0.012566900707245986,0.010458370088599622
458,0.25,0.001,0.012485038834910856,0.009207061802347502,18.369782451838883,0.013111907531648025,0.012832451262511313
459,0.25,0.001,0.012455996793973799,0.009193332802960138,18.283969855006738,0.013050656570311733,0.012030832236632705
460,0.25,0.001,0.012450727449439246,0.009288698159755533,17.720012141682428,0.012648117160372896,0.01412240625359118
461,0.25,0.001,0.012423341335406535,0.009187201320936408,18.13532896886898,0.012944560291840813,0.014827432110905647
462,0.25,0.001,0.01248333870358608,0.009272831653240863,17.9916824711023,0.012842028887296433,0.01584995596203953
463,0.25,0.001,0.012380914023845507,0.009240200562316154,17.600558494213765,0.012562854028703614,0.012432464631274343
464,0.25,0.001,0.012447589513244508,0.009195595181975436,18.224176648296886,0.013007977621910697,0.013625820050947368
465,0.25,0.001,0.012593781772042125,0.009283288350556721,18.552005180326695,0.013241973719005493,0.01671821775380522
466,0.25,0.001,0.012525526060082238,0.009254863312790162,18.32879462423204,0.0130826514091592,0.017665397375822067
467,0.25,0.001,0.01254169785177909,0.009360467032666952,17.82761703362445,0.012724922936205888,0.015103811980225146
468,0.25,0.001,0.012366504039033808,0.00911942004120048,18.19665833163362,0.012988335711373035,0.012272034422494471
469,0.25,0.001,0.012466589869137555,0.009310801784637609,17.685036486211207,0.012623152381307071,0.01283743535168469
470,0.25,0.001,0.012408677417832085,0.009144869813782002,18.29037833716799,0.0130552307902698,0.014624401926994324
471,0.25,0.001,0.01247885520668221,0.009299204366493828,17.818763056887857,0.012718603181219028,0.013776115840300918
472,0.25,0.001,0.012447234027024814,0.009250178544110135,17.916299063445145,0.012788222029582545,0.017629906651563942
473,0.25,0.001,0.012488944408825682,0.009299440120783034,17.87398251400718,0.01275801749750691,0.020718850195407867
474,0.25,0.001,0.012450845102594874,0.00924065316150963,17.989916177741584,0.012840768149708482,0.015990413259714842
475,0.25,0.001,0.012423268684386453,0.00921335732289256,17.988344289079496,0.01283964617350428,0.012502856028731912
476,0.25,0.001,0.012429213599313664,0.009236305170075551,17.893058792951237,0.012771633685190034,0.010766428778879344
477,0.25,0.001,0.012439349092511688,0.009171985588842052,18.310305840858426,0.013069454561640562,0.01317080541048199
478,0.25,0.001,0.01243745042050438,0.009205617937986358,18.111188993172302,0.012927329759580516,0.01172552548814565
479,0.25,0.001,0.012419705377412245,0.00917278208577306,18.195757266338365,0.012987692552704044,0.013626730418764055
480,0.25,0.001,0.012393052937297882,0.009184404095548366,17.981268741913485,0.012834595818639176,0.013956691371276975
481,0.25,0.001,0.01235425175179409,0.009197739565957196,17.689094060583958,0.012626048580002826,0.011219756910577416
482,0.25,0.001,0.01248757485378895,0.00916674032115735,18.609956757428776,0.013283338156622967,0.011471291538327932
483,0.25,0.001,0.012447382138751227,0.009172263810654733,18.353762936491503,0.013100473188073877,0.012701746192760766
484,0.25,0.001,0.01250611760413848,0.00930371739064591,17.94625147887926,0.012809601341098688,0.017941767000593245
485,0.25,0.001,0.012469386422558676,0.00915737838173906,18.560493903824046,0.013248032765042146,0.01701072440482676
486,0.25,0.001,0.012426204158126805,0.009214199890818777,18.00007056385153,0.012848016105532855,0.014416031306609511
487,0.25,0.001,0.012427385782485019,0.009203634189465378,18.06590363546766,0.01289500616378848,0.012802484794519842
488,0.25,0.001,0.01236209203390884,0.009131225875189787,18.105774593755665,0.012923465091902687,0.013493306119926274
489,0.25,0.001,0.012461764541482121,0.00920451274102373,18.253639132664677,0.01302900723245159,0.015381777076981962
490,0.25,0.001,0.012399100749615878,0.009209297479519362,17.875657439734866,0.012759213019082703,0.015111213084310293
491,0.25,0.001,0.012485513683675713,0.009255578159845831,18.10055928290645,0.012919742528841148,0.013149904378224164
492,0.25,0.001,0.012477316205951735,0.009179277972314302,18.48220680333391,0.01319215332143748,0.01260502974037081
493,0.25,0.001,0.012415662415734323,0.009165767250181754,18.21241301524488,0.01299958102444317,0.014183441875502467
494,0.25,0.001,0.012369190558854035,0.009141447828131637,18.088270235665238,0.012910970903401311,0.012827453203499317
495,0.25,0.001,0.012356347070401731,0.009129211169034871,18.08487010102735,0.012908543969327158,0.013481173082254827
496,0.25,0.001,0.012391530134506869,0.009149159442334739,18.170245850639503,0.012969483119657033,0.012167062261141837
497,0.25,0.001,0.012358817554821697,0.009130676760326457,18.09050084367583,0.012912563057584462,0.01257830037502572
498,0.25,0.001,0.012326178867920038,0.009002359497522,18.626684550997577,0.01329527805210391,0.011658918228931725
499,0.25,0.001,0.012305923894770789,0.009157843534139138,17.64184302317945,0.012592321929464276,0.013245154521428049
500,0.25,0.001,0.012382993561054583,0.009154774197514802,18.0909416021677,0.012912877660362384,0.01291916542686522
