178.677	593.778
181.278	600.889
183.879	593.111
186.48	596
189.078	597.333
191.677	596.444
194.275	603.556
196.871	592.889
199.467	605.333
202.061	606
204.656	611.556
207.248	616.222
209.841	613.556
212.431	618.222
215.022	619.778
217.613	627.111
220.201	637.778
222.789	634
225.375	627.778
227.962	638.444
230.547	625.556
233.13	632
235.714	625.333
238.296	630
240.879	638.444
243.459	634.222
246.04	632.444
248.618	634
251.196	625.111
253.774	625.111
256.35	615.333
258.927	621.778
261.501	607.111
264.074	609.111
266.648	602.889
269.22	592.222
271.791	587.111
274.362	587.778
276.931	570.889
279.5	578
282.069	582.444
284.635	573.333
287.201	582
289.766	582.667
292.331	585.111
294.894	575.333
297.457	578.222
300.018	575.111
302.58	582.222
305.14	577.111
307.699	571.111
310.257	589.111
312.814	581.778
315.372	579.556
317.928	580.889
320.482	583.556
323.036	579.556
325.589	578.889
328.142	580.222
330.693	595.778
333.243	588.889
335.795	572.445
338.343	581.111
340.891	582
343.439	587.778
345.985	605.778
348.53	599.333
351.075	597.778
353.619	597.333
356.162	599.778
358.704	591.333
361.245	591.556
363.786	604.222
366.325	614.444
368.864	603.778
371.402	593.111
373.939	599.111
376.475	622.889
379.011	637.555
381.545	628.889
384.079	633.556
386.612	603.111
389.144	617.333
391.674	602.222
394.204	590.667
396.734	578
399.263	591.333
401.791	593.111
404.318	597.333
406.844	596
409.368	586.889
411.893	595.333
414.417	604
416.94	603.556
419.462	601.333
421.982	603.111
424.502	606.667
427.022	602.222
429.541	611.111
432.057	620.667
434.574	629.333
437.091	639.111
439.606	630.444
442.12	617.556
444.634	626.444
447.147	616.444
449.657	621.333
452.169	599.778
454.68	620
457.188	624.222
459.697	620.444
462.205	628.889
464.711	602.667
467.217	606
469.722	606.445
472.227	616.889
474.731	604.889
477.232	608.889
479.735	620.667
482.235	624
484.736	619.556
487.234	618.222
489.734	616.667
492.23	614.889
494.728	601.556
497.223	604.889
499.719	608
502.213	615.778
504.707	605.778
507.199	593.778
509.692	596.222
512.182	597.778
514.673	609.333
517.162	615.333
519.65	622.444
522.139	622
524.625	611.333
527.112	610
529.597	600.889
532.081	610.889
534.565	599.778
537.047	614.667
539.529	606.222
542.011	609.333
544.491	608.444
546.97	614.889
549.45	605.778
551.927	605.778
554.404	616.444
556.88	608
559.356	630
561.831	611.556
564.304	602
566.777	617.111
569.25	611.778
571.721	612
574.191	607.333
576.661	612.222
579.129	617.111
581.599	610.222
584.066	620.667
586.532	614.444
588.997	611.333
591.462	633.778
593.926	612.667
596.389	604.889
598.851	610.667
601.314	615.333
603.775	623.556
606.235	610.444
608.694	617.333
611.152	634
613.609	630.667
616.066	619.333
618.522	620.222
620.977	612.889
623.431	624.222
625.885	634.889
628.338	624.667
630.79	639.333
633.241	629.333
635.691	637.333
638.141	632.222
640.589	633.333
643.036	629.111
645.483	618
647.929	620.222
650.375	615.555
652.82	625.333
655.264	615.333
657.707	613.778
660.149	624.222
662.59	605.333
665.031	606.889
667.471	606.222
669.91	616.889
672.349	606.667
674.786	621.778
677.222	612.444
679.658	608.445
682.093	612.444
684.528	610.667
686.96	610.889
689.393	612.889
691.826	615.111
694.256	626.667
696.686	610.444
699.116	610.444
701.545	618
703.972	604.667
706.4	620.222
708.826	609.556
711.251	612.444
713.676	606.444
716.099	615.556
718.523	601.556
720.946	617.555
723.366	616.889
725.788	603.333
728.207	600.889
730.627	613.111
733.044	600.667
735.462	598.667
737.88	602
740.295	608.889
742.711	595.778
745.125	594.889
747.539	612.444
749.951	591.778
752.363	595.556
754.775	594
757.185	606.889
759.595	598.889
762.003	595.111
764.412	596.889
766.819	595.111
769.225	609.111
771.632	602.222
774.036	599.778
776.441	596.444
778.844	598.444
781.246	600
783.649	603.778
786.05	610.889
788.449	597.778
790.85	600
793.248	601.333
795.646	598.667
798.042	601.111
800.44	617.333
802.835	606.889
805.23	606.667
807.623	610.889
810.018	611.556
812.41	627.556
814.801	604.222
817.192	616
819.582	610.444
821.972	606.889
824.361	612.889
826.748	604.889
829.135	614.889
831.521	616.222
833.907	619.111
836.291	610.667
838.675	621.556
841.059	609.556
843.442	612
845.823	616.444
848.204	608
850.584	619.111
852.963	616
855.342	617.111
857.72	634.667
860.097	626.667
862.473	614.889
864.848	605.111
867.223	611.333
869.597	610.667
871.97	610.222
874.343	604.444
876.714	610
879.084	613.111
881.454	608.667
883.824	612.667
886.192	607.556
888.56	615.778
890.927	614.667
893.294	607.333
895.66	605.556
898.023	611.556
900.387	605.333
902.751	616.667
905.114	613.778
907.476	607.111
909.835	594.667
912.196	599.556
914.555	606
916.914	605.111
919.271	608.667
921.629	604
923.985	592
926.341	598.889
928.695	592.667
931.05	601.111
933.404	600.667
935.755	600.222
938.107	597.778
940.459	590.889
942.808	590
945.158	590.222
947.508	588.222
949.855	588.667
952.202	591.778
954.548	590.222
956.894	598.667
959.239	596.889
961.583	596.222
963.928	598
966.27	594.222
968.612	595.333
970.953	585.111
973.294	593.778
975.633	582.889
977.972	596.444
980.31	594.889
982.647	584.889
984.984	585.778
987.32	584.444
989.656	580.667
991.989	593.556
994.324	588.667
996.656	593.111
998.988	596.444
1001.32	608.222
1003.65	597.556
1005.98	584
1008.31	598.889
1010.64	581.111
1012.97	589.778
1015.29	580.222
1017.62	598
1019.94	584.889
1022.27	588.889
1024.59	589.556
1026.92	582.667
1029.24	595.556
1031.56	599.111
1033.88	595.333
1036.2	610.444
1038.52	592.667
1040.84	588.444
1043.16	604.444
1045.48	591.778
1047.79	598
1050.11	604.222
1052.42	608.889
1054.74	600.889
1057.05	614.889
1059.36	616.222
1061.67	620.222
1063.99	609.556
1066.3	618
1068.61	622.889
1070.92	621.778
1073.22	618.667
1075.53	622.889
1077.84	634.222
1080.15	634.222
1082.45	636.444
1084.76	636.222
1087.06	650.222
1089.36	650.222
1091.66	684.889
1093.97	683.111
1096.27	712.222
1098.57	691.333
1100.87	690.889
1103.17	670.889
1105.46	667.333
1107.76	655.333
1110.06	646.222
1112.35	648.667
1114.65	651.111
1116.94	655.333
1119.24	669.556
1121.53	661.778
1123.82	670.889
1126.11	670.222
1128.4	664
1130.7	671.111
1132.98	665.111
1135.27	655.556
1137.56	644.889
1139.85	638.889
1142.13	639.111
1144.42	640
1146.71	647.778
1148.99	655.555
1151.27	667.556
1153.56	661.778
1155.84	669.778
1158.12	666
1160.4	648.222
1162.68	647.333
1164.96	637.111
1167.24	657.778
1169.51	649.556
1171.79	642
1174.07	631.111
1176.34	630
1178.62	629.556
1180.89	638.667
1183.17	634
1185.44	631.778
1187.71	641.778
1189.98	610
1192.25	614
1194.52	626.667
1196.79	622.667
1199.06	607.778
1201.33	598.444
1203.59	603.778
1205.86	593.556
1208.12	592.222
1210.39	612.222
1212.65	614.222
1214.92	616.667
1217.18	622
1219.44	614.444
1221.7	613.556
1223.96	623.333
1226.22	609.333
1228.48	617.111
1230.74	627.778
1233	616.444
1235.25	632.444
1237.51	644.667
1239.77	634.444
1242.02	632.667
1244.27	636
1246.53	642.667
1248.78	641.111
1251.03	640.667
1253.28	640
1255.53	652.445
1257.78	639.556
1260.03	636.444
1262.28	637.111
1264.53	639.556
1266.78	635.778
1269.02	646.667
1271.27	644.222
1273.51	639.778
1275.76	636.667
1278	648.444
1280.24	631.111
1282.48	649.778
1284.72	638
1286.97	647.556
1289.21	639.556
1291.44	646.222
1293.68	642.667
1295.92	639.111
1298.16	648.444
1300.39	632.444
1302.63	641.111
1304.86	637.556
1307.1	624.889
1309.33	634
1311.56	636
1313.8	650.444
1316.03	633.333
1318.26	652.889
1320.49	636.667
1322.72	650.667
1324.95	662.889
1327.17	665.556
1329.4	676.444
1331.63	683.111
1333.85	676
1336.08	678.889
1338.3	675.333
1340.53	652.889
1342.75	648.444
1344.97	656.222
1347.19	660
1349.41	646.667
1351.63	639.333
1353.85	642
1356.07	640.889
1358.29	631.111
1360.51	639.111
1362.72	639.778
1364.94	645.778
1367.16	643.111
1369.37	649.333
1371.58	645.556
1373.8	657.333
1376.01	667.333
1378.22	649.556
1380.43	657.333
1382.64	663.556
1384.85	634.889
1387.06	643.556
1389.27	628.667
1391.48	637.556
1393.68	629.778
1395.89	633.778
1398.1	648.667
1400.3	648.222
1402.51	652.222
1404.71	664.667
1406.91	663.778
1409.11	648.222
1411.32	654.444
1413.52	655.111
1415.72	649.556
1417.92	645.111
1420.11	646.667
1422.31	647.778
1424.51	652
1426.71	642
1428.9	650
1431.1	646.889
1433.29	637.778
1435.49	652.667
1437.68	642.667
1439.87	639.333
1442.06	633.778
1444.25	638.667
1446.45	643.111
1448.64	655.778
1450.82	635.778
1453.01	633.556
1455.2	636.444
1457.39	644.889
1459.57	654.222
1461.76	644.667
1463.94	652.667
1466.13	657.111
1468.31	657.333
1470.5	681.556
1472.68	668.667
1474.86	681.778
1477.04	685.111
1479.22	689.778
1481.4	682
1483.58	699.111
1485.76	692
1487.94	688
1490.11	703.333
1492.29	705.111
1494.46	704
1496.64	699.778
1498.81	707.778
1500.99	714.889
1503.16	710.222
1505.33	718.667
1507.5	727.556
1509.67	740.667
1511.84	754.444
1514.01	750
1516.18	766.444
1518.35	749.333
1520.52	758.444
1522.68	753.556
1524.85	762
1527.02	739.556
1529.18	741.555
1531.35	740.222
1533.51	728.889
1535.67	723.556
1537.83	720.667
1539.99	720.667
1542.16	705.333
1544.31	695.333
1546.47	705.556
1548.63	702
1550.79	704.667
1552.95	702.889
1555.11	718.667
1557.26	710.222
1559.42	695.556
1561.57	711.778
1563.73	725.111
1565.88	714.667
1568.03	707.778
1570.18	703.111
1572.34	702.444
1574.49	700.667
1576.64	704.667
1578.79	691.778
1580.93	692.222
1583.08	682.889
1585.23	682.444
1587.38	670
1589.52	668
1591.67	664.222
1593.81	657.111
1595.96	659.333
1598.1	655.333
1600.24	657.555
1602.38	658.667
1604.53	651.778
1606.67	655.333
1608.81	648.667
1610.95	644.889
1613.09	639.556
1615.22	630.222
1617.36	617.556
1619.5	604.222
1621.63	610.667
1623.77	593.333
1625.9	578
1628.04	584.222
1630.17	566.667
1632.3	583.111
1634.44	580.667
1636.57	582.667
1638.7	576.667
1640.83	566.222
1642.96	553.778
1645.09	560.222
1647.22	559.333
1649.34	546.445
1651.47	537.333
1653.6	533.778
1655.72	520.222
1657.85	522.222
1659.97	518.667
1662.1	528.667
1664.22	513.111
1666.34	500.222
1668.46	514.222
1670.58	510
1672.7	506.222
1674.82	502.222
1676.94	509.111
1679.06	497.778
1681.18	508.222
1683.3	502.889
1685.41	502.667
1687.53	502.444
1689.64	502.667
1691.76	490.444
1693.87	499.556
1695.99	492.444
1698.1	497.111
1700.21	495.333
1702.32	496
1704.43	498
1706.54	488
1708.65	510
1710.76	510.889
1712.87	505.778
1714.98	495.778
1717.08	490.222
1719.19	500.222
1721.29	490.889
1723.4	484.667
1725.5	496.222
1727.61	482.222
1729.71	495.778
1731.81	488
1733.91	485.333
1736.02	484.889
1738.12	491.111
1740.22	466.889
1742.31	476.444
1744.41	466.667
1746.51	464.667
1748.61	464
1750.7	469.111
1752.8	468
1754.9	466.444
1756.99	459.778
1759.08	467.333
1761.18	461.111
1763.27	465.556
1765.36	479.556
1767.45	465.778
1769.54	466.444
1771.63	459.333
1773.72	462.667
1775.81	468.222
1777.9	460.444
1779.99	459.778
1782.08	464.222
1784.16	465.333
1786.25	461.111
1788.33	451.556
1790.42	458
1792.5	462.444
1794.58	456.444
1796.67	465.556
1798.75	460.222
1800.83	461.333
1802.91	458.889
1804.99	458.667
1807.07	461.111
1809.15	454.667
1811.23	448.889
1813.3	454.889
1815.38	453.111
1817.46	456.889
1819.53	458
1821.61	449.333
1823.68	440
1825.75	461.333
1827.83	452.889
1829.9	456.444
1831.97	439.333
1834.04	456.667
1836.11	445.778
1838.18	452.889
1840.25	451.556
1842.32	441.333
1844.39	442
1846.46	443.111
1848.52	453.333
1850.59	444
1852.65	439.778
1854.72	449.333
1856.78	442
1858.85	446.667
1860.91	448.667
1862.97	423.556
1865.03	438.889
1867.09	433.556
1869.16	432.444
1871.22	436.222
1873.27	441.556
1875.33	430
1877.39	435.556
1879.45	431.556
1881.51	436.222
1883.56	442
1885.62	438.444
1887.67	438.667
1889.73	432
1891.78	431.556
1893.83	428.667
1895.89	421.556
1897.94	428.889
1899.99	438.667
1902.04	430.889
1904.09	427.556
1906.14	438.889
1908.19	431.556
1910.23	436.667
1912.28	417.778
1914.33	423.333
1916.37	426.889
1918.42	431.778
1920.46	422.444
1922.51	432
1924.55	429.556
1926.6	426.667
1928.64	430.667
1930.68	428.667
1932.72	414.667
1934.76	425.556
1936.8	419.333
1938.84	415.333
1940.88	422.222
1942.92	425.333
1944.96	428.444
1946.99	421.333
1949.03	415.111
1951.06	422
1953.1	417.556
1955.13	417.556
1957.17	422.222
1959.2	412.222
1961.23	410.667
1963.27	418.444
1965.3	425.333
1967.33	412.889
1969.36	418
1971.39	418.667
1973.42	408.889
1975.44	406.222
1977.47	404.444
1979.5	414.889
1981.53	410.444
1983.55	401.111
1985.58	419.111
1987.6	399.556
1989.63	415.556
1991.65	411.111
1993.67	405.556
1995.69	406.889
1997.72	393.111
1999.74	412.667
2001.76	400.222
2003.78	409.556
2005.8	408.444
2007.82	402.444
2009.83	400.889
2011.85	399.778
2013.87	407.111
2015.88	412
2017.9	405.333
2019.91	401.556
2021.93	400
2023.94	402.667
2025.96	406
2027.97	404
2029.98	400.444
2031.99	407.556
2034	396.667
2036.01	398.222
2038.02	402.889
2040.03	404.444
2042.04	399.333
2044.05	402
2046.05	388
2048.06	398.667
2050.07	407.333
2052.07	400.889
2054.08	389.333
2056.08	391.556
2058.08	398.667
2060.09	389.111
2062.09	387.333
2064.09	388.889
2066.09	398.667
2068.09	387.333
2070.09	391.111
2072.09	395.778
2074.09	382.444
2076.09	384.222
2078.09	385.556
2080.08	380.222
2082.08	382
2084.08	386.889
2086.07	378.667
2088.07	385.778
2090.06	380.667
2092.05	382.889
2094.05	387.111
2096.04	382.889
2098.03	376.667
2100.02	378.889
2102.01	381.111
2104	380.667
2105.99	374
2107.98	368.222
2109.97	383.111
2111.95	383.111
2113.94	384
2115.93	386
2117.91	382
2119.9	384.889
2121.88	385.333
2123.87	375.778
2125.85	378.889
2127.83	374.889
2129.81	385.111
2131.8	371.111
2133.78	378
2135.76	377.111
2137.74	366.667
2139.72	371.556
2141.69	378.222
2143.67	360.444
2145.65	373.333
2147.63	378.889
2149.6	371.778
2151.58	368.222
2153.55	371.778
2155.53	372.222
2157.5	362.444
2159.48	371.333
2161.45	368
2163.42	363.333
2165.39	367.778
2167.36	365.333
2169.33	355.333
2171.3	367.778
2173.27	364.444
2175.24	350.222
2177.21	364.222
2179.18	362.444
2181.14	371.556
2183.11	364
2185.07	356.889
2187.04	356.222
2189	366.889
2190.97	354.444
2192.93	348.444
2194.89	362.222
2196.86	359.778
2198.82	347.333
2200.78	354.222
2202.74	345.778
2204.7	341.111
2206.66	355.556
2208.62	346
2210.57	355.556
2212.53	350.889
2214.49	347.333
2216.45	352.222
2218.4	345.556
2220.36	344.444
2222.31	349.333
2224.27	343.333
2226.22	350.444
2228.17	339.556
2230.12	348.444
2232.08	341.333
2234.03	342
2235.98	343.778
2237.93	343.556
2239.88	348
2241.83	339.333
2243.78	344.889
2245.72	338.444
2247.67	341.778
2249.62	336
2251.56	338.889
2253.51	338.667
2255.45	334.222
2257.4	342.444
2259.34	342.889
2261.28	342
2263.23	341.333
2265.17	331.778
2267.11	331.556
2269.05	329.556
2270.99	334.667
2272.93	328.667
2274.87	335.556
2276.81	328.222
2278.75	334.222
2280.68	325.556
2282.62	330.222
2284.56	335.333
2286.49	326
2288.43	329.333
2290.36	314.889
2292.3	327.111
2294.23	330.667
2296.16	324.222
2298.09	321.333
2300.03	325.778
2301.96	323.111
2303.89	322.222
2305.82	328.444
2307.75	315.111
2309.68	321.556
2311.6	324
2313.53	314
2315.46	319.111
2317.39	320
2319.31	316.889
2321.24	320.667
2323.16	311.778
2325.09	324.444
2327.01	311.333
2328.93	320
2330.86	318.222
2332.78	315.111
2334.7	314
2336.62	313.111
2338.54	313.778
2340.46	317.333
2342.38	308
2344.3	312.222
2346.22	310.222
2348.14	321.111
2350.05	305.333
2351.97	315.111
2353.89	301.333
2355.8	312.889
2357.71	314
2359.63	319.333
2361.54	310.222
2363.46	309.556
2365.37	301.778
2367.28	317.111
2369.19	304.667
2371.1	311.778
2373.01	302.444
2374.92	304.222
2376.83	308.222
2378.74	310.222
2380.65	306.889
2382.56	307.111
2384.46	304.667
2386.37	310.667
2388.27	299.556
2390.18	305.556
2392.08	304.667
2393.99	300.222
2395.89	301.556
2397.8	307.333
2399.7	292.889
2401.6	296.222
2403.5	302.222
2405.4	301.778
2407.3	291.556
2409.2	298.444
2411.1	297.333
2413	297.111
2414.9	289.778
2416.8	301.111
2418.69	287.333
2420.59	294.889
2422.48	280.222
2424.38	294.444
2426.28	298.222
2428.17	291.111
2430.06	286.889
2431.96	293.556
2433.85	290
2435.74	292.444
2437.63	295.556
2439.52	294.889
2441.41	293.778
2443.3	286.667
2445.19	285.111
2447.08	294.444
