178.677	1291.11
181.278	1286.89
183.879	1280.89
186.48	1296.44
189.078	1300
191.677	1307.11
194.275	1322.67
196.871	1308.22
199.467	1322.67
202.061	1323.56
204.656	1326.22
207.248	1342.22
209.841	1354.89
212.431	1348.44
215.022	1365.11
217.613	1342.89
220.201	1336.22
222.789	1338
225.375	1332.44
227.962	1352.89
230.547	1346
233.13	1344.22
235.714	1350.89
238.296	1321.11
240.879	1329.11
243.459	1319.56
246.04	1307.11
248.618	1277.56
251.196	1269.56
253.774	1243.78
256.35	1227.33
258.927	1200
261.501	1184.89
264.074	1144.67
266.648	1144.67
269.22	1137.33
271.791	1120.67
274.362	1136.22
276.931	1095.56
279.5	1098.67
282.069	1100.67
284.635	1092.22
287.201	1085.33
289.766	1093.78
292.331	1082.44
294.894	1076.89
297.457	1077.56
300.018	1082.22
302.58	1080.22
305.14	1084.67
307.699	1076.67
310.257	1089.56
312.814	1087.33
315.372	1080.44
317.928	1084.67
320.482	1081.11
323.036	1065.33
325.589	1095.56
328.142	1076.89
330.693	1087.11
333.243	1091.33
335.795	1073.33
338.343	1084.89
340.891	1077.78
343.439	1077.78
345.985	1086.67
348.53	1097.78
351.075	1099.11
353.619	1099.33
356.162	1096
358.704	1092.67
361.245	1106.22
363.786	1113.33
366.325	1102.22
368.864	1095.33
371.402	1111.56
373.939	1094.22
376.475	1110.44
379.011	1131.56
381.545	1144.22
384.079	1135.33
386.612	1116.67
389.144	1106.67
391.674	1095.11
394.204	1095.56
396.734	1085.78
399.263	1095.56
401.791	1080.22
404.318	1084.89
406.844	1094.22
409.368	1087.56
411.893	1094
414.417	1128.44
416.94	1093.56
419.462	1108.44
421.982	1110.67
424.502	1107.78
427.022	1122.67
429.541	1129.11
432.057	1110.44
434.574	1102.89
437.091	1134.44
439.606	1130.22
442.12	1103.56
444.634	1103.11
447.147	1119.11
449.657	1106.44
452.169	1115.11
454.68	1090.67
457.188	1117.56
459.697	1122
462.205	1114.67
464.711	1102.67
467.217	1099.33
469.722	1099.78
472.227	1089.11
474.731	1088.22
477.232	1108.44
479.735	1095.11
482.235	1115.11
484.736	1102.67
487.234	1120.67
489.734	1105.11
492.23	1135.78
494.728	1128.44
497.223	1133.78
499.719	1112.89
502.213	1120
504.707	1122.67
507.199	1117.78
509.692	1106.67
512.182	1122
514.673	1119.78
517.162	1102.44
519.65	1102.44
522.139	1101.11
524.625	1097.33
527.112	1093.11
529.597	1080.67
532.081	1084.89
534.565	1098.89
537.047	1106.67
539.529	1085.33
542.011	1083.33
544.491	1103.11
546.97	1071.33
549.45	1081.33
551.927	1062.89
554.404	1074
556.88	1052.67
559.356	1065.11
561.831	1080.67
564.304	1083.78
566.777	1078.89
569.25	1094.22
571.721	1103.11
574.191	1104.44
576.661	1089.78
579.129	1089.56
581.599	1085.78
584.066	1088.44
586.532	1085.11
588.997	1093.78
591.462	1075.56
593.926	1082.89
596.389	1074.67
598.851	1056.44
601.314	1089.11
603.775	1073.78
606.235	1081.56
608.694	1071.11
611.152	1060.89
613.609	1066.89
616.066	1064.89
618.522	1078.44
620.977	1094
623.431	1101.11
625.885	1074.89
628.338	1069.78
630.79	1086.22
633.241	1088
635.691	1095.56
638.141	1104.22
640.589	1107.56
643.036	1093.56
645.483	1087.33
647.929	1087.33
650.375	1089.78
652.82	1090.67
655.264	1067.11
657.707	1060.89
660.149	1087.78
662.59	1073.56
665.031	1064.22
667.471	1060.89
669.91	1061.56
672.349	1074.44
674.786	1043.56
677.222	1074
679.658	1067.78
682.093	1083.56
684.528	1079.78
686.96	1083.33
689.393	1055.33
691.826	1064.67
694.256	1063.11
696.686	1062.22
699.116	1086
701.545	1057.78
703.972	1068.67
706.4	1054.89
708.826	1066
711.251	1067.11
713.676	1031.11
716.099	1041.56
718.523	1035.11
720.946	1041.78
723.366	1055.11
725.788	1042.67
728.207	1040.67
730.627	1046.44
733.044	1024.44
735.462	1048.67
737.88	1040.67
740.295	1018
742.711	1056
745.125	1029.33
747.539	1044.44
749.951	1020.89
752.363	1021.33
754.775	1046
757.185	1063.11
759.595	1067.56
762.003	1077.33
764.412	1061.33
766.819	1063.56
769.225	1063.33
771.632	1060
774.036	1042.44
776.441	1052.22
778.844	1067.56
781.246	1058
783.649	1079.11
786.05	1066
788.449	1051.56
790.85	1083.33
793.248	1057.78
795.646	1086.44
798.042	1103.56
800.44	1080
802.835	1098.67
805.23	1084.44
807.623	1075.78
810.018	1074.44
812.41	1087.56
814.801	1069.56
817.192	1074.89
819.582	1089.78
821.972	1069.56
824.361	1099.11
826.748	1095.56
829.135	1084.44
831.521	1068.22
833.907	1071.33
836.291	1051.33
838.675	1062.44
841.059	1036.67
843.442	1060.67
845.823	1056.67
848.204	1048
850.584	1050.67
852.963	1054.22
855.342	1044.89
857.72	1052.22
860.097	1050.22
862.473	1055.11
864.848	1038
867.223	1048.44
869.597	1046.89
871.97	1066.67
874.343	1051.33
876.714	1066.44
879.084	1051.78
881.454	1058.67
883.824	1052
886.192	1051.33
888.56	1054.89
890.927	1057.33
893.294	1071.11
895.66	1077.11
898.023	1069.56
900.387	1075.56
902.751	1027.78
905.114	1049.56
907.476	1036.44
909.835	1052.67
912.196	1059.78
914.555	1033.56
916.914	1038
919.271	1053.33
921.629	1049.56
923.985	1041.56
926.341	1049.56
928.695	1060
931.05	1060
933.404	1066.89
935.755	1035.33
938.107	1062.89
940.459	1062.44
942.808	1057.33
945.158	1026
947.508	1027.78
949.855	1029.78
952.202	1044
954.548	1062.44
956.894	1039.11
959.239	1036.67
961.583	1041.78
963.928	1062.89
966.27	1074.22
968.612	1058.22
970.953	1083.78
973.294	1069.56
975.633	1078.67
977.972	1088.44
980.31	1072.89
982.647	1072.67
984.984	1082.89
987.32	1069.11
989.656	1087.11
991.989	1084.44
994.324	1102.44
996.656	1099.56
998.988	1118
1001.32	1082.89
1003.65	1086.22
1005.98	1079.56
1008.31	1084.22
1010.64	1086
1012.97	1052.67
1015.29	1071.56
1017.62	1084.89
1019.94	1076
1022.27	1090.22
1024.59	1090.89
1026.92	1086.44
1029.24	1080.44
1031.56	1084.44
1033.88	1080.89
1036.2	1088.22
1038.52	1091.11
1040.84	1074.22
1043.16	1115.11
1045.48	1114.22
1047.79	1108.67
1050.11	1120.89
1052.42	1105.33
1054.74	1125.56
1057.05	1126.22
1059.36	1139.33
1061.67	1121.78
1063.99	1132.89
1066.3	1126.67
1068.61	1124.67
1070.92	1127.11
1073.22	1151.78
1075.53	1143.33
1077.84	1143.33
1080.15	1149.78
1082.45	1147.78
1084.76	1152.22
1087.06	1160.22
1089.36	1182.44
1091.66	1208
1093.97	1222.89
1096.27	1264.67
1098.57	1266.89
1100.87	1206.67
1103.17	1199.11
1105.46	1195.56
1107.76	1156.89
1110.06	1152.44
1112.35	1170.44
1114.65	1167.33
1116.94	1176.22
1119.24	1193.56
1121.53	1190.67
1123.82	1194.22
1126.11	1207.56
1128.4	1202.44
1130.7	1196.67
1132.98	1191.78
1135.27	1172.89
1137.56	1174.89
1139.85	1176
1142.13	1178.44
1144.42	1186.89
1146.71	1193.56
1148.99	1202.67
1151.27	1197.11
1153.56	1235.78
1155.84	1242.44
1158.12	1230.89
1160.4	1230.67
1162.68	1259.33
1164.96	1259.56
1167.24	1253.33
1169.51	1269.11
1171.79	1268.67
1174.07	1258.89
1176.34	1281.78
1178.62	1268.89
1180.89	1317.56
1183.17	1319.11
1185.44	1337.56
1187.71	1367.11
1189.98	1341.33
1192.25	1333.78
1194.52	1349.33
1196.79	1342.89
1199.06	1345.56
1201.33	1334
1203.59	1331.56
1205.86	1319.78
1208.12	1332.67
1210.39	1343.33
1212.65	1319.11
1214.92	1347.33
1217.18	1351.56
1219.44	1364.22
1221.7	1396.89
1223.96	1404.89
1226.22	1401.78
1228.48	1416.89
1230.74	1410.44
1233	1432
1235.25	1436.67
1237.51	1445.78
1239.77	1441.11
1242.02	1431.33
1244.27	1429.56
1246.53	1443.78
1248.78	1447.56
1251.03	1455.33
1253.28	1460.44
1255.53	1464.22
1257.78	1491.11
1260.03	1476.22
1262.28	1511.11
1264.53	1546.89
1266.78	1558
1269.02	1558.67
1271.27	1602.22
1273.51	1582.44
1275.76	1617.56
1278	1580.89
1280.24	1587.56
1282.48	1603.56
1284.72	1562.89
1286.97	1588.67
1289.21	1575.11
1291.44	1564.67
1293.68	1569.11
1295.92	1538.44
1298.16	1518.67
1300.39	1518
1302.63	1513.56
1304.86	1512.22
1307.1	1518.22
1309.33	1524.67
1311.56	1547.56
1313.8	1574.44
1316.03	1560.22
1318.26	1586.89
1320.49	1608.67
1322.72	1620.44
1324.95	1632.67
1327.17	1662.89
1329.4	1668
1331.63	1668.67
1333.85	1700.44
1336.08	1697.78
1338.3	1694.67
1340.53	1696.67
1342.75	1688.44
1344.97	1675.78
1347.19	1652.22
1349.41	1655.56
1351.63	1650.44
1353.85	1633.78
1356.07	1641.11
1358.29	1616.89
1360.51	1618
1362.72	1628.44
1364.94	1624.89
1367.16	1645.56
1369.37	1645.56
1371.58	1647.78
1373.8	1655.56
1376.01	1695.11
1378.22	1705.56
1380.43	1680.44
1382.64	1706.67
1384.85	1700.22
1387.06	1671.11
1389.27	1676.89
1391.48	1620.44
1393.68	1615.11
1395.89	1604
1398.1	1580.44
1400.3	1570
1402.51	1568.22
1404.71	1584.67
1406.91	1565.78
1409.11	1577.11
1411.32	1555.11
1413.52	1566
1415.72	1563.11
1417.92	1541.33
1420.11	1511.78
1422.31	1513.11
1424.51	1492.44
1426.71	1490.67
1428.9	1474.22
1431.1	1503.78
1433.29	1508.67
1435.49	1491.33
1437.68	1514.67
1439.87	1520.89
1442.06	1500.44
1444.25	1505.56
1446.45	1504
1448.64	1483.11
1450.82	1502.44
1453.01	1486.67
1455.2	1491.78
1457.39	1498.67
1459.57	1518
1461.76	1494.67
1463.94	1509.11
1466.13	1516.22
1468.31	1506.67
1470.5	1516.22
1472.68	1487.56
1474.86	1505.11
1477.04	1508.22
1479.22	1503.33
1481.4	1495.11
1483.58	1474.44
1485.76	1482.67
1487.94	1492.67
1490.11	1491.56
1492.29	1491.78
1494.46	1492.89
1496.64	1475.56
1498.81	1440.89
1500.99	1437.33
1503.16	1455.78
1505.33	1460.22
1507.5	1446.44
1509.67	1458
1511.84	1470
1514.01	1488.89
1516.18	1519.56
1518.35	1512.67
1520.52	1537.11
1522.68	1571.11
1524.85	1586.44
1527.02	1566.89
1529.18	1604.67
1531.35	1615.56
1533.51	1635.33
1535.67	1620
1537.83	1620.22
1539.99	1601.56
1542.16	1601.56
1544.31	1631.78
1546.47	1654.89
1548.63	1666.44
1550.79	1670
1552.95	1698.44
1555.11	1703.78
1557.26	1704.44
1559.42	1755.11
1561.57	1794.22
1563.73	1792.44
1565.88	1785.33
1568.03	1791.78
1570.18	1801.78
1572.34	1776.22
1574.49	1787.56
1576.64	1785.78
1578.79	1787.56
1580.93	1748
1583.08	1763.11
1585.23	1738.44
1587.38	1734
1589.52	1750.44
1591.67	1742
1593.81	1748.44
1595.96	1729.11
1598.1	1738.44
1600.24	1693.78
1602.38	1708.67
1604.53	1699.78
1606.67	1670.89
1608.81	1637.56
1610.95	1634.44
1613.09	1601.11
1615.22	1562.89
1617.36	1536.67
1619.5	1473.11
1621.63	1449.78
1623.77	1424.67
1625.9	1396
1628.04	1341.56
1630.17	1331.11
1632.3	1297.11
1634.44	1265.78
1636.57	1230.22
1638.7	1194
1640.83	1161.56
1642.96	1131.78
1645.09	1116.22
1647.22	1105.78
1649.34	1089.78
1651.47	1074.22
1653.6	1048.22
1655.72	1022.89
1657.85	1002.67
1659.97	991.778
1662.1	970.667
1664.22	953.556
1666.34	946.444
1668.46	928.889
1670.58	935.111
1672.7	927.555
1674.82	932.444
1676.94	927.556
1679.06	921.555
1681.18	918.667
1683.3	901.778
1685.41	901.555
1687.53	914.889
1689.64	905.556
1691.76	890.889
1693.87	885.556
1695.99	866.444
1698.1	845.556
1700.21	852.889
1702.32	846.889
1704.43	829.333
1706.54	833.111
1708.65	825.333
1710.76	830.222
1712.87	836.222
1714.98	827.333
1717.08	836.889
1719.19	819.778
1721.29	806.444
1723.4	816.889
1725.5	805.111
1727.61	826.222
1729.71	792.222
1731.81	803.333
1733.91	801.111
1736.02	796.444
1738.12	786.889
1740.22	797.111
1742.31	775.556
1744.41	772.222
1746.51	776.667
1748.61	770.445
1750.7	763.778
1752.8	759.556
1754.9	761.111
1756.99	759.778
1759.08	768.444
1761.18	765.778
1763.27	757.111
1765.36	760.889
1767.45	760.667
1769.54	766.667
1771.63	746.889
1773.72	741.333
1775.81	743.333
1777.9	758.222
1779.99	755.111
1782.08	753.111
1784.16	747.333
1786.25	744.445
1788.33	749.556
1790.42	739.556
1792.5	741.778
1794.58	746
1796.67	728.889
1798.75	733.778
1800.83	753.111
1802.91	728.444
1804.99	720.445
1807.07	715.778
1809.15	722.222
1811.23	718.889
1813.3	713.111
1815.38	717.778
1817.46	735.333
1819.53	719.111
1821.61	713.778
1823.68	716.222
1825.75	704.445
1827.83	700.667
1829.9	708.222
1831.97	708
1834.04	699.778
1836.11	713.778
1838.18	706.667
1840.25	695.555
1842.32	700.222
1844.39	685.778
1846.46	693.111
1848.52	691.333
1850.59	683.556
1852.65	695.111
1854.72	690.444
1856.78	690
1858.85	669.778
1860.91	676.667
1862.97	668.667
1865.03	677.556
1867.09	682.444
1869.16	676.222
1871.22	667.556
1873.27	677.111
1875.33	676.889
1877.39	672.667
1879.45	650.222
1881.51	644.222
1883.56	665.556
1885.62	642.889
1887.67	661.556
1889.73	648
1891.78	643.111
1893.83	653.778
1895.89	653.333
1897.94	646
1899.99	637.333
1902.04	638.667
1904.09	652.222
1906.14	645.111
1908.19	645.778
1910.23	646
1912.28	644
1914.33	648
1916.37	648
1918.42	642.889
1920.46	651.778
1922.51	646.667
1924.55	635.333
1926.6	635.333
1928.64	637.111
1930.68	645.556
1932.72	626.222
1934.76	626.444
1936.8	636.667
1938.84	634
1940.88	627.778
1942.92	632
1944.96	628.667
1946.99	628
1949.03	612.444
1951.06	612.222
1953.1	616.222
1955.13	616.444
1957.17	616.444
1959.2	628
1961.23	616.222
1963.27	610
1965.3	616
1967.33	623.111
1969.36	625.778
1971.39	606.667
1973.42	608.889
1975.44	611.778
1977.47	601.778
1979.5	602.889
1981.53	612.889
1983.55	614.667
1985.58	622
1987.6	610
1989.63	611.556
1991.65	600.889
1993.67	611.556
1995.69	610.889
1997.72	607.778
1999.74	598.889
2001.76	610
2003.78	607.333
2005.8	606.444
2007.82	613.111
2009.83	614.222
2011.85	615.778
2013.87	613.556
2015.88	610.667
2017.9	612.445
2019.91	621.556
2021.93	619.111
2023.94	612.222
2025.96	614
2027.97	620
2029.98	598.444
2031.99	606.667
2034	602.667
2036.01	615.778
2038.02	607.555
2040.03	621.111
2042.04	606.222
2044.05	601.778
2046.05	597.111
2048.06	599.778
2050.07	599.778
2052.07	614
2054.08	594.222
2056.08	601.333
2058.08	606.444
2060.09	599.556
2062.09	598.222
2064.09	592
2066.09	601.333
2068.09	585.778
2070.09	589.778
2072.09	589.333
2074.09	591.778
2076.09	587.778
2078.09	594.889
2080.08	589.111
2082.08	594.667
2084.08	580.222
2086.07	594.444
2088.07	586.889
2090.06	574.667
2092.05	586.222
2094.05	574.222
2096.04	579.111
2098.03	569.111
2100.02	571.111
2102.01	567.556
2104	580.222
2105.99	569.111
2107.98	577.111
2109.97	576.889
2111.95	575.333
2113.94	572.889
2115.93	572.222
2117.91	573.778
2119.9	557.111
2121.88	560.222
2123.87	562.889
2125.85	572
2127.83	572.667
2129.81	561.333
2131.8	570
2133.78	563.556
2135.76	576.667
2137.74	574.889
2139.72	576.667
2141.69	563.778
2143.67	552.222
2145.65	568.667
2147.63	559.778
2149.6	578.444
2151.58	571.333
2153.55	558.222
2155.53	570.889
2157.5	567.333
2159.48	581.111
2161.45	552.667
2163.42	574
2165.39	564.444
2167.36	560.667
2169.33	547.778
2171.3	547.333
2173.27	562
2175.24	541.778
2177.21	546.889
2179.18	552.667
2181.14	551.111
2183.11	544.889
2185.07	551.778
2187.04	561.556
2189	559.556
2190.97	540.444
2192.93	546
2194.89	549.333
2196.86	557.111
2198.82	562
2200.78	552.444
2202.74	546.222
2204.7	548
2206.66	548.667
2208.62	544.667
2210.57	541.333
2212.53	550.667
2214.49	553.556
2216.45	550.444
2218.4	543.333
2220.36	551.333
2222.31	562.889
2224.27	538.444
2226.22	536
2228.17	554
2230.12	545.556
2232.08	547.778
2234.03	532.667
2235.98	538.222
2237.93	530.222
2239.88	546.444
2241.83	544
2243.78	535.556
2245.72	535.333
2247.67	531.556
2249.62	536.889
2251.56	533.111
2253.51	540.222
2255.45	534.667
2257.4	528.889
2259.34	536.667
2261.28	522.444
2263.23	530.222
2265.17	520.667
2267.11	527.556
2269.05	530.222
2270.99	534
2272.93	527.556
2274.87	511.778
2276.81	510
2278.75	515.111
2280.68	530.667
2282.62	513.778
2284.56	521.556
2286.49	520
2288.43	515.333
2290.36	512.444
2292.3	517.111
2294.23	510.889
2296.16	514.889
2298.09	510.667
2300.03	510.222
2301.96	506.444
2303.89	505.556
2305.82	495.778
2307.75	508
2309.68	506.667
2311.6	515.333
2313.53	504.444
2315.46	509.778
2317.39	510
2319.31	506.444
2321.24	496.889
2323.16	503.778
2325.09	512.444
2327.01	498.222
2328.93	502.667
2330.86	497.556
2332.78	494.222
2334.7	502
2336.62	504.667
2338.54	495.556
2340.46	492.444
2342.38	494.222
2344.3	492.444
2346.22	487.778
2348.14	502.889
2350.05	492.667
2351.97	495.556
2353.89	491.556
2355.8	496.222
2357.71	495.333
2359.63	497.778
2361.54	495.556
2363.46	495.556
2365.37	498.222
2367.28	499.778
2369.19	496
2371.1	491.556
2373.01	483.778
2374.92	480.667
2376.83	484.889
2378.74	484.444
2380.65	477.111
2382.56	483.333
2384.46	480.222
2386.37	488.667
2388.27	482.667
2390.18	474.667
2392.08	474.889
2393.99	479.556
2395.89	463.778
2397.8	472.444
2399.7	473.111
2401.6	470.889
2403.5	465.778
2405.4	462.222
2407.3	464.444
2409.2	467.333
2411.1	458
2413	472
2414.9	464.222
2416.8	470.222
2418.69	479.333
2420.59	479.333
2422.48	468.889
2424.38	464.222
2426.28	473.333
2428.17	468.222
2430.06	463.111
2431.96	463.333
2433.85	465.333
2435.74	468.444
2437.63	459.778
2439.52	464.889
2441.41	466.889
2443.3	468.667
2445.19	458.222
2447.08	459.333
