186.85	523.111
189.449	526.222
192.047	510.667
194.645	526.444
197.241	512.667
199.837	515.111
202.431	531.333
205.025	531.111
207.619	526.222
210.21	520.667
212.802	527.556
215.392	529.333
217.982	520.889
220.57	522.222
223.158	519.556
225.744	530
228.331	535.556
230.915	538.444
233.5	540.444
236.083	540.444
238.666	545.333
241.247	545.556
243.827	550
246.408	528.444
248.986	539.556
251.565	544
254.142	543.111
256.719	545.111
259.294	543.556
261.868	532.889
264.443	524.889
267.015	537.111
269.587	540.222
272.159	526.222
274.729	536.222
277.298	534.222
279.867	534.222
282.435	520.222
285.001	534.667
287.568	531.778
290.133	530.889
292.697	532.222
295.26	528
297.824	533.556
300.385	546
302.945	555.556
305.505	542.444
308.064	536.889
310.623	537.333
313.18	538.444
315.737	538.667
318.292	546.889
320.847	546
323.402	544.667
325.955	544.222
328.507	553.778
331.058	558
333.609	555.556
336.158	543.111
338.707	546
341.255	559.333
343.802	560.222
346.349	563.111
348.895	561.778
351.439	551.111
353.983	548.667
356.526	564.667
359.068	554.889
361.609	556.222
364.149	568.222
366.689	562.444
369.227	566.222
371.765	559.556
374.302	564.889
376.838	585.778
379.374	604.444
381.908	617.556
384.442	595.111
386.973	577.333
389.505	565.556
392.036	569.556
394.567	557.556
397.096	553.778
399.625	566.444
402.153	559.333
404.68	562.222
407.206	569.333
409.73	560.444
412.254	544.667
414.778	560.222
417.301	562.889
419.823	576.222
422.343	570.222
424.863	583.111
427.383	581.333
429.901	581.556
432.418	591.333
434.935	598.222
437.451	594
439.966	594.667
442.48	582.444
444.993	568
447.506	579.778
450.019	576.667
452.528	572.444
455.039	573.111
457.549	580.889
460.056	604.889
462.564	589.778
465.07	578.889
467.576	571.111
470.082	560.889
472.585	566.667
475.089	570.444
477.591	561.778
480.093	568.444
482.595	571.556
485.094	572.445
487.594	573.556
490.091	580.222
492.59	585.556
495.086	576
497.582	574.667
500.076	577.111
502.571	575.111
505.064	574.889
507.558	580
510.049	573.778
512.54	582.889
515.03	562.667
517.518	585.333
520.008	602.222
522.495	576.222
524.983	578
527.468	580.222
529.954	567.556
532.438	567.111
534.921	574
537.404	574.667
539.886	566.889
542.366	571.111
544.848	574.667
547.327	584.889
549.805	570.667
552.284	581.778
554.76	570.667
557.236	578.444
559.711	581.333
562.186	581.333
564.66	579.556
567.132	582.889
569.604	591.111
572.076	579.333
574.547	573.333
577.016	584.444
579.484	565.556
581.952	573.333
584.419	593.111
586.887	578.667
589.352	570.444
591.816	570.667
594.28	573.556
596.743	569.111
599.205	572
601.667	581.556
604.127	566.444
606.588	571.556
609.047	583.778
611.505	569.778
613.963	580.667
616.419	582.222
618.875	584
621.33	583.556
623.784	568.889
626.238	575.111
628.69	583.778
631.142	578.667
633.593	584.445
636.043	582
638.493	593.556
640.941	582.667
643.389	578.667
645.835	583.333
648.281	587.556
650.727	576.222
653.171	580.889
655.615	583.556
658.058	592.444
660.501	586.667
662.942	587.556
665.382	573.556
667.822	572.667
670.261	568.444
672.699	580.444
675.137	577.333
677.574	581.778
680.008	573.778
682.443	566
684.878	575.778
687.312	565.333
689.743	575.111
692.175	570.444
694.607	581.333
697.037	580.222
699.466	588
701.895	568.889
704.323	580.444
706.749	576.444
709.175	575.778
711.601	584.667
714.025	570.667
716.449	573.555
718.871	580
721.294	583.778
723.716	587.111
726.136	583.333
728.556	577.778
730.975	571.556
733.394	570.889
735.812	573.111
738.228	567.778
740.644	578.667
743.058	578.444
745.473	567.333
747.886	566.667
750.3	578.889
752.711	570.889
755.123	570
757.533	564.444
759.942	570.667
762.351	563.111
764.759	575.778
767.167	574.222
769.573	576.444
771.979	570.444
774.383	576.444
776.787	582
779.191	563.556
781.593	574.444
783.994	573.556
786.396	575.556
788.796	563.556
791.195	586
793.595	578.667
795.992	573.778
798.389	579.778
800.786	587.778
803.181	572.444
805.576	574
807.969	591.556
810.363	575.556
812.755	578.667
815.147	591.111
817.537	572.889
819.927	585.333
822.318	567.556
824.706	585.111
827.093	561.111
829.48	562.222
831.866	565.333
834.251	569.333
836.636	574.444
839.021	566.222
841.404	559.556
843.786	572
846.167	563.556
848.548	568.667
850.928	562.667
853.307	557.556
855.685	563.778
858.063	564.222
860.44	555.778
862.816	575.778
865.192	567.333
867.566	556.667
869.94	575.778
872.313	574.889
874.685	574
877.057	573.111
879.428	567.778
881.798	568.889
884.167	556.667
886.536	572.444
888.902	564.444
891.269	577.778
893.636	586
896.001	572.889
898.366	576
900.73	574
903.094	561.111
905.455	564.444
907.817	570.889
910.178	567.556
912.538	567.778
914.898	562.222
917.255	554
919.613	564.444
921.971	567.333
924.327	559.111
926.682	547.556
929.037	550.667
931.391	567.333
933.744	558
936.096	545.778
938.449	555.333
940.799	555.111
943.149	557.333
945.499	572.445
947.847	560
950.195	561.111
952.542	558.445
954.889	553.333
957.235	557.778
959.579	555.333
961.924	564.222
964.266	572.444
966.609	559.333
968.951	572.444
971.292	563.778
973.632	551.111
975.972	562.444
978.31	562
980.649	574.444
982.986	564.889
985.323	571.556
987.659	586.444
989.994	575.111
992.328	574.222
994.662	590.222
996.995	586.444
999.326	605.778
1001.66	606.667
1003.99	607.778
1006.32	605.778
1008.65	631.778
1010.98	640.667
1013.3	642
1015.63	620
1017.96	591.333
1020.28	582.445
1022.61	567.555
1024.93	563.111
1027.25	574.667
1029.58	568.889
1031.9	564.889
1034.22	571.556
1036.54	564.667
1038.86	570.667
1041.18	572.222
1043.49	567.556
1045.81	572.444
1048.13	569.333
1050.44	585.556
1052.76	573.556
1055.07	577.778
1057.39	589.556
1059.7	595.111
1062.01	581.111
1064.32	581.333
1066.63	584.222
1068.94	573.778
1071.25	587.333
1073.56	596.222
1075.87	585.333
1078.17	588.444
1080.48	588
1082.79	596.444
1085.09	594.667
1087.39	606.222
1089.7	602.889
1092	635.111
1094.3	641.556
1096.6	651.111
1098.9	641.333
1101.2	636.444
1103.5	612.444
1105.8	601.778
1108.1	595.111
1110.39	608.889
1112.69	606.222
1114.98	602.444
1117.28	604.889
1119.57	628.667
1121.86	614.444
1124.16	622.444
1126.45	610.889
1128.74	607.333
1131.03	602.667
1133.32	584.444
1135.61	594.667
1137.89	577.556
1140.18	573.778
1142.47	566.667
1144.75	579.778
1147.04	584.667
1149.32	588.889
1151.61	584
1153.89	585.778
1156.17	586.889
1158.45	584.222
1160.73	573.333
1163.01	563.778
1165.29	576.889
1167.57	567.556
1169.85	561.111
1172.12	548.667
1174.4	561.111
1176.68	562.444
1178.95	556
1181.22	555.778
1183.5	552.222
1185.77	547.111
1188.04	547.778
1190.31	555.111
1192.58	551.555
1194.85	548
1197.12	561.778
1199.39	544.444
1201.66	552.889
1203.92	546
1206.19	541.556
1208.45	546.667
1210.72	551.333
1212.98	544.667
1215.25	528.889
1217.51	541.333
1219.77	546.889
1222.03	553.333
1224.29	548.444
1226.55	552.222
1228.81	549.556
1231.07	551.333
1233.33	552.222
1235.58	550.222
1237.84	552.889
1240.09	543.556
1242.35	551.111
1244.6	559.556
1246.86	554
1249.11	542.222
1251.36	550.222
1253.61	553.556
1255.86	556
1258.11	555.111
1260.36	540.667
1262.61	544.889
1264.86	554.222
1267.1	547.556
1269.35	554.667
1271.6	550.889
1273.84	562.444
1276.08	539.778
1278.33	547.111
1280.57	555.333
1282.81	540.889
1285.05	554
1287.29	547.333
1289.53	550.889
1291.77	562.444
1294.01	556.222
1296.25	563.778
1298.48	554
1300.72	548
1302.96	550
1305.19	549.333
1307.42	546.444
1309.66	552.889
1311.89	559.556
1314.12	556.444
1316.35	550.667
1318.58	546.444
1320.81	555.778
1323.04	546.667
1325.27	554.667
1327.5	567.778
1329.73	556
1331.95	557.333
1334.18	558
1336.4	570.444
1338.63	557.778
1340.85	560.444
1343.08	568.222
1345.3	563.778
1347.52	558
1349.74	559.111
1351.96	546.889
1354.18	559.333
1356.4	561.556
1358.61	562.889
1360.83	561.333
1363.05	558.444
1365.27	571.778
1367.48	580.444
1369.69	594.444
1371.91	585.333
1374.12	584.444
1376.33	597.555
1378.55	604.889
1380.76	605.111
1382.97	600.222
1385.18	590.667
1387.39	598.667
1389.59	574.667
1391.8	582.222
1394.01	575.333
1396.21	558.222
1398.42	557.555
1400.63	553.333
1402.83	547.778
1405.03	553.333
1407.24	548.444
1409.44	532.667
1411.64	543.333
1413.84	547.556
1416.04	543.111
1418.24	539.333
1420.44	538.667
1422.64	545.778
1424.83	551.555
1427.03	541.778
1429.23	549.333
1431.42	535.778
1433.62	547.111
1435.81	542.667
1438	542.667
1440.19	551.556
1442.39	543.556
1444.58	539.111
1446.77	540.444
1448.96	531.333
1451.15	534.667
1453.34	540.667
1455.52	547.556
1457.71	535.556
1459.9	539.778
1462.08	540
1464.27	538.667
1466.45	533.778
1468.64	541.778
1470.82	538.667
1473	542.222
1475.18	546.889
1477.36	529.556
1479.54	552.444
1481.72	530
1483.9	538
1486.08	516.222
1488.26	522
1490.43	508.444
1492.61	522.667
1494.78	515.778
1496.96	522
1499.13	518.444
1501.31	522.444
1503.48	512.667
1505.65	518.889
1507.82	512.667
1509.99	509.111
1512.16	510.889
1514.33	522.889
1516.5	515.778
1518.67	510.889
1520.84	511.556
1523	504.667
1525.17	511.556
1527.34	505.333
1529.5	516.444
1531.66	514.889
1533.83	520.444
1535.99	512.667
1538.15	510.222
1540.31	510.444
1542.47	513.333
1544.63	517.778
1546.79	515.333
1548.95	513.778
1551.11	518.667
1553.27	518
1555.42	515.556
1557.58	518.222
1559.73	516.889
1561.89	518.444
1564.04	516.222
1566.2	523.333
1568.35	524.444
1570.5	524.667
1572.65	522.444
1574.8	526.889
1576.95	536
1579.1	538
1581.25	526.667
1583.4	531.778
1585.55	527.778
1587.69	512.444
1589.84	518.222
1591.99	516
1594.13	525.556
1596.27	515.778
1598.42	512.222
1600.56	516.667
1602.7	516.889
1604.84	514.222
1606.98	506.889
1609.12	504.889
1611.26	508
1613.4	506.444
1615.54	509.556
1617.68	504.222
1619.81	500.222
1621.95	490.889
1624.08	498.667
1626.22	491.333
1628.35	502
1630.49	494.667
1632.62	500.667
1634.75	494.667
1636.88	493.111
1639.01	488.444
1641.14	495.556
1643.27	489.778
1645.4	494
1647.53	490.889
1649.66	488.889
1651.79	490.889
1653.91	498
1656.04	484.444
1658.16	493.778
1660.29	492.444
1662.41	489.111
1664.53	487.111
1666.66	496.444
1668.78	487.778
1670.9	488.444
1673.02	490.444
1675.14	481.556
1677.26	485.111
1679.38	492.889
1681.49	498.444
1683.61	477.333
1685.73	487.333
1687.84	478.444
1689.96	477.556
1692.07	485.556
1694.19	480.667
1696.3	481.778
1698.41	488.222
1700.52	483.111
1702.64	486.444
1704.75	486.222
1706.86	493.556
1708.97	480.667
1711.07	476.444
1713.18	483.111
1715.29	486.667
1717.4	482.222
1719.5	486.222
1721.61	481.778
1723.71	477.111
1725.82	466.889
1727.92	479.556
1730.02	478.889
1732.12	475.778
1734.23	470.444
1736.33	476
1738.43	473.556
1740.53	480
1742.63	472.667
1744.72	472.444
1746.82	472.889
1748.92	470.444
1751.02	466.222
1753.11	467.333
1755.21	456.222
1757.3	470.222
1759.4	465.556
1761.49	460.444
1763.58	466.222
1765.67	465.778
1767.76	461.333
1769.86	460
1771.95	465.111
1774.03	464.667
1776.12	455.111
1778.21	459.333
1780.3	461.556
1782.39	468.889
1784.47	459.778
1786.56	466.222
1788.64	466.222
1790.73	461.778
1792.81	463.556
1794.89	454.889
1796.98	465.778
1799.06	458.889
1801.14	467.778
1803.22	462
1805.3	464.222
1807.38	462.444
1809.46	462.667
1811.54	455.556
1813.61	463.111
1815.69	461.556
1817.77	464.444
1819.84	461.333
1821.92	458.667
1823.99	453.556
1826.06	452.222
1828.14	462
1830.21	455.556
1832.28	459.556
1834.35	445.333
1836.42	460.889
1838.49	448.889
1840.56	450
1842.63	441.778
1844.7	441.111
1846.77	446
1848.83	450.222
1850.9	445.333
1852.96	445.111
1855.03	439.111
1857.09	446
1859.15	446.889
1861.22	447.778
1863.28	454.889
1865.34	441.333
1867.4	444.444
1869.46	444.444
1871.52	437.778
1873.58	441.111
1875.64	436.889
1877.7	440.444
1879.76	442.222
1881.81	433.556
1883.87	430
1885.92	445.556
1887.98	436.667
1890.03	435.333
1892.09	440.222
1894.14	440.667
1896.19	442.667
1898.24	436.444
1900.29	442.222
1902.34	440.222
1904.4	440.222
1906.44	438.889
1908.49	436.222
1910.54	438.444
1912.59	440.667
1914.63	434
1916.68	429.333
1918.73	430.889
1920.77	432.667
1922.81	440.889
1924.86	434.444
1926.9	425.111
1928.94	430.667
1930.99	430.889
1933.03	432.222
1935.07	434.444
1937.11	436.667
1939.15	427.556
1941.19	422.889
1943.22	427.556
1945.26	429.333
1947.3	427.778
1949.33	430.889
1951.37	427.111
1953.4	427.111
1955.44	431.556
1957.47	421.333
1959.51	416.444
1961.54	424.667
1963.57	420.222
1965.6	419.778
1967.63	428.444
1969.66	420.444
1971.69	414.444
1973.72	418.667
1975.75	414.222
1977.78	414.222
1979.8	418.667
1981.83	418.222
1983.86	425.556
1985.88	415.111
1987.91	405.778
1989.93	417.333
1991.95	416.444
1993.98	414.444
1996	416.444
1998.02	408.889
2000.04	411.556
2002.06	413.111
2004.08	408.667
2006.1	413.778
2008.12	411.556
2010.14	411.556
2012.15	411.778
2014.17	410
2016.19	409.556
2018.2	412.889
2020.22	404.889
2022.23	404
2024.25	414.444
2026.26	402.444
2028.27	406.667
2030.28	404.667
2032.29	404.667
2034.3	410
2036.32	406.667
2038.32	408.889
2040.33	404.444
2042.34	404.444
2044.35	409.111
2046.36	406.222
2048.36	398
2050.37	409.333
2052.37	404
2054.38	399.111
2056.38	398.444
2058.39	404.444
2060.39	408.444
2062.39	399.333
2064.39	398.667
2066.39	406
2068.39	396.889
2070.39	395.778
2072.39	405.556
2074.39	394
2076.39	394.222
2078.39	397.333
2080.39	397.111
2082.38	389.333
2084.38	390.222
2086.37	402.222
2088.37	393.111
2090.36	387.111
2092.35	397.111
2094.35	392.222
2096.34	393.333
2098.33	384.222
2100.32	382
2102.31	388.667
2104.3	390.444
2106.29	386.222
2108.28	379.333
2110.27	382.667
2112.25	389.556
2114.24	387.556
2116.23	380.667
2118.21	386.667
2120.2	381.333
2122.18	384.444
2124.17	384
2126.15	376.444
2128.13	385.556
2130.11	380.222
2132.09	387.333
2134.08	375.556
2136.06	380.444
2138.04	382.667
2140.02	380
2141.99	374
2143.97	386.222
2145.95	361.778
2147.93	384
2149.9	384
2151.88	378.222
2153.85	376.444
2155.83	372.444
2157.8	366.667
2159.77	371.333
2161.75	377.556
2163.72	368.889
2165.69	380.889
2167.66	374.444
2169.63	373.111
2171.6	365.556
2173.57	367.556
2175.54	367.333
2177.51	366.667
2179.47	374
2181.44	374.667
2183.41	362.667
2185.37	365.556
2187.34	367.333
2189.3	361.556
2191.27	354.222
2193.23	362
2195.19	361.778
2197.15	365.778
2199.11	358.444
2201.08	354.444
2203.04	365.556
2205	365.778
2206.96	359.333
2208.91	357.556
2210.87	351.556
2212.83	366
2214.79	358.667
2216.74	360.667
2218.7	358.444
2220.65	353.778
2222.61	352.444
2224.56	349.111
2226.52	358.889
2228.47	361.556
2230.42	360
2232.37	355.333
2234.32	348.222
2236.27	350
2238.22	351.111
2240.17	344.222
2242.12	352.444
2244.07	346
2246.02	342.889
2247.97	346.667
2249.91	344.667
2251.86	343.556
2253.8	345.556
2255.75	348.222
2257.69	343.778
2259.64	341.778
2261.58	337.111
2263.52	345.556
2265.46	346.667
2267.4	344.667
2269.35	348.444
2271.29	346
2273.23	339.556
2275.16	350.222
2277.1	340.889
2279.04	341.333
2280.98	337.556
2282.92	335.111
2284.85	339.333
2286.79	337.333
2288.72	345.333
2290.66	331.778
2292.59	328
2294.52	337.778
2296.46	330.222
2298.39	335.556
2300.32	328.222
2302.25	335.111
2304.18	333.778
2306.11	334.889
2308.04	331.778
2309.97	328.222
2311.9	322.889
2313.83	336.222
2315.75	328.444
2317.68	323.333
2319.61	333.556
2321.53	327.556
2323.46	318.222
2325.38	329.778
2327.3	338
2329.23	322.667
2331.15	328
2333.07	317.111
2334.99	326.222
2336.91	320.667
2338.83	322.889
2340.75	326.222
2342.67	318.667
2344.59	316.222
2346.51	322.222
2348.43	323.333
2350.35	310.889
2352.26	321.556
2354.18	323.111
2356.09	317.111
2358.01	316.222
2359.92	323.778
2361.83	321.111
2363.75	319.778
2365.66	315.556
2367.57	314.667
2369.48	309.333
2371.39	309.778
2373.31	316.889
2375.21	312.222
2377.12	314.444
2379.03	304.222
2380.94	307.778
2382.85	309.778
2384.76	309.778
2386.66	307.778
2388.57	307.333
2390.47	316.444
2392.38	303.111
2394.28	305.111
2396.18	304.889
2398.09	308.444
2399.99	300.222
2401.89	308
2403.79	306.444
2405.69	304.222
2407.59	305.778
2409.49	306
2411.39	301.778
2413.29	307.556
2415.19	307.333
2417.09	302.667
2418.98	304.222
2420.88	304.889
2422.78	304.222
2424.67	301.778
2426.57	304
2428.46	300.889
2430.35	300
2432.25	301.778
2434.14	302
2436.03	300.889
2437.92	303.556
2439.81	301.111
2441.7	298.444
2443.59	294.222
2445.48	299.556
2447.37	298.667
2449.26	299.111
2451.15	301.556
2453.03	286
