186.85	520.444
189.449	521.333
192.047	520.222
194.645	510
197.241	518.444
199.837	521.111
202.431	512.889
205.025	529.556
207.619	518
210.21	523.556
212.802	522
215.392	519.111
217.982	518.222
220.57	522.889
223.158	521.333
225.744	519.111
228.331	519.778
230.915	533.111
233.5	533.111
236.083	531.111
238.666	520.444
241.247	537.333
243.827	523.778
246.408	532.889
248.986	542
251.565	530.222
254.142	536.222
256.719	528.667
259.294	521.333
261.868	521.556
264.443	525.111
267.015	508.444
269.587	506.667
272.159	523.333
274.729	511.111
277.298	505.333
279.867	500.222
282.435	507.556
285.001	506.667
287.568	501.333
290.133	501.778
292.697	504.222
295.26	517.111
297.824	507.333
300.385	499.778
302.945	487.556
305.505	501.556
308.064	501.333
310.623	496.444
313.18	505.111
315.737	500.667
318.292	498.444
320.847	491.778
323.402	495.778
325.955	499.556
328.507	499.556
331.058	508.222
333.609	506.667
336.158	500.222
338.707	506.667
341.255	498.444
343.802	510.444
346.349	500.444
348.895	510.222
351.439	514.667
353.983	507.556
356.526	501.556
359.068	512.889
361.609	516.889
364.149	510.444
366.689	510.667
369.227	516.444
371.765	515.556
374.302	526
376.838	546.667
379.374	546.445
381.908	552
384.442	546.667
386.973	525.556
389.505	517.778
392.036	511.111
394.567	512.444
397.096	498.444
399.625	501.111
402.153	510
404.68	521.778
407.206	512.667
409.73	522.889
412.254	518.222
414.778	524.667
417.301	515.333
419.823	520.222
422.343	518.444
424.863	524.444
427.383	537.111
429.901	530
432.418	535.333
434.935	554
437.451	559.333
439.966	550.444
442.48	543.111
444.993	524.667
447.506	536.667
450.019	522.222
452.528	528
455.039	519.111
457.549	537.778
460.056	540.667
462.564	532.222
465.07	520.667
467.576	519.333
470.082	513.333
472.585	507.556
475.089	518.667
477.591	510
480.093	521.556
482.595	519.333
485.094	510.667
487.594	526
490.091	529.556
492.59	518
495.086	522.222
497.582	532.222
500.076	521.778
502.571	523.778
505.064	530.667
507.558	522.444
510.049	515.111
512.54	522.445
515.03	527.333
517.518	536.444
520.008	528.889
522.495	520.445
524.983	525.111
527.468	515.556
529.954	511.556
532.438	518.889
534.921	514.667
537.404	514.444
539.886	520.667
542.366	516
544.848	517.556
547.327	523.556
549.805	528.889
552.284	512
554.76	510.222
557.236	528.444
559.711	522.444
562.186	524.889
564.66	528.444
567.132	534
569.604	518
572.076	520.667
574.547	530.444
577.016	517.778
579.484	521.778
581.952	520.667
584.419	519.778
586.887	521.555
589.352	523.111
591.816	508.444
594.28	522
596.743	521.111
599.205	516.889
601.667	524.222
604.127	518.444
606.588	523.556
609.047	526.222
611.505	525.778
613.963	522.222
616.419	521.333
618.875	522.667
621.33	533.778
623.784	527.111
626.238	529.333
628.69	521.778
631.142	528.444
633.593	528
636.043	542.889
638.493	544.667
640.941	508.667
643.389	530.222
645.835	539.333
648.281	530.444
650.727	537.111
653.171	533.778
655.615	535.556
658.058	546
660.501	551.778
662.942	538.889
665.382	537.333
667.822	529.111
670.261	524.222
672.699	512
675.137	520.667
677.574	512.444
680.008	515.111
682.443	516.444
684.878	531.555
687.312	520.667
689.743	516.222
692.175	531.778
694.607	518.222
697.037	524.667
699.466	527.556
701.895	516.444
704.323	513.778
706.749	529.333
709.175	518.444
711.601	519.333
714.025	525.778
716.449	528.444
718.871	527.556
721.294	522.222
723.716	529.333
726.136	517.333
728.556	511.333
730.975	520.444
733.394	520
735.812	506.222
738.228	509.111
740.644	511.111
743.058	510.222
745.473	526.889
747.886	519.556
750.3	522.667
752.711	515.111
755.123	510.444
757.533	517.556
759.942	508.444
762.351	509.556
764.759	521.111
767.167	513.333
769.573	518.889
771.979	520.889
774.383	514.222
776.787	520
779.191	518.889
781.593	523.556
783.994	518.889
786.396	518
788.796	523.556
791.195	520.889
793.595	532.667
795.992	532.889
798.389	535.333
800.786	539.556
803.181	532.667
805.576	544
807.969	534.667
810.363	531.778
812.755	529.111
815.147	534.889
817.537	541.333
819.927	532.445
822.318	530.667
824.706	525.111
827.093	526
829.48	517.778
831.866	514
834.251	517.778
836.636	532.222
839.021	512
841.404	505.556
843.786	513.111
846.167	515.333
848.548	507.111
850.928	510.222
853.307	510.444
855.685	518.889
858.063	512.444
860.44	516.889
862.816	496.889
865.192	510
867.566	517.111
869.94	515.556
872.313	500
874.685	506.667
877.057	506
879.428	501.778
881.798	500.667
884.167	508.667
886.536	515.333
888.902	503.111
891.269	513.556
893.636	514
896.001	511.111
898.366	515.556
900.73	505.778
903.094	506.667
905.455	510.222
907.817	500
910.178	503.111
912.538	507.111
914.898	510.667
917.255	506.889
919.613	499.556
921.971	505.111
924.327	495.333
926.682	498
929.037	496
931.391	497.778
933.744	496.444
936.096	492.444
938.449	493.778
940.799	503.778
943.149	484.444
945.499	495.333
947.847	494.222
950.195	496.222
952.542	505.333
954.889	500.444
957.235	503.556
959.579	503.333
961.924	513.556
964.266	508.444
966.609	508.444
968.951	513.333
971.292	512.222
973.632	508.444
975.972	508.667
978.31	504.889
980.649	512.667
982.986	521.556
985.323	522.667
987.659	530.222
989.994	542.667
992.328	561.556
994.662	558.444
996.995	580.222
999.326	591.778
1001.66	607.111
1003.99	622
1006.32	654.667
1008.65	684.222
1010.98	704.667
1013.3	686.444
1015.63	650
1017.96	603.111
1020.28	569.111
1022.61	539.778
1024.93	528.444
1027.25	514.444
1029.58	518.444
1031.9	518.667
1034.22	521.555
1036.54	519.111
1038.86	505.778
1041.18	511.333
1043.49	496
1045.81	523.778
1048.13	538.889
1050.44	530.667
1052.76	536.444
1055.07	525.333
1057.39	530.889
1059.7	530
1062.01	528
1064.32	528.222
1066.63	519.556
1068.94	524.222
1071.25	529.556
1073.56	536
1075.87	536.889
1078.17	536.889
1080.48	540.889
1082.79	549.778
1085.09	550.889
1087.39	562
1089.7	577.556
1092	576.889
1094.3	593.333
1096.6	615.556
1098.9	593.333
1101.2	580.889
1103.5	554.444
1105.8	549.556
1108.1	546.222
1110.39	552.444
1112.69	548.222
1114.98	565.556
1117.28	574
1119.57	575.111
1121.86	571.555
1124.16	573.111
1126.45	575.333
1128.74	548.222
1131.03	544.889
1133.32	532.222
1135.61	525.555
1137.89	534.889
1140.18	524.222
1142.47	514.667
1144.75	531.111
1147.04	531.778
1149.32	531.555
1151.61	534.667
1153.89	536.444
1156.17	528
1158.45	524.444
1160.73	526
1163.01	525.555
1165.29	518
1167.57	517.333
1169.85	522.667
1172.12	505.778
1174.4	502.222
1176.68	510.222
1178.95	504.444
1181.22	517.111
1183.5	512.444
1185.77	514
1188.04	499.111
1190.31	502
1192.58	505.778
1194.85	508.667
1197.12	503.333
1199.39	510.667
1201.66	499.556
1203.92	498
1206.19	498.667
1208.45	491.111
1210.72	502.889
1212.98	497.333
1215.25	493.111
1217.51	481.556
1219.77	486
1222.03	480.667
1224.29	483.111
1226.55	495.111
1228.81	493.111
1231.07	493.556
1233.33	490
1235.58	499.556
1237.84	497.778
1240.09	494.889
1242.35	496.444
1244.6	489.111
1246.86	501.111
1249.11	501.111
1251.36	492.889
1253.61	493.333
1255.86	494.444
1258.11	506.667
1260.36	500.667
1262.61	496.222
1264.86	506.444
1267.1	506
1269.35	504
1271.6	498.444
1273.84	504.667
1276.08	492
1278.33	500.889
1280.57	506
1282.81	501.333
1285.05	496.444
1287.29	506.222
1289.53	505.333
1291.77	504.889
1294.01	510.444
1296.25	512
1298.48	510.667
1300.72	509.333
1302.96	511.556
1305.19	507.778
1307.42	504.889
1309.66	499.111
1311.89	502.222
1314.12	493.111
1316.35	510.667
1318.58	498.889
1320.81	504.444
1323.04	510.444
1325.27	508
1327.5	498.444
1329.73	513.111
1331.95	517.778
1334.18	518.444
1336.4	513.111
1338.63	519.333
1340.85	521.333
1343.08	511.111
1345.3	520.667
1347.52	519.333
1349.74	520.889
1351.96	519.556
1354.18	520.667
1356.4	529.778
1358.61	526.444
1360.83	538.667
1363.05	544.445
1365.27	537.333
1367.48	553.556
1369.69	560.444
1371.91	565.111
1374.12	576.444
1376.33	592
1378.55	613.556
1380.76	607.778
1382.97	612.222
1385.18	600.222
1387.39	608.444
1389.59	583.778
1391.8	562.222
1394.01	550.444
1396.21	539.111
1398.42	521.556
1400.63	513.778
1402.83	505.111
1405.03	514.444
1407.24	506.667
1409.44	496.444
1411.64	506.667
1413.84	508.889
1416.04	506.222
1418.24	505.778
1420.44	509.778
1422.64	512.222
1424.83	518
1427.03	514
1429.23	515.778
1431.42	517.778
1433.62	517.778
1435.81	518.667
1438	520.889
1440.19	513.556
1442.39	511.778
1444.58	493.778
1446.77	496
1448.96	501.556
1451.15	503.556
1453.34	487.556
1455.52	486.889
1457.71	498
1459.9	488.222
1462.08	480
1464.27	489.556
1466.45	490.889
1468.64	482.667
1470.82	493.556
1473	488.444
1475.18	486
1477.36	481.111
1479.54	484.444
1481.72	483.556
1483.9	474.889
1486.08	472
1488.26	472.889
1490.43	462.222
1492.61	455.778
1494.78	463.111
1496.96	462.667
1499.13	459.556
1501.31	469.333
1503.48	465.556
1505.65	459.778
1507.82	456.889
1509.99	472.667
1512.16	460
1514.33	468
1516.5	460.444
1518.67	458
1520.84	464.667
1523	474.222
1525.17	467.333
1527.34	469.111
1529.5	467.556
1531.66	475.111
1533.83	473.556
1535.99	479.333
1538.15	467.333
1540.31	465.333
1542.47	468.222
1544.63	471.778
1546.79	480.444
1548.95	475.778
1551.11	479.333
1553.27	483.111
1555.42	473.333
1557.58	473.333
1559.73	480
1561.89	486
1564.04	478.667
1566.2	500
1568.35	496.444
1570.5	501.111
1572.65	509.111
1574.8	517.556
1576.95	512
1579.1	508.444
1581.25	508.667
1583.4	503.778
1585.55	492.222
1587.69	494.222
1589.84	491.556
1591.99	488.889
1594.13	497.778
1596.27	486.222
1598.42	489.111
1600.56	468.667
1602.7	480.222
1604.84	456.444
1606.98	470.222
1609.12	460.444
1611.26	465.333
1613.4	459.778
1615.54	461.333
1617.68	453.556
1619.81	450.222
1621.95	450.222
1624.08	446.889
1626.22	448.889
1628.35	444.444
1630.49	446.889
1632.62	442.889
1634.75	433.778
1636.88	431.778
1639.01	444.889
1641.14	438
1643.27	438.889
1645.4	434
1647.53	442.667
1649.66	430.444
1651.79	436.222
1653.91	437.556
1656.04	437.111
1658.16	430.444
1660.29	434.222
1662.41	427.111
1664.53	438.222
1666.66	421.333
1668.78	432.222
1670.9	432.889
1673.02	423.111
1675.14	427.556
1677.26	438.667
1679.38	435.333
1681.49	417.556
1683.61	429.333
1685.73	430.889
1687.84	436.667
1689.96	435.111
1692.07	427.778
1694.19	427.111
1696.3	434.222
1698.41	433.333
1700.52	430
1702.64	425.778
1704.75	440.444
1706.86	432.222
1708.97	429.556
1711.07	428.444
1713.18	421.556
1715.29	430
1717.4	432
1719.5	430.444
1721.61	425.111
1723.71	422.667
1725.82	422.444
1727.92	409.111
1730.02	424.222
1732.12	422.667
1734.23	422
1736.33	423.778
1738.43	425.556
1740.53	424
1742.63	411.556
1744.72	418
1746.82	416.222
1748.92	409.556
1751.02	412.667
1753.11	414.667
1755.21	414.222
1757.3	415.333
1759.4	408.889
1761.49	401.333
1763.58	409.333
1765.67	409.778
1767.76	407.778
1769.86	406.667
1771.95	403.111
1774.03	401.111
1776.12	408
1778.21	407.333
1780.3	405.778
1782.39	405.111
1784.47	414
1786.56	410.222
1788.64	405.333
1790.73	403.111
1792.81	409.556
1794.89	399.333
1796.98	414
1799.06	404.222
1801.14	401.778
1803.22	398.667
1805.3	401.111
1807.38	399.333
1809.46	394.889
1811.54	401.333
1813.61	400.889
1815.69	404.667
1817.77	401.333
1819.84	399.556
1821.92	399.556
1823.99	398.667
1826.06	390.444
1828.14	411.778
1830.21	403.556
1832.28	403.111
1834.35	397.111
1836.42	395.333
1838.49	402.667
1840.56	389.778
1842.63	395.111
1844.7	394.444
1846.77	387.333
1848.83	386.444
1850.9	390.444
1852.96	392.667
1855.03	390.222
1857.09	397.111
1859.15	384.889
1861.22	387.556
1863.28	386
1865.34	398.222
1867.4	390.444
1869.46	392
1871.52	388
1873.58	384.889
1875.64	388.667
1877.7	391.778
1879.76	383.556
1881.81	382.667
1883.87	382.222
1885.92	382.667
1887.98	387.333
1890.03	384.444
1892.09	384.889
1894.14	382.889
1896.19	383.556
1898.24	377.111
1900.29	376.889
1902.34	374.889
1904.4	384.667
1906.44	387.111
1908.49	387.111
1910.54	385.556
1912.59	376.889
1914.63	378
1916.68	377.778
1918.73	381.556
1920.77	379.556
1922.81	376
1924.86	378.222
1926.9	367.778
1928.94	382.889
1930.99	380.444
1933.03	375.778
1935.07	370
1937.11	376
1939.15	371.556
1941.19	365.333
1943.22	374
1945.26	371.333
1947.3	370.667
1949.33	367.556
1951.37	380.667
1953.4	363.333
1955.44	368.444
1957.47	373.556
1959.51	363.556
1961.54	369.111
1963.57	368
1965.6	360.444
1967.63	367.556
1969.66	359.778
1971.69	362.444
1973.72	362.667
1975.75	358
1977.78	370.667
1979.8	369.556
1981.83	359.556
1983.86	374.889
1985.88	358.222
1987.91	364.667
1989.93	358.889
1991.95	361.778
1993.98	358.667
1996	360
1998.02	346
2000.04	362.889
2002.06	361.333
2004.08	363.778
2006.1	358.667
2008.12	355.111
2010.14	362.222
2012.15	351.556
2014.17	357.111
2016.19	353.111
2018.2	350
2020.22	362.444
2022.23	354.444
2024.25	372.222
2026.26	369.556
2028.27	363.333
2030.28	361.111
2032.29	358.667
2034.3	363.778
2036.32	367.111
2038.32	356.444
2040.33	344.667
2042.34	350.222
2044.35	348.444
2046.36	363.556
2048.36	347.333
2050.37	358.889
2052.37	349.111
2054.38	347.778
2056.38	352.222
2058.39	352.444
2060.39	344.667
2062.39	352.889
2064.39	356.667
2066.39	342.889
2068.39	348
2070.39	343.556
2072.39	340
2074.39	345.778
2076.39	343.778
2078.39	347.556
2080.39	349.778
2082.38	346
2084.38	347.556
2086.37	342.222
2088.37	335.111
2090.36	339.778
2092.35	344
2094.35	337.778
2096.34	346.222
2098.33	340.222
2100.32	340.444
2102.31	336.222
2104.3	337.556
2106.29	342.444
2108.28	344
2110.27	339.556
2112.25	336.444
2114.24	345.333
2116.23	326.444
2118.21	335.778
2120.2	341.556
2122.18	337.111
2124.17	335.111
2126.15	334.444
2128.13	333.111
2130.11	326.222
2132.09	341.333
2134.08	338
2136.06	332.222
2138.04	334.444
2140.02	328
2141.99	328.667
2143.97	340.667
2145.95	327.333
2147.93	326.889
2149.9	326.889
2151.88	320.667
2153.85	331.778
2155.83	332
2157.8	329.333
2159.77	331.333
2161.75	325.556
2163.72	330.222
2165.69	327.556
2167.66	321.556
2169.63	328.444
2171.6	331.556
2173.57	320.444
2175.54	320
2177.51	323.333
2179.47	319.778
2181.44	319.333
2183.41	320.222
2185.37	320.889
2187.34	312.889
2189.3	321.111
2191.27	318.444
2193.23	311.333
2195.19	322.889
2197.15	317.333
2199.11	318.667
2201.08	323.556
2203.04	310.444
2205	321.333
2206.96	315.778
2208.91	308.444
2210.87	312.222
2212.83	308.667
2214.79	313.333
2216.74	308
2218.7	312.444
2220.65	307.556
2222.61	311.333
2224.56	318
2226.52	313.111
2228.47	311.556
2230.42	312.444
2232.37	314
2234.32	312.889
2236.27	304.444
2238.22	303.556
2240.17	316.222
2242.12	310.444
2244.07	297.778
2246.02	304.667
2247.97	301.333
2249.91	298
2251.86	300.889
2253.8	310
2255.75	305.778
2257.69	309.556
2259.64	300.444
2261.58	309.556
2263.52	301.556
2265.46	297.111
2267.4	301.778
2269.35	306.889
2271.29	295.111
2273.23	305.556
2275.16	300.444
2277.1	296
2279.04	294
2280.98	303.556
2282.92	294.444
2284.85	292.222
2286.79	296.222
2288.72	295.778
2290.66	295.556
2292.59	290.667
2294.52	288.222
2296.46	291.778
2298.39	284.889
2300.32	292.222
2302.25	288
2304.18	290.667
2306.11	284.667
2308.04	288.667
2309.97	295.111
2311.9	286.222
2313.83	289.111
2315.75	291.111
2317.68	290
2319.61	279.111
2321.53	289.778
2323.46	283.333
2325.38	291.556
2327.3	286.889
2329.23	289.111
2331.15	288
2333.07	279.778
2334.99	280.889
2336.91	293.778
2338.83	272.889
2340.75	281.333
2342.67	277.556
2344.59	287.778
2346.51	291.111
2348.43	279.333
2350.35	287.111
2352.26	280.889
2354.18	277.333
2356.09	287.111
2358.01	288.444
2359.92	276.889
2361.83	277.111
2363.75	279.111
2365.66	268.222
2367.57	272.889
2369.48	280.222
2371.39	283.778
2373.31	277.333
2375.21	263.778
2377.12	278.222
2379.03	279.333
2380.94	282.667
2382.85	271.111
2384.76	269.111
2386.66	268.667
2388.57	271.778
2390.47	269.333
2392.38	274
2394.28	275.111
2396.18	271.556
2398.09	269.333
2399.99	268.889
2401.89	263.556
2403.79	265.556
2405.69	274.889
2407.59	268.889
2409.49	266.444
2411.39	268.444
2413.29	266.444
2415.19	266.222
2417.09	264
2418.98	265.556
2420.88	269.333
2422.78	267.333
2424.67	263.778
2426.57	257.778
2428.46	261.111
2430.35	262.444
2432.25	266.667
2434.14	264.222
2436.03	260.889
2437.92	266.444
2439.81	258.889
2441.7	268
2443.59	259.111
2445.48	252
2447.37	260.222
2449.26	253.111
2451.15	266.444
2453.03	261.778
