186.85	598.444
189.449	604.444
192.047	606.889
194.645	612
197.241	603.333
199.837	614.444
202.431	617.778
205.025	617.111
207.619	613.111
210.21	605.111
212.802	610.889
215.392	620.667
217.982	617.778
220.57	623.111
223.158	616.444
225.744	622.667
228.331	617.556
230.915	630
233.5	626
236.083	636.444
238.666	628
241.247	627.778
243.827	631.333
246.408	613.111
248.986	630.444
251.565	640
254.142	636
256.719	636.222
259.294	645.111
261.868	621.333
264.443	629.111
267.015	621.111
269.587	626.222
272.159	622.444
274.729	613.111
277.298	621.111
279.867	621.556
282.435	606.889
285.001	610
287.568	609.333
290.133	610
292.697	608
295.26	609.333
297.824	616
300.385	607.556
302.945	619.111
305.505	610
308.064	617.333
310.623	613.778
313.18	608.444
315.737	599.111
318.292	606.667
320.847	614.889
323.402	620.667
325.955	606.444
328.507	617.778
331.058	624.667
333.609	625.556
336.158	615.778
338.707	620
341.255	616.444
343.802	615.333
346.349	622.889
348.895	628.889
351.439	625.778
353.983	624.222
356.526	628.444
359.068	630.889
361.609	638.889
364.149	627.556
366.689	636.667
369.227	634.889
371.765	636.222
374.302	646.222
376.838	652
379.374	662.889
381.908	671.778
384.442	659.778
386.973	645.778
389.505	630
392.036	643.778
394.567	618
397.096	627.556
399.625	618.445
402.153	624.222
404.68	634.667
407.206	632
409.73	620
412.254	635.333
414.778	632.889
417.301	638.667
419.823	629.778
422.343	638.889
424.863	644
427.383	640.667
429.901	662
432.418	668.667
434.935	663.333
437.451	664.444
439.966	651.555
442.48	649.333
444.993	640.444
447.506	643.111
450.019	652.222
452.528	649.111
455.039	651.111
457.549	664.667
460.056	652.222
462.564	648
465.07	647.556
467.576	647.333
470.082	648
472.585	642
475.089	631.778
477.591	648
480.093	642.444
482.595	642.889
485.094	635.333
487.594	654.222
490.091	652
492.59	649.778
495.086	655.778
497.582	656.444
500.076	641.778
502.571	658
505.064	646.667
507.558	655.333
510.049	638.222
512.54	643.778
515.03	635.778
517.518	659.333
520.008	669.778
522.495	642.889
524.983	654.889
527.468	656
529.954	636.222
532.438	640
534.921	644
537.404	629.556
539.886	641.556
542.366	651.556
544.848	637.778
547.327	635.556
549.805	646
552.284	644.667
554.76	648.667
557.236	639.333
559.711	653.111
562.186	647.111
564.66	664.667
567.132	646.889
569.604	657.778
572.076	654.444
574.547	649.111
577.016	652.444
579.484	634
581.952	651.333
584.419	636.444
586.887	640.889
589.352	646.222
591.816	653.333
594.28	634
596.743	642.667
599.205	650.444
601.667	641.111
604.127	638.222
606.588	653.111
609.047	646
611.505	647.556
613.963	641.111
616.419	652.222
618.875	650.889
621.33	638.222
623.784	648.445
626.238	654.444
628.69	661.556
631.142	652.222
633.593	654.222
636.043	650.444
638.493	648.667
640.941	640
643.389	650.444
645.835	651.111
648.281	652
650.727	659.556
653.171	647.556
655.615	656
658.058	646
660.501	663.333
662.942	653.333
665.382	648.222
667.822	648.889
670.261	650.222
672.699	646.444
675.137	647.778
677.574	631.111
680.008	650
682.443	640
684.878	644.667
687.312	648.889
689.743	644.222
692.175	630
694.607	656
697.037	645.111
699.466	647.333
701.895	651.778
704.323	645.333
706.749	655.778
709.175	651.556
711.601	640.222
714.025	646.444
716.449	644
718.871	648.444
721.294	652.667
723.716	647.556
726.136	648.222
728.556	647.333
730.975	641.556
733.394	643.333
735.812	645.333
738.228	638.444
740.644	629.778
743.058	647.333
745.473	638.667
747.886	643.333
750.3	637.111
752.711	637.555
755.123	649.333
757.533	638.667
759.942	628.444
762.351	632.889
764.759	638.889
767.167	645.111
769.573	642.222
771.979	626
774.383	632.889
776.787	638.889
779.191	654.667
781.593	636.444
783.994	642.667
786.396	649.778
788.796	639.778
791.195	649.555
793.595	656
795.992	646.444
798.389	652.444
800.786	647.111
803.181	640.445
805.576	646.667
807.969	646.444
810.363	640.667
812.755	648
815.147	644.667
817.537	648.445
819.927	644.444
822.318	650.222
824.706	636.444
827.093	633.778
829.48	630.444
831.866	640.889
834.251	640.889
836.636	624.889
839.021	635.111
841.404	640.889
843.786	631.556
846.167	643.111
848.548	626.889
850.928	624.889
853.307	624.222
855.685	628.667
858.063	629.333
860.44	617.556
862.816	625.333
865.192	624.222
867.566	649.778
869.94	638
872.313	620
874.685	641.333
877.057	628.889
879.428	639.556
881.798	625.111
884.167	637.556
886.536	636.444
888.902	630.667
891.269	630
893.636	638.667
896.001	632
898.366	635.111
900.73	632
903.094	638.667
905.455	617.556
907.817	629.111
910.178	630.444
912.538	630.889
914.898	622
917.255	623.556
919.613	622.444
921.971	622.889
924.327	616.444
926.682	628.444
929.037	621.333
931.391	621.333
933.744	625.556
936.096	621.778
938.449	630.222
940.799	620
943.149	613.556
945.499	624
947.847	608.667
950.195	628.889
952.542	615.111
954.889	615.333
957.235	615.778
959.579	623.111
961.924	624.444
964.266	622.889
966.609	627.556
968.951	626.444
971.292	619.778
973.632	637.333
975.972	628
978.31	628.889
980.649	630.444
982.986	630.667
985.323	633.556
987.659	639.111
989.994	637.333
992.328	642.889
994.662	654.444
996.995	670
999.326	674.444
1001.66	668.444
1003.99	693.556
1006.32	705.556
1008.65	704.222
1010.98	714.667
1013.3	720.222
1015.63	695.111
1017.96	655.333
1020.28	650
1022.61	628.444
1024.93	634.889
1027.25	633.556
1029.58	630
1031.9	630.889
1034.22	628.444
1036.54	637.333
1038.86	634.667
1041.18	628.667
1043.49	628.889
1045.81	642.222
1048.13	645.111
1050.44	640.889
1052.76	645.556
1055.07	639.556
1057.39	657.556
1059.7	658.222
1062.01	641.778
1064.32	637.333
1066.63	640.667
1068.94	644.222
1071.25	645.333
1073.56	653.111
1075.87	641.333
1078.17	651.333
1080.48	654
1082.79	667.556
1085.09	668.444
1087.39	663.111
1089.7	658.667
1092	699.333
1094.3	722.667
1096.6	725.778
1098.9	694.222
1101.2	678
1103.5	665.333
1105.8	666.667
1108.1	663.111
1110.39	647.555
1112.69	660
1114.98	666.222
1117.28	674
1119.57	667.556
1121.86	680.445
1124.16	680.889
1126.45	670.889
1128.74	664.222
1131.03	654.667
1133.32	645.333
1135.61	636
1137.89	633.778
1140.18	635.111
1142.47	630.444
1144.75	634.222
1147.04	638.889
1149.32	624.889
1151.61	648
1153.89	651.111
1156.17	652.444
1158.45	626.444
1160.73	633.555
1163.01	628.444
1165.29	628.444
1167.57	625.111
1169.85	617.556
1172.12	625.333
1174.4	622
1176.68	620.889
1178.95	619.333
1181.22	630.667
1183.5	619.111
1185.77	619.778
1188.04	610.667
1190.31	612.667
1192.58	620.222
1194.85	617.778
1197.12	604.667
1199.39	606.667
1201.66	608
1203.92	610.667
1206.19	614.667
1208.45	604
1210.72	591.556
1212.98	600.667
1215.25	606.889
1217.51	613.333
1219.77	604.889
1222.03	605.778
1224.29	608.889
1226.55	598.667
1228.81	605.333
1231.07	608.889
1233.33	613.111
1235.58	606.445
1237.84	603.556
1240.09	608
1242.35	607.778
1244.6	602
1246.86	617.778
1249.11	611.556
1251.36	608.222
1253.61	610.444
1255.86	606.222
1258.11	598.667
1260.36	596.667
1262.61	604.889
1264.86	603.778
1267.1	614.444
1269.35	602.889
1271.6	612.222
1273.84	608.889
1276.08	613.556
1278.33	617.556
1280.57	614.889
1282.81	614.222
1285.05	605.778
1287.29	603.111
1289.53	604.889
1291.77	611.111
1294.01	606.222
1296.25	619.556
1298.48	623.333
1300.72	607.778
1302.96	608.222
1305.19	609.333
1307.42	611.556
1309.66	611.778
1311.89	606.222
1314.12	607.111
1316.35	606.444
1318.58	622.444
1320.81	617.111
1323.04	606.222
1325.27	616
1327.5	624.889
1329.73	619.778
1331.95	625.778
1334.18	626.444
1336.4	627.111
1338.63	628.222
1340.85	629.778
1343.08	623.333
1345.3	617.778
1347.52	622
1349.74	615.556
1351.96	619.111
1354.18	615.556
1356.4	618.889
1358.61	616.667
1360.83	622.667
1363.05	625.333
1365.27	632.667
1367.48	637.111
1369.69	627.778
1371.91	645.556
1374.12	655.556
1376.33	650.222
1378.55	667.111
1380.76	666.889
1382.97	670.667
1385.18	659.778
1387.39	663.111
1389.59	650.889
1391.8	636.889
1394.01	626.444
1396.21	624
1398.42	620.222
1400.63	613.556
1402.83	602.889
1405.03	603.778
1407.24	598.222
1409.44	601.556
1411.64	607.333
1413.84	610.222
1416.04	602.444
1418.24	593.778
1420.44	598.444
1422.64	602.444
1424.83	609.556
1427.03	606.222
1429.23	599.111
1431.42	602
1433.62	606
1435.81	591.778
1438	596.667
1440.19	607.778
1442.39	598.667
1444.58	595.111
1446.77	600
1448.96	586.889
1451.15	593.111
1453.34	601.556
1455.52	587.111
1457.71	597.111
1459.9	588.889
1462.08	594.222
1464.27	590.222
1466.45	584.667
1468.64	583.556
1470.82	598.444
1473	590
1475.18	590.667
1477.36	588.444
1479.54	590.444
1481.72	592.222
1483.9	577.111
1486.08	593.111
1488.26	590.889
1490.43	590.889
1492.61	568.222
1494.78	575.556
1496.96	580
1499.13	560.444
1501.31	569.556
1503.48	568.444
1505.65	563.556
1507.82	572.889
1509.99	571.778
1512.16	566.667
1514.33	574
1516.5	588
1518.67	574.222
1520.84	567.778
1523	575.778
1525.17	568.222
1527.34	574.889
1529.5	564.444
1531.66	571.778
1533.83	572.444
1535.99	568
1538.15	571.333
1540.31	576.444
1542.47	569.111
1544.63	570.667
1546.79	578.444
1548.95	570.444
1551.11	574.667
1553.27	575.111
1555.42	569.111
1557.58	571.111
1559.73	575.333
1561.89	572.889
1564.04	584.667
1566.2	584
1568.35	589.333
1570.5	586.667
1572.65	601.111
1574.8	592.889
1576.95	603.333
1579.1	601.778
1581.25	593.778
1583.4	595.111
1585.55	591.556
1587.69	610.667
1589.84	587.333
1591.99	586.444
1594.13	590.444
1596.27	580.222
1598.42	569.556
1600.56	567.556
1602.7	569.333
1604.84	569.555
1606.98	572.889
1609.12	551.111
1611.26	572.444
1613.4	557.556
1615.54	566.667
1617.68	558.222
1619.81	558.889
1621.95	573.111
1624.08	539.111
1626.22	552.889
1628.35	562.667
1630.49	557.778
1632.62	550.444
1634.75	541.556
1636.88	544.222
1639.01	550.222
1641.14	534.667
1643.27	548.222
1645.4	536.222
1647.53	549.556
1649.66	537.333
1651.79	534.222
1653.91	540.667
1656.04	526
1658.16	519.778
1660.29	540
1662.41	544.222
1664.53	543.111
1666.66	532.667
1668.78	531.111
1670.9	534.889
1673.02	542.667
1675.14	525.111
1677.26	524.889
1679.38	531.778
1681.49	528.444
1683.61	527.556
1685.73	530
1687.84	521.778
1689.96	540.889
1692.07	528.889
1694.19	521.778
1696.3	522.889
1698.41	528.889
1700.52	531.111
1702.64	526.889
1704.75	534.889
1706.86	521.778
1708.97	528.444
1711.07	518.444
1713.18	529.778
1715.29	524
1717.4	510
1719.5	529.111
1721.61	530.222
1723.71	521.778
1725.82	520.889
1727.92	512
1730.02	515.778
1732.12	517.111
1734.23	518.667
1736.33	512.889
1738.43	502
1740.53	515.778
1742.63	513.556
1744.72	503.333
1746.82	512.444
1748.92	510.667
1751.02	506.444
1753.11	516.667
1755.21	510
1757.3	510.667
1759.4	505.111
1761.49	494.222
1763.58	515.333
1765.67	496.667
1767.76	502
1769.86	515.111
1771.95	501.333
1774.03	502.444
1776.12	489.333
1778.21	496.444
1780.3	500
1782.39	495.556
1784.47	498.444
1786.56	502.667
1788.64	508.222
1790.73	501.111
1792.81	498.667
1794.89	508.444
1796.98	497.111
1799.06	500.444
1801.14	497.556
1803.22	502.889
1805.3	487.111
1807.38	504
1809.46	495.111
1811.54	501.111
1813.61	496
1815.69	502.222
1817.77	488.667
1819.84	496.222
1821.92	498.444
1823.99	477.778
1826.06	494.222
1828.14	487.333
1830.21	486.444
1832.28	498
1834.35	487.556
1836.42	484.444
1838.49	484.444
1840.56	489.111
1842.63	480.222
1844.7	486.222
1846.77	474.667
1848.83	485.111
1850.9	477.778
1852.96	484.444
1855.03	482.889
1857.09	473.111
1859.15	477.111
1861.22	480.889
1863.28	480.222
1865.34	478.444
1867.4	471.778
1869.46	482.444
1871.52	485.778
1873.58	479.556
1875.64	474.667
1877.7	474.889
1879.76	488.889
1881.81	469.778
1883.87	465.111
1885.92	468.222
1887.98	465.111
1890.03	474
1892.09	474.444
1894.14	464
1896.19	475.111
1898.24	470.222
1900.29	461.111
1902.34	470.222
1904.4	464.667
1906.44	474.889
1908.49	466.889
1910.54	469.778
1912.59	466.667
1914.63	466.667
1916.68	456.444
1918.73	466.222
1920.77	471.333
1922.81	468.444
1924.86	462.667
1926.9	467.333
1928.94	457.556
1930.99	466.222
1933.03	467.111
1935.07	463.778
1937.11	456.222
1939.15	454.667
1941.19	464.889
1943.22	466.889
1945.26	462.667
1947.3	457.556
1949.33	458.889
1951.37	454
1953.4	452.222
1955.44	461.333
1957.47	446
1959.51	445.778
1961.54	437.778
1963.57	447.556
1965.6	454.222
1967.63	454
1969.66	453.778
1971.69	444.444
1973.72	448.444
1975.75	448
1977.78	443.556
1979.8	426
1981.83	446.222
1983.86	438.222
1985.88	436.222
1987.91	447.556
1989.93	448.667
1991.95	436.889
1993.98	436
1996	441.111
1998.02	440
2000.04	441.333
2002.06	438.222
2004.08	435.778
2006.1	435.556
2008.12	443.111
2010.14	442.667
2012.15	444.222
2014.17	435.778
2016.19	439.333
2018.2	438.889
2020.22	439.333
2022.23	438.889
2024.25	436.444
2026.26	432
2028.27	444.222
2030.28	442.222
2032.29	424.889
2034.3	437.556
2036.32	440.222
2038.32	433.333
2040.33	431.333
2042.34	442.222
2044.35	439.333
2046.36	434.222
2048.36	431.556
2050.37	434.889
2052.37	436.222
2054.38	430
2056.38	424.222
2058.39	429.778
2060.39	427.333
2062.39	432.444
2064.39	433.111
2066.39	424.889
2068.39	422.222
2070.39	424.889
2072.39	420.889
2074.39	429.111
2076.39	418
2078.39	428.222
2080.39	420.222
2082.38	418.889
2084.38	414.667
2086.37	417.333
2088.37	416.889
2090.36	414.889
2092.35	423.333
2094.35	422.222
2096.34	418.667
2098.33	416.222
2100.32	403.111
2102.31	420.667
2104.3	421.556
2106.29	422.889
2108.28	412.444
2110.27	410.889
2112.25	414.667
2114.24	403.333
2116.23	412.667
2118.21	424.222
2120.2	413.333
2122.18	402.222
2124.17	410.444
2126.15	414.889
2128.13	412.667
2130.11	404
2132.09	403.556
2134.08	405.111
2136.06	407.333
2138.04	410.444
2140.02	408.444
2141.99	406.444
2143.97	400.667
2145.95	411.556
2147.93	405.111
2149.9	397.778
2151.88	401.111
2153.85	393.333
2155.83	397.556
2157.8	398.444
2159.77	404.889
2161.75	404.667
2163.72	395.778
2165.69	406
2167.66	399.778
2169.63	392.444
2171.6	392.444
2173.57	393.333
2175.54	394
2177.51	387.333
2179.47	388.667
2181.44	398.444
2183.41	397.333
2185.37	387.333
2187.34	392.667
2189.3	388.222
2191.27	396.889
2193.23	391.333
2195.19	389.333
2197.15	376.889
2199.11	385.778
2201.08	382.444
2203.04	381.333
2205	384.222
2206.96	382
2208.91	378.444
2210.87	378
2212.83	388.222
2214.79	380.889
2216.74	388.444
2218.7	379.556
2220.65	381.556
2222.61	382.667
2224.56	371.778
2226.52	382.667
2228.47	383.556
2230.42	390.222
2232.37	385.778
2234.32	381.556
2236.27	380.444
2238.22	377.333
2240.17	385.333
2242.12	377.556
2244.07	367.778
2246.02	373.111
2247.97	369.778
2249.91	369.556
2251.86	369.778
2253.8	365.111
2255.75	364
2257.69	368
2259.64	372.889
2261.58	368
2263.52	374
2265.46	365.556
2267.4	365.111
2269.35	366.889
2271.29	355.778
2273.23	364
2275.16	360
2277.1	364.222
2279.04	355.111
2280.98	358.889
2282.92	358.222
2284.85	353.111
2286.79	359.778
2288.72	358.667
2290.66	357.556
2292.59	357.333
2294.52	362.444
2296.46	358
2298.39	350.889
2300.32	348.444
2302.25	349.556
2304.18	353.111
2306.11	347.111
2308.04	355.556
2309.97	342.667
2311.9	353.333
2313.83	350
2315.75	353.556
2317.68	349.111
2319.61	353.111
2321.53	349.556
2323.46	346.889
2325.38	346.222
2327.3	338.889
2329.23	345.333
2331.15	340.667
2333.07	340.444
2334.99	346
2336.91	347.111
2338.83	353.333
2340.75	344.889
2342.67	343.556
2344.59	341.778
2346.51	336.444
2348.43	335.111
2350.35	332.889
2352.26	336
2354.18	333.556
2356.09	330.222
2358.01	338.889
2359.92	346.222
2361.83	336.667
2363.75	337.111
2365.66	338.444
2367.57	333.111
2369.48	338
2371.39	330.667
2373.31	335.556
2375.21	336.667
2377.12	332
2379.03	330
2380.94	333.778
2382.85	327.111
2384.76	326.444
2386.66	333.778
2388.57	330.444
2390.47	329.556
2392.38	328.222
2394.28	327.556
2396.18	332.222
2398.09	334.444
2399.99	326.444
2401.89	324.667
2403.79	326.889
2405.69	322.667
2407.59	319.556
2409.49	330
2411.39	320.444
2413.29	318
2415.19	317.333
2417.09	326
2418.98	322.444
2420.88	324.222
2422.78	321.111
2424.67	326
2426.57	314.222
2428.46	323.111
2430.35	319.778
2432.25	321.778
2434.14	319.778
2436.03	314.444
2437.92	310.667
2439.81	319.111
2441.7	315.333
2443.59	313.556
2445.48	315.778
2447.37	315.778
2449.26	322.444
2451.15	318.667
2453.03	322.444
