186.85	335.556
189.449	339.778
192.047	330.444
194.645	331.111
197.241	340.889
199.837	342.444
202.431	336.667
205.025	328.889
207.619	331.556
210.21	341.778
212.802	332
215.392	341.778
217.982	341.778
220.57	342.889
223.158	339.778
225.744	347.778
228.331	335.556
230.915	339.333
233.5	348
236.083	346.222
238.666	349.778
241.247	345.556
243.827	348.444
246.408	350.889
248.986	353.333
251.565	352
254.142	353.333
256.719	353.111
259.294	349.111
261.868	349.556
264.443	351.111
267.015	348.222
269.587	345.556
272.159	348.444
274.729	342.889
277.298	347.111
279.867	346.667
282.435	351.111
285.001	353.778
287.568	352.222
290.133	349.778
292.697	341.333
295.26	345.333
297.824	359.333
300.385	345.778
302.945	354.444
305.505	355.778
308.064	352.444
310.623	355.333
313.18	361.778
315.737	356.444
318.292	360.889
320.847	350.667
323.402	362.667
325.955	358.444
328.507	358
331.058	356.667
333.609	366.222
336.158	360.444
338.707	361.778
341.255	364
343.802	368
346.349	362
348.895	380
351.439	368.667
353.983	370
356.526	362.222
359.068	373.556
361.609	373.778
364.149	366.222
366.689	374
369.227	375.556
371.765	369.556
374.302	373.556
376.838	385.333
379.374	391.556
381.908	404
384.442	384.889
386.973	376.444
389.505	371.111
392.036	370.444
394.567	358
397.096	367.333
399.625	359.778
402.153	365.111
404.68	369.111
407.206	358.889
409.73	367.111
412.254	366
414.778	364.222
417.301	365.778
419.823	374
422.343	376.444
424.863	381.111
427.383	372.222
429.901	373.556
432.418	388.222
434.935	388
437.451	395.111
439.966	382
442.48	384.444
444.993	376.222
447.506	373.556
450.019	383.111
452.528	382.222
455.039	381.556
457.549	385.333
460.056	385.556
462.564	375.111
465.07	370.889
467.576	375.556
470.082	370
472.585	382
475.089	366.444
477.591	372.444
480.093	378.889
482.595	382.222
485.094	360.667
487.594	374.667
490.091	375.556
492.59	370.444
495.086	378.889
497.582	367.111
500.076	375.111
502.571	378
505.064	370
507.558	376
510.049	375.556
512.54	371.111
515.03	383.333
517.518	384.222
520.008	384
522.495	379.111
524.983	363.778
527.468	380.889
529.954	379.333
532.438	373.111
534.921	367.556
537.404	378.222
539.886	376.444
542.366	366.222
544.848	369.778
547.327	370.667
549.805	375.111
552.284	378.667
554.76	378.444
557.236	377.556
559.711	378.889
562.186	367.556
564.66	379.111
567.132	381.556
569.604	390.667
572.076	372.667
574.547	371.556
577.016	377.778
579.484	380
581.952	377.556
584.419	379.778
586.887	373.556
589.352	373.111
591.816	378.444
594.28	378.444
596.743	370.222
599.205	368
601.667	376.222
604.127	378
606.588	381.111
609.047	377.778
611.505	376.222
613.963	372.667
616.419	375.111
618.875	379.333
621.33	376.889
623.784	380.889
626.238	376.667
628.69	380
631.142	379.778
633.593	377.111
636.043	378
638.493	379.111
640.941	375.333
643.389	380.889
645.835	379.111
648.281	387.111
650.727	369.111
653.171	371.556
655.615	375.111
658.058	384.222
660.501	375.333
662.942	388
665.382	373.111
667.822	373.333
670.261	367.333
672.699	372.889
675.137	370.667
677.574	372.222
680.008	370
682.443	364.889
684.878	373.333
687.312	370.667
689.743	379.111
692.175	372
694.607	361.333
697.037	379.778
699.466	378.222
701.895	369.778
704.323	375.778
706.749	377.778
709.175	380.444
711.601	379.111
714.025	372.667
716.449	370.444
718.871	376.444
721.294	376.889
723.716	372.889
726.136	377.556
728.556	376.667
730.975	381.333
733.394	370
735.812	368.222
738.228	360
740.644	371.778
743.058	371.333
745.473	370.444
747.886	360.222
750.3	370.222
752.711	379.333
755.123	367.333
757.533	366.667
759.942	370
762.351	367.333
764.759	372.667
767.167	360
769.573	366.444
771.979	375.333
774.383	375.111
776.787	371.333
779.191	365.778
781.593	365.111
783.994	379.111
786.396	381.333
788.796	365.111
791.195	379.333
793.595	367.778
795.992	370.222
798.389	365.333
800.786	366.222
803.181	375.111
805.576	364
807.969	367.333
810.363	365.333
812.755	373.111
815.147	374.667
817.537	361.111
819.927	372.889
822.318	359.556
824.706	378
827.093	370
829.48	367.556
831.866	369.556
834.251	364.667
836.636	362.222
839.021	362.667
841.404	356.889
843.786	360
846.167	369.556
848.548	373.778
850.928	361.556
853.307	364.444
855.685	368.667
858.063	363.333
860.44	356.667
862.816	368.667
865.192	365.111
867.566	364.667
869.94	362.667
872.313	364
874.685	369.556
877.057	368
879.428	365.333
881.798	372.667
884.167	364.889
886.536	367.778
888.902	363.556
891.269	367.111
893.636	370.667
896.001	365.333
898.366	367.778
900.73	377.556
903.094	369.778
905.455	366.222
907.817	372.222
910.178	360.444
912.538	370.667
914.898	360.667
917.255	358.222
919.613	363.111
921.971	364.889
924.327	354.222
926.682	368
929.037	352
931.391	366
933.744	356.222
936.096	363.556
938.449	354.889
940.799	359.556
943.149	352.444
945.499	358.667
947.847	358
950.195	354
952.542	366.222
954.889	354.444
957.235	368.444
959.579	362
961.924	354
964.266	362.667
966.609	366.889
968.951	373.556
971.292	365.556
973.632	360.222
975.972	358
978.31	359.556
980.649	357.111
982.986	355.778
985.323	355.778
987.659	362.444
989.994	349.778
992.328	357.333
994.662	366.889
996.995	359.111
999.326	369.556
1001.66	378.222
1003.99	377.111
1006.32	383.111
1008.65	388.889
1010.98	404.667
1013.3	402.667
1015.63	396.889
1017.96	376
1020.28	381.111
1022.61	368.889
1024.93	371.556
1027.25	365.111
1029.58	356.444
1031.9	354.889
1034.22	365.778
1036.54	364.667
1038.86	358.667
1041.18	365.111
1043.49	361.556
1045.81	365.556
1048.13	369.111
1050.44	372.889
1052.76	375.333
1055.07	371.778
1057.39	372.444
1059.7	372
1062.01	371.333
1064.32	365.333
1066.63	365.333
1068.94	376.444
1071.25	367.778
1073.56	375.556
1075.87	368.444
1078.17	380
1080.48	372.444
1082.79	373.111
1085.09	374.667
1087.39	390.444
1089.7	394.222
1092	407.333
1094.3	408.889
1096.6	417.556
1098.9	410.222
1101.2	410.667
1103.5	391.556
1105.8	390.444
1108.1	388.667
1110.39	383.778
1112.69	383.778
1114.98	382.667
1117.28	392.444
1119.57	396.444
1121.86	401.778
1124.16	399.111
1126.45	389.333
1128.74	385.111
1131.03	365.778
1133.32	376
1135.61	376.444
1137.89	363.333
1140.18	363.556
1142.47	373.333
1144.75	361.111
1147.04	366.444
1149.32	370.222
1151.61	373.778
1153.89	377.111
1156.17	374.222
1158.45	366.444
1160.73	365.778
1163.01	368.222
1165.29	358.222
1167.57	352.222
1169.85	354.667
1172.12	357.778
1174.4	356
1176.68	352.222
1178.95	354.222
1181.22	346
1183.5	356.222
1185.77	347.556
1188.04	348.889
1190.31	353.778
1192.58	355.556
1194.85	344.889
1197.12	349.333
1199.39	350.444
1201.66	347.333
1203.92	343.778
1206.19	344.222
1208.45	339.333
1210.72	337.556
1212.98	347.333
1215.25	340.222
1217.51	347.778
1219.77	344.889
1222.03	343.556
1224.29	346.444
1226.55	344.667
1228.81	346
1231.07	344.889
1233.33	353.556
1235.58	352
1237.84	353.333
1240.09	349.778
1242.35	354.889
1244.6	337.778
1246.86	344.667
1249.11	358
1251.36	342
1253.61	346.667
1255.86	349.778
1258.11	346.889
1260.36	340.222
1262.61	346.667
1264.86	351.111
1267.1	353.333
1269.35	350.667
1271.6	352.222
1273.84	345.556
1276.08	346.889
1278.33	353.111
1280.57	339.778
1282.81	354.667
1285.05	356.889
1287.29	346.222
1289.53	342
1291.77	354.889
1294.01	347.556
1296.25	356
1298.48	345.778
1300.72	337.778
1302.96	344.889
1305.19	340.667
1307.42	351.778
1309.66	352.889
1311.89	346.889
1314.12	347.333
1316.35	345.111
1318.58	352.889
1320.81	349.556
1323.04	354.667
1325.27	356.222
1327.5	359.778
1329.73	359.778
1331.95	348.667
1334.18	354.667
1336.4	364.444
1338.63	357.556
1340.85	362.667
1343.08	367.333
1345.3	362
1347.52	350
1349.74	356
1351.96	354
1354.18	350.444
1356.4	351.111
1358.61	360.889
1360.83	350.889
1363.05	364.889
1365.27	358.444
1367.48	366.667
1369.69	366
1371.91	365.556
1374.12	372.889
1376.33	369.556
1378.55	390
1380.76	375.556
1382.97	369.333
1385.18	381.556
1387.39	376
1389.59	370.667
1391.8	361.556
1394.01	362
1396.21	366.667
1398.42	358.667
1400.63	345.333
1402.83	350.667
1405.03	351.111
1407.24	346.222
1409.44	346.444
1411.64	344.667
1413.84	342
1416.04	347.333
1418.24	350.667
1420.44	354
1422.64	353.111
1424.83	344.667
1427.03	348
1429.23	350.222
1431.42	354.222
1433.62	347.111
1435.81	339.333
1438	345.333
1440.19	339.778
1442.39	335.778
1444.58	341.556
1446.77	341.556
1448.96	338.889
1451.15	339.556
1453.34	344.222
1455.52	349.333
1457.71	330.444
1459.9	343.111
1462.08	337.333
1464.27	340
1466.45	342
1468.64	337.778
1470.82	336.667
1473	333.111
1475.18	340.889
1477.36	335.556
1479.54	336.889
1481.72	337.556
1483.9	340
1486.08	324.667
1488.26	335.778
1490.43	325.111
1492.61	333.556
1494.78	325.333
1496.96	328
1499.13	320.444
1501.31	332
1503.48	324
1505.65	328.444
1507.82	329.778
1509.99	318.667
1512.16	320.667
1514.33	323.111
1516.5	320.444
1518.67	322.667
1520.84	324
1523	320.889
1525.17	328.222
1527.34	320.444
1529.5	328.222
1531.66	318.222
1533.83	315.333
1535.99	318.667
1538.15	320.222
1540.31	326.444
1542.47	325.333
1544.63	323.556
1546.79	333.333
1548.95	328.667
1551.11	331.111
1553.27	321.778
1555.42	318
1557.58	322.667
1559.73	330.667
1561.89	332
1564.04	325.333
1566.2	322.222
1568.35	327.778
1570.5	329.556
1572.65	334
1574.8	330.667
1576.95	331.333
1579.1	327.778
1581.25	319.111
1583.4	318
1585.55	329.333
1587.69	323.333
1589.84	328.889
1591.99	320.889
1594.13	325.111
1596.27	332.222
1598.42	324.444
1600.56	324.222
1602.7	320.667
1604.84	329.778
1606.98	326.222
1609.12	317.333
1611.26	323.333
1613.4	322.222
1615.54	315.111
1617.68	316.222
1619.81	312
1621.95	319.333
1624.08	310.889
1626.22	316.667
1628.35	314.444
1630.49	316.889
1632.62	320.667
1634.75	311.556
1636.88	318
1639.01	317.556
1641.14	316.444
1643.27	315.111
1645.4	307.333
1647.53	312.222
1649.66	315.556
1651.79	304.222
1653.91	309.333
1656.04	313.333
1658.16	308
1660.29	316.889
1662.41	309.556
1664.53	308.889
1666.66	310.667
1668.78	316.667
1670.9	314.222
1673.02	312.222
1675.14	313.333
1677.26	310.444
1679.38	311.556
1681.49	311.556
1683.61	308.222
1685.73	315.556
1687.84	307.778
1689.96	314
1692.07	312.444
1694.19	310.667
1696.3	309.556
1698.41	305.333
1700.52	306.889
1702.64	310.222
1704.75	316
1706.86	309.111
1708.97	306.222
1711.07	311.556
1713.18	307.333
1715.29	306.889
1717.4	306
1719.5	312.222
1721.61	310.667
1723.71	307.556
1725.82	307.556
1727.92	302.667
1730.02	306.667
1732.12	300.889
1734.23	303.556
1736.33	299.111
1738.43	308.889
1740.53	295.333
1742.63	298.444
1744.72	294.667
1746.82	299.111
1748.92	303.111
1751.02	298.889
1753.11	299.556
1755.21	296
1757.3	297.111
1759.4	294.667
1761.49	297.111
1763.58	301.556
1765.67	289.111
1767.76	297.111
1769.86	293.111
1771.95	295.778
1774.03	294.667
1776.12	289.556
1778.21	297.556
1780.3	303.333
1782.39	287.333
1784.47	288.889
1786.56	291.778
1788.64	291.111
1790.73	296.444
1792.81	297.556
1794.89	293.111
1796.98	291.778
1799.06	298
1801.14	290.667
1803.22	298.444
1805.3	287.333
1807.38	300
1809.46	286.222
1811.54	286.889
1813.61	292.222
1815.69	290
1817.77	290.667
1819.84	298.667
1821.92	288.889
1823.99	291.333
1826.06	288.222
1828.14	287.333
1830.21	290.444
1832.28	292.444
1834.35	296.667
1836.42	283.556
1838.49	284.889
1840.56	288.667
1842.63	279.556
1844.7	282.667
1846.77	287.556
1848.83	282.889
1850.9	289.778
1852.96	293.556
1855.03	283.111
1857.09	285.556
1859.15	275.556
1861.22	288.667
1863.28	277.778
1865.34	289.333
1867.4	283.778
1869.46	282.889
1871.52	274.667
1873.58	285.333
1875.64	275.778
1877.7	283.111
1879.76	283.333
1881.81	273.778
1883.87	285.556
1885.92	278
1887.98	284.222
1890.03	282.667
1892.09	280.667
1894.14	270.444
1896.19	278
1898.24	274
1900.29	278.444
1902.34	276.444
1904.4	280
1906.44	279.778
1908.49	275.556
1910.54	278.222
1912.59	276.444
1914.63	278.889
1916.68	273.778
1918.73	276
1920.77	267.556
1922.81	278.889
1924.86	278.667
1926.9	272.222
1928.94	272
1930.99	285.111
1933.03	275.111
1935.07	271.556
1937.11	278.444
1939.15	276.667
1941.19	275.333
1943.22	275.111
1945.26	268
1947.3	268.222
1949.33	275.556
1951.37	272.889
1953.4	272.889
1955.44	272.222
1957.47	266.667
1959.51	263.111
1961.54	274.222
1963.57	261.333
1965.6	270.889
1967.63	266.222
1969.66	260.667
1971.69	269.333
1973.72	267.778
1975.75	265.778
1977.78	259.111
1979.8	276.667
1981.83	257.111
1983.86	267.111
1985.88	262.889
1987.91	262.222
1989.93	264.889
1991.95	258
1993.98	264.444
1996	266
1998.02	264.222
2000.04	261.778
2002.06	263.778
2004.08	256.222
2006.1	259.778
2008.12	263.111
2010.14	264.667
2012.15	263.556
2014.17	264.667
2016.19	262.222
2018.2	258.889
2020.22	268.444
2022.23	259.778
2024.25	265.333
2026.26	262.667
2028.27	259.333
2030.28	264.444
2032.29	261.333
2034.3	266.444
2036.32	256.667
2038.32	260.889
2040.33	250.222
2042.34	260
2044.35	254.444
2046.36	251.333
2048.36	260.667
2050.37	261.778
2052.37	252.222
2054.38	264
2056.38	248
2058.39	254.667
2060.39	260
2062.39	256.889
2064.39	261.778
2066.39	254
2068.39	250.667
2070.39	250
2072.39	254.444
2074.39	255.111
2076.39	248.889
2078.39	253.556
2080.39	247.333
2082.38	253.556
2084.38	245.778
2086.37	251.556
2088.37	252.889
2090.36	252.889
2092.35	242
2094.35	248.667
2096.34	252.222
2098.33	247.778
2100.32	248.889
2102.31	251.333
2104.3	245.111
2106.29	248.889
2108.28	246.667
2110.27	249.111
2112.25	245.111
2114.24	240.444
2116.23	247.556
2118.21	250.889
2120.2	244.889
2122.18	251.556
2124.17	249.556
2126.15	243.111
2128.13	246.667
2130.11	251.333
2132.09	252.889
2134.08	245.556
2136.06	238.444
2138.04	245.556
2140.02	242.444
2141.99	245.778
2143.97	237.556
2145.95	249.111
2147.93	239.333
2149.9	245.333
2151.88	240
2153.85	245.111
2155.83	235.333
2157.8	235.778
2159.77	237.556
2161.75	237.556
2163.72	236.667
2165.69	240.222
2167.66	237.778
2169.63	240.444
2171.6	232.889
2173.57	230.667
2175.54	235.778
2177.51	238.889
2179.47	230.222
2181.44	230
2183.41	234.444
2185.37	238
2187.34	228.444
2189.3	234.444
2191.27	238.889
2193.23	236.222
2195.19	234.667
2197.15	223.556
2199.11	235.556
2201.08	235.111
2203.04	233.556
2205	226.444
2206.96	232
2208.91	227.556
2210.87	235.111
2212.83	229.333
2214.79	224.667
2216.74	230.222
2218.7	232.667
2220.65	227.778
2222.61	227.556
2224.56	224
2226.52	231.778
2228.47	227.333
2230.42	234.222
2232.37	227.556
2234.32	228
2236.27	227.778
2238.22	228.889
2240.17	227.778
2242.12	230.667
2244.07	221.111
2246.02	222.889
2247.97	222.889
2249.91	223.778
2251.86	223.778
2253.8	226.667
2255.75	219.778
2257.69	220.667
2259.64	227.333
2261.58	219.556
2263.52	220.444
2265.46	221.778
2267.4	216.222
2269.35	212.222
2271.29	217.333
2273.23	221.111
2275.16	219.778
2277.1	218.222
2279.04	216.889
2280.98	223.778
2282.92	219.333
2284.85	219.111
2286.79	218.222
2288.72	214.889
2290.66	213.556
2292.59	218.889
2294.52	218.667
2296.46	216
2298.39	216.889
2300.32	212.889
2302.25	213.333
2304.18	210
2306.11	205.111
2308.04	218.667
2309.97	212.444
2311.9	212.444
2313.83	214.444
2315.75	210.222
2317.68	217.111
2319.61	210.889
2321.53	209.111
2323.46	216.889
2325.38	215.778
2327.3	214.444
2329.23	215.111
2331.15	216.667
2333.07	204.444
2334.99	207.556
2336.91	211.111
2338.83	209.556
2340.75	206.444
2342.67	212.667
2344.59	208.889
2346.51	203.333
2348.43	211.556
2350.35	207.111
2352.26	205.333
2354.18	208.444
2356.09	209.333
2358.01	210.222
2359.92	210.444
2361.83	206
2363.75	200.667
2365.66	209.111
2367.57	204.222
2369.48	207.111
2371.39	198.667
2373.31	207.778
2375.21	203.333
2377.12	198.667
2379.03	206.667
2380.94	204.444
2382.85	199.111
2384.76	205.556
2386.66	202.222
2388.57	196.444
2390.47	200.889
2392.38	208
2394.28	208.222
2396.18	199.556
2398.09	200
2399.99	204.444
2401.89	200.667
2403.79	194
2405.69	199.111
2407.59	201.333
2409.49	198.667
2411.39	200
2413.29	192.444
2415.19	202.444
2417.09	192.444
2418.98	200.222
2420.88	197.556
2422.78	193.111
2424.67	196
2426.57	197.778
2428.46	197.556
2430.35	197.111
2432.25	191.333
2434.14	194
2436.03	196.667
2437.92	194.222
2439.81	191.778
2441.7	193.333
2443.59	193.556
2445.48	193.556
2447.37	192.889
2449.26	199.333
2451.15	195.333
2453.03	198.667
