186.85	462.667
189.449	457.778
192.047	468.444
194.645	471.778
197.241	481.111
199.837	472.444
202.431	468.222
205.025	480
207.619	470.667
210.21	474.889
212.802	473.556
215.392	472.889
217.982	475.333
220.57	485.333
223.158	470.889
225.744	475.556
228.331	477.778
230.915	480.889
233.5	480.667
236.083	484.889
238.666	480
241.247	483.333
243.827	482.222
246.408	478.222
248.986	481.778
251.565	471.556
254.142	474.667
256.719	474.444
259.294	455.556
261.868	473.111
264.443	457.111
267.015	465.111
269.587	452.889
272.159	447.556
274.729	437.556
277.298	444.222
279.867	446
282.435	452.444
285.001	452.667
287.568	435.778
290.133	426.667
292.697	447.111
295.26	434.889
297.824	440.222
300.385	442.222
302.945	432.667
305.505	432.889
308.064	435.111
310.623	446
313.18	439.556
315.737	429.556
318.292	431.333
320.847	432.667
323.402	437.111
325.955	430.667
328.507	428.222
331.058	441.111
333.609	438
336.158	441.778
338.707	439.556
341.255	442.444
343.802	446.222
346.349	433.333
348.895	443.111
351.439	445.778
353.983	441.778
356.526	435.556
359.068	448.667
361.609	443.333
364.149	448.889
366.689	450.222
369.227	450.889
371.765	450.889
374.302	448
376.838	465.556
379.374	469.556
381.908	461.778
384.442	466.667
386.973	453.778
389.505	441.333
392.036	439.333
394.567	444.444
397.096	437.778
399.625	437.556
402.153	450.444
404.68	439.111
407.206	442.222
409.73	451.333
412.254	445.556
414.778	446.222
417.301	445.333
419.823	448.667
422.343	450.667
424.863	462.444
427.383	465.333
429.901	465.333
432.418	468.667
434.935	476.222
437.451	479.556
439.966	471.333
442.48	462.667
444.993	469.556
447.506	462.222
450.019	448.667
452.528	446
455.039	447.111
457.549	456
460.056	464
462.564	454.444
465.07	445.556
467.576	449.111
470.082	442.889
472.585	445.111
475.089	449.556
477.591	447.333
480.093	446.222
482.595	453.778
485.094	456
487.594	442.889
490.091	451.778
492.59	448.444
495.086	459.778
497.582	452.444
500.076	448.444
502.571	446.667
505.064	447.333
507.558	456.444
510.049	457.333
512.54	445.778
515.03	452.667
517.518	449.778
520.008	460.667
522.495	455.778
524.983	456.222
527.468	443.778
529.954	443.778
532.438	443.778
534.921	442
537.404	441.778
539.886	448.889
542.366	451.333
544.848	446.222
547.327	442.667
549.805	444.667
552.284	450.889
554.76	448
557.236	445.556
559.711	446
562.186	459.556
564.66	459.778
567.132	458.222
569.604	456.889
572.076	444.222
574.547	456.444
577.016	449.333
579.484	450.889
581.952	446
584.419	452.667
586.887	450.889
589.352	453.556
591.816	448.667
594.28	448.889
596.743	449.778
599.205	449.111
601.667	443.333
604.127	458
606.588	455.333
609.047	451.111
611.505	454.889
613.963	448.889
616.419	460.667
618.875	459.111
621.33	452.222
623.784	449.333
626.238	452.889
628.69	448.444
631.142	470.667
633.593	468.222
636.043	456
638.493	464.889
640.941	467.333
643.389	459.111
645.835	455.556
648.281	452.222
650.727	458.444
653.171	471.111
655.615	474.667
658.058	478.444
660.501	483.556
662.942	479.111
665.382	462.667
667.822	456.889
670.261	454.222
672.699	453.556
675.137	449.556
677.574	448.222
680.008	442.889
682.443	456
684.878	448.222
687.312	452.889
689.743	460.889
692.175	456.444
694.607	473.333
697.037	451.778
699.466	453.111
701.895	453.556
704.323	461.778
706.749	453.778
709.175	454.667
711.601	451.111
714.025	459.111
716.449	449.333
718.871	459.111
721.294	464.667
723.716	462.889
726.136	456.667
728.556	456
730.975	442.889
733.394	457.778
735.812	447.333
738.228	439.111
740.644	445.333
743.058	442.444
745.473	441.778
747.886	455.111
750.3	447.778
752.711	445.333
755.123	447.333
757.533	438.667
759.942	447.556
762.351	445.111
764.759	448.667
767.167	447.111
769.573	446.889
771.979	453.778
774.383	442
776.787	454.444
779.191	451.111
781.593	445.111
783.994	458.667
786.396	453.556
788.796	454.444
791.195	462.222
793.595	460.444
795.992	461.111
798.389	466.222
800.786	465.111
803.181	455.778
805.576	463.556
807.969	464
810.363	464.222
812.755	467.333
815.147	473.111
817.537	476.222
819.927	475.778
822.318	462.667
824.706	468.444
827.093	455.778
829.48	454.889
831.866	442.444
834.251	448.889
836.636	448.667
839.021	450.889
841.404	454.667
843.786	460.889
846.167	460.222
848.548	452.222
850.928	451.556
853.307	443.556
855.685	445.111
858.063	441.778
860.44	448.667
862.816	438.444
865.192	446.889
867.566	430.444
869.94	443.111
872.313	450.444
874.685	442.222
877.057	447.778
879.428	448.667
881.798	443.333
884.167	442.222
886.536	442.889
888.902	455.111
891.269	446.222
893.636	452.667
896.001	447.556
898.366	445.778
900.73	446.889
903.094	446.444
905.455	440.444
907.817	449.556
910.178	439.778
912.538	431.111
914.898	435.333
917.255	436.444
919.613	437.556
921.971	433.111
924.327	434.889
926.682	431.556
929.037	430.444
931.391	431.111
933.744	430.444
936.096	435.111
938.449	435.111
940.799	433.111
943.149	434.889
945.499	435.778
947.847	435.778
950.195	434.667
952.542	437.556
954.889	435.333
957.235	440.222
959.579	438.667
961.924	442.222
964.266	445.556
966.609	438.889
968.951	441.333
971.292	443.333
973.632	448.222
975.972	443.778
978.31	437.778
980.649	449.556
982.986	448
985.323	465.556
987.659	466.222
989.994	469.111
992.328	482.889
994.662	503.556
996.995	505.111
999.326	532.667
1001.66	534.889
1003.99	566.222
1006.32	594.667
1008.65	617.333
1010.98	634.222
1013.3	633.556
1015.63	580
1017.96	534.667
1020.28	483.333
1022.61	478
1024.93	457.333
1027.25	455.778
1029.58	450.667
1031.9	459.333
1034.22	454.222
1036.54	451.556
1038.86	449.778
1041.18	444.889
1043.49	444.222
1045.81	456.444
1048.13	468
1050.44	479.778
1052.76	477.778
1055.07	466.889
1057.39	472.667
1059.7	461.778
1062.01	452.889
1064.32	454
1066.63	455.333
1068.94	455.333
1071.25	464.222
1073.56	460.222
1075.87	467.778
1078.17	466.667
1080.48	468
1082.79	468
1085.09	477.778
1087.39	469.333
1089.7	481.111
1092	490
1094.3	506.222
1096.6	514.222
1098.9	506.889
1101.2	498.444
1103.5	482
1105.8	469.333
1108.1	472.667
1110.39	477.333
1112.69	480.444
1114.98	478
1117.28	488
1119.57	485.556
1121.86	496
1124.16	480.222
1126.45	478.222
1128.74	475.778
1131.03	468.444
1133.32	466
1135.61	453.556
1137.89	452.444
1140.18	452.889
1142.47	459.333
1144.75	456
1147.04	468.444
1149.32	471.556
1151.61	463.556
1153.89	475.778
1156.17	470.667
1158.45	468.222
1160.73	463.333
1163.01	465.111
1165.29	458.444
1167.57	464
1169.85	460.444
1172.12	448.667
1174.4	452.222
1176.68	449.111
1178.95	447.556
1181.22	442
1183.5	454.889
1185.77	455.778
1188.04	429.333
1190.31	434.667
1192.58	441.333
1194.85	436.667
1197.12	438
1199.39	435.556
1201.66	430
1203.92	434.667
1206.19	436.889
1208.45	424.222
1210.72	429.333
1212.98	426.444
1215.25	437.778
1217.51	431.111
1219.77	424
1222.03	428.444
1224.29	428
1226.55	441.111
1228.81	428.889
1231.07	432
1233.33	428
1235.58	438
1237.84	433.778
1240.09	442
1242.35	429.333
1244.6	432.667
1246.86	438.889
1249.11	430.444
1251.36	437.333
1253.61	433.556
1255.86	440.444
1258.11	434.667
1260.36	445.111
1262.61	454.667
1264.86	445.556
1267.1	448.889
1269.35	439.556
1271.6	441.333
1273.84	443.778
1276.08	452.889
1278.33	428.667
1280.57	437.111
1282.81	442.444
1285.05	449.333
1287.29	432
1289.53	443.778
1291.77	445.333
1294.01	444
1296.25	453.111
1298.48	449.778
1300.72	452.667
1302.96	449.333
1305.19	453.556
1307.42	442.889
1309.66	438.667
1311.89	450
1314.12	441.556
1316.35	448.444
1318.58	452
1320.81	449.556
1323.04	446.667
1325.27	454.222
1327.5	446.667
1329.73	442.222
1331.95	446
1334.18	452.667
1336.4	460.444
1338.63	463.111
1340.85	464
1343.08	462.667
1345.3	460
1347.52	449.778
1349.74	453.778
1351.96	457.333
1354.18	460.222
1356.4	464.889
1358.61	462.667
1360.83	477.778
1363.05	476.222
1365.27	481.556
1367.48	488.889
1369.69	493.111
1371.91	512
1374.12	520
1376.33	529.778
1378.55	535.778
1380.76	556
1382.97	549.333
1385.18	550.667
1387.39	537.556
1389.59	534
1391.8	512.444
1394.01	488.667
1396.21	485.111
1398.42	475.556
1400.63	465.778
1402.83	455.333
1405.03	446.889
1407.24	442.444
1409.44	455.778
1411.64	450.222
1413.84	451.333
1416.04	449.333
1418.24	445.778
1420.44	448
1422.64	450.444
1424.83	454.444
1427.03	470
1429.23	468.667
1431.42	462.444
1433.62	465.111
1435.81	465.111
1438	455.333
1440.19	455.556
1442.39	449.333
1444.58	446.889
1446.77	441.778
1448.96	445.333
1451.15	441.556
1453.34	439.556
1455.52	447.556
1457.71	438.667
1459.9	438.667
1462.08	434
1464.27	432.222
1466.45	431.111
1468.64	425.556
1470.82	429.556
1473	439.778
1475.18	441.556
1477.36	428.444
1479.54	430.444
1481.72	429.778
1483.9	414.444
1486.08	416.222
1488.26	422
1490.43	407.111
1492.61	415.111
1494.78	411.333
1496.96	420.667
1499.13	416.889
1501.31	413.111
1503.48	409.333
1505.65	418.222
1507.82	407.556
1509.99	411.778
1512.16	419.333
1514.33	416
1516.5	421.333
1518.67	411.556
1520.84	411.556
1523	416.889
1525.17	410.444
1527.34	406.667
1529.5	430.222
1531.66	422.667
1533.83	417.333
1535.99	418.222
1538.15	416.889
1540.31	424.444
1542.47	421.556
1544.63	420.667
1546.79	429.111
1548.95	427.556
1551.11	428.667
1553.27	426
1555.42	433.111
1557.58	420.667
1559.73	441.333
1561.89	437.778
1564.04	434.667
1566.2	440.667
1568.35	438
1570.5	455.778
1572.65	464
1574.8	476.667
1576.95	458.444
1579.1	446.667
1581.25	437.778
1583.4	439.556
1585.55	432
1587.69	440.667
1589.84	439.111
1591.99	438.444
1594.13	442.889
1596.27	447.333
1598.42	447.111
1600.56	423.333
1602.7	433.111
1604.84	421.556
1606.98	411.778
1609.12	406.444
1611.26	405.556
1613.4	408.222
1615.54	401.111
1617.68	397.333
1619.81	401.111
1621.95	389.333
1624.08	392.444
1626.22	404.444
1628.35	397.556
1630.49	391.778
1632.62	389.111
1634.75	379.333
1636.88	401.111
1639.01	384.667
1641.14	385.111
1643.27	378.667
1645.4	387.333
1647.53	386.889
1649.66	387.778
1651.79	386.222
1653.91	382.889
1656.04	376.667
1658.16	389.333
1660.29	380.667
1662.41	377.556
1664.53	380.444
1666.66	377.111
1668.78	368.889
1670.9	386.667
1673.02	382
1675.14	382
1677.26	383.111
1679.38	381.778
1681.49	370.889
1683.61	372.889
1685.73	377.111
1687.84	380.667
1689.96	374.889
1692.07	370.222
1694.19	367.778
1696.3	380.222
1698.41	380
1700.52	385.556
1702.64	381.556
1704.75	379.111
1706.86	369.778
1708.97	364
1711.07	376.889
1713.18	377.556
1715.29	375.778
1717.4	365.556
1719.5	374.667
1721.61	374.889
1723.71	372.444
1725.82	381.111
1727.92	368.444
1730.02	368.444
1732.12	377.778
1734.23	375.333
1736.33	366.222
1738.43	363.556
1740.53	361.556
1742.63	365.556
1744.72	369.556
1746.82	362.222
1748.92	364.667
1751.02	357.556
1753.11	359.778
1755.21	357.333
1757.3	360.667
1759.4	356
1761.49	359.333
1763.58	357.778
1765.67	363.333
1767.76	361.556
1769.86	358.889
1771.95	359.111
1774.03	343.111
1776.12	361.111
1778.21	355.778
1780.3	343.778
1782.39	368
1784.47	348
1786.56	346.889
1788.64	355.556
1790.73	352.889
1792.81	344.222
1794.89	345.333
1796.98	355.333
1799.06	353.333
1801.14	346.222
1803.22	350.444
1805.3	347.333
1807.38	352.222
1809.46	351.778
1811.54	350.444
1813.61	346
1815.69	355.556
1817.77	352
1819.84	342.222
1821.92	342.889
1823.99	341.778
1826.06	352
1828.14	337.778
1830.21	351.333
1832.28	346.667
1834.35	348.667
1836.42	353.778
1838.49	348.667
1840.56	342.444
1842.63	338.889
1844.7	345.333
1846.77	332.667
1848.83	344.667
1850.9	337.556
1852.96	334.889
1855.03	344.444
1857.09	333.111
1859.15	336
1861.22	338.667
1863.28	344.444
1865.34	332.222
1867.4	342.889
1869.46	348
1871.52	330.222
1873.58	334.889
1875.64	339.333
1877.7	331.333
1879.76	331.778
1881.81	342
1883.87	332.889
1885.92	327.778
1887.98	331.556
1890.03	336.667
1892.09	328.222
1894.14	334.444
1896.19	324.889
1898.24	337.778
1900.29	334.222
1902.34	331.556
1904.4	329.778
1906.44	336.222
1908.49	341.111
1910.54	339.111
1912.59	338.444
1914.63	332.889
1916.68	338.222
1918.73	335.111
1920.77	327.333
1922.81	330.444
1924.86	325.556
1926.9	334.889
1928.94	329.778
1930.99	325.333
1933.03	333.778
1935.07	328.667
1937.11	316
1939.15	327.333
1941.19	329.556
1943.22	330.444
1945.26	324.444
1947.3	324
1949.33	325.556
1951.37	323.333
1953.4	324.667
1955.44	323.778
1957.47	318.667
1959.51	326
1961.54	316.444
1963.57	318.222
1965.6	312.889
1967.63	314.222
1969.66	322
1971.69	319.111
1973.72	319.333
1975.75	315.333
1977.78	316.667
1979.8	311.778
1981.83	320.889
1983.86	321.556
1985.88	320.667
1987.91	321.333
1989.93	318.889
1991.95	311.556
1993.98	307.111
1996	314
1998.02	317.333
2000.04	322.222
2002.06	307.333
2004.08	311.111
2006.1	316
2008.12	314.667
2010.14	317.778
2012.15	312.667
2014.17	312.444
2016.19	317.111
2018.2	318.889
2020.22	310.667
2022.23	314.444
2024.25	313.556
2026.26	313.778
2028.27	312.444
2030.28	314.444
2032.29	310.889
2034.3	316.444
2036.32	307.778
2038.32	308.222
2040.33	309.333
2042.34	310.222
2044.35	308.222
2046.36	311.556
2048.36	310.444
2050.37	304
2052.37	306.889
2054.38	307.333
2056.38	313.111
2058.39	298
2060.39	308.889
2062.39	308.667
2064.39	306.222
2066.39	304.222
2068.39	307.111
2070.39	304.444
2072.39	306.222
2074.39	302.889
2076.39	308.444
2078.39	304.667
2080.39	299.111
2082.38	307.778
2084.38	294.889
2086.37	291.333
2088.37	297.333
2090.36	296.889
2092.35	306.444
2094.35	295.556
2096.34	294.667
2098.33	296.222
2100.32	288.444
2102.31	301.111
2104.3	301.111
2106.29	292
2108.28	288.889
2110.27	290.222
2112.25	291.111
2114.24	298.667
2116.23	303.111
2118.21	290.889
2120.2	294
2122.18	299.778
2124.17	286.889
2126.15	283.556
2128.13	282.444
2130.11	288
2132.09	293.111
2134.08	295.111
2136.06	285.556
2138.04	291.333
2140.02	295.111
2141.99	285.556
2143.97	286.222
2145.95	286.889
2147.93	287.111
2149.9	284
2151.88	292.222
2153.85	285.111
2155.83	288.444
2157.8	288.222
2159.77	282
2161.75	284.889
2163.72	284.889
2165.69	278.444
2167.66	282.889
2169.63	281.333
2171.6	283.333
2173.57	284
2175.54	286.222
2177.51	275.111
2179.47	274.667
2181.44	280
2183.41	280.444
2185.37	277.778
2187.34	278
2189.3	273.333
2191.27	280.667
2193.23	278.889
2195.19	274.667
2197.15	277.778
2199.11	280.222
2201.08	276
2203.04	272.222
2205	276.444
2206.96	277.778
2208.91	277.778
2210.87	273.333
2212.83	279.111
2214.79	276.444
2216.74	271.556
2218.7	270
2220.65	270.889
2222.61	277.333
2224.56	264.222
2226.52	267.556
2228.47	278.667
2230.42	275.556
2232.37	271.778
2234.32	270.889
2236.27	270.444
2238.22	268.889
2240.17	266.667
2242.12	270.667
2244.07	267.333
2246.02	260.222
2247.97	265.333
2249.91	270.222
2251.86	266.667
2253.8	262.667
2255.75	263.111
2257.69	263.778
2259.64	260.444
2261.58	264.889
2263.52	268.667
2265.46	268
2267.4	260.889
2269.35	265.333
2271.29	260.889
2273.23	263.111
2275.16	264.667
2277.1	257.556
2279.04	261.333
2280.98	257.111
2282.92	262.444
2284.85	260.222
2286.79	257.333
2288.72	258
2290.66	254.444
2292.59	258.889
2294.52	253.556
2296.46	256
2298.39	256.222
2300.32	250.889
2302.25	251.333
2304.18	262.667
2306.11	258.444
2308.04	261.778
2309.97	258.222
2311.9	248.444
2313.83	254
2315.75	252.444
2317.68	255.111
2319.61	250.222
2321.53	256.444
2323.46	252.889
2325.38	251.333
2327.3	251.556
2329.23	249.111
2331.15	250
2333.07	249.111
2334.99	250.444
2336.91	247.778
2338.83	245.778
2340.75	251.556
2342.67	250.667
2344.59	251.111
2346.51	253.333
2348.43	242.444
2350.35	250
2352.26	248.889
2354.18	241.778
2356.09	253.111
2358.01	241.556
2359.92	250.889
2361.83	246.889
2363.75	242.444
2365.66	241.556
2367.57	242.889
2369.48	241.778
2371.39	240
2373.31	241.556
2375.21	241.111
2377.12	240.667
2379.03	239.556
2380.94	242.667
2382.85	237.778
2384.76	236.444
2386.66	245.556
2388.57	238.667
2390.47	237.111
2392.38	240
2394.28	236.222
2396.18	237.778
2398.09	236.667
2399.99	236.444
2401.89	233.556
2403.79	238.222
2405.69	240.667
2407.59	232
2409.49	237.333
2411.39	235.556
2413.29	237.556
2415.19	238.667
2417.09	233.778
2418.98	232.222
2420.88	234.222
2422.78	233.333
2424.67	230
2426.57	237.111
2428.46	237.111
2430.35	234.444
2432.25	228.222
2434.14	235.778
2436.03	234.889
2437.92	224.444
2439.81	225.556
2441.7	234
2443.59	234
2445.48	230.889
2447.37	231.111
2449.26	226
2451.15	232.222
2453.03	228.444
