186.85	539.556
189.449	550.889
192.047	559.333
194.645	562
197.241	552
199.837	550
202.431	557.111
205.025	554.222
207.619	545.556
210.21	556.222
212.802	552.667
215.392	552.667
217.982	566.667
220.57	567.333
223.158	556.889
225.744	556.444
228.331	556.667
230.915	543.556
233.5	563.333
236.083	544.444
238.666	550.444
241.247	544.444
243.827	541.111
246.408	536.444
248.986	529.556
251.565	524.444
254.142	532.889
256.719	517.111
259.294	512.889
261.868	516.444
264.443	510.222
267.015	500.889
269.587	496.222
272.159	486.444
274.729	474.222
277.298	475.556
279.867	469.333
282.435	470.667
285.001	471.778
287.568	467.333
290.133	458.444
292.697	456.667
295.26	465.333
297.824	448.667
300.385	454.444
302.945	447.778
305.505	444
308.064	444.667
310.623	429.778
313.18	448.889
315.737	436.667
318.292	430.889
320.847	434.889
323.402	435.778
325.955	422
328.507	428.444
331.058	438.889
333.609	438.444
336.158	443.556
338.707	438.444
341.255	444
343.802	437.333
346.349	450.222
348.895	452
351.439	441.778
353.983	447.778
356.526	449.778
359.068	440.444
361.609	435.778
364.149	433.778
366.689	443.333
369.227	438.222
371.765	432.667
374.302	441.556
376.838	447.333
379.374	460
381.908	453.111
384.442	451.778
386.973	442.222
389.505	432.444
392.036	421.778
394.567	430.444
397.096	431.556
399.625	437.778
402.153	439.556
404.68	449.111
407.206	437.778
409.73	452
412.254	452
414.778	460.222
417.301	445.111
419.823	462.889
422.343	462
424.863	458.667
427.383	460
429.901	462
432.418	475.556
434.935	482.667
437.451	487.556
439.966	472.889
442.48	458.222
444.993	452
447.506	452.222
450.019	438.889
452.528	456.667
455.039	445.111
457.549	450.444
460.056	448.444
462.564	439.111
465.07	433.333
467.576	440
470.082	430.889
472.585	426.222
475.089	437.556
477.591	424.222
480.093	438
482.595	442
485.094	442.667
487.594	448.889
490.091	444.222
492.59	442.889
495.086	438.222
497.582	440.222
500.076	432.444
502.571	443.111
505.064	438.667
507.558	439.111
510.049	434.222
512.54	437.778
515.03	441.111
517.518	446.222
520.008	447.111
522.495	448.667
524.983	441.111
527.468	452.667
529.954	434.444
532.438	430.444
534.921	430.667
537.404	429.778
539.886	433.556
542.366	429.111
544.848	439.111
547.327	440.222
549.805	434
552.284	449.778
554.76	438.444
557.236	433.111
559.711	440.889
562.186	450
564.66	446.667
567.132	437.778
569.604	444.444
572.076	449.333
574.547	438
577.016	444.222
579.484	432.889
581.952	436.222
584.419	427.778
586.887	438.222
589.352	440.444
591.816	436.889
594.28	433.333
596.743	436
599.205	434.222
601.667	440.667
604.127	439.333
606.588	438
609.047	451.333
611.505	442.889
613.963	439.111
616.419	435.333
618.875	438.444
621.33	432.889
623.784	442.222
626.238	452
628.69	456.444
631.142	457.778
633.593	459.111
636.043	455.111
638.493	450.444
640.941	451.111
643.389	452.222
645.835	446.444
648.281	447.333
650.727	450.889
653.171	452.889
655.615	465.111
658.058	463.778
660.501	463.556
662.942	460.222
665.382	454.222
667.822	444.444
670.261	441.556
672.699	439.111
675.137	443.778
677.574	444.222
680.008	433.778
682.443	431.778
684.878	438.222
687.312	446.222
689.743	454
692.175	447.333
694.607	450.222
697.037	449.556
699.466	459.111
701.895	450.222
704.323	457.556
706.749	448.444
709.175	452.667
711.601	447.333
714.025	456.222
716.449	458.667
718.871	456.444
721.294	442.222
723.716	452.222
726.136	440
728.556	446.444
730.975	442.667
733.394	438.667
735.812	437.333
738.228	433.556
740.644	434.889
743.058	425.333
745.473	432.667
747.886	431.111
750.3	441.556
752.711	436.444
755.123	438.444
757.533	434
759.942	434.222
762.351	442.444
764.759	446.222
767.167	440
769.573	445.111
771.979	436.444
774.383	446.222
776.787	441.556
779.191	445.556
781.593	442
783.994	448
786.396	443.556
788.796	444.222
791.195	452.889
793.595	456.667
795.992	469.778
798.389	463.111
800.786	475.111
803.181	466.889
805.576	458
807.969	461.333
810.363	446.667
812.755	448.889
815.147	445.333
817.537	455.333
819.927	457.556
822.318	444
824.706	440.667
827.093	440.889
829.48	435.111
831.866	443.111
834.251	452.444
836.636	444.444
839.021	448.222
841.404	452.889
843.786	456.667
846.167	447.111
848.548	458.667
850.928	436.889
853.307	435.556
855.685	433.778
858.063	438
860.44	431.778
862.816	419.778
865.192	431.556
867.566	428.222
869.94	427.556
872.313	434.222
874.685	436.889
877.057	424.222
879.428	432
881.798	425.111
884.167	427.111
886.536	423.111
888.902	418.444
891.269	428.444
893.636	441.333
896.001	430.889
898.366	429.778
900.73	429.556
903.094	431.556
905.455	423.333
907.817	435.333
910.178	426.667
912.538	418.222
914.898	429.111
917.255	415.778
919.613	424.889
921.971	425.778
924.327	427.333
926.682	420.222
929.037	435.111
931.391	425.333
933.744	424.667
936.096	427.111
938.449	418.667
940.799	434.889
943.149	428.889
945.499	419.333
947.847	420.444
950.195	433.111
952.542	430.889
954.889	420.222
957.235	444
959.579	438.444
961.924	442
964.266	424.444
966.609	432.444
968.951	441.556
971.292	432.889
973.632	439.111
975.972	434.444
978.31	447.556
980.649	461.333
982.986	470
985.323	471.333
987.659	497.556
989.994	499.556
992.328	527.556
994.662	539.778
996.995	567.333
999.326	591.333
1001.66	611.333
1003.99	629.778
1006.32	631.778
1008.65	652.222
1010.98	645.778
1013.3	623.778
1015.63	573.111
1017.96	527.555
1020.28	483.556
1022.61	468.444
1024.93	447.556
1027.25	439.333
1029.58	450.667
1031.9	454.889
1034.22	462
1036.54	450.444
1038.86	449.778
1041.18	457.556
1043.49	466
1045.81	473.778
1048.13	486.889
1050.44	488.889
1052.76	474.444
1055.07	465.333
1057.39	463.556
1059.7	462.222
1062.01	452.667
1064.32	458.444
1066.63	446.444
1068.94	448.667
1071.25	460.222
1073.56	460.889
1075.87	466.889
1078.17	487.111
1080.48	480
1082.79	483.556
1085.09	478.222
1087.39	488.889
1089.7	486.667
1092	483.778
1094.3	509.778
1096.6	499.333
1098.9	499.111
1101.2	486
1103.5	482.889
1105.8	486
1108.1	478.667
1110.39	485.556
1112.69	496.667
1114.98	508.889
1117.28	514.222
1119.57	521.555
1121.86	522.444
1124.16	508.222
1126.45	508
1128.74	496
1131.03	505.333
1133.32	498.889
1135.61	494.444
1137.89	488.444
1140.18	485.111
1142.47	485.333
1144.75	488.222
1147.04	478.889
1149.32	479.778
1151.61	473.111
1153.89	483.556
1156.17	484.222
1158.45	478
1160.73	462.222
1163.01	464.444
1165.29	467.778
1167.57	469.556
1169.85	464.222
1172.12	458.889
1174.4	460.444
1176.68	466.889
1178.95	449.556
1181.22	463.111
1183.5	460
1185.77	448.889
1188.04	469.333
1190.31	467.111
1192.58	465.333
1194.85	467.778
1197.12	470
1199.39	466.889
1201.66	476.444
1203.92	463.778
1206.19	460.889
1208.45	450.222
1210.72	442.889
1212.98	446.889
1215.25	445.333
1217.51	455.111
1219.77	457.111
1222.03	456.444
1224.29	460
1226.55	469.333
1228.81	467.333
1231.07	467.556
1233.33	467.778
1235.58	458.889
1237.84	463.556
1240.09	466
1242.35	472.667
1244.6	469.111
1246.86	468
1249.11	466.667
1251.36	468.222
1253.61	467.556
1255.86	476
1258.11	470.667
1260.36	475.333
1262.61	474.667
1264.86	468.889
1267.1	472.667
1269.35	473.778
1271.6	475.556
1273.84	479.778
1276.08	478
1278.33	477.556
1280.57	489.556
1282.81	480.222
1285.05	478.222
1287.29	458.444
1289.53	471.111
1291.77	479.556
1294.01	479.111
1296.25	474.889
1298.48	470.444
1300.72	474
1302.96	473.778
1305.19	477.333
1307.42	480.889
1309.66	466.889
1311.89	466.667
1314.12	467.111
1316.35	471.333
1318.58	474.444
1320.81	490.222
1323.04	482.889
1325.27	483.333
1327.5	481.556
1329.73	488
1331.95	498.667
1334.18	485.556
1336.4	474.222
1338.63	479.111
1340.85	473.333
1343.08	479.111
1345.3	478.667
1347.52	473.111
1349.74	499.111
1351.96	480.889
1354.18	485.111
1356.4	488
1358.61	502.222
1360.83	509.111
1363.05	511.778
1365.27	511.778
1367.48	515.333
1369.69	521.556
1371.91	522
1374.12	542.667
1376.33	544.444
1378.55	547.111
1380.76	552.889
1382.97	559.555
1385.18	551.778
1387.39	544
1389.59	542
1391.8	529.333
1394.01	508.444
1396.21	489.111
1398.42	487.111
1400.63	486.667
1402.83	470
1405.03	474
1407.24	482
1409.44	478.222
1411.64	480.444
1413.84	486.667
1416.04	487.333
1418.24	463.111
1420.44	488.222
1422.64	492.889
1424.83	477.556
1427.03	489.778
1429.23	493.333
1431.42	497.778
1433.62	494.222
1435.81	484.667
1438	483.556
1440.19	483.778
1442.39	483.778
1444.58	479.556
1446.77	468.889
1448.96	474.444
1451.15	465.778
1453.34	462.222
1455.52	471.778
1457.71	476.222
1459.9	468.667
1462.08	485.111
1464.27	477.333
1466.45	473.333
1468.64	482.222
1470.82	486
1473	485.333
1475.18	479.333
1477.36	482.444
1479.54	472.444
1481.72	490.222
1483.9	489.333
1486.08	485.333
1488.26	492
1490.43	498.222
1492.61	480.444
1494.78	496.222
1496.96	500.444
1499.13	495.111
1501.31	502.222
1503.48	495.333
1505.65	468.444
1507.82	484.889
1509.99	469.333
1512.16	481.556
1514.33	471.556
1516.5	470.889
1518.67	481.111
1520.84	470.889
1523	479.111
1525.17	461.778
1527.34	482.889
1529.5	481.778
1531.66	468.667
1533.83	482.667
1535.99	495.556
1538.15	496.889
1540.31	494
1542.47	510.222
1544.63	518.889
1546.79	528.667
1548.95	527.111
1551.11	527.111
1553.27	526.667
1555.42	520.222
1557.58	513.556
1559.73	498.222
1561.89	508.889
1564.04	515.333
1566.2	525.556
1568.35	528.667
1570.5	551.778
1572.65	554.889
1574.8	548.444
1576.95	542.889
1579.1	518.667
1581.25	520.222
1583.4	512.222
1585.55	517.333
1587.69	508.667
1589.84	490.889
1591.99	492
1594.13	507.778
1596.27	499.556
1598.42	485.778
1600.56	492.667
1602.7	480.667
1604.84	481.111
1606.98	464.667
1609.12	470.667
1611.26	463.778
1613.4	455.333
1615.54	453.333
1617.68	445.111
1619.81	445.333
1621.95	441.111
1624.08	445.333
1626.22	441.111
1628.35	436.667
1630.49	428.667
1632.62	426
1634.75	418.889
1636.88	416
1639.01	417.333
1641.14	408.222
1643.27	417.333
1645.4	408
1647.53	399.778
1649.66	401.778
1651.79	401.333
1653.91	398.222
1656.04	392.667
1658.16	397.556
1660.29	398.667
1662.41	387.556
1664.53	390.667
1666.66	398
1668.78	392.222
1670.9	388.667
1673.02	391.778
1675.14	386.444
1677.26	388.222
1679.38	383.111
1681.49	386.444
1683.61	383.556
1685.73	368.889
1687.84	377.556
1689.96	383.778
1692.07	376.889
1694.19	375.111
1696.3	391.111
1698.41	387.556
1700.52	377.778
1702.64	377.111
1704.75	384
1706.86	374.444
1708.97	377.778
1711.07	378
1713.18	371.778
1715.29	374.667
1717.4	372.444
1719.5	382.222
1721.61	379.778
1723.71	375.778
1725.82	369.333
1727.92	369.111
1730.02	380
1732.12	363.778
1734.23	374.444
1736.33	367.333
1738.43	361.778
1740.53	366.222
1742.63	360
1744.72	349.778
1746.82	357.111
1748.92	359.333
1751.02	354.444
1753.11	352.667
1755.21	355.778
1757.3	353.333
1759.4	354.889
1761.49	355.556
1763.58	353.778
1765.67	360.444
1767.76	354.444
1769.86	346.889
1771.95	348.667
1774.03	346.444
1776.12	348.222
1778.21	348.667
1780.3	351.778
1782.39	357.111
1784.47	351.111
1786.56	352.667
1788.64	352.222
1790.73	341.778
1792.81	346.889
1794.89	342.444
1796.98	353.778
1799.06	346.889
1801.14	344.889
1803.22	347.556
1805.3	352.222
1807.38	345.556
1809.46	343.333
1811.54	346.444
1813.61	344.222
1815.69	351.333
1817.77	348.444
1819.84	338.667
1821.92	347.333
1823.99	332.889
1826.06	342.222
1828.14	341.111
1830.21	348.444
1832.28	341.778
1834.35	340.444
1836.42	341.111
1838.49	341.556
1840.56	343.111
1842.63	329.778
1844.7	334
1846.77	337.111
1848.83	338.889
1850.9	340.889
1852.96	328.889
1855.03	337.333
1857.09	336.889
1859.15	324.222
1861.22	332.444
1863.28	338.889
1865.34	327.556
1867.4	326.889
1869.46	334.222
1871.52	330.889
1873.58	332.444
1875.64	333.111
1877.7	337.333
1879.76	337.778
1881.81	330
1883.87	330.667
1885.92	319.333
1887.98	331.778
1890.03	325.556
1892.09	322.667
1894.14	324.667
1896.19	322.444
1898.24	326.444
1900.29	327.333
1902.34	320
1904.4	323.333
1906.44	334.667
1908.49	328.889
1910.54	318.222
1912.59	325.556
1914.63	318.444
1916.68	322.444
1918.73	320.889
1920.77	326.222
1922.81	322.222
1924.86	329.556
1926.9	323.778
1928.94	317.111
1930.99	319.333
1933.03	321.111
1935.07	318.444
1937.11	321.778
1939.15	315.333
1941.19	317.111
1943.22	324.444
1945.26	317.556
1947.3	318.444
1949.33	315.556
1951.37	318
1953.4	319.333
1955.44	314.667
1957.47	310.667
1959.51	313.333
1961.54	315.778
1963.57	306.889
1965.6	320.667
1967.63	314
1969.66	308
1971.69	317.333
1973.72	307.111
1975.75	312.667
1977.78	312.889
1979.8	302.444
1981.83	310.889
1983.86	315.556
1985.88	308.222
1987.91	308.889
1989.93	318.222
1991.95	298
1993.98	309.556
1996	313.778
1998.02	309.778
2000.04	313.333
2002.06	308
2004.08	307.333
2006.1	307.111
2008.12	307.111
2010.14	307.778
2012.15	310
2014.17	308.667
2016.19	310.222
2018.2	306.222
2020.22	305.556
2022.23	303.778
2024.25	310
2026.26	307.778
2028.27	316
2030.28	310.667
2032.29	307.333
2034.3	308
2036.32	304.444
2038.32	308
2040.33	310.222
2042.34	308.667
2044.35	313.556
2046.36	305.111
2048.36	305.111
2050.37	301.778
2052.37	297.556
2054.38	304.444
2056.38	303.556
2058.39	296.222
2060.39	297.111
2062.39	290.889
2064.39	301.556
2066.39	299.333
2068.39	297.556
2070.39	302.667
2072.39	298.444
2074.39	297.333
2076.39	293.778
2078.39	298.667
2080.39	293.778
2082.38	290
2084.38	297.333
2086.37	299.333
2088.37	290.222
2090.36	290.889
2092.35	293.111
2094.35	296.222
2096.34	296
2098.33	300
2100.32	295.333
2102.31	295.778
2104.3	291.111
2106.29	284.889
2108.28	298
2110.27	293.556
2112.25	284.889
2114.24	290.444
2116.23	290.444
2118.21	284.889
2120.2	290.222
2122.18	298.444
2124.17	290.667
2126.15	293.556
2128.13	291.778
2130.11	290.444
2132.09	284.444
2134.08	297.556
2136.06	294.444
2138.04	295.111
2140.02	293.556
2141.99	284.889
2143.97	293.556
2145.95	288
2147.93	295.333
2149.9	293.333
2151.88	288.667
2153.85	293.778
2155.83	280.667
2157.8	282.889
2159.77	294.222
2161.75	294.444
2163.72	290.889
2165.69	288.222
2167.66	288.222
2169.63	290
2171.6	290.889
2173.57	281.333
2175.54	294.444
2177.51	286.667
2179.47	275.111
2181.44	279.333
2183.41	284
2185.37	284.667
2187.34	281.111
2189.3	283.556
2191.27	286.222
2193.23	276.222
2195.19	281.333
2197.15	282.667
2199.11	292.444
2201.08	282.444
2203.04	288.667
2205	292.889
2206.96	287.111
2208.91	280.444
2210.87	288
2212.83	288.222
2214.79	287.556
2216.74	286.222
2218.7	288.444
2220.65	290.222
2222.61	292.444
2224.56	286.222
2226.52	283.556
2228.47	291.333
2230.42	288.222
2232.37	283.111
2234.32	282.444
2236.27	281.333
2238.22	267.333
2240.17	280
2242.12	274.222
2244.07	276.444
2246.02	277.111
2247.97	267.111
2249.91	275.778
2251.86	271.333
2253.8	271.778
2255.75	275.778
2257.69	274.889
2259.64	272
2261.58	273.778
2263.52	270.222
2265.46	269.556
2267.4	270.667
2269.35	265.778
2271.29	266.889
2273.23	264.889
2275.16	275.778
2277.1	269.556
2279.04	270.444
2280.98	274.222
2282.92	262.222
2284.85	263.111
2286.79	264.889
2288.72	262
2290.66	271.333
2292.59	261.111
2294.52	269.778
2296.46	265.333
2298.39	262.889
2300.32	265.556
2302.25	263.111
2304.18	260
2306.11	265.111
2308.04	261.778
2309.97	259.778
2311.9	261.556
2313.83	263.333
2315.75	260.889
2317.68	262.889
2319.61	260.444
2321.53	259.778
2323.46	260.889
2325.38	263.556
2327.3	259.778
2329.23	262.667
2331.15	259.111
2333.07	255.333
2334.99	264.889
2336.91	253.333
2338.83	262
2340.75	264.444
2342.67	255.111
2344.59	258.889
2346.51	255.778
2348.43	251.111
2350.35	262
2352.26	248.222
2354.18	250.444
2356.09	255.111
2358.01	253.333
2359.92	256.222
2361.83	255.778
2363.75	248
2365.66	249.556
2367.57	249.556
2369.48	248.889
2371.39	260
2373.31	248.222
2375.21	249.333
2377.12	253.111
2379.03	252.222
2380.94	247.111
2382.85	250.444
2384.76	251.556
2386.66	246.444
2388.57	245.778
2390.47	244.889
2392.38	242.889
2394.28	244.222
2396.18	243.333
2398.09	250.444
2399.99	242.667
2401.89	247.333
2403.79	238.667
2405.69	247.556
2407.59	242
2409.49	244
2411.39	245.333
2413.29	244
2415.19	238.444
2417.09	243.556
2418.98	248.889
2420.88	246.889
2422.78	241.333
2424.67	239.333
2426.57	249.778
2428.46	244.222
2430.35	237.333
2432.25	241.111
2434.14	243.556
2436.03	239.778
2437.92	237.111
2439.81	238.222
2441.7	240.444
2443.59	248.667
2445.48	237.556
2447.37	240.889
2449.26	240.889
2451.15	234.889
2453.03	234.889
