186.85	667.555
189.449	676
192.047	673.778
194.645	679.111
197.241	682
199.837	689.778
202.431	690.444
205.025	684.667
207.619	672.444
210.21	687.556
212.802	682.222
215.392	685.556
217.982	689.111
220.57	699.333
223.158	704.667
225.744	705.778
228.331	702.222
230.915	709.778
233.5	716.444
236.083	717.111
238.666	730.889
241.247	730.667
243.827	735.111
246.408	731.778
248.986	733.111
251.565	727.778
254.142	731.556
256.719	739.333
259.294	727.111
261.868	734.222
264.443	724
267.015	716.889
269.587	726.889
272.159	722.667
274.729	732.444
277.298	714.889
279.867	713.333
282.435	706.889
285.001	712.444
287.568	704.444
290.133	718.667
292.697	711.778
295.26	707.333
297.824	711.556
300.385	723.111
302.945	729.333
305.505	722.667
308.064	715.555
310.623	711.333
313.18	705.556
315.737	709.778
318.292	691.778
320.847	700.222
323.402	701.778
325.955	706.667
328.507	704.667
331.058	703.333
333.609	712.445
336.158	710.667
338.707	695.556
341.255	703.111
343.802	708.889
346.349	713.556
348.895	705.778
351.439	716.889
353.983	711.556
356.526	704.889
359.068	705.778
361.609	714.222
364.149	710.889
366.689	732.667
369.227	712.667
371.765	715.555
374.302	734
376.838	729.111
379.374	743.556
381.908	751.778
384.442	735.111
386.973	728.667
389.505	735.333
392.036	709.333
394.567	703.111
397.096	705.111
399.625	690.667
402.153	715.778
404.68	716.222
407.206	722.222
409.73	701.778
412.254	712.667
414.778	721.556
417.301	715.111
419.823	716
422.343	722.444
424.863	718.889
427.383	718.667
429.901	718.444
432.418	742.667
434.935	730.222
437.451	742.889
439.966	731.556
442.48	734.889
444.993	734.444
447.506	720
450.019	723.111
452.528	723.778
455.039	715.778
457.549	742.667
460.056	726.222
462.564	741.778
465.07	732.222
467.576	718.889
470.082	716.667
472.585	710.222
475.089	724.444
477.591	727.333
480.093	729.333
482.595	721.556
485.094	727.556
487.594	717.333
490.091	739.333
492.59	731.333
495.086	728.889
497.582	732
500.076	743.556
502.571	735.333
505.064	740
507.558	737.556
510.049	731.778
512.54	729.778
515.03	736.889
517.518	733.556
520.008	734.889
522.495	730.222
524.983	743.778
527.468	725.778
529.954	716.444
532.438	730.444
534.921	730.667
537.404	719.333
539.886	722.889
542.366	734.667
544.848	726
547.327	728.444
549.805	736.667
552.284	737.778
554.76	722.889
557.236	735.333
559.711	737.556
562.186	732.667
564.66	737.333
567.132	743.778
569.604	753.333
572.076	738
574.547	730.222
577.016	737.111
579.484	724
581.952	736.444
584.419	741.333
586.887	719.333
589.352	734
591.816	728
594.28	735.778
596.743	738
599.205	738.889
601.667	730
604.127	730
606.588	745.778
609.047	740.444
611.505	744
613.963	736.667
616.419	742.222
618.875	745.556
621.33	733.556
623.784	745.556
626.238	727.333
628.69	740.889
631.142	741.778
633.593	753.556
636.043	752.222
638.493	748.222
640.941	748.667
643.389	755.778
645.835	739.555
648.281	735.111
650.727	753.778
653.171	754.444
655.615	752.889
658.058	742
660.501	739.778
662.942	738.889
665.382	743.333
667.822	742.667
670.261	748
672.699	729.555
675.137	735.556
677.574	746.667
680.008	731.333
682.443	729.333
684.878	748.222
687.312	738.222
689.743	751.778
692.175	747.556
694.607	742
697.037	749.333
699.466	744.222
701.895	750.444
704.323	756.889
706.749	747.778
709.175	764.444
711.601	756.667
714.025	736.667
716.449	758.444
718.871	752
721.294	748.889
723.716	746.667
726.136	751.111
728.556	757.778
730.975	756.889
733.394	749.111
735.812	740.444
738.228	744.889
740.644	734.889
743.058	752.222
745.473	739.556
747.886	742.667
750.3	754.889
752.711	750.222
755.123	746
757.533	751.111
759.942	743.111
762.351	735.111
764.759	743.333
767.167	739.778
769.573	736.222
771.979	746.222
774.383	750.222
776.787	757.778
779.191	743.111
781.593	743.778
783.994	756.222
786.396	747.333
788.796	751.778
791.195	746
793.595	748.889
795.992	758
798.389	753.111
800.786	753.333
803.181	748
805.576	760.667
807.969	753.778
810.363	753.778
812.755	746.889
815.147	750.222
817.537	764.889
819.927	755.778
822.318	758
824.706	755.778
827.093	762.444
829.48	745.556
831.866	744.667
834.251	754
836.636	749.333
839.021	764.889
841.404	740.445
843.786	749.778
846.167	761.333
848.548	749.778
850.928	760
853.307	763.556
855.685	762.667
858.063	762.889
860.44	742.667
862.816	750.444
865.192	748.889
867.566	760.222
869.94	748.445
872.313	772.444
874.685	763.111
877.057	766.444
879.428	760.222
881.798	761.778
884.167	770.222
886.536	768.444
888.902	762.667
891.269	769.333
893.636	764.444
896.001	757.778
898.366	772.222
900.73	765.778
903.094	756.889
905.455	760
907.817	770.222
910.178	755.556
912.538	750
914.898	750
917.255	760.222
919.613	744.444
921.971	750.444
924.327	743.778
926.682	754.889
929.037	747.556
931.391	747.556
933.744	749.333
936.096	738
938.449	758
940.799	762.222
943.149	744.222
945.499	731.111
947.847	755.778
950.195	739.778
952.542	739.778
954.889	749.778
957.235	748.222
959.579	736
961.924	742
964.266	758.889
966.609	753.333
968.951	750.889
971.292	757.111
973.632	742.889
975.972	733.556
978.31	759.333
980.649	744.444
982.986	751.778
985.323	737.333
987.659	760.667
989.994	766
992.328	749.333
994.662	750.222
996.995	764.667
999.326	767.333
1001.66	765.333
1003.99	768.889
1006.32	769.111
1008.65	768.889
1010.98	765.778
1013.3	756
1015.63	752.444
1017.96	743.778
1020.28	746.667
1022.61	762.889
1024.93	753.778
1027.25	754.667
1029.58	770
1031.9	774
1034.22	745.778
1036.54	762.222
1038.86	762.667
1041.18	746.889
1043.49	759.333
1045.81	764.889
1048.13	764.444
1050.44	769.111
1052.76	748.667
1055.07	768
1057.39	771.333
1059.7	772.667
1062.01	771.778
1064.32	782.222
1066.63	766.667
1068.94	763.556
1071.25	790.222
1073.56	782.667
1075.87	791.778
1078.17	783.111
1080.48	799.111
1082.79	795.333
1085.09	800.667
1087.39	794.222
1089.7	816
1092	825.556
1094.3	842.444
1096.6	851.556
1098.9	853.556
1101.2	837.111
1103.5	831.333
1105.8	822.444
1108.1	813.778
1110.39	806
1112.69	802.889
1114.98	827.778
1117.28	826.667
1119.57	830.667
1121.86	816.667
1124.16	829.778
1126.45	837.778
1128.74	818.667
1131.03	797.778
1133.32	810.667
1135.61	809.333
1137.89	801.555
1140.18	800.667
1142.47	796.444
1144.75	794.444
1147.04	791.556
1149.32	800.667
1151.61	787.111
1153.89	797.556
1156.17	802.889
1158.45	802.889
1160.73	797.778
1163.01	795.778
1165.29	802.444
1167.57	798.222
1169.85	790.667
1172.12	784.222
1174.4	783.111
1176.68	778
1178.95	785.111
1181.22	783.556
1183.5	769.333
1185.77	789.778
1188.04	782.889
1190.31	784.667
1192.58	778.667
1194.85	794
1197.12	788.667
1199.39	788.667
1201.66	791.333
1203.92	787.111
1206.19	777.778
1208.45	778.445
1210.72	785.333
1212.98	785.111
1215.25	790
1217.51	788.889
1219.77	788.222
1222.03	786.889
1224.29	794.222
1226.55	784.667
1228.81	806.889
1231.07	801.778
1233.33	794.222
1235.58	810.222
1237.84	823.111
1240.09	816.222
1242.35	817.556
1244.6	817.556
1246.86	809.333
1249.11	820.667
1251.36	811.556
1253.61	830.889
1255.86	811.333
1258.11	812.667
1260.36	804
1262.61	807.333
1264.86	814.667
1267.1	818.889
1269.35	816.444
1271.6	812.222
1273.84	817.778
1276.08	808.222
1278.33	819.111
1280.57	817.778
1282.81	808.444
1285.05	818.222
1287.29	822.444
1289.53	822.889
1291.77	815.778
1294.01	828.889
1296.25	811.333
1298.48	818
1300.72	817.778
1302.96	815.333
1305.19	828.889
1307.42	813.778
1309.66	807.778
1311.89	816.889
1314.12	817.556
1316.35	813.111
1318.58	824.667
1320.81	831.333
1323.04	817.111
1325.27	821.111
1327.5	817.778
1329.73	825.778
1331.95	829.111
1334.18	823.556
1336.4	813.778
1338.63	812.889
1340.85	820.222
1343.08	824.222
1345.3	809.556
1347.52	812
1349.74	810.889
1351.96	808
1354.18	805.111
1356.4	811.778
1358.61	812.222
1360.83	806
1363.05	807.778
1365.27	803.556
1367.48	819.556
1369.69	816.444
1371.91	803.111
1374.12	831.111
1376.33	819.555
1378.55	830.889
1380.76	827.778
1382.97	818.889
1385.18	820.667
1387.39	815.556
1389.59	806.889
1391.8	800.667
1394.01	799.778
1396.21	800.444
1398.42	779.111
1400.63	793.556
1402.83	768.444
1405.03	784
1407.24	782
1409.44	803.333
1411.64	781.333
1413.84	789.111
1416.04	790.444
1418.24	789.778
1420.44	790.889
1422.64	773.333
1424.83	776.444
1427.03	782.444
1429.23	776.667
1431.42	780
1433.62	779.778
1435.81	785.778
1438	788.222
1440.19	773.778
1442.39	784.889
1444.58	782.444
1446.77	790.444
1448.96	800.889
1451.15	794.889
1453.34	787.778
1455.52	801.556
1457.71	791.778
1459.9	786.222
1462.08	785.778
1464.27	790.889
1466.45	793.333
1468.64	788.889
1470.82	784.667
1473	802.889
1475.18	783.778
1477.36	802.667
1479.54	794.889
1481.72	783.778
1483.9	803.556
1486.08	770
1488.26	793.111
1490.43	790.444
1492.61	784
1494.78	780.444
1496.96	792
1499.13	786
1501.31	787.778
1503.48	793.111
1505.65	774.667
1507.82	793.333
1509.99	798
1512.16	800.222
1514.33	792.444
1516.5	802.222
1518.67	806.222
1520.84	800
1523	815.333
1525.17	817.111
1527.34	806
1529.5	819.778
1531.66	825.556
1533.83	814.889
1535.99	822.222
1538.15	815.111
1540.31	816.222
1542.47	829.556
1544.63	828
1546.79	819.778
1548.95	835.556
1551.11	812.667
1553.27	838.444
1555.42	831.778
1557.58	842.889
1559.73	843.556
1561.89	847.333
1564.04	853.556
1566.2	844.445
1568.35	864.222
1570.5	866
1572.65	860.889
1574.8	872.222
1576.95	862.444
1579.1	876.444
1581.25	875.556
1583.4	879.778
1585.55	871.111
1587.69	861.778
1589.84	862.444
1591.99	866.667
1594.13	866.889
1596.27	856.222
1598.42	857.111
1600.56	859.111
1602.7	854.222
1604.84	850.889
1606.98	847.111
1609.12	835.111
1611.26	830
1613.4	826.667
1615.54	822.667
1617.68	819.556
1619.81	808
1621.95	799.333
1624.08	780.222
1626.22	769.778
1628.35	773.111
1630.49	764.222
1632.62	746.667
1634.75	747.333
1636.88	733.778
1639.01	736.445
1641.14	741.111
1643.27	732.222
1645.4	731.111
1647.53	719.555
1649.66	713.333
1651.79	712
1653.91	705.556
1656.04	702.667
1658.16	706.444
1660.29	690.889
1662.41	697.778
1664.53	694
1666.66	695.333
1668.78	691.556
1670.9	680.444
1673.02	690.222
1675.14	688.222
1677.26	690
1679.38	677.333
1681.49	681.111
1683.61	682
1685.73	686
1687.84	668.667
1689.96	684.222
1692.07	670
1694.19	671.111
1696.3	667.111
1698.41	673.111
1700.52	670.889
1702.64	662.222
1704.75	661.333
1706.86	667.333
1708.97	661.778
1711.07	657.778
1713.18	651.778
1715.29	659.555
1717.4	666.222
1719.5	657.778
1721.61	660.889
1723.71	658.889
1725.82	646.444
1727.92	655.778
1730.02	647.778
1732.12	634
1734.23	645.556
1736.33	647.111
1738.43	654.444
1740.53	636.222
1742.63	646.444
1744.72	641.111
1746.82	642
1748.92	629.111
1751.02	638.889
1753.11	630.222
1755.21	627.111
1757.3	630.222
1759.4	618.889
1761.49	630.889
1763.58	621.111
1765.67	623.556
1767.76	628.222
1769.86	610.222
1771.95	606.667
1774.03	628.667
1776.12	619.111
1778.21	614.222
1780.3	613.556
1782.39	605.333
1784.47	608.667
1786.56	626
1788.64	607.556
1790.73	612.889
1792.81	613.556
1794.89	608.889
1796.98	620.222
1799.06	616
1801.14	608.889
1803.22	616.889
1805.3	597.333
1807.38	615.556
1809.46	610.889
1811.54	613.333
1813.61	599.555
1815.69	621.778
1817.77	602.222
1819.84	615.111
1821.92	608
1823.99	610.222
1826.06	605.111
1828.14	609.556
1830.21	591.778
1832.28	602.222
1834.35	595.778
1836.42	592.667
1838.49	599.556
1840.56	599.333
1842.63	603.556
1844.7	587.778
1846.77	593.333
1848.83	603.778
1850.9	603.111
1852.96	579.778
1855.03	578.889
1857.09	581.111
1859.15	584
1861.22	580
1863.28	583.333
1865.34	591.778
1867.4	580.445
1869.46	580
1871.52	574.889
1873.58	580.889
1875.64	572
1877.7	576.222
1879.76	574
1881.81	583.333
1883.87	587.333
1885.92	574
1887.98	577.111
1890.03	569.555
1892.09	577.111
1894.14	580
1896.19	576.222
1898.24	574.667
1900.29	577.778
1902.34	585.778
1904.4	576.444
1906.44	583.556
1908.49	574
1910.54	570
1912.59	577.555
1914.63	576
1916.68	569.556
1918.73	565.556
1920.77	564.444
1922.81	557.333
1924.86	570.889
1926.9	577.111
1928.94	570.667
1930.99	559.778
1933.03	563.778
1935.07	565.111
1937.11	570.222
1939.15	557.556
1941.19	571.556
1943.22	562.889
1945.26	553.556
1947.3	557.333
1949.33	557.778
1951.37	560.667
1953.4	554.889
1955.44	560.667
1957.47	552.444
1959.51	555.111
1961.54	544
1963.57	549.778
1965.6	542.889
1967.63	550.667
1969.66	545.778
1971.69	547.111
1973.72	550.667
1975.75	543.556
1977.78	539.333
1979.8	538.222
1981.83	535.556
1983.86	547.111
1985.88	539.111
1987.91	547.111
1989.93	524.445
1991.95	542.222
1993.98	535.556
1996	535.556
1998.02	536.667
2000.04	538
2002.06	526.667
2004.08	542.667
2006.1	540.445
2008.12	547.556
2010.14	539.333
2012.15	546.222
2014.17	535.333
2016.19	546
2018.2	544.667
2020.22	531.111
2022.23	536.889
2024.25	536
2026.26	535.333
2028.27	532
2030.28	536.444
2032.29	541.778
2034.3	538.444
2036.32	535.111
2038.32	540.667
2040.33	532.222
2042.34	527.111
2044.35	536.889
2046.36	534.889
2048.36	528.889
2050.37	527.111
2052.37	528.889
2054.38	523.333
2056.38	530.222
2058.39	523.556
2060.39	522
2062.39	520.889
2064.39	510.444
2066.39	532.444
2068.39	518.444
2070.39	522.222
2072.39	527.556
2074.39	513.778
2076.39	520
2078.39	520.889
2080.39	515.111
2082.38	519.556
2084.38	512.667
2086.37	519.111
2088.37	504.444
2090.36	509.778
2092.35	504.444
2094.35	512.889
2096.34	510.667
2098.33	516.444
2100.32	509.556
2102.31	507.333
2104.3	513.111
2106.29	503.778
2108.28	515.778
2110.27	503.556
2112.25	506.667
2114.24	510
2116.23	506.889
2118.21	507.333
2120.2	506.889
2122.18	507.778
2124.17	517.778
2126.15	521.111
2128.13	510.444
2130.11	514.222
2132.09	510.222
2134.08	519.111
2136.06	516.667
2138.04	510.889
2140.02	502.889
2141.99	509.556
2143.97	504.222
2145.95	499.778
2147.93	501.556
2149.9	502.222
2151.88	502.444
2153.85	491.556
2155.83	500.667
2157.8	505.111
2159.77	497.778
2161.75	497.778
2163.72	494.444
2165.69	486.667
2167.66	491.556
2169.63	489.111
2171.6	485.556
2173.57	486.667
2175.54	486.222
2177.51	487.111
2179.47	488
2181.44	492.222
2183.41	488
2185.37	483.111
2187.34	492.222
2189.3	486.667
2191.27	483.333
2193.23	476.222
2195.19	487.333
2197.15	476
2199.11	480.889
2201.08	477.111
2203.04	464.667
2205	466.444
2206.96	480.222
2208.91	471.556
2210.87	465.778
2212.83	472.667
2214.79	460
2216.74	470.667
2218.7	480.444
2220.65	466.222
2222.61	462.444
2224.56	465.333
2226.52	477.111
2228.47	464.222
2230.42	469.333
2232.37	463.111
2234.32	459.111
2236.27	472.222
2238.22	459.333
2240.17	468.889
2242.12	454.444
2244.07	459.111
2246.02	449.778
2247.97	458.667
2249.91	453.778
2251.86	459.333
2253.8	452.667
2255.75	457.111
2257.69	446.222
2259.64	453.778
2261.58	447.111
2263.52	446.222
2265.46	449.778
2267.4	446.444
2269.35	442.444
2271.29	445.111
2273.23	444.222
2275.16	446.667
2277.1	444.444
2279.04	451.778
2280.98	450
2282.92	428.222
2284.85	435.778
2286.79	452
2288.72	440.667
2290.66	430.667
2292.59	439.556
2294.52	432.444
2296.46	442.889
2298.39	436.889
2300.32	421.333
2302.25	431.556
2304.18	429.556
2306.11	424
2308.04	428.222
2309.97	434.444
2311.9	424.889
2313.83	433.333
2315.75	427.778
2317.68	434.889
2319.61	432.222
2321.53	421.111
2323.46	418.222
2325.38	433.778
2327.3	429.333
2329.23	426.889
2331.15	412.444
2333.07	430.444
2334.99	426.667
2336.91	425.556
2338.83	425.556
2340.75	420
2342.67	420.667
2344.59	428.444
2346.51	422.222
2348.43	418.222
2350.35	418
2352.26	419.778
2354.18	412.222
2356.09	410.889
2358.01	411.556
2359.92	415.556
2361.83	410.667
2363.75	415.333
2365.66	418.889
2367.57	409.333
2369.48	396.222
2371.39	410.444
2373.31	414.444
2375.21	410.222
2377.12	404.444
2379.03	400.444
2380.94	393.111
2382.85	400.222
2384.76	400.444
2386.66	405.778
2388.57	396.222
2390.47	393.778
2392.38	411.556
2394.28	406.222
2396.18	397.778
2398.09	409.111
2399.99	387.556
2401.89	401.556
2403.79	392.444
2405.69	391.111
2407.59	394.889
2409.49	392.889
2411.39	391.333
2413.29	394.444
2415.19	393.778
2417.09	401.333
2418.98	387.778
2420.88	392.444
2422.78	392.222
2424.67	394
2426.57	395.111
2428.46	397.333
2430.35	387.333
2432.25	392.889
2434.14	395.556
2436.03	397.111
2437.92	388.222
2439.81	382.889
2441.7	394.444
2443.59	392
2445.48	392.889
2447.37	385.333
2449.26	390.667
2451.15	382.444
2453.03	378.444
