186.85	1082.44
189.449	1084
192.047	1077.11
194.645	1072.44
197.241	1061.11
199.837	1059.33
202.431	1062.89
205.025	1036.67
207.619	1046
210.21	1048.44
212.802	1037.78
215.392	1028.44
217.982	1017.11
220.57	1026.89
223.158	1025.78
225.744	1028.67
228.331	1034.67
230.915	1020.89
233.5	1038.67
236.083	1013.33
238.666	1024.22
241.247	1038.22
243.827	1038
246.408	1048
248.986	1041.33
251.565	1025.56
254.142	1031.78
256.719	1024.22
259.294	1035.56
261.868	1028.67
264.443	1031.78
267.015	1020.22
269.587	1031.33
272.159	1008.89
274.729	1005.78
277.298	1011.78
279.867	1024.22
282.435	1013.78
285.001	1006
287.568	1006.44
290.133	990.889
292.697	999.778
295.26	1021.33
297.824	1036
300.385	1030.67
302.945	1026
305.505	1044.22
308.064	1035.11
310.623	1010
313.18	1027.11
315.737	1003.33
318.292	992.667
320.847	998.444
323.402	1000
325.955	994.889
328.507	1006.44
331.058	1006.44
333.609	990
336.158	988.222
338.707	1004
341.255	1010
343.802	1006.67
346.349	1008.89
348.895	1030.89
351.439	1024.67
353.983	1025.56
356.526	1043.56
359.068	1039.56
361.609	1031.33
364.149	1037.56
366.689	1043.33
369.227	1029.78
371.765	1039.11
374.302	1028.44
376.838	1032.67
379.374	1048.22
381.908	1067.11
384.442	1054.44
386.973	1037.11
389.505	1031.78
392.036	1001.33
394.567	1020.22
397.096	994
399.625	1004
402.153	1002.22
404.68	1021.56
407.206	1006.22
409.73	1041.78
412.254	1030
414.778	1015.33
417.301	1007.33
419.823	1017.56
422.343	1003.56
424.863	1029.11
427.383	1004.22
429.901	997.556
432.418	1009.33
434.935	1036.22
437.451	1034
439.966	1033.56
442.48	1014.67
444.993	1026.89
447.506	1016.89
450.019	997.111
452.528	1013.33
455.039	1020.67
457.549	1018.89
460.056	1037.11
462.564	1004.89
465.07	1012.89
467.576	1002.89
470.082	992
472.585	989.333
475.089	995.111
477.591	985.556
480.093	1001.78
482.595	1024.67
485.094	1004.67
487.594	1011.78
490.091	1012.89
492.59	1012.89
495.086	1007.56
497.582	1023.33
500.076	997.556
502.571	1020.44
505.064	1007.78
507.558	1012.89
510.049	996.889
512.54	1001.56
515.03	997.778
517.518	998.889
520.008	1009.56
522.495	1000.22
524.983	990.667
527.468	988.667
529.954	992.444
532.438	999.111
534.921	996.889
537.404	990.667
539.886	988
542.366	1000
544.848	985.778
547.327	979.778
549.805	1006
552.284	994.667
554.76	1005.78
557.236	985.111
559.711	998.889
562.186	999.111
564.66	996.667
567.132	1012
569.604	1005.78
572.076	1014.22
574.547	1008.22
577.016	995.111
579.484	1009.56
581.952	1031.33
584.419	1005.11
586.887	1009.11
589.352	1015.33
591.816	1029.56
594.28	1000.67
596.743	999.778
599.205	996.667
601.667	998
604.127	1012.22
606.588	1028.67
609.047	985.778
611.505	999.778
613.963	1007.33
616.419	1017.78
618.875	1011.78
621.33	991.778
623.784	1024.67
626.238	1010.67
628.69	1036.67
631.142	1016.22
633.593	1015.11
636.043	1002.67
638.493	1031.56
640.941	1022.22
643.389	1009.11
645.835	992.889
648.281	1025.11
650.727	1018.44
653.171	1022.44
655.615	1021.33
658.058	1008.22
660.501	1000.44
662.942	991.333
665.382	996.667
667.822	985.333
670.261	988.889
672.699	997.778
675.137	1006.22
677.574	989.778
680.008	996.444
682.443	1006.89
684.878	1019.33
687.312	1003.56
689.743	1017.56
692.175	1025.56
694.607	1026.89
697.037	1018.89
699.466	1036.22
701.895	1010.67
704.323	1030.44
706.749	1015.78
709.175	1033.78
711.601	1012.44
714.025	1013.11
716.449	1034.44
718.871	994
721.294	1010.44
723.716	1010.22
726.136	1012.22
728.556	1011.56
730.975	1005.56
733.394	1014
735.812	1006.67
738.228	1016.67
740.644	1015.11
743.058	1021.56
745.473	982
747.886	1012.22
750.3	1019.78
752.711	1028
755.123	1011.11
757.533	1011.33
759.942	1023.11
762.351	989.333
764.759	1012.22
767.167	1033.33
769.573	1011.33
771.979	1005.33
774.383	1026.44
776.787	1009.56
779.191	1009.11
781.593	1033.78
783.994	1028
786.396	1029.33
788.796	1021.33
791.195	1012.89
793.595	1015.56
795.992	1016.89
798.389	1036.22
800.786	1013.56
803.181	1069.11
805.576	1047.56
807.969	1034.67
810.363	1055.33
812.755	1027.33
815.147	1035.56
817.537	1036.22
819.927	1029.33
822.318	1044
824.706	1044.89
827.093	1027.11
829.48	1020
831.866	1027.78
834.251	1000
836.636	1008
839.021	1026
841.404	1026.67
843.786	1018.89
846.167	1017.78
848.548	1012.22
850.928	998.444
853.307	1010.22
855.685	1022.67
858.063	1009.56
860.44	1021.78
862.816	1024
865.192	1018.89
867.566	1010.67
869.94	1006
872.313	1003.11
874.685	998.667
877.057	1025.11
879.428	1046
881.798	1007.33
884.167	1022.89
886.536	1024.22
888.902	1042
891.269	1039.33
893.636	1044.22
896.001	1040.44
898.366	1058.22
900.73	1026
903.094	1019.11
905.455	1059.78
907.817	1046
910.178	1044.89
912.538	1018.44
914.898	1020.67
917.255	1029.78
919.613	1021.33
921.971	1016
924.327	1024.67
926.682	1003.11
929.037	1010.22
931.391	1011.33
933.744	1012.44
936.096	1004.22
938.449	1029.33
940.799	999.333
943.149	993.556
945.499	1007.78
947.847	1001.33
950.195	993.111
952.542	992.667
954.889	1000.22
957.235	1019.78
959.579	983.333
961.924	998.667
964.266	1014.22
966.609	998.889
968.951	988.222
971.292	1009.11
973.632	989.778
975.972	984.889
978.31	962.889
980.649	975.778
982.986	1003.11
985.323	972.222
987.659	1005.56
989.994	980.667
992.328	980.444
994.662	996
996.995	1017.56
999.326	1003.33
1001.66	1014.44
1003.99	982.667
1006.32	996.444
1008.65	968
1010.98	967.556
1013.3	978.667
1015.63	984.667
1017.96	971.556
1020.28	978.889
1022.61	970
1024.93	965.333
1027.25	970.667
1029.58	973.333
1031.9	982.444
1034.22	973.111
1036.54	987.333
1038.86	993.556
1041.18	1001.11
1043.49	975.778
1045.81	984.667
1048.13	992.222
1050.44	980
1052.76	1011.56
1055.07	1022.67
1057.39	1011.78
1059.7	1024
1062.01	1005.33
1064.32	1029.33
1066.63	1044
1068.94	1048
1071.25	1052.44
1073.56	1048.89
1075.87	1069.56
1078.17	1077.78
1080.48	1058.89
1082.79	1064.22
1085.09	1058.44
1087.39	1073.11
1089.7	1083.11
1092	1117.11
1094.3	1126.89
1096.6	1157.78
1098.9	1143.11
1101.2	1128.44
1103.5	1101.56
1105.8	1096.89
1108.1	1094.67
1110.39	1094.22
1112.69	1110.44
1114.98	1113.56
1117.28	1108.89
1119.57	1117.33
1121.86	1124
1124.16	1120.67
1126.45	1114
1128.74	1111.33
1131.03	1118
1133.32	1117.33
1135.61	1100.22
1137.89	1121.56
1140.18	1138.67
1142.47	1117.33
1144.75	1142
1147.04	1116
1149.32	1132.67
1151.61	1175.33
1153.89	1146
1156.17	1149.11
1158.45	1171.56
1160.73	1164.22
1163.01	1132.89
1165.29	1122.89
1167.57	1153.78
1169.85	1140.22
1172.12	1144.44
1174.4	1135.78
1176.68	1156
1178.95	1155.56
1181.22	1139.78
1183.5	1156.89
1185.77	1138.44
1188.04	1135.11
1190.31	1113.11
1192.58	1124.89
1194.85	1125.78
1197.12	1128.89
1199.39	1133.78
1201.66	1135.11
1203.92	1144.89
1206.19	1123.56
1208.45	1132.44
1210.72	1137.33
1212.98	1154.89
1215.25	1138.44
1217.51	1135.78
1219.77	1144.89
1222.03	1153.56
1224.29	1181.33
1226.55	1166.89
1228.81	1167.56
1231.07	1188.89
1233.33	1176
1235.58	1170.89
1237.84	1198.22
1240.09	1194.22
1242.35	1196
1244.6	1205.56
1246.86	1196.67
1249.11	1206
1251.36	1212.89
1253.61	1217.11
1255.86	1214
1258.11	1212
1260.36	1195.78
1262.61	1215.33
1264.86	1206.67
1267.1	1214.89
1269.35	1232
1271.6	1197.33
1273.84	1190.22
1276.08	1222.44
1278.33	1229.56
1280.57	1220.44
1282.81	1235.11
1285.05	1228.22
1287.29	1205.56
1289.53	1211.78
1291.77	1212
1294.01	1216.22
1296.25	1204
1298.48	1225.11
1300.72	1197.56
1302.96	1210.22
1305.19	1212
1307.42	1204.67
1309.66	1200.67
1311.89	1208.22
1314.12	1205.56
1316.35	1233.78
1318.58	1217.56
1320.81	1208.67
1323.04	1223.33
1325.27	1213.56
1327.5	1229.11
1329.73	1225.78
1331.95	1244.89
1334.18	1231.78
1336.4	1226
1338.63	1225.11
1340.85	1213.78
1343.08	1219.33
1345.3	1215.11
1347.52	1201.33
1349.74	1179.56
1351.96	1207.78
1354.18	1208.89
1356.4	1206.22
1358.61	1205.56
1360.83	1204.67
1363.05	1217.78
1365.27	1217.11
1367.48	1249.11
1369.69	1236.67
1371.91	1219.56
1374.12	1243.56
1376.33	1247.78
1378.55	1252
1380.76	1232.67
1382.97	1218.44
1385.18	1188.22
1387.39	1193.11
1389.59	1159.11
1391.8	1158.44
1394.01	1159.78
1396.21	1145.78
1398.42	1134.67
1400.63	1150.44
1402.83	1132.67
1405.03	1146.89
1407.24	1143.33
1409.44	1155.78
1411.64	1134.44
1413.84	1148.89
1416.04	1151.56
1418.24	1126.67
1420.44	1141.33
1422.64	1152
1424.83	1120.67
1427.03	1152
1429.23	1142.22
1431.42	1134.67
1433.62	1129.78
1435.81	1147.78
1438	1152.67
1440.19	1161.56
1442.39	1141.33
1444.58	1163.33
1446.77	1182.44
1448.96	1178.44
1451.15	1200.67
1453.34	1192.89
1455.52	1196.67
1457.71	1185.33
1459.9	1179.56
1462.08	1188
1464.27	1179.78
1466.45	1187.11
1468.64	1190.67
1470.82	1195.11
1473	1202
1475.18	1222
1477.36	1204.67
1479.54	1194.44
1481.72	1179.33
1483.9	1181.11
1486.08	1186.44
1488.26	1198.44
1490.43	1196.22
1492.61	1216.89
1494.78	1220
1496.96	1204.44
1499.13	1210.67
1501.31	1197.78
1503.48	1233.11
1505.65	1229.11
1507.82	1237.33
1509.99	1265.11
1512.16	1267.33
1514.33	1262.89
1516.5	1260.89
1518.67	1276.44
1520.84	1292
1523	1299.11
1525.17	1319.33
1527.34	1322.89
1529.5	1327.33
1531.66	1335.56
1533.83	1335.78
1535.99	1328
1538.15	1311.33
1540.31	1333.11
1542.47	1317.33
1544.63	1316
1546.79	1345.56
1548.95	1316.44
1551.11	1327.33
1553.27	1327.78
1555.42	1324.22
1557.58	1309.33
1559.73	1336.67
1561.89	1330.22
1564.04	1309.11
1566.2	1341.11
1568.35	1343.33
1570.5	1342.22
1572.65	1337.78
1574.8	1358
1576.95	1339.78
1579.1	1355.33
1581.25	1358.44
1583.4	1378.22
1585.55	1329.11
1587.69	1326.44
1589.84	1312.22
1591.99	1340.89
1594.13	1311.11
1596.27	1324.22
1598.42	1285.78
1600.56	1276.89
1602.7	1243.78
1604.84	1234
1606.98	1211.11
1609.12	1203.78
1611.26	1188.67
1613.4	1170
1615.54	1144
1617.68	1108.22
1619.81	1097.33
1621.95	1101.11
1624.08	1072
1626.22	1043.56
1628.35	1001.56
1630.49	998.222
1632.62	995.333
1634.75	956.444
1636.88	947.333
1639.01	927.111
1641.14	919.111
1643.27	897.333
1645.4	878.667
1647.53	885.556
1649.66	848.889
1651.79	836.222
1653.91	841.111
1656.04	818.444
1658.16	818.444
1660.29	813.778
1662.41	808.889
1664.53	793.555
1666.66	795.111
1668.78	786.667
1670.9	771.556
1673.02	765.778
1675.14	760.889
1677.26	764.667
1679.38	765.333
1681.49	756.222
1683.61	745.333
1685.73	736.667
1687.84	741.556
1689.96	734.222
1692.07	737.111
1694.19	734.889
1696.3	740.222
1698.41	727.333
1700.52	735.778
1702.64	726.667
1704.75	702.222
1706.86	711.778
1708.97	724.444
1711.07	707.778
1713.18	714.889
1715.29	693.778
1717.4	718
1719.5	710.667
1721.61	704.222
1723.71	695.556
1725.82	694
1727.92	695.111
1730.02	698.667
1732.12	685.778
1734.23	687.111
1736.33	676.889
1738.43	689.556
1740.53	681.333
1742.63	678
1744.72	677.333
1746.82	666.444
1748.92	676.889
1751.02	654
1753.11	668.667
1755.21	674.222
1757.3	653.778
1759.4	648.667
1761.49	651.111
1763.58	651.778
1765.67	648.889
1767.76	658.667
1769.86	639.778
1771.95	644.222
1774.03	645.111
1776.12	653.111
1778.21	644.889
1780.3	634.667
1782.39	629.556
1784.47	640.222
1786.56	646.444
1788.64	643.778
1790.73	633.778
1792.81	637.333
1794.89	627.111
1796.98	639.556
1799.06	625.778
1801.14	629.778
1803.22	631.778
1805.3	621.556
1807.38	614.667
1809.46	633.333
1811.54	618
1813.61	628.444
1815.69	629.778
1817.77	622.222
1819.84	621.111
1821.92	618.444
1823.99	604.889
1826.06	623.778
1828.14	622
1830.21	613.778
1832.28	617.333
1834.35	609.333
1836.42	606
1838.49	611.555
1840.56	600.889
1842.63	607.111
1844.7	615.778
1846.77	611.778
1848.83	604.444
1850.9	608.222
1852.96	596.667
1855.03	596.444
1857.09	594
1859.15	593.333
1861.22	590.889
1863.28	600.222
1865.34	588.444
1867.4	587.111
1869.46	598.444
1871.52	592
1873.58	591.556
1875.64	596.222
1877.7	582
1879.76	586.222
1881.81	596.222
1883.87	583.111
1885.92	571.111
1887.98	578.222
1890.03	570.222
1892.09	584.222
1894.14	572.222
1896.19	580.889
1898.24	587.556
1900.29	572.444
1902.34	576.667
1904.4	575.556
1906.44	566
1908.49	566.445
1910.54	577.556
1912.59	565.333
1914.63	569.333
1916.68	580.889
1918.73	564
1920.77	568.889
1922.81	580.222
1924.86	579.333
1926.9	573.778
1928.94	569.111
1930.99	571.778
1933.03	564.444
1935.07	564.667
1937.11	568
1939.15	563.778
1941.19	564.667
1943.22	562.889
1945.26	555.556
1947.3	548.444
1949.33	551.778
1951.37	563.111
1953.4	553.555
1955.44	552
1957.47	547.778
1959.51	552.222
1961.54	554.444
1963.57	551.111
1965.6	562.444
1967.63	555.333
1969.66	547.333
1971.69	538.444
1973.72	546.889
1975.75	550.222
1977.78	539.778
1979.8	551.333
1981.83	545.778
1983.86	547.333
1985.88	538.889
1987.91	542.667
1989.93	548.222
1991.95	546
1993.98	530.444
1996	545.111
1998.02	535.111
2000.04	533.333
2002.06	536.889
2004.08	533.556
2006.1	537.556
2008.12	531.556
2010.14	535.111
2012.15	536.222
2014.17	531.333
2016.19	531.111
2018.2	529.778
2020.22	537.556
2022.23	531.555
2024.25	534.444
2026.26	532.222
2028.27	527.333
2030.28	539.111
2032.29	521.333
2034.3	540.667
2036.32	527.556
2038.32	518.222
2040.33	534.444
2042.34	529.333
2044.35	523.111
2046.36	522
2048.36	528.667
2050.37	528.889
2052.37	524.889
2054.38	517.556
2056.38	514.222
2058.39	517.778
2060.39	507.111
2062.39	523.111
2064.39	513.111
2066.39	516.889
2068.39	514.222
2070.39	521.111
2072.39	511.111
2074.39	498.222
2076.39	504.889
2078.39	509.111
2080.39	499.556
2082.38	504.667
2084.38	506
2086.37	508.667
2088.37	503.333
2090.36	524.667
2092.35	514.222
2094.35	506.222
2096.34	516.222
2098.33	494.889
2100.32	498.444
2102.31	502.889
2104.3	503.111
2106.29	504.222
2108.28	494.889
2110.27	499.111
2112.25	489.556
2114.24	501.333
2116.23	495.778
2118.21	514.667
2120.2	507.778
2122.18	501.778
2124.17	500.444
2126.15	502.667
2128.13	510
2130.11	498.667
2132.09	499.111
2134.08	506.667
2136.06	500.889
2138.04	494.222
2140.02	500.444
2141.99	490.444
2143.97	494.444
2145.95	485.111
2147.93	488.667
2149.9	497.556
2151.88	490.222
2153.85	486
2155.83	490.889
2157.8	490.444
2159.77	496.222
2161.75	487.333
2163.72	479.556
2165.69	483.556
2167.66	486.222
2169.63	483.333
2171.6	484.222
2173.57	477.333
2175.54	478.444
2177.51	478.444
2179.47	481.111
2181.44	476
2183.41	482.667
2185.37	479.333
2187.34	468.222
2189.3	471.778
2191.27	474.667
2193.23	468
2195.19	464.667
2197.15	464.444
2199.11	461.111
2201.08	466.889
2203.04	469.556
2205	462.889
2206.96	465.778
2208.91	461.778
2210.87	458.889
2212.83	467.333
2214.79	463.333
2216.74	461.778
2218.7	461.556
2220.65	465.333
2222.61	458.444
2224.56	470
2226.52	461.778
2228.47	468.889
2230.42	445.333
2232.37	460.444
2234.32	452
2236.27	469.111
2238.22	446
2240.17	442.667
2242.12	452.222
2244.07	449.111
2246.02	453.556
2247.97	443.556
2249.91	452.444
2251.86	442.444
2253.8	442.222
2255.75	445.556
2257.69	443.778
2259.64	446
2261.58	436.667
2263.52	439.778
2265.46	443.556
2267.4	438.667
2269.35	441.111
2271.29	441.556
2273.23	437.333
2275.16	433.333
2277.1	430.222
2279.04	441.556
2280.98	432.444
2282.92	439.778
2284.85	434.222
2286.79	439.333
2288.72	422.667
2290.66	434.889
2292.59	435.333
2294.52	431.778
2296.46	420.222
2298.39	426.889
2300.32	426.222
2302.25	426
2304.18	430.222
2306.11	419.556
2308.04	423.333
2309.97	414.444
2311.9	427.111
2313.83	421.111
2315.75	430.889
2317.68	423.333
2319.61	423.778
2321.53	425.333
2323.46	416.444
2325.38	417.333
2327.3	414
2329.23	418.222
2331.15	401.778
2333.07	410.889
2334.99	410.444
2336.91	415.333
2338.83	415.333
2340.75	414.889
2342.67	404.222
2344.59	410.889
2346.51	403.333
2348.43	418.889
2350.35	397.778
2352.26	408.889
2354.18	411.333
2356.09	409.778
2358.01	405.556
2359.92	405.556
2361.83	404.667
2363.75	402
2365.66	399.333
2367.57	400
2369.48	391.111
2371.39	395.556
2373.31	400.667
2375.21	397.556
2377.12	396.889
2379.03	403.556
2380.94	397.111
2382.85	391.778
2384.76	394.222
2386.66	388.222
2388.57	384.222
2390.47	394
2392.38	401.111
2394.28	394.889
2396.18	382.222
2398.09	398.667
2399.99	391.778
2401.89	390.222
2403.79	387.778
2405.69	392.667
2407.59	384
2409.49	384.444
2411.39	384.667
2413.29	387.333
2415.19	388.444
2417.09	391.778
2418.98	388.222
2420.88	378
2422.78	385.778
2424.67	384.889
2426.57	376.889
2428.46	387.778
2430.35	384.667
2432.25	380.222
2434.14	388.667
2436.03	378.667
2437.92	380.889
2439.81	374
2441.7	378.444
2443.59	369.333
2445.48	379.778
2447.37	378.444
2449.26	383.778
2451.15	382.444
2453.03	370.889
