186.85	724
189.449	715.111
192.047	705.556
194.645	718.889
197.241	697.778
199.837	708.444
202.431	702.889
205.025	696.889
207.619	700.222
210.21	694.444
212.802	697.556
215.392	696.222
217.982	698.667
220.57	705.333
223.158	701.333
225.744	704.889
228.331	700.222
230.915	704
233.5	713.556
236.083	712.444
238.666	715.778
241.247	719.556
243.827	725.556
246.408	725.778
248.986	721.555
251.565	730.444
254.142	723.111
256.719	730.444
259.294	732.444
261.868	733.111
264.443	742.222
267.015	723.778
269.587	726.667
272.159	716.889
274.729	733.778
277.298	727.333
279.867	726
282.435	728.444
285.001	729.556
287.568	721.556
290.133	715.778
292.697	732.667
295.26	735.556
297.824	746.445
300.385	747.778
302.945	742.444
305.505	742.444
308.064	748.667
310.623	742.889
313.18	734.889
315.737	723.778
318.292	721.778
320.847	717.778
323.402	720
325.955	723.556
328.507	723.333
331.058	712.667
333.609	711.778
336.158	717.778
338.707	718.667
341.255	723.555
343.802	727.111
346.349	719.556
348.895	737.111
351.439	730
353.983	730.889
356.526	726.444
359.068	730
361.609	726.889
364.149	736
366.689	747.778
369.227	729.333
371.765	742.667
374.302	736.889
376.838	754.667
379.374	767.111
381.908	773.556
384.442	751.778
386.973	744.222
389.505	723.333
392.036	724.889
394.567	724
397.096	711.111
399.625	730
402.153	715.333
404.68	732.222
407.206	728.889
409.73	726.222
412.254	728.667
414.778	745.333
417.301	735.778
419.823	731.556
422.343	726.222
424.863	742
427.383	741.556
429.901	742.667
432.418	746.444
434.935	767.778
437.451	751.556
439.966	742.667
442.48	752
444.993	745.111
447.506	732
450.019	737.111
452.528	744.444
455.039	743.778
457.549	750.444
460.056	765.111
462.564	747.333
465.07	749.778
467.576	740.222
470.082	746
472.585	735.333
475.089	732.667
477.591	747.333
480.093	730
482.595	754.444
485.094	736.889
487.594	737.778
490.091	747.778
492.59	750.222
495.086	750.222
497.582	753.556
500.076	755.333
502.571	745.111
505.064	741.556
507.558	752.444
510.049	745.111
512.54	739.333
515.03	758.222
517.518	748.222
520.008	759.778
522.495	756.667
524.983	752.889
527.468	737.111
529.954	744
532.438	740.444
534.921	740.222
537.404	742.444
539.886	738.444
542.366	729.778
544.848	736.444
547.327	744.445
549.805	740.889
552.284	747.778
554.76	751.111
557.236	752.222
559.711	751.111
562.186	750.889
564.66	762.889
567.132	746.889
569.604	756.889
572.076	759.111
574.547	754.222
577.016	758.444
579.484	766.889
581.952	744.667
584.419	749.333
586.887	756
589.352	742
591.816	760.444
594.28	755.333
596.743	743.111
599.205	744.222
601.667	739.778
604.127	753.333
606.588	750.667
609.047	752.222
611.505	753.333
613.963	764
616.419	767.333
618.875	760
621.33	766.667
623.784	759.333
626.238	765.111
628.69	744.889
631.142	766.889
633.593	768.889
636.043	762.889
638.493	776.889
640.941	768.444
643.389	773.111
645.835	771.778
648.281	760.222
650.727	776.667
653.171	780
655.615	760.222
658.058	769.778
660.501	766.222
662.942	759.778
665.382	767.778
667.822	765.778
670.261	748.889
672.699	762.444
675.137	758.889
677.574	760.222
680.008	757.111
682.443	765.778
684.878	759.555
687.312	771.111
689.743	769.111
692.175	769.556
694.607	776
697.037	760.889
699.466	768.889
701.895	762.889
704.323	773.333
706.749	772.667
709.175	770.667
711.601	779.333
714.025	770.222
716.449	776
718.871	778.889
721.294	771.111
723.716	769.333
726.136	791.556
728.556	774.889
730.975	766
733.394	767.778
735.812	765.333
738.228	766.889
740.644	769.778
743.058	770.889
745.473	770.667
747.886	760.667
750.3	754.444
752.711	761.778
755.123	752.222
757.533	757.333
759.942	760.889
762.351	769.778
764.759	759.556
767.167	757.556
769.573	760
771.979	764.222
774.383	763.111
776.787	767.556
779.191	779.778
781.593	766.444
783.994	767.333
786.396	764.222
788.796	774.667
791.195	758.667
793.595	772.222
795.992	765.111
798.389	762.667
800.786	772.889
803.181	776.889
805.576	783.556
807.969	778.222
810.363	784.444
812.755	773.111
815.147	774.222
817.537	767.556
819.927	779.556
822.318	764.222
824.706	770
827.093	771.555
829.48	775.556
831.866	760.444
834.251	777.778
836.636	777.333
839.021	775.778
841.404	767.333
843.786	781.778
846.167	763.556
848.548	774.667
850.928	781.556
853.307	768.889
855.685	770.889
858.063	769.778
860.44	775.111
862.816	765.333
865.192	772
867.566	795.333
869.94	779.333
872.313	791.556
874.685	786
877.057	779.333
879.428	784.444
881.798	779.778
884.167	765.555
886.536	784.222
888.902	766.222
891.269	786.222
893.636	776.444
896.001	783.778
898.366	774.222
900.73	784.667
903.094	763.778
905.455	784.667
907.817	771.333
910.178	773.556
912.538	770.444
914.898	781.333
917.255	774
919.613	774.667
921.971	760.444
924.327	770.444
926.682	764.444
929.037	762.889
931.391	766
933.744	766.667
936.096	787.333
938.449	752
940.799	772
943.149	762.889
945.499	768
947.847	766.889
950.195	774.889
952.542	766.444
954.889	764.444
957.235	759.778
959.579	757.333
961.924	759.556
964.266	772.889
966.609	767.778
968.951	769.111
971.292	776.222
973.632	769.778
975.972	760.889
978.31	774.889
980.649	766.444
982.986	766.222
985.323	765.556
987.659	768.889
989.994	773.333
992.328	775.111
994.662	790.222
996.995	776.667
999.326	795.333
1001.66	794.667
1003.99	784.889
1006.32	769.778
1008.65	772
1010.98	772.667
1013.3	777.778
1015.63	768.667
1017.96	782.222
1020.28	783.778
1022.61	766.889
1024.93	780
1027.25	764.667
1029.58	788.889
1031.9	778.222
1034.22	775.778
1036.54	785.556
1038.86	776.889
1041.18	794.444
1043.49	785.556
1045.81	786.667
1048.13	798.222
1050.44	778.889
1052.76	788
1055.07	796.889
1057.39	790.444
1059.7	800.889
1062.01	791.333
1064.32	809.778
1066.63	839.778
1068.94	858
1071.25	863.333
1073.56	870.222
1075.87	858.444
1078.17	846.222
1080.48	848.222
1082.79	835.333
1085.09	834.667
1087.39	845.556
1089.7	851.778
1092	868.222
1094.3	893.778
1096.6	901.556
1098.9	874.222
1101.2	864
1103.5	849.111
1105.8	863.111
1108.1	851.111
1110.39	847.778
1112.69	850
1114.98	857.778
1117.28	868.222
1119.57	858.667
1121.86	891.111
1124.16	873.778
1126.45	893.111
1128.74	869.778
1131.03	868.222
1133.32	869.556
1135.61	853.556
1137.89	844.889
1140.18	850.222
1142.47	842.222
1144.75	848.889
1147.04	839.111
1149.32	862.444
1151.61	863.556
1153.89	860.444
1156.17	847.778
1158.45	845.556
1160.73	851.333
1163.01	828.889
1165.29	828.444
1167.57	851.778
1169.85	829.556
1172.12	822
1174.4	831.111
1176.68	842
1178.95	844.889
1181.22	844
1183.5	834
1185.77	823.333
1188.04	818.889
1190.31	808.222
1192.58	826.222
1194.85	817.333
1197.12	812.222
1199.39	818.222
1201.66	825.556
1203.92	829.333
1206.19	824.667
1208.45	828.889
1210.72	831.333
1212.98	814.889
1215.25	836
1217.51	825.111
1219.77	836.444
1222.03	843.778
1224.29	846.222
1226.55	840.222
1228.81	854.444
1231.07	854.222
1233.33	855.556
1235.58	845.778
1237.84	856.222
1240.09	857.333
1242.35	855.111
1244.6	858.222
1246.86	853.556
1249.11	862.222
1251.36	860.222
1253.61	874
1255.86	871.333
1258.11	863.111
1260.36	863.111
1262.61	892.667
1264.86	891.778
1267.1	866.222
1269.35	883.333
1271.6	875.333
1273.84	873.333
1276.08	860.889
1278.33	863.333
1280.57	868.222
1282.81	872.889
1285.05	869.556
1287.29	870
1289.53	856.444
1291.77	860.667
1294.01	866.667
1296.25	873.556
1298.48	862.889
1300.72	854.222
1302.96	852.444
1305.19	861.556
1307.42	872.667
1309.66	860.222
1311.89	865.111
1314.12	848.667
1316.35	852.889
1318.58	861.556
1320.81	844
1323.04	854.444
1325.27	853.333
1327.5	868.444
1329.73	870
1331.95	871.111
1334.18	867.333
1336.4	859.333
1338.63	866.667
1340.85	868.445
1343.08	861.111
1345.3	848.222
1347.52	851.556
1349.74	857.111
1351.96	841.333
1354.18	848.444
1356.4	848.667
1358.61	853.333
1360.83	848
1363.05	848.222
1365.27	864.889
1367.48	850.445
1369.69	853.778
1371.91	852.222
1374.12	850.444
1376.33	855.111
1378.55	856
1380.76	876
1382.97	850.667
1385.18	847.333
1387.39	840.889
1389.59	829.556
1391.8	836.444
1394.01	828.444
1396.21	833.333
1398.42	809.333
1400.63	808.222
1402.83	815.111
1405.03	824.889
1407.24	814.444
1409.44	830
1411.64	822.667
1413.84	818.667
1416.04	812
1418.24	821.333
1420.44	813.556
1422.64	801.556
1424.83	826.667
1427.03	816.667
1429.23	806.445
1431.42	816.889
1433.62	819.556
1435.81	810.889
1438	816.222
1440.19	828.222
1442.39	823.556
1444.58	818.222
1446.77	831.556
1448.96	840.444
1451.15	838.444
1453.34	830.889
1455.52	845.111
1457.71	843.556
1459.9	845.556
1462.08	837.333
1464.27	843.555
1466.45	839.333
1468.64	837.555
1470.82	855.333
1473	846.889
1475.18	860.222
1477.36	861.556
1479.54	868.222
1481.72	863.778
1483.9	863.778
1486.08	868.222
1488.26	861.333
1490.43	863.556
1492.61	845.111
1494.78	855.333
1496.96	859.778
1499.13	862.889
1501.31	856
1503.48	855.333
1505.65	861.333
1507.82	862.444
1509.99	847.111
1512.16	872.889
1514.33	862.444
1516.5	877.111
1518.67	883.556
1520.84	879.556
1523	894.444
1525.17	891.778
1527.34	894
1529.5	894.667
1531.66	888.667
1533.83	891.333
1535.99	888.444
1538.15	881.778
1540.31	900.444
1542.47	907.556
1544.63	894.444
1546.79	913.778
1548.95	919.333
1551.11	931.111
1553.27	921.555
1555.42	926.222
1557.58	918.444
1559.73	928.667
1561.89	922
1564.04	936.667
1566.2	933.111
1568.35	946.667
1570.5	957.556
1572.65	964.222
1574.8	962.667
1576.95	959.333
1579.1	988
1581.25	995.111
1583.4	993.333
1585.55	975.778
1587.69	968.444
1589.84	956.667
1591.99	958
1594.13	932.667
1596.27	940.222
1598.42	925.333
1600.56	922
1602.7	924.889
1604.84	908.889
1606.98	908.222
1609.12	882.444
1611.26	876.444
1613.4	872
1615.54	841.778
1617.68	842.222
1619.81	825.111
1621.95	814.667
1624.08	816.667
1626.22	802.667
1628.35	790.222
1630.49	778.667
1632.62	782
1634.75	770.667
1636.88	754.889
1639.01	758
1641.14	741.111
1643.27	734
1645.4	728.667
1647.53	727.333
1649.66	719.333
1651.79	715.556
1653.91	696
1656.04	692.889
1658.16	701.111
1660.29	692.889
1662.41	693.111
1664.53	686.444
1666.66	676.889
1668.78	684.889
1670.9	679.111
1673.02	678
1675.14	664.444
1677.26	654.667
1679.38	650
1681.49	649.778
1683.61	668.444
1685.73	664.444
1687.84	648.889
1689.96	657.778
1692.07	657.111
1694.19	649.333
1696.3	659.333
1698.41	651.556
1700.52	659.111
1702.64	635.333
1704.75	648.667
1706.86	648.667
1708.97	649.111
1711.07	638
1713.18	648.222
1715.29	637.111
1717.4	642.222
1719.5	643.556
1721.61	638.889
1723.71	632
1725.82	630
1727.92	626.222
1730.02	625.111
1732.12	622.889
1734.23	610.889
1736.33	611.111
1738.43	623.333
1740.53	621.333
1742.63	618.667
1744.72	606.444
1746.82	610.444
1748.92	609.333
1751.02	608.222
1753.11	608.667
1755.21	608.889
1757.3	602.889
1759.4	602.222
1761.49	601.111
1763.58	608
1765.67	598.889
1767.76	603.333
1769.86	590.445
1771.95	596.667
1774.03	604.667
1776.12	591.111
1778.21	590.667
1780.3	585.778
1782.39	594.222
1784.47	603.111
1786.56	598.667
1788.64	596.889
1790.73	572.222
1792.81	583.111
1794.89	585.556
1796.98	585.555
1799.06	583.333
1801.14	570.889
1803.22	582.889
1805.3	589.556
1807.38	576.444
1809.46	578.222
1811.54	586
1813.61	571.556
1815.69	580.444
1817.77	566.444
1819.84	578
1821.92	575.778
1823.99	572.667
1826.06	574.889
1828.14	564.889
1830.21	559.778
1832.28	577.778
1834.35	568
1836.42	567.333
1838.49	579.778
1840.56	556
1842.63	559.111
1844.7	560.444
1846.77	556.667
1848.83	571.111
1850.9	552
1852.96	548.222
1855.03	552.667
1857.09	565.111
1859.15	547.111
1861.22	552
1863.28	544.222
1865.34	543.778
1867.4	553.556
1869.46	558
1871.52	549.778
1873.58	541.556
1875.64	544.667
1877.7	543.333
1879.76	551.333
1881.81	551.333
1883.87	547.111
1885.92	559.556
1887.98	553.111
1890.03	544.444
1892.09	548.889
1894.14	554
1896.19	543.556
1898.24	546.444
1900.29	541.111
1902.34	539.556
1904.4	543.333
1906.44	543.556
1908.49	553.111
1910.54	548.667
1912.59	542.444
1914.63	531.333
1916.68	532.444
1918.73	533.111
1920.77	534.222
1922.81	533.778
1924.86	538.889
1926.9	520.667
1928.94	536.667
1930.99	539.333
1933.03	523.111
1935.07	531.333
1937.11	534.889
1939.15	525.111
1941.19	526.667
1943.22	524.444
1945.26	522.667
1947.3	524.445
1949.33	525.556
1951.37	524
1953.4	522
1955.44	518.889
1957.47	519.778
1959.51	517.333
1961.54	520.667
1963.57	519.556
1965.6	500.444
1967.63	516.889
1969.66	511.778
1971.69	519.778
1973.72	508
1975.75	514
1977.78	513.778
1979.8	505.111
1981.83	508.889
1983.86	495.111
1985.88	509.778
1987.91	501.111
1989.93	506.889
1991.95	502.444
1993.98	509.778
1996	510.444
1998.02	506.889
2000.04	501.111
2002.06	504
2004.08	510
2006.1	501.778
2008.12	507.778
2010.14	501.333
2012.15	514
2014.17	503.556
2016.19	501.556
2018.2	501.556
2020.22	512.667
2022.23	502.444
2024.25	508
2026.26	492.222
2028.27	506
2030.28	499.333
2032.29	497.556
2034.3	495.556
2036.32	492
2038.32	495.333
2040.33	499.333
2042.34	496.222
2044.35	501.778
2046.36	489.111
2048.36	496.667
2050.37	502
2052.37	490.889
2054.38	507.111
2056.38	494.222
2058.39	483.333
2060.39	492.667
2062.39	498
2064.39	480.222
2066.39	478.667
2068.39	480.444
2070.39	484.667
2072.39	489.556
2074.39	488
2076.39	474.444
2078.39	490.889
2080.39	485.333
2082.38	488.889
2084.38	472.889
2086.37	469.111
2088.37	488.667
2090.36	483.556
2092.35	477.778
2094.35	464.889
2096.34	478
2098.33	480
2100.32	464.667
2102.31	473.111
2104.3	470.444
2106.29	476.889
2108.28	478.444
2110.27	483.111
2112.25	476.889
2114.24	472.444
2116.23	477.556
2118.21	473.556
2120.2	482.667
2122.18	479.111
2124.17	483.778
2126.15	478.222
2128.13	483.556
2130.11	470
2132.09	467.111
2134.08	472.889
2136.06	475.111
2138.04	474.889
2140.02	468.889
2141.99	466.667
2143.97	468.667
2145.95	466.444
2147.93	473.333
2149.9	464.889
2151.88	461.778
2153.85	463.556
2155.83	472.444
2157.8	466
2159.77	466.444
2161.75	463.556
2163.72	462.667
2165.69	465.778
2167.66	446
2169.63	456.889
2171.6	453.333
2173.57	452.444
2175.54	454.222
2177.51	448.667
2179.47	450.889
2181.44	458.667
2183.41	455.778
2185.37	453.111
2187.34	441.111
2189.3	455.111
2191.27	448
2193.23	451.111
2195.19	444.667
2197.15	444.222
2199.11	449.111
2201.08	443.556
2203.04	450.667
2205	440
2206.96	440.222
2208.91	451.778
2210.87	444.222
2212.83	445.556
2214.79	445.778
2216.74	449.333
2218.7	448.667
2220.65	450.222
2222.61	450.222
2224.56	450.444
2226.52	448.222
2228.47	450.889
2230.42	439.333
2232.37	448
2234.32	436.889
2236.27	440.667
2238.22	443.556
2240.17	444.444
2242.12	419.556
2244.07	430.222
2246.02	426.889
2247.97	430
2249.91	427.556
2251.86	420.889
2253.8	425.556
2255.75	428.222
2257.69	418.889
2259.64	417.778
2261.58	413.778
2263.52	418.444
2265.46	410.444
2267.4	424.667
2269.35	410
2271.29	413.778
2273.23	414
2275.16	420
2277.1	413.111
2279.04	414.889
2280.98	411.778
2282.92	402.444
2284.85	403.778
2286.79	402.444
2288.72	406.222
2290.66	402.222
2292.59	393.556
2294.52	406.667
2296.46	400.667
2298.39	410.889
2300.32	412
2302.25	406.889
2304.18	408.667
2306.11	397.111
2308.04	391.111
2309.97	393.778
2311.9	394.222
2313.83	396
2315.75	392
2317.68	394
2319.61	396.889
2321.53	394.889
2323.46	394.222
2325.38	398.889
2327.3	397.111
2329.23	396
2331.15	391.333
2333.07	389.778
2334.99	390.444
2336.91	386.667
2338.83	375.111
2340.75	384.667
2342.67	389.556
2344.59	386.667
2346.51	394.889
2348.43	380
2350.35	366.667
2352.26	375.111
2354.18	388.222
2356.09	382.222
2358.01	380.444
2359.92	379.111
2361.83	371.556
2363.75	378.444
2365.66	376.889
2367.57	377.111
2369.48	374
2371.39	385.111
2373.31	379.111
2375.21	368
2377.12	378.222
2379.03	377.778
2380.94	375.778
2382.85	368.889
2384.76	382.444
2386.66	375.556
2388.57	372.667
2390.47	374.222
2392.38	363.333
2394.28	366.444
2396.18	376.222
2398.09	374.889
2399.99	365.778
2401.89	366.444
2403.79	362.444
2405.69	367.111
2407.59	377.333
2409.49	369.333
2411.39	363.556
2413.29	372
2415.19	367.778
2417.09	365.556
2418.98	357.111
2420.88	356.444
2422.78	366.667
2424.67	358.444
2426.57	362.222
2428.46	361.778
2430.35	356
2432.25	352.667
2434.14	362.667
2436.03	360.222
2437.92	354.889
2439.81	354.667
2441.7	352.889
2443.59	356.667
2445.48	360.889
2447.37	356
2449.26	351.556
2451.15	362.222
2453.03	362.667
