186.85	782.667
189.449	782.667
192.047	783.111
194.645	769.333
197.241	785.555
199.837	769.333
202.431	783.111
205.025	775.111
207.619	771.778
210.21	777.333
212.802	767.111
215.392	785.333
217.982	780.222
220.57	776.889
223.158	781.111
225.744	792.667
228.331	797.556
230.915	791.333
233.5	787.778
236.083	804.444
238.666	797.333
241.247	800.222
243.827	814.444
246.408	804
248.986	823.778
251.565	817.778
254.142	817.111
256.719	835.778
259.294	838.667
261.868	823.778
264.443	832
267.015	817.111
269.587	813.778
272.159	825.555
274.729	835.778
277.298	811.111
279.867	821.111
282.435	804
285.001	816
287.568	830.667
290.133	829.333
292.697	811.111
295.26	824.889
297.824	841.556
300.385	834.444
302.945	841.333
305.505	846.889
308.064	836.444
310.623	837.333
313.18	832
315.737	823.778
318.292	822
320.847	808.889
323.402	814.222
325.955	809.778
328.507	819.556
331.058	834
333.609	819.778
336.158	817.556
338.707	812
341.255	803.778
343.802	812.667
346.349	820.667
348.895	822.667
351.439	820.667
353.983	827.111
356.526	839.111
359.068	827.333
361.609	821.778
364.149	828.444
366.689	832.222
369.227	839.111
371.765	844.667
374.302	857.778
376.838	869.556
379.374	854.222
381.908	873.111
384.442	859.556
386.973	823.556
389.505	825.111
392.036	815.111
394.567	826.444
397.096	823.556
399.625	821.556
402.153	823.111
404.68	822
407.206	837.556
409.73	821.556
412.254	832.445
414.778	832.667
417.301	829.111
419.823	833.778
422.343	841.111
424.863	849.556
427.383	856.444
429.901	848.889
432.418	848
434.935	865.111
437.451	872
439.966	859.778
442.48	858.222
444.993	841.111
447.506	836.222
450.019	840
452.528	838.444
455.039	851.778
457.549	855.111
460.056	853.333
462.564	842.889
465.07	853.778
467.576	849.111
470.082	851.556
472.585	843.111
475.089	840.445
477.591	843.556
480.093	845.556
482.595	851.111
485.094	865.333
487.594	858.667
490.091	858.222
492.59	848.889
495.086	869.778
497.582	843.778
500.076	856.222
502.571	845.556
505.064	849.111
507.558	855.556
510.049	852.889
512.54	848.222
515.03	852.889
517.518	860
520.008	858.222
522.495	872.667
524.983	850.667
527.468	855.778
529.954	856
532.438	851.556
534.921	860.222
537.404	866.889
539.886	866
542.366	855.778
544.848	861.111
547.327	859.111
549.805	860.889
552.284	863.111
554.76	860.889
557.236	855.778
559.711	858.444
562.186	859.333
564.66	873.333
567.132	866.444
569.604	882.667
572.076	858.222
574.547	871.111
577.016	873.111
579.484	864.889
581.952	887.778
584.419	878.444
586.887	867.555
589.352	862.667
591.816	851.333
594.28	861.333
596.743	867.333
599.205	862.222
601.667	867.778
604.127	858.222
606.588	858.444
609.047	848.889
611.505	863.333
613.963	880.667
616.419	872.667
618.875	867.333
621.33	859.555
623.784	870.889
626.238	870.222
628.69	890.222
631.142	871.556
633.593	896.667
636.043	875.111
638.493	872.889
640.941	867.111
643.389	884.667
645.835	879.111
648.281	892.222
650.727	875.778
653.171	886.222
655.615	876
658.058	855.778
660.501	879.778
662.942	882.222
665.382	874
667.822	876.222
670.261	869.556
672.699	872.444
675.137	874
677.574	874.444
680.008	861.778
682.443	877.778
684.878	869.111
687.312	880
689.743	866
692.175	868
694.607	890.222
697.037	882.667
699.466	888.222
701.895	882.889
704.323	876.444
706.749	880.667
709.175	884.222
711.601	889.333
714.025	879.111
716.449	879.556
718.871	890.667
721.294	890
723.716	909.556
726.136	883.111
728.556	885.111
730.975	887.778
733.394	870.667
735.812	882
738.228	878
740.644	868
743.058	866.444
745.473	871.333
747.886	874.667
750.3	870.889
752.711	873.556
755.123	873.111
757.533	868.444
759.942	861.333
762.351	868.667
764.759	868.444
767.167	870.222
769.573	873.556
771.979	880.222
774.383	878
776.787	872.222
779.191	870.222
781.593	871.111
783.994	877.111
786.396	867.333
788.796	886.445
791.195	871.556
793.595	873.778
795.992	869.556
798.389	886.222
800.786	871.778
803.181	880.667
805.576	877.333
807.969	877.778
810.363	891.111
812.755	897.556
815.147	906.889
817.537	897.333
819.927	882.222
822.318	876.222
824.706	873.111
827.093	889.556
829.48	889.778
831.866	883.333
834.251	888.444
836.636	879.111
839.021	902.222
841.404	887.111
843.786	874.222
846.167	879.556
848.548	881.111
850.928	887.556
853.307	887.778
855.685	886.667
858.063	882.444
860.44	876.889
862.816	869.333
865.192	878.667
867.566	898.222
869.94	902
872.313	896.222
874.685	891.556
877.057	894
879.428	897.556
881.798	884.222
884.167	890.889
886.536	894.222
888.902	886.222
891.269	887.778
893.636	885.556
896.001	905.111
898.366	886.445
900.73	886
903.094	879.778
905.455	887.333
907.817	878.889
910.178	871.556
912.538	885.111
914.898	873.778
917.255	866.222
919.613	875.778
921.971	860
924.327	870.222
926.682	875.111
929.037	872.444
931.391	872.222
933.744	864.444
936.096	873.778
938.449	871.556
940.799	882.889
943.149	878
945.499	868.667
947.847	867.778
950.195	871.778
952.542	867.333
954.889	854.222
957.235	874.222
959.579	872
961.924	876
964.266	871.778
966.609	888.889
968.951	869.333
971.292	874.444
973.632	886
975.972	864.222
978.31	859.555
980.649	870.889
982.986	860.667
985.323	868.444
987.659	884
989.994	882.444
992.328	883.778
994.662	877.111
996.995	887.333
999.326	882
1001.66	890.889
1003.99	887.333
1006.32	884
1008.65	888.667
1010.98	876.667
1013.3	883.111
1015.63	870.444
1017.96	881.111
1020.28	876
1022.61	878.222
1024.93	871.333
1027.25	869.111
1029.58	878.667
1031.9	866.222
1034.22	858.667
1036.54	880.889
1038.86	875.333
1041.18	873.556
1043.49	875.778
1045.81	888.889
1048.13	895.333
1050.44	876.444
1052.76	897.333
1055.07	885.778
1057.39	899.111
1059.7	899.778
1062.01	897.556
1064.32	906
1066.63	917.555
1068.94	936.889
1071.25	956.444
1073.56	948.667
1075.87	939.111
1078.17	911.333
1080.48	920.667
1082.79	916.444
1085.09	924
1087.39	923.333
1089.7	935.778
1092	955.333
1094.3	962.444
1096.6	983.111
1098.9	967.333
1101.2	950.444
1103.5	928.222
1105.8	945.333
1108.1	925.111
1110.39	923.556
1112.69	939.778
1114.98	947.778
1117.28	954.444
1119.57	943.333
1121.86	961.333
1124.16	969.778
1126.45	952
1128.74	944.444
1131.03	935.778
1133.32	927.333
1135.61	910.222
1137.89	918.667
1140.18	907.778
1142.47	913.111
1144.75	914.667
1147.04	900.667
1149.32	910.889
1151.61	915.333
1153.89	918.444
1156.17	928.889
1158.45	918.222
1160.73	902.222
1163.01	903.556
1165.29	896.667
1167.57	910.889
1169.85	890.222
1172.12	907.556
1174.4	911.111
1176.68	920.444
1178.95	910
1181.22	907.778
1183.5	913.111
1185.77	912.222
1188.04	902.667
1190.31	912.222
1192.58	906.444
1194.85	897.333
1197.12	896.444
1199.39	901.556
1201.66	904.889
1203.92	898.444
1206.19	899.333
1208.45	914.889
1210.72	903.778
1212.98	906.667
1215.25	896.445
1217.51	906.667
1219.77	908.222
1222.03	908.444
1224.29	913.333
1226.55	916.889
1228.81	916.444
1231.07	913.778
1233.33	925.778
1235.58	928.667
1237.84	924.444
1240.09	922.222
1242.35	922.889
1244.6	930.667
1246.86	938
1249.11	928.667
1251.36	922.889
1253.61	942
1255.86	929.778
1258.11	939.111
1260.36	928.444
1262.61	918.889
1264.86	927.111
1267.1	930.889
1269.35	933.333
1271.6	941.111
1273.84	951.556
1276.08	933.111
1278.33	926.222
1280.57	936.444
1282.81	926.222
1285.05	924
1287.29	937.333
1289.53	928.667
1291.77	936.444
1294.01	940.889
1296.25	931.111
1298.48	925.778
1300.72	917.556
1302.96	919.778
1305.19	924.889
1307.42	921.333
1309.66	921.555
1311.89	928.667
1314.12	924.444
1316.35	925.333
1318.58	934.222
1320.81	933.778
1323.04	932.667
1325.27	927.333
1327.5	921.111
1329.73	926.667
1331.95	919.111
1334.18	917.111
1336.4	928.889
1338.63	936
1340.85	932.667
1343.08	929.778
1345.3	933.111
1347.52	935.556
1349.74	924.667
1351.96	916
1354.18	914.222
1356.4	910.667
1358.61	916.222
1360.83	915.333
1363.05	902.889
1365.27	929.111
1367.48	923.778
1369.69	913.111
1371.91	927.556
1374.12	927.778
1376.33	925.111
1378.55	915.333
1380.76	923.333
1382.97	936.667
1385.18	933.778
1387.39	908.445
1389.59	900.444
1391.8	898.667
1394.01	908.667
1396.21	897.111
1398.42	894.889
1400.63	888.667
1402.83	879.333
1405.03	881.333
1407.24	886.222
1409.44	890.667
1411.64	884.667
1413.84	888.222
1416.04	880.222
1418.24	876.222
1420.44	877.333
1422.64	886
1424.83	886.222
1427.03	877.778
1429.23	878
1431.42	884.222
1433.62	881.778
1435.81	887.778
1438	887.111
1440.19	884.889
1442.39	891.111
1444.58	900
1446.77	903.556
1448.96	905.556
1451.15	907.111
1453.34	899.111
1455.52	905.556
1457.71	900.889
1459.9	922.444
1462.08	905.111
1464.27	901.778
1466.45	892.444
1468.64	904
1470.82	892.889
1473	886.667
1475.18	903.555
1477.36	902.667
1479.54	904.889
1481.72	906.667
1483.9	905.778
1486.08	903.556
1488.26	900.222
1490.43	894
1492.61	890.889
1494.78	900.444
1496.96	898.444
1499.13	902.667
1501.31	912.667
1503.48	902.667
1505.65	911.778
1507.82	897.111
1509.99	899.333
1512.16	910.889
1514.33	914
1516.5	912.667
1518.67	912
1520.84	914.667
1523	900.445
1525.17	899.111
1527.34	909.333
1529.5	925.778
1531.66	917.778
1533.83	924
1535.99	926.667
1538.15	924.889
1540.31	939.556
1542.47	936.667
1544.63	941.778
1546.79	933.778
1548.95	932.222
1551.11	955.333
1553.27	952.222
1555.42	956.667
1557.58	951.778
1559.73	962.667
1561.89	955.778
1564.04	953.111
1566.2	980.667
1568.35	962.222
1570.5	961.111
1572.65	989.111
1574.8	999.778
1576.95	992.222
1579.1	994.222
1581.25	1012.67
1583.4	1000.67
1585.55	1002.67
1587.69	1001.56
1589.84	993.333
1591.99	979.778
1594.13	981.556
1596.27	960.222
1598.42	968.889
1600.56	953.778
1602.7	960.444
1604.84	956.667
1606.98	931.778
1609.12	932.667
1611.26	931.333
1613.4	917.333
1615.54	920
1617.68	915.556
1619.81	902.889
1621.95	880.889
1624.08	889.556
1626.22	869.556
1628.35	864.444
1630.49	870.444
1632.62	855.333
1634.75	837.556
1636.88	825.111
1639.01	835.556
1641.14	822
1643.27	823.111
1645.4	816.889
1647.53	815.111
1649.66	800.444
1651.79	806
1653.91	808.444
1656.04	794.667
1658.16	792.222
1660.29	795.111
1662.41	784.222
1664.53	787.556
1666.66	779.555
1668.78	778.444
1670.9	758.889
1673.02	784
1675.14	786
1677.26	759.333
1679.38	767.111
1681.49	765.556
1683.61	759.111
1685.73	762.222
1687.84	756.889
1689.96	762.889
1692.07	761.778
1694.19	756.667
1696.3	762.889
1698.41	748.667
1700.52	755.556
1702.64	751.333
1704.75	749.778
1706.86	747.778
1708.97	757.333
1711.07	746.222
1713.18	746
1715.29	745.556
1717.4	736.222
1719.5	738.667
1721.61	730.222
1723.71	752.667
1725.82	733.778
1727.92	722.667
1730.02	714
1732.12	726.222
1734.23	710.667
1736.33	718
1738.43	717.111
1740.53	712.444
1742.63	716.222
1744.72	711.778
1746.82	718.222
1748.92	715.556
1751.02	712.667
1753.11	710.667
1755.21	708.444
1757.3	703.556
1759.4	713.778
1761.49	710.889
1763.58	697.556
1765.67	689.556
1767.76	702.667
1769.86	689.111
1771.95	690.667
1774.03	695.556
1776.12	708.889
1778.21	695.333
1780.3	691.778
1782.39	698.889
1784.47	687.556
1786.56	691.556
1788.64	693.333
1790.73	684
1792.81	688.889
1794.89	682.444
1796.98	679.111
1799.06	689.556
1801.14	682.889
1803.22	677.111
1805.3	693.333
1807.38	678.667
1809.46	672.889
1811.54	676.889
1813.61	674.889
1815.69	677.111
1817.77	683.333
1819.84	682.222
1821.92	685.778
1823.99	674.667
1826.06	677.555
1828.14	672.889
1830.21	662.222
1832.28	662.667
1834.35	671.111
1836.42	670
1838.49	667.333
1840.56	671.778
1842.63	670.667
1844.7	660
1846.77	664.889
1848.83	653.111
1850.9	655.111
1852.96	639.778
1855.03	659.556
1857.09	658.222
1859.15	663.333
1861.22	648
1863.28	654.222
1865.34	646.444
1867.4	652.222
1869.46	653.778
1871.52	651.333
1873.58	647.111
1875.64	642.889
1877.7	652.444
1879.76	649.556
1881.81	650.889
1883.87	636.667
1885.92	645.778
1887.98	641.556
1890.03	653.556
1892.09	640.667
1894.14	654.444
1896.19	646
1898.24	629.111
1900.29	638.889
1902.34	635.111
1904.4	648.444
1906.44	640.444
1908.49	633.778
1910.54	646
1912.59	630.445
1914.63	640.445
1916.68	630.667
1918.73	632.222
1920.77	632.444
1922.81	626.444
1924.86	631.778
1926.9	615.778
1928.94	618.889
1930.99	640.889
1933.03	624
1935.07	625.111
1937.11	627.556
1939.15	630.222
1941.19	626.445
1943.22	628.889
1945.26	629.111
1947.3	623.111
1949.33	620.444
1951.37	617.778
1953.4	622.222
1955.44	615.555
1957.47	615.556
1959.51	618.667
1961.54	612
1963.57	599.111
1965.6	612.667
1967.63	604.445
1969.66	607.556
1971.69	610.222
1973.72	606.889
1975.75	607.111
1977.78	600.889
1979.8	601.111
1981.83	596
1983.86	598.444
1985.88	600.667
1987.91	586.667
1989.93	591.111
1991.95	600
1993.98	598
1996	592.444
1998.02	598.222
2000.04	600.667
2002.06	597.333
2004.08	594.222
2006.1	596.889
2008.12	593.778
2010.14	586.222
2012.15	594.889
2014.17	606.222
2016.19	590.889
2018.2	596.222
2020.22	597.556
2022.23	593.111
2024.25	580.222
2026.26	592.889
2028.27	601.556
2030.28	594.667
2032.29	599.333
2034.3	583.111
2036.32	594.889
2038.32	583.111
2040.33	591.556
2042.34	583.778
2044.35	587.333
2046.36	580.222
2048.36	586.889
2050.37	583.111
2052.37	574.667
2054.38	577.111
2056.38	576.222
2058.39	584.222
2060.39	586.444
2062.39	569.778
2064.39	580.222
2066.39	570.222
2068.39	573.111
2070.39	577.333
2072.39	568.667
2074.39	570.444
2076.39	572.667
2078.39	573.333
2080.39	561.333
2082.38	567.778
2084.38	563.778
2086.37	568.222
2088.37	570.889
2090.36	568.889
2092.35	562.667
2094.35	564
2096.34	564.889
2098.33	556
2100.32	564.667
2102.31	569.778
2104.3	569.778
2106.29	567.778
2108.28	559.556
2110.27	563.778
2112.25	558
2114.24	561.111
2116.23	563.333
2118.21	564.667
2120.2	553.556
2122.18	570.667
2124.17	564
2126.15	559.333
2128.13	556.889
2130.11	556.222
2132.09	561.556
2134.08	562.222
2136.06	560
2138.04	549.333
2140.02	550
2141.99	548.667
2143.97	557.556
2145.95	559.555
2147.93	556.889
2149.9	556.222
2151.88	542.889
2153.85	553.556
2155.83	545.555
2157.8	542.889
2159.77	545.556
2161.75	541.333
2163.72	539.333
2165.69	545.556
2167.66	540.222
2169.63	530.667
2171.6	531.556
2173.57	532.444
2175.54	531.778
2177.51	535.333
2179.47	525.111
2181.44	531.556
2183.41	518.667
2185.37	522.889
2187.34	529.111
2189.3	533.111
2191.27	517.333
2193.23	520.667
2195.19	527.556
2197.15	518
2199.11	524.889
2201.08	517.778
2203.04	521.333
2205	520
2206.96	508.444
2208.91	517.778
2210.87	512.444
2212.83	513.111
2214.79	512
2216.74	513.556
2218.7	513.556
2220.65	528.444
2222.61	524
2224.56	519.556
2226.52	528.889
2228.47	519.111
2230.42	526.444
2232.37	519.778
2234.32	521.111
2236.27	516
2238.22	508.444
2240.17	515.778
2242.12	501.778
2244.07	501.333
2246.02	507.778
2247.97	496.667
2249.91	504.444
2251.86	496.667
2253.8	510.222
2255.75	498.444
2257.69	489.111
2259.64	493.778
2261.58	492.222
2263.52	493.111
2265.46	481.333
2267.4	487.111
2269.35	478.667
2271.29	488.444
2273.23	489.778
2275.16	492.222
2277.1	479.556
2279.04	484.444
2280.98	477.556
2282.92	482.889
2284.85	481.333
2286.79	477.333
2288.72	484
2290.66	475.556
2292.59	484.444
2294.52	473.111
2296.46	484.444
2298.39	483.333
2300.32	474
2302.25	466.222
2304.18	466.222
2306.11	478.444
2308.04	466.889
2309.97	468.444
2311.9	470.222
2313.83	468.222
2315.75	470
2317.68	461.778
2319.61	467.333
2321.53	466.889
2323.46	462.222
2325.38	468.667
2327.3	465.111
2329.23	462.667
2331.15	458.444
2333.07	463.556
2334.99	454
2336.91	460.444
2338.83	446.889
2340.75	464.222
2342.67	451.333
2344.59	458
2346.51	451.778
2348.43	463.333
2350.35	441.556
2352.26	452.667
2354.18	461.111
2356.09	450.222
2358.01	445.778
2359.92	451.111
2361.83	447.778
2363.75	448.222
2365.66	443.333
2367.57	440.444
2369.48	448
2371.39	452.667
2373.31	438.667
2375.21	447.111
2377.12	444.667
2379.03	443.556
2380.94	444.444
2382.85	440.889
2384.76	434.444
2386.66	430.222
2388.57	444
2390.47	431.556
2392.38	435.333
2394.28	432.667
2396.18	433.111
2398.09	433.778
2399.99	435.111
2401.89	440.444
2403.79	438.222
2405.69	430.667
2407.59	429.333
2409.49	436.222
2411.39	431.778
2413.29	424.222
2415.19	423.333
2417.09	423.111
2418.98	419.333
2420.88	422.889
2422.78	424.222
2424.67	428.667
2426.57	416.222
2428.46	425.556
2430.35	417.111
2432.25	422.889
2434.14	412
2436.03	415.111
2437.92	426.444
2439.81	414
2441.7	430.222
2443.59	413.778
2445.48	409.111
2447.37	421.556
2449.26	418.667
2451.15	424.444
2453.03	417.778
