186.85	579.778
189.449	584.889
192.047	576.222
194.645	578.445
197.241	571.556
199.837	566.222
202.431	574.667
205.025	580
207.619	579.111
210.21	578.444
212.802	573.111
215.392	576.667
217.982	575.333
220.57	582
223.158	583.111
225.744	586.667
228.331	587.778
230.915	590.667
233.5	598.444
236.083	600.889
238.666	589.333
241.247	600.667
243.827	596.889
246.408	601.778
248.986	610.222
251.565	603.111
254.142	614
256.719	619.111
259.294	614.222
261.868	603.111
264.443	616.444
267.015	612.889
269.587	622.222
272.159	604.444
274.729	619.111
277.298	619.556
279.867	620.889
282.435	618.444
285.001	616.889
287.568	615.333
290.133	614.667
292.697	624.444
295.26	618.667
297.824	630.889
300.385	635.111
302.945	639.333
305.505	635.333
308.064	638.667
310.623	627.333
313.18	628
315.737	634.222
318.292	623.111
320.847	627.333
323.402	628.222
325.955	628.222
328.507	625.778
331.058	637.778
333.609	640.667
336.158	636.222
338.707	635.333
341.255	629.556
343.802	641.111
346.349	645.333
348.895	652.444
351.439	643.111
353.983	639.111
356.526	652.889
359.068	645.111
361.609	643.111
364.149	659.778
366.689	651.111
369.227	656.889
371.765	647.333
374.302	659.556
376.838	663.333
379.374	689.778
381.908	689.333
384.442	679.111
386.973	654.889
389.505	661.778
392.036	645.778
394.567	635.333
397.096	643.333
399.625	645.778
402.153	644.667
404.68	659.556
407.206	647.111
409.73	655.111
412.254	652.222
414.778	656.889
417.301	660.889
419.823	649.111
422.343	656
424.863	658.222
427.383	663.333
429.901	671.555
432.418	669.333
434.935	674.667
437.451	685.556
439.966	677.333
442.48	673.778
444.993	672.667
447.506	668
450.019	667.556
452.528	669.778
455.039	672.222
457.549	676.889
460.056	673.778
462.564	665.333
465.07	665.556
467.576	664
470.082	656.889
472.585	680.889
475.089	666.889
477.591	671.556
480.093	661.111
482.595	672.444
485.094	666.667
487.594	667.111
490.091	669.333
492.59	673.333
495.086	664.222
497.582	675.111
500.076	668.222
502.571	664
505.064	655.556
507.558	677.556
510.049	665.556
512.54	669.778
515.03	677.556
517.518	688.444
520.008	674.444
522.495	677.556
524.983	669.778
527.468	674
529.954	666
532.438	663.556
534.921	665.333
537.404	661.778
539.886	675.556
542.366	669.778
544.848	675.333
547.327	675.111
549.805	657.111
552.284	681.778
554.76	665.333
557.236	682.667
559.711	671.556
562.186	680.444
564.66	674.444
567.132	680.444
569.604	676
572.076	671.111
574.547	680.222
577.016	680.667
579.484	682.222
581.952	684.222
584.419	684.667
586.887	676.444
589.352	666.222
591.816	680
594.28	682.444
596.743	660.667
599.205	673.333
601.667	682.222
604.127	677.333
606.588	677.556
609.047	690.667
611.505	673.111
613.963	674.889
616.419	670.444
618.875	680
621.33	667.556
623.784	683.333
626.238	682.889
628.69	679.556
631.142	677.333
633.593	678.667
636.043	682.444
638.493	695.778
640.941	686
643.389	685.111
645.835	679.556
648.281	678
650.727	682.889
653.171	686
655.615	689.556
658.058	675.111
660.501	671.556
662.942	675.778
665.382	670.667
667.822	675.778
670.261	684
672.699	676.444
675.137	676.889
677.574	682.444
680.008	682.889
682.443	675.778
684.878	685.778
687.312	677.778
689.743	688.444
692.175	686.444
694.607	685.111
697.037	684.667
699.466	685.111
701.895	688
704.323	676.222
706.749	693.333
709.175	684.667
711.601	676.444
714.025	684.889
716.449	684.222
718.871	684.667
721.294	678.222
723.716	692.444
726.136	682.222
728.556	692.444
730.975	686.667
733.394	670.667
735.812	677.555
738.228	676.667
740.644	673.556
743.058	686.222
745.473	670.889
747.886	666.444
750.3	683.556
752.711	682.889
755.123	669.111
757.533	658.444
759.942	676
762.351	670
764.759	679.556
767.167	678.222
769.573	681.556
771.979	666.889
774.383	671.333
776.787	686.889
779.191	686.444
781.593	681.556
783.994	690.222
786.396	672
788.796	672.667
791.195	680.889
793.595	681.778
795.992	687.778
798.389	682.222
800.786	686.222
803.181	670.889
805.576	698.667
807.969	681.778
810.363	685.778
812.755	679.333
815.147	678.444
817.537	678.889
819.927	679.333
822.318	682.444
824.706	683.111
827.093	684
829.48	674
831.866	670.444
834.251	678
836.636	683.111
839.021	675.778
841.404	672.667
843.786	682.444
846.167	660.444
848.548	667.778
850.928	668.444
853.307	679.556
855.685	683.778
858.063	674.222
860.44	672.222
862.816	665.556
865.192	687.111
867.566	682
869.94	676.889
872.313	684
874.685	678.667
877.057	685.556
879.428	682.889
881.798	669.778
884.167	678
886.536	673.778
888.902	682
891.269	690.222
893.636	686.222
896.001	688
898.366	688.889
900.73	690.222
903.094	686.445
905.455	676.444
907.817	674
910.178	674.444
912.538	678.444
914.898	672.667
917.255	669.333
919.613	664.222
921.971	669.778
924.327	655.556
926.682	662.222
929.037	660.667
931.391	675.333
933.744	672
936.096	662.889
938.449	671.333
940.799	671.333
943.149	661.111
945.499	663.556
947.847	667.111
950.195	666.889
952.542	670.889
954.889	672
957.235	660
959.579	673.333
961.924	666.222
964.266	673.556
966.609	672.444
968.951	675.333
971.292	668.222
973.632	669.333
975.972	664.667
978.31	669.111
980.649	666
982.986	675.111
985.323	673.778
987.659	667.111
989.994	672.444
992.328	666.667
994.662	688.889
996.995	672.667
999.326	684.222
1001.66	670
1003.99	665.556
1006.32	669.111
1008.65	662.667
1010.98	672.667
1013.3	670.889
1015.63	673.333
1017.96	672.222
1020.28	671.111
1022.61	664.444
1024.93	666.667
1027.25	665.111
1029.58	658
1031.9	679.333
1034.22	672.667
1036.54	678.889
1038.86	675.556
1041.18	665.778
1043.49	676.444
1045.81	670.222
1048.13	663.778
1050.44	687.778
1052.76	690.222
1055.07	693.556
1057.39	686.444
1059.7	681.333
1062.01	682.222
1064.32	690.889
1066.63	683.111
1068.94	700
1071.25	701.556
1073.56	711.778
1075.87	713.111
1078.17	706.889
1080.48	703.333
1082.79	699.111
1085.09	698.222
1087.39	712.889
1089.7	718.889
1092	736.667
1094.3	754.667
1096.6	766.222
1098.9	760
1101.2	735.333
1103.5	738.222
1105.8	715.778
1108.1	716.667
1110.39	713.556
1112.69	709.111
1114.98	718.667
1117.28	723.333
1119.57	718.889
1121.86	725.778
1124.16	735.556
1126.45	732
1128.74	725.333
1131.03	707.111
1133.32	710.667
1135.61	695.778
1137.89	688
1140.18	699.778
1142.47	692.667
1144.75	696.222
1147.04	696.667
1149.32	684
1151.61	694.889
1153.89	703.778
1156.17	699.333
1158.45	686.667
1160.73	677.556
1163.01	683.556
1165.29	694.222
1167.57	692.889
1169.85	674.889
1172.12	676.222
1174.4	680.889
1176.68	682.667
1178.95	680.445
1181.22	676.444
1183.5	672.444
1185.77	677.111
1188.04	672
1190.31	672.222
1192.58	672.444
1194.85	674.889
1197.12	676.667
1199.39	680.889
1201.66	678.889
1203.92	674.889
1206.19	672.444
1208.45	678.889
1210.72	660
1212.98	668
1215.25	672.889
1217.51	668.444
1219.77	671.333
1222.03	677.556
1224.29	677.556
1226.55	678.667
1228.81	677.556
1231.07	678
1233.33	674.444
1235.58	678.444
1237.84	680.444
1240.09	669.333
1242.35	680.444
1244.6	677.778
1246.86	683.778
1249.11	696.222
1251.36	684.222
1253.61	670.667
1255.86	691.111
1258.11	695.333
1260.36	694.445
1262.61	684
1264.86	686.667
1267.1	676.222
1269.35	682.889
1271.6	693.556
1273.84	700
1276.08	711.333
1278.33	687.778
1280.57	699.111
1282.81	691.333
1285.05	699.778
1287.29	685.556
1289.53	697.778
1291.77	703.556
1294.01	700.889
1296.25	698
1298.48	682.667
1300.72	679.333
1302.96	680.889
1305.19	697.556
1307.42	678.444
1309.66	683.778
1311.89	692
1314.12	695.333
1316.35	695.111
1318.58	683.111
1320.81	696.445
1323.04	672
1325.27	686.222
1327.5	678.444
1329.73	686
1331.95	690.222
1334.18	697.556
1336.4	696.889
1338.63	701.556
1340.85	692.222
1343.08	684.667
1345.3	685.556
1347.52	686.667
1349.74	683.556
1351.96	661.111
1354.18	663.333
1356.4	678.667
1358.61	680.444
1360.83	674.889
1363.05	678.667
1365.27	673.778
1367.48	679.111
1369.69	689.111
1371.91	682.889
1374.12	686
1376.33	695.333
1378.55	698.889
1380.76	698.445
1382.97	687.111
1385.18	693.111
1387.39	679.111
1389.59	680.222
1391.8	659.556
1394.01	669.778
1396.21	654
1398.42	673.778
1400.63	665.333
1402.83	664
1405.03	664.667
1407.24	660.444
1409.44	650.222
1411.64	653.111
1413.84	661.556
1416.04	655.111
1418.24	653.778
1420.44	664.222
1422.64	658.444
1424.83	658
1427.03	652.667
1429.23	657.111
1431.42	656
1433.62	659.778
1435.81	653.111
1438	654
1440.19	640.889
1442.39	649.111
1444.58	655.333
1446.77	659.111
1448.96	662.444
1451.15	648
1453.34	651.556
1455.52	646.444
1457.71	660.222
1459.9	665.333
1462.08	657.556
1464.27	660.889
1466.45	652.444
1468.64	652.667
1470.82	652
1473	660.889
1475.18	661.556
1477.36	664.445
1479.54	668
1481.72	658
1483.9	661.333
1486.08	660.444
1488.26	640
1490.43	653.333
1492.61	655.333
1494.78	643.778
1496.96	658.889
1499.13	660.667
1501.31	649.778
1503.48	654.222
1505.65	660.444
1507.82	644.889
1509.99	647.333
1512.16	660.889
1514.33	651.778
1516.5	650.444
1518.67	647.333
1520.84	659.111
1523	665.111
1525.17	666.444
1527.34	661.556
1529.5	669.111
1531.66	676
1533.83	685.555
1535.99	681.111
1538.15	672.889
1540.31	670.889
1542.47	664.444
1544.63	666.667
1546.79	670.667
1548.95	666.222
1551.11	672.667
1553.27	674.444
1555.42	656.222
1557.58	662
1559.73	664.445
1561.89	671.556
1564.04	668.889
1566.2	670.889
1568.35	678.889
1570.5	675.333
1572.65	678.222
1574.8	674
1576.95	689.111
1579.1	684.222
1581.25	693.556
1583.4	694.222
1585.55	686
1587.69	688.667
1589.84	685.111
1591.99	669.778
1594.13	681.111
1596.27	682.667
1598.42	675.333
1600.56	676.889
1602.7	671.111
1604.84	668.222
1606.98	663.333
1609.12	664
1611.26	657.778
1613.4	660.889
1615.54	654.889
1617.68	641.556
1619.81	648.667
1621.95	627.333
1624.08	635.778
1626.22	625.333
1628.35	627.111
1630.49	618.444
1632.62	635.556
1634.75	615.111
1636.88	598.889
1639.01	599.333
1641.14	626.222
1643.27	594.889
1645.4	596.444
1647.53	593.556
1649.66	598
1651.79	607.111
1653.91	583.778
1656.04	585.556
1658.16	593.556
1660.29	585.111
1662.41	587.111
1664.53	582.444
1666.66	582.889
1668.78	588.444
1670.9	579.333
1673.02	582.444
1675.14	588
1677.26	575.778
1679.38	578.445
1681.49	573.556
1683.61	579.556
1685.73	569.333
1687.84	574.222
1689.96	570.667
1692.07	569.111
1694.19	561.111
1696.3	566.667
1698.41	568.889
1700.52	563.778
1702.64	576.444
1704.75	566
1706.86	573.111
1708.97	554.667
1711.07	571.778
1713.18	563.778
1715.29	559.556
1717.4	550.444
1719.5	561.556
1721.61	558
1723.71	565.556
1725.82	555.333
1727.92	562.444
1730.02	549.111
1732.12	558.444
1734.23	556
1736.33	556
1738.43	558
1740.53	547.556
1742.63	558.222
1744.72	556.444
1746.82	546
1748.92	539.778
1751.02	543.111
1753.11	552.222
1755.21	537.778
1757.3	537.333
1759.4	536.444
1761.49	549.111
1763.58	539.778
1765.67	530.667
1767.76	538.667
1769.86	530.667
1771.95	524.444
1774.03	525.333
1776.12	534.444
1778.21	523.333
1780.3	529.778
1782.39	532.222
1784.47	532.444
1786.56	528.667
1788.64	524.222
1790.73	528.444
1792.81	535.111
1794.89	536.667
1796.98	537.555
1799.06	529.111
1801.14	515.556
1803.22	531.333
1805.3	528.889
1807.38	520.667
1809.46	524.667
1811.54	530
1813.61	528.444
1815.69	528.889
1817.77	538.222
1819.84	518.222
1821.92	520.222
1823.99	533.111
1826.06	519.111
1828.14	510.889
1830.21	530
1832.28	516.889
1834.35	514.222
1836.42	518.444
1838.49	524
1840.56	518
1842.63	517.556
1844.7	517.556
1846.77	517.778
1848.83	519.111
1850.9	507.111
1852.96	512.222
1855.03	501.556
1857.09	508.444
1859.15	511.556
1861.22	505.556
1863.28	506
1865.34	498
1867.4	509.556
1869.46	496.444
1871.52	511.778
1873.58	503.333
1875.64	504
1877.7	496.444
1879.76	497.556
1881.81	487.778
1883.87	497.333
1885.92	489.556
1887.98	490.444
1890.03	505.333
1892.09	505.333
1894.14	499.556
1896.19	491.556
1898.24	490
1900.29	493.111
1902.34	504.222
1904.4	501.333
1906.44	498.667
1908.49	501.556
1910.54	498.667
1912.59	502.444
1914.63	494.222
1916.68	487.333
1918.73	492.222
1920.77	486
1922.81	490
1924.86	495.333
1926.9	487.333
1928.94	495.778
1930.99	492.222
1933.03	491.111
1935.07	479.333
1937.11	476.889
1939.15	487.556
1941.19	487.778
1943.22	482
1945.26	490.889
1947.3	489.111
1949.33	470.889
1951.37	477.111
1953.4	463.111
1955.44	482
1957.47	475.333
1959.51	472.667
1961.54	478.667
1963.57	472
1965.6	480.667
1967.63	471.333
1969.66	471.333
1971.69	474.889
1973.72	468.667
1975.75	466.889
1977.78	468
1979.8	454.444
1981.83	473.778
1983.86	472.444
1985.88	467.556
1987.91	472.667
1989.93	464.889
1991.95	455.556
1993.98	467.778
1996	464.222
1998.02	465.556
2000.04	460.222
2002.06	466.667
2004.08	459.778
2006.1	446.667
2008.12	462.444
2010.14	462.889
2012.15	459.333
2014.17	464.667
2016.19	461.556
2018.2	460.444
2020.22	468.444
2022.23	460.444
2024.25	462
2026.26	467.778
2028.27	459.556
2030.28	457.333
2032.29	462.444
2034.3	462.222
2036.32	454.889
2038.32	450.889
2040.33	462.667
2042.34	451.111
2044.35	460.444
2046.36	461.111
2048.36	456.667
2050.37	461.111
2052.37	437.778
2054.38	453.111
2056.38	450.889
2058.39	441.111
2060.39	453.778
2062.39	447.778
2064.39	450.444
2066.39	447.333
2068.39	445.333
2070.39	446.889
2072.39	453.556
2074.39	451.111
2076.39	437.333
2078.39	439.333
2080.39	447.111
2082.38	440.889
2084.38	443.333
2086.37	439.111
2088.37	431.778
2090.36	442.889
2092.35	439.333
2094.35	429.333
2096.34	437.556
2098.33	446.444
2100.32	434.444
2102.31	445.778
2104.3	428.222
2106.29	436.444
2108.28	429.111
2110.27	441.556
2112.25	430.444
2114.24	438.889
2116.23	435.778
2118.21	435.333
2120.2	426.889
2122.18	429.111
2124.17	442.667
2126.15	432.889
2128.13	432.444
2130.11	431.778
2132.09	434.444
2134.08	428.667
2136.06	442.222
2138.04	432.444
2140.02	425.556
2141.99	421.556
2143.97	426.222
2145.95	422.889
2147.93	425.111
2149.9	424.222
2151.88	422.444
2153.85	424.222
2155.83	426.222
2157.8	415.333
2159.77	414.444
2161.75	420.667
2163.72	420.444
2165.69	421.333
2167.66	416.222
2169.63	420.222
2171.6	429.556
2173.57	407.556
2175.54	410.444
2177.51	416.889
2179.47	411.556
2181.44	398.889
2183.41	410.667
2185.37	417.111
2187.34	402.889
2189.3	396.222
2191.27	407.333
2193.23	404.444
2195.19	410.889
2197.15	403.778
2199.11	405.778
2201.08	399.333
2203.04	403.111
2205	397.556
2206.96	403.111
2208.91	407.556
2210.87	403.556
2212.83	400.222
2214.79	392.667
2216.74	397.556
2218.7	402.444
2220.65	398.667
2222.61	402.222
2224.56	399.333
2226.52	407.111
2228.47	397.778
2230.42	395.111
2232.37	398.444
2234.32	390.667
2236.27	395.778
2238.22	388.667
2240.17	394.444
2242.12	388.667
2244.07	386.667
2246.02	391.111
2247.97	389.333
2249.91	390.444
2251.86	387.556
2253.8	386.444
2255.75	388.889
2257.69	385.111
2259.64	381.556
2261.58	382.889
2263.52	377.556
2265.46	387.111
2267.4	381.778
2269.35	372.889
2271.29	378.444
2273.23	381.556
2275.16	386.667
2277.1	369.333
2279.04	380.667
2280.98	368
2282.92	378.667
2284.85	378.222
2286.79	377.778
2288.72	370.444
2290.66	366.222
2292.59	377.111
2294.52	369.556
2296.46	372.222
2298.39	374.889
2300.32	374.667
2302.25	374.667
2304.18	362.667
2306.11	362
2308.04	364.889
2309.97	358.667
2311.9	372
2313.83	368.444
2315.75	369.778
2317.68	356.889
2319.61	366.889
2321.53	360.444
2323.46	353.778
2325.38	361.333
2327.3	353.333
2329.23	359.778
2331.15	361.111
2333.07	368
2334.99	360.889
2336.91	351.333
2338.83	356
2340.75	352.889
2342.67	358.444
2344.59	358.222
2346.51	358.444
2348.43	350.889
2350.35	348.667
2352.26	345.778
2354.18	356.444
2356.09	355.111
2358.01	351.333
2359.92	354.222
2361.83	355.333
2363.75	345.556
2365.66	352.222
2367.57	350.222
2369.48	346.444
2371.39	345.778
2373.31	358.444
2375.21	340.222
2377.12	342.667
2379.03	347.333
2380.94	346
2382.85	344.444
2384.76	337.778
2386.66	344.889
2388.57	340.444
2390.47	340
2392.38	343.778
2394.28	346.667
2396.18	333.333
2398.09	335.111
2399.99	338.444
2401.89	342.444
2403.79	332.889
2405.69	331.556
2407.59	334
2409.49	330.444
2411.39	329.111
2413.29	330.889
2415.19	333.556
2417.09	329.556
2418.98	335.778
2420.88	333.556
2422.78	322.889
2424.67	330.889
2426.57	331.111
2428.46	323.778
2430.35	321.778
2432.25	325.778
2434.14	330.889
2436.03	329.111
2437.92	328.444
2439.81	327.556
2441.7	325.556
2443.59	330
2445.48	321.333
2447.37	320
2449.26	324.889
2451.15	311.778
2453.03	321.556
