186.85	978.667
189.449	992.667
192.047	983.111
194.645	962.222
197.241	988.444
199.837	987.556
202.431	986
205.025	991.556
207.619	981.111
210.21	990.889
212.802	995.778
215.392	991.556
217.982	1000.44
220.57	997.778
223.158	1001.33
225.744	994
228.331	1008.89
230.915	1016
233.5	1022
236.083	1040.22
238.666	1030.22
241.247	1056.44
243.827	1045.33
246.408	1053.56
248.986	1059.11
251.565	1048.44
254.142	1067.78
256.719	1053.56
259.294	1055.56
261.868	1058.67
264.443	1043.78
267.015	1038.44
269.587	1050.22
272.159	1040.89
274.729	1035.33
277.298	1026.44
279.867	1024.44
282.435	1036.67
285.001	1022.44
287.568	1032.44
290.133	1028.89
292.697	1022
295.26	1036.22
297.824	1039.78
300.385	1031.33
302.945	1042
305.505	1039.11
308.064	1012.89
310.623	1028
313.18	1014.22
315.737	1017.56
318.292	1022.89
320.847	1010.89
323.402	1003.56
325.955	1012.67
328.507	1027.56
331.058	1033.33
333.609	1020.89
336.158	1027.11
338.707	1020.22
341.255	1020.89
343.802	1023.56
346.349	1033.33
348.895	1052.22
351.439	1026.22
353.983	1047.78
356.526	1032
359.068	1044.67
361.609	1059.33
364.149	1047.11
366.689	1049.33
369.227	1045.33
371.765	1040.89
374.302	1049.33
376.838	1066.22
379.374	1091.33
381.908	1084.89
384.442	1076.67
386.973	1052
389.505	1052.44
392.036	1035.33
394.567	1027.11
397.096	1021.78
399.625	1025.33
402.153	1031.56
404.68	1045.56
407.206	1047.78
409.73	1047.78
412.254	1034.89
414.778	1053.11
417.301	1053.11
419.823	1049.78
422.343	1056.22
424.863	1052.67
427.383	1052.67
429.901	1070.22
432.418	1068.44
434.935	1084.44
437.451	1098
439.966	1096.44
442.48	1082
444.993	1074.44
447.506	1062.89
450.019	1058.22
452.528	1063.78
455.039	1081.33
457.549	1081.11
460.056	1078
462.564	1064.89
465.07	1050.44
467.576	1073.56
470.082	1047.56
472.585	1045.56
475.089	1046
477.591	1065.56
480.093	1052.44
482.595	1055.11
485.094	1071.11
487.594	1061.11
490.091	1054
492.59	1053.33
495.086	1061.33
497.582	1060.89
500.076	1064.67
502.571	1051.33
505.064	1067.78
507.558	1042.44
510.049	1058.22
512.54	1051.33
515.03	1059.33
517.518	1066.44
520.008	1081.11
522.495	1081.56
524.983	1069.56
527.468	1062.22
529.954	1058.89
532.438	1059.11
534.921	1048.44
537.404	1053.33
539.886	1047.11
542.366	1058.89
544.848	1056.67
547.327	1067.11
549.805	1072
552.284	1053.33
554.76	1068.67
557.236	1068.67
559.711	1069.56
562.186	1081.33
564.66	1064.22
567.132	1068.89
569.604	1067.56
572.076	1063.11
574.547	1072.89
577.016	1057.56
579.484	1051.78
581.952	1076
584.419	1074
586.887	1068
589.352	1077.11
591.816	1074.89
594.28	1059.11
596.743	1066.44
599.205	1055.33
601.667	1068.22
604.127	1084
606.588	1077.78
609.047	1083.78
611.505	1086
613.963	1079.33
616.419	1076
618.875	1076.67
621.33	1068.89
623.784	1066.22
626.238	1096
628.69	1086
631.142	1078.22
633.593	1075.78
636.043	1076.44
638.493	1077.11
640.941	1094.67
643.389	1083.33
645.835	1095.56
648.281	1080.89
650.727	1076.44
653.171	1087.56
655.615	1085.11
658.058	1083.78
660.501	1078.89
662.942	1084
665.382	1084.67
667.822	1073.78
670.261	1073.33
672.699	1071.56
675.137	1063.33
677.574	1062
680.008	1062.22
682.443	1074
684.878	1072
687.312	1088.22
689.743	1074.44
692.175	1085.33
694.607	1088
697.037	1093.78
699.466	1092
701.895	1098.89
704.323	1103.11
706.749	1087.56
709.175	1091.78
711.601	1101.33
714.025	1093.33
716.449	1090.67
718.871	1093.11
721.294	1085.11
723.716	1082.22
726.136	1091.33
728.556	1090.22
730.975	1089.33
733.394	1087.78
735.812	1072.89
738.228	1069.33
740.644	1061.56
743.058	1076.67
745.473	1077.33
747.886	1077.56
750.3	1078.44
752.711	1062.89
755.123	1078.89
757.533	1065.11
759.942	1067.11
762.351	1078
764.759	1074
767.167	1062.44
769.573	1076.67
771.979	1067.11
774.383	1070.89
776.787	1075.56
779.191	1073.33
781.593	1086
783.994	1082.44
786.396	1080
788.796	1085.78
791.195	1086.44
793.595	1084.89
795.992	1090.89
798.389	1080.67
800.786	1081.78
803.181	1078.44
805.576	1085.11
807.969	1084.22
810.363	1078.44
812.755	1070.89
815.147	1076.22
817.537	1084.22
819.927	1081.33
822.318	1087.56
824.706	1085.11
827.093	1074.22
829.48	1076.89
831.866	1062.44
834.251	1074.44
836.636	1081.78
839.021	1062.89
841.404	1070.89
843.786	1072.22
846.167	1088.44
848.548	1072.22
850.928	1066.44
853.307	1073.33
855.685	1077.78
858.063	1084.22
860.44	1086.44
862.816	1070.22
865.192	1077.33
867.566	1097.56
869.94	1096.22
872.313	1071.33
874.685	1082
877.057	1090.44
879.428	1094.67
881.798	1086.22
884.167	1078.89
886.536	1086.44
888.902	1082.89
891.269	1085.56
893.636	1089.56
896.001	1091.11
898.366	1087.56
900.73	1074.22
903.094	1071.56
905.455	1075.33
907.817	1065.78
910.178	1079.78
912.538	1080.89
914.898	1074
917.255	1069.33
919.613	1078
921.971	1075.78
924.327	1068.22
926.682	1069.11
929.037	1058.89
931.391	1073.33
933.744	1066.89
936.096	1052.22
938.449	1066
940.799	1062.44
943.149	1065.56
945.499	1069.78
947.847	1068.89
950.195	1080.89
952.542	1072.89
954.889	1066.44
957.235	1085.33
959.579	1086.22
961.924	1082.44
964.266	1089.56
966.609	1074.22
968.951	1072.44
971.292	1088.22
973.632	1062
975.972	1079.11
978.31	1088.89
980.649	1073.33
982.986	1069.56
985.323	1070.22
987.659	1093.33
989.994	1076.89
992.328	1094
994.662	1094.89
996.995	1094.22
999.326	1111.56
1001.66	1111.56
1003.99	1083.33
1006.32	1082.89
1008.65	1093.33
1010.98	1085.78
1013.3	1096.22
1015.63	1084.67
1017.96	1088.89
1020.28	1082.89
1022.61	1076.67
1024.93	1083.56
1027.25	1092.22
1029.58	1076.67
1031.9	1075.56
1034.22	1078.22
1036.54	1083.33
1038.86	1083.78
1041.18	1086.67
1043.49	1087.33
1045.81	1064.89
1048.13	1071.78
1050.44	1058
1052.76	1084.89
1055.07	1087.78
1057.39	1105.78
1059.7	1090
1062.01	1096
1064.32	1090.89
1066.63	1104.22
1068.94	1100
1071.25	1100.44
1073.56	1097.56
1075.87	1121.33
1078.17	1128.22
1080.48	1122.22
1082.79	1134.22
1085.09	1117.56
1087.39	1152.44
1089.7	1155.56
1092	1193.11
1094.3	1218.67
1096.6	1220.22
1098.9	1220.89
1101.2	1183.11
1103.5	1173.33
1105.8	1159.78
1108.1	1148.67
1110.39	1168.67
1112.69	1154
1114.98	1153.56
1117.28	1164
1119.57	1167.11
1121.86	1175.33
1124.16	1189.78
1126.45	1174.22
1128.74	1160.67
1131.03	1165.11
1133.32	1150.44
1135.61	1138
1137.89	1137.56
1140.18	1128
1142.47	1118.89
1144.75	1105.11
1147.04	1127.33
1149.32	1131.33
1151.61	1132
1153.89	1147.56
1156.17	1137.78
1158.45	1139.33
1160.73	1109.78
1163.01	1138.44
1165.29	1127.56
1167.57	1096
1169.85	1125.33
1172.12	1129.33
1174.4	1112.89
1176.68	1119.56
1178.95	1100
1181.22	1107.78
1183.5	1116.67
1185.77	1103.11
1188.04	1104.22
1190.31	1100.67
1192.58	1107.78
1194.85	1112.22
1197.12	1105.11
1199.39	1122.67
1201.66	1123.78
1203.92	1130.67
1206.19	1114
1208.45	1120
1210.72	1111.33
1212.98	1103.56
1215.25	1122.67
1217.51	1114.67
1219.77	1126
1222.03	1129.56
1224.29	1129.11
1226.55	1126
1228.81	1131.78
1231.07	1135.33
1233.33	1144.44
1235.58	1137.33
1237.84	1150.67
1240.09	1142
1242.35	1152.22
1244.6	1156.22
1246.86	1168.44
1249.11	1156.44
1251.36	1158.22
1253.61	1142.22
1255.86	1154.22
1258.11	1148.89
1260.36	1149.11
1262.61	1173.78
1264.86	1150.67
1267.1	1165.78
1269.35	1163.11
1271.6	1158.22
1273.84	1158.89
1276.08	1160.89
1278.33	1163.33
1280.57	1149.11
1282.81	1148
1285.05	1136.67
1287.29	1146
1289.53	1156.67
1291.77	1168.22
1294.01	1160
1296.25	1171.33
1298.48	1167.56
1300.72	1171.56
1302.96	1154.89
1305.19	1148.89
1307.42	1159.33
1309.66	1140.44
1311.89	1164.22
1314.12	1148.89
1316.35	1158.22
1318.58	1151.78
1320.81	1176.67
1323.04	1170.67
1325.27	1168
1327.5	1161.78
1329.73	1169.56
1331.95	1179.56
1334.18	1172
1336.4	1185.78
1338.63	1191.33
1340.85	1173.11
1343.08	1165.33
1345.3	1164.89
1347.52	1164.67
1349.74	1149.78
1351.96	1159.56
1354.18	1143.33
1356.4	1154.67
1358.61	1164.89
1360.83	1165.33
1363.05	1172.67
1365.27	1164
1367.48	1166.89
1369.69	1160.44
1371.91	1165.11
1374.12	1168.67
1376.33	1173.78
1378.55	1159.33
1380.76	1173.56
1382.97	1168.44
1385.18	1145.78
1387.39	1156.89
1389.59	1138.89
1391.8	1132.44
1394.01	1106.44
1396.21	1113.56
1398.42	1111.33
1400.63	1113.56
1402.83	1109.56
1405.03	1104.22
1407.24	1104.44
1409.44	1114.22
1411.64	1121.78
1413.84	1114.67
1416.04	1106
1418.24	1102.89
1420.44	1110.44
1422.64	1123.56
1424.83	1112.67
1427.03	1099.11
1429.23	1095.33
1431.42	1112.89
1433.62	1125.11
1435.81	1114.89
1438	1104.89
1440.19	1102.89
1442.39	1111.33
1444.58	1109.78
1446.77	1122.89
1448.96	1119.56
1451.15	1118.89
1453.34	1114.89
1455.52	1139.11
1457.71	1126.89
1459.9	1125.11
1462.08	1145.33
1464.27	1122.67
1466.45	1117.33
1468.64	1122
1470.82	1144.22
1473	1137.78
1475.18	1144.22
1477.36	1136.44
1479.54	1128.89
1481.72	1156.44
1483.9	1152.89
1486.08	1142.67
1488.26	1138.67
1490.43	1147.78
1492.61	1152
1494.78	1158.22
1496.96	1156.22
1499.13	1153.78
1501.31	1171.78
1503.48	1162.44
1505.65	1155.78
1507.82	1165.78
1509.99	1170.67
1512.16	1182
1514.33	1186.22
1516.5	1192.44
1518.67	1174.22
1520.84	1180.89
1523	1181.56
1525.17	1180.44
1527.34	1194
1529.5	1202.67
1531.66	1201.56
1533.83	1207.56
1535.99	1215.33
1538.15	1214
1540.31	1208
1542.47	1221.11
1544.63	1214.67
1546.79	1228.22
1548.95	1221.11
1551.11	1209.56
1553.27	1218.22
1555.42	1234
1557.58	1230.89
1559.73	1248.89
1561.89	1227.33
1564.04	1248.44
1566.2	1280.44
1568.35	1249.78
1570.5	1256.67
1572.65	1247.33
1574.8	1264
1576.95	1263.56
1579.1	1259.33
1581.25	1262.44
1583.4	1259.33
1585.55	1260.22
1587.69	1268.22
1589.84	1285.56
1591.99	1266.89
1594.13	1274.67
1596.27	1264.89
1598.42	1266
1600.56	1239.33
1602.7	1257.56
1604.84	1245.56
1606.98	1240.67
1609.12	1239.56
1611.26	1215.78
1613.4	1197.33
1615.54	1194.22
1617.68	1180.89
1619.81	1174.67
1621.95	1167.56
1624.08	1135.11
1626.22	1128.22
1628.35	1133.56
1630.49	1122.67
1632.62	1100.89
1634.75	1067.33
1636.88	1066
1639.01	1059.56
1641.14	1048.22
1643.27	1040
1645.4	1036.89
1647.53	1014.44
1649.66	1009.78
1651.79	996.444
1653.91	993.111
1656.04	993.111
1658.16	972
1660.29	977.111
1662.41	987.111
1664.53	973.111
1666.66	964.222
1668.78	962.667
1670.9	963.556
1673.02	968.667
1675.14	956
1677.26	950.889
1679.38	938
1681.49	942.222
1683.61	944.889
1685.73	946.222
1687.84	937.333
1689.96	938.667
1692.07	940
1694.19	946.889
1696.3	924.222
1698.41	937.778
1700.52	931.333
1702.64	931.111
1704.75	928
1706.86	914.667
1708.97	917.333
1711.07	913.333
1713.18	914
1715.29	918.444
1717.4	912.222
1719.5	911.111
1721.61	912.889
1723.71	908
1725.82	895.111
1727.92	897.778
1730.02	895.778
1732.12	885.333
1734.23	894.667
1736.33	886.889
1738.43	881.556
1740.53	885.333
1742.63	887.111
1744.72	873.778
1746.82	883.333
1748.92	865.778
1751.02	879.556
1753.11	859.333
1755.21	871.556
1757.3	880.444
1759.4	864.444
1761.49	851.556
1763.58	865.778
1765.67	863.333
1767.76	858.889
1769.86	867.333
1771.95	852.222
1774.03	844.222
1776.12	853.778
1778.21	842.667
1780.3	836.889
1782.39	849.333
1784.47	839.111
1786.56	838
1788.64	839.333
1790.73	842.444
1792.81	830.889
1794.89	844
1796.98	847.111
1799.06	838.444
1801.14	839.778
1803.22	846.444
1805.3	829.778
1807.38	841.556
1809.46	844.222
1811.54	833.111
1813.61	822
1815.69	815.556
1817.77	813.778
1819.84	830.444
1821.92	819.556
1823.99	820.444
1826.06	820.222
1828.14	808.667
1830.21	833.333
1832.28	814.445
1834.35	825.778
1836.42	822
1838.49	813.333
1840.56	814.667
1842.63	815.333
1844.7	800.444
1846.77	809.778
1848.83	805.111
1850.9	801.556
1852.96	800.889
1855.03	801.778
1857.09	780.889
1859.15	809.111
1861.22	805.556
1863.28	796.222
1865.34	797.333
1867.4	788.889
1869.46	792.889
1871.52	791.556
1873.58	782.667
1875.64	797.111
1877.7	794.444
1879.76	792
1881.81	786.222
1883.87	791.333
1885.92	780.444
1887.98	773.333
1890.03	799.111
1892.09	770.889
1894.14	766.667
1896.19	777.556
1898.24	790.444
1900.29	776.667
1902.34	778.444
1904.4	793.111
1906.44	784.222
1908.49	785.778
1910.54	771.333
1912.59	764
1914.63	771.778
1916.68	779.111
1918.73	768.444
1920.77	770.667
1922.81	763.333
1924.86	779.556
1926.9	770.667
1928.94	777.111
1930.99	764.444
1933.03	762.222
1935.07	775.333
1937.11	748.667
1939.15	763.778
1941.19	743.778
1943.22	748.444
1945.26	769.556
1947.3	746.222
1949.33	737.111
1951.37	756
1953.4	752.889
1955.44	748.444
1957.47	744.222
1959.51	734.444
1961.54	732.444
1963.57	748.889
1965.6	752.667
1967.63	741.556
1969.66	732.889
1971.69	733.333
1973.72	738
1975.75	729.333
1977.78	739.778
1979.8	730
1981.83	725.556
1983.86	725.778
1985.88	728.222
1987.91	721.778
1989.93	726.667
1991.95	729.556
1993.98	733.333
1996	722.222
1998.02	727.333
2000.04	735.333
2002.06	724.889
2004.08	731.111
2006.1	729.778
2008.12	718.222
2010.14	714.444
2012.15	723.111
2014.17	729.111
2016.19	710.667
2018.2	721.111
2020.22	704.889
2022.23	736.222
2024.25	717.111
2026.26	715.333
2028.27	718
2030.28	725.556
2032.29	717.556
2034.3	720.222
2036.32	717.111
2038.32	717.778
2040.33	712.222
2042.34	716.667
2044.35	703.556
2046.36	707.333
2048.36	706
2050.37	705.555
2052.37	706.667
2054.38	704.222
2056.38	709.778
2058.39	701.333
2060.39	694.444
2062.39	696
2064.39	698.889
2066.39	702.444
2068.39	696
2070.39	690
2072.39	698
2074.39	695.333
2076.39	693.333
2078.39	692
2080.39	699.333
2082.38	689.333
2084.38	689.111
2086.37	689.778
2088.37	684
2090.36	686.222
2092.35	690.222
2094.35	684.889
2096.34	676.889
2098.33	680.444
2100.32	681.555
2102.31	678.444
2104.3	672.222
2106.29	683.556
2108.28	690.667
2110.27	690
2112.25	682.667
2114.24	680.222
2116.23	694.667
2118.21	693.778
2120.2	690.889
2122.18	701.778
2124.17	703.333
2126.15	704
2128.13	716.222
2130.11	693.111
2132.09	699.556
2134.08	693.111
2136.06	686
2138.04	684.889
2140.02	683.778
2141.99	686.222
2143.97	689.111
2145.95	682.444
2147.93	684.222
2149.9	673.778
2151.88	689.333
2153.85	670.222
2155.83	678.889
2157.8	676.444
2159.77	673.555
2161.75	672.889
2163.72	677.111
2165.69	670.889
2167.66	675.556
2169.63	656.445
2171.6	663.333
2173.57	657.111
2175.54	657.556
2177.51	664.222
2179.47	655.333
2181.44	648.444
2183.41	664.222
2185.37	652.667
2187.34	654.667
2189.3	646
2191.27	647.556
2193.23	645.556
2195.19	645.556
2197.15	638.444
2199.11	636.889
2201.08	646.444
2203.04	629.778
2205	633.556
2206.96	634.222
2208.91	629.778
2210.87	638.222
2212.83	636.667
2214.79	628.222
2216.74	622.445
2218.7	633.556
2220.65	624
2222.61	614.222
2224.56	620.444
2226.52	622.444
2228.47	626.444
2230.42	617.111
2232.37	618.222
2234.32	616.444
2236.27	619.556
2238.22	616
2240.17	604.889
2242.12	614.222
2244.07	616.889
2246.02	601.778
2247.97	600.222
2249.91	603.556
2251.86	602.667
2253.8	601.778
2255.75	601.556
2257.69	589.111
2259.64	597.778
2261.58	597.556
2263.52	595.778
2265.46	589.111
2267.4	590.222
2269.35	575.111
2271.29	586.889
2273.23	588
2275.16	596.444
2277.1	585.556
2279.04	589.778
2280.98	584.889
2282.92	594
2284.85	574.222
2286.79	569.778
2288.72	580
2290.66	577.111
2292.59	565.111
2294.52	575.333
2296.46	564.889
2298.39	575.333
2300.32	573.556
2302.25	568.444
2304.18	576.667
2306.11	567.333
2308.04	565.556
2309.97	568.445
2311.9	566.667
2313.83	576
2315.75	565.333
2317.68	565.778
2319.61	572
2321.53	561.778
2323.46	556.222
2325.38	561.556
2327.3	566.889
2329.23	561.778
2331.15	559.111
2333.07	567.556
2334.99	559.333
2336.91	557.556
2338.83	559.778
2340.75	548.444
2342.67	551.333
2344.59	563.778
2346.51	544.222
2348.43	549.111
2350.35	554.889
2352.26	554.667
2354.18	537.555
2356.09	542
2358.01	543.111
2359.92	555.333
2361.83	547.778
2363.75	537.111
2365.66	543.556
2367.57	548.444
2369.48	533.778
2371.39	542.444
2373.31	548.222
2375.21	541.778
2377.12	536.444
2379.03	533.556
2380.94	532.889
2382.85	538.444
2384.76	533.111
2386.66	528.222
2388.57	523.778
2390.47	527.333
2392.38	528.889
2394.28	530.445
2396.18	519.333
2398.09	525.111
2399.99	529.778
2401.89	526.444
2403.79	534.667
2405.69	529.333
2407.59	520.667
2409.49	515.111
2411.39	530.444
2413.29	526.444
2415.19	526.667
2417.09	515.111
2418.98	522
2420.88	527.111
2422.78	506.889
2424.67	516
2426.57	522
2428.46	513.556
2430.35	513.333
2432.25	516.667
2434.14	503.111
2436.03	519.556
2437.92	500.222
2439.81	505.556
2441.7	512.889
2443.59	500.444
2445.48	502.889
2447.37	512
2449.26	505.556
2451.15	516.667
2453.03	507.111
