186.85	580.444
189.449	596.667
192.047	585.778
194.645	586.889
197.241	584.222
199.837	581.556
202.431	588
205.025	581.778
207.619	581.111
210.21	585.111
212.802	579.333
215.392	580.222
217.982	577.111
220.57	592.444
223.158	575.111
225.744	588.222
228.331	590.222
230.915	606.222
233.5	596.667
236.083	608
238.666	606.667
241.247	602.222
243.827	603.556
246.408	611.556
248.986	625.111
251.565	621.778
254.142	625.333
256.719	627.111
259.294	606.889
261.868	617.111
264.443	615.556
267.015	620.444
269.587	621.333
272.159	616.889
274.729	608.667
277.298	610.222
279.867	598.445
282.435	607.333
285.001	599.778
287.568	616
290.133	601.111
292.697	603.778
295.26	605.556
297.824	607.111
300.385	614.222
302.945	619.556
305.505	615.778
308.064	605.778
310.623	596.667
313.18	604.889
315.737	595.111
318.292	593.333
320.847	579.556
323.402	591.111
325.955	580
328.507	588.222
331.058	579.556
333.609	581.333
336.158	577.111
338.707	581.333
341.255	584.667
343.802	594.444
346.349	590.889
348.895	585.111
351.439	591.778
353.983	601.111
356.526	591.556
359.068	585.778
361.609	593.778
364.149	608.667
366.689	583.778
369.227	599.778
371.765	603.778
374.302	593.778
376.838	601.111
379.374	623.778
381.908	627.556
384.442	615.111
386.973	599.333
389.505	602
392.036	592.889
394.567	591.111
397.096	595.556
399.625	589.111
402.153	592
404.68	579.778
407.206	584.444
409.73	595.333
412.254	599.778
414.778	595.111
417.301	602.222
419.823	583.111
422.343	595.778
424.863	593.778
427.383	603.333
429.901	610.667
432.418	603.778
434.935	617.333
437.451	619.556
439.966	606
442.48	617.333
444.993	600
447.506	608.889
450.019	608
452.528	603.556
455.039	614.889
457.549	602.444
460.056	606
462.564	610.222
465.07	611.778
467.576	603.556
470.082	604.222
472.585	609.556
475.089	607.778
477.591	601.556
480.093	612.889
482.595	611.555
485.094	608
487.594	600.444
490.091	600.222
492.59	615.111
495.086	613.111
497.582	605.778
500.076	603.333
502.571	618
505.064	609.111
507.558	612
510.049	613.556
512.54	602
515.03	602
517.518	609.778
520.008	625.333
522.495	621.111
524.983	612.667
527.468	602.667
529.954	602
532.438	604.444
534.921	617.111
537.404	610
539.886	605.556
542.366	600
544.848	608.444
547.327	609.333
549.805	614.444
552.284	606.667
554.76	615.111
557.236	612
559.711	612.889
562.186	611.333
564.66	608
567.132	618
569.604	612.667
572.076	616.667
574.547	612
577.016	616.889
579.484	616.222
581.952	623.333
584.419	621.556
586.887	616.222
589.352	618.444
591.816	604.889
594.28	614.444
596.743	615.333
599.205	623.111
601.667	615.111
604.127	614.444
606.588	616
609.047	636
611.505	622
613.963	626.889
616.419	614.444
618.875	627.333
621.33	622
623.784	623.778
626.238	623.111
628.69	627.111
631.142	632.222
633.593	630.444
636.043	627.556
638.493	643.333
640.941	628.667
643.389	649.111
645.835	627.333
648.281	645.111
650.727	642
653.171	637.333
655.615	635.556
658.058	640.222
660.501	645.556
662.942	629.111
665.382	654
667.822	626.667
670.261	630
672.699	634.444
675.137	632.222
677.574	634
680.008	636.889
682.443	648
684.878	630.667
687.312	634.222
689.743	630.667
692.175	645.778
694.607	632.444
697.037	630.445
699.466	646.667
701.895	633.111
704.323	648
706.749	661.556
709.175	652.444
711.601	650.445
714.025	654.889
716.449	649.111
718.871	644.889
721.294	661.556
723.716	652.889
726.136	642.222
728.556	647.333
730.975	639.556
733.394	647.556
735.812	628.444
738.228	644.222
740.644	643.111
743.058	641.556
745.473	641.333
747.886	632.222
750.3	640.889
752.711	644.667
755.123	643.111
757.533	631.333
759.942	622.889
762.351	637.333
764.759	628
767.167	632.222
769.573	643.778
771.979	645.111
774.383	634.667
776.787	633.333
779.191	632.667
781.593	638.444
783.994	640.222
786.396	634.889
788.796	651.555
791.195	646.889
793.595	640.445
795.992	641.111
798.389	637.111
800.786	645.778
803.181	637.556
805.576	649.778
807.969	641.111
810.363	654
812.755	652.889
815.147	662
817.537	656.444
819.927	647.778
822.318	660
824.706	639.111
827.093	659.111
829.48	635.111
831.866	648.889
834.251	655.556
836.636	642.222
839.021	640.889
841.404	646.889
843.786	650
846.167	648.889
848.548	644.444
850.928	642.444
853.307	643.333
855.685	634.667
858.063	638.222
860.44	644.222
862.816	641.556
865.192	644
867.566	648.444
869.94	645.111
872.313	656.889
874.685	655.778
877.057	654.889
879.428	667.556
881.798	644.889
884.167	654.222
886.536	654.222
888.902	656.444
891.269	658
893.636	647.111
896.001	642.222
898.366	658
900.73	658.889
903.094	651.111
905.455	640
907.817	646
910.178	644.444
912.538	647.111
914.898	636.667
917.255	635.556
919.613	658.444
921.971	639.333
924.327	637.333
926.682	642.444
929.037	629.333
931.391	645.333
933.744	638
936.096	640.445
938.449	638.667
940.799	642.889
943.149	628.444
945.499	644.445
947.847	638.444
950.195	633.556
952.542	638.667
954.889	634
957.235	628.667
959.579	648.444
961.924	638.222
964.266	633.778
966.609	642.889
968.951	625.778
971.292	638
973.632	634.667
975.972	634.667
978.31	640.444
980.649	648.889
982.986	649.778
985.323	648.444
987.659	656
989.994	649.778
992.328	651.333
994.662	662
996.995	667.111
999.326	662.889
1001.66	668.222
1003.99	668.667
1006.32	656.667
1008.65	655.778
1010.98	658
1013.3	657.111
1015.63	646
1017.96	651.778
1020.28	661.556
1022.61	641.556
1024.93	642.222
1027.25	649.778
1029.58	652.222
1031.9	662.444
1034.22	657.333
1036.54	650.667
1038.86	652
1041.18	646.889
1043.49	652.222
1045.81	647.556
1048.13	659.111
1050.44	655.778
1052.76	653.111
1055.07	651.556
1057.39	659.556
1059.7	663.111
1062.01	664
1064.32	664.222
1066.63	670.889
1068.94	698.889
1071.25	694.889
1073.56	712
1075.87	690.889
1078.17	696.667
1080.48	687.333
1082.79	696
1085.09	685.333
1087.39	674.889
1089.7	704.667
1092	715.111
1094.3	730
1096.6	746
1098.9	735.556
1101.2	737.111
1103.5	692.889
1105.8	697.778
1108.1	700.889
1110.39	693.111
1112.69	711.333
1114.98	706.889
1117.28	707.111
1119.57	721.778
1121.86	718.222
1124.16	715.556
1126.45	719.111
1128.74	715.778
1131.03	696.667
1133.32	705.556
1135.61	702.667
1137.89	685.778
1140.18	681.111
1142.47	667.778
1144.75	695.556
1147.04	705.333
1149.32	701.111
1151.61	700.889
1153.89	706.222
1156.17	692.889
1158.45	692.444
1160.73	692
1163.01	691.556
1165.29	692.667
1167.57	697.556
1169.85	685.778
1172.12	691.333
1174.4	688
1176.68	705.111
1178.95	702
1181.22	699.333
1183.5	693.333
1185.77	680.667
1188.04	694.889
1190.31	689.111
1192.58	689.333
1194.85	690.889
1197.12	697.111
1199.39	677.778
1201.66	678.667
1203.92	688.222
1206.19	681.556
1208.45	695.778
1210.72	677.778
1212.98	690.667
1215.25	691.556
1217.51	699.556
1219.77	706.222
1222.03	695.778
1224.29	704.222
1226.55	706.667
1228.81	711.111
1231.07	707.111
1233.33	715.556
1235.58	726.667
1237.84	718.889
1240.09	713.111
1242.35	726.667
1244.6	718.667
1246.86	715.333
1249.11	721.333
1251.36	723.556
1253.61	737.111
1255.86	723.111
1258.11	732.444
1260.36	723.111
1262.61	743.555
1264.86	725.556
1267.1	726
1269.35	727.111
1271.6	721.556
1273.84	743.333
1276.08	735.333
1278.33	730
1280.57	724.222
1282.81	722.444
1285.05	729.778
1287.29	712
1289.53	729.556
1291.77	726.444
1294.01	736.667
1296.25	738.667
1298.48	732.222
1300.72	723.556
1302.96	726.889
1305.19	729.333
1307.42	722
1309.66	725.111
1311.89	719.111
1314.12	732.889
1316.35	725.333
1318.58	722.444
1320.81	723.333
1323.04	718.222
1325.27	717.556
1327.5	708
1329.73	733.556
1331.95	726.222
1334.18	734.222
1336.4	709.556
1338.63	725.111
1340.85	708.444
1343.08	716
1345.3	719.333
1347.52	714.222
1349.74	707.778
1351.96	704.667
1354.18	719.556
1356.4	713.333
1358.61	711.111
1360.83	713.556
1363.05	718.222
1365.27	718.444
1367.48	719.111
1369.69	714.444
1371.91	709.778
1374.12	716.444
1376.33	731.333
1378.55	721.778
1380.76	708.889
1382.97	723.556
1385.18	701.333
1387.39	702.889
1389.59	710.444
1391.8	699.333
1394.01	700.222
1396.21	680.667
1398.42	688.889
1400.63	682.667
1402.83	701.778
1405.03	694.444
1407.24	687.778
1409.44	699.333
1411.64	688.444
1413.84	695.111
1416.04	682.445
1418.24	687.778
1420.44	689.555
1422.64	680.667
1424.83	679.778
1427.03	678.222
1429.23	671.111
1431.42	692.222
1433.62	681.556
1435.81	688
1438	693.333
1440.19	688.222
1442.39	702.889
1444.58	688
1446.77	708.667
1448.96	692.667
1451.15	683.111
1453.34	684
1455.52	705.111
1457.71	698.667
1459.9	701.111
1462.08	702.222
1464.27	693.778
1466.45	686.889
1468.64	698.889
1470.82	689.111
1473	693.333
1475.18	708.889
1477.36	690.889
1479.54	691.111
1481.72	701.111
1483.9	699.778
1486.08	686.444
1488.26	690.444
1490.43	693.333
1492.61	677.778
1494.78	694.444
1496.96	696
1499.13	698
1501.31	690.222
1503.48	705.556
1505.65	700.444
1507.82	707.111
1509.99	713.778
1512.16	699.111
1514.33	698.444
1516.5	719.333
1518.67	716.444
1520.84	726.667
1523	724.444
1525.17	736
1527.34	719.778
1529.5	734.667
1531.66	732.444
1533.83	722.222
1535.99	735.333
1538.15	742.667
1540.31	734.889
1542.47	742
1544.63	755.111
1546.79	747.556
1548.95	754.445
1551.11	752.667
1553.27	759.333
1555.42	757.778
1557.58	764
1559.73	766
1561.89	786
1564.04	778.444
1566.2	782
1568.35	780.889
1570.5	798.222
1572.65	793.333
1574.8	804.667
1576.95	814.445
1579.1	824.667
1581.25	819.556
1583.4	830
1585.55	825.556
1587.69	826.222
1589.84	796.444
1591.99	810.667
1594.13	803.333
1596.27	788.667
1598.42	797.556
1600.56	787.778
1602.7	795.556
1604.84	793.778
1606.98	782.444
1609.12	774.667
1611.26	758.667
1613.4	758
1615.54	757.333
1617.68	740
1619.81	737.556
1621.95	719.778
1624.08	726.444
1626.22	713.111
1628.35	696
1630.49	696.889
1632.62	688.222
1634.75	670.444
1636.88	673.111
1639.01	654.889
1641.14	657.111
1643.27	645.778
1645.4	654.889
1647.53	640
1649.66	638.444
1651.79	631.333
1653.91	616
1656.04	615.333
1658.16	618.444
1660.29	596.444
1662.41	612.667
1664.53	602
1666.66	606.444
1668.78	598.444
1670.9	588.444
1673.02	595.111
1675.14	601.333
1677.26	600
1679.38	582.667
1681.49	586.222
1683.61	589.778
1685.73	575.778
1687.84	584.889
1689.96	584.222
1692.07	566.444
1694.19	567.555
1696.3	577.778
1698.41	577.111
1700.52	569.778
1702.64	566.889
1704.75	573.111
1706.86	563.111
1708.97	560.667
1711.07	553.333
1713.18	557.333
1715.29	556.667
1717.4	556
1719.5	550.889
1721.61	558.222
1723.71	549.556
1725.82	554
1727.92	538.444
1730.02	554.667
1732.12	547.111
1734.23	544.889
1736.33	541.778
1738.43	534.889
1740.53	547.333
1742.63	549.556
1744.72	542.667
1746.82	533.556
1748.92	548.444
1751.02	533.111
1753.11	532.444
1755.21	523.333
1757.3	521.333
1759.4	531.111
1761.49	525.111
1763.58	530.444
1765.67	517.111
1767.76	521.111
1769.86	529.111
1771.95	515.778
1774.03	516.667
1776.12	518.667
1778.21	515.111
1780.3	518
1782.39	521.333
1784.47	512.444
1786.56	508.444
1788.64	519.556
1790.73	508.667
1792.81	516
1794.89	516.222
1796.98	510.889
1799.06	504.889
1801.14	508.222
1803.22	510
1805.3	507.778
1807.38	504.222
1809.46	513.555
1811.54	512.444
1813.61	508.444
1815.69	499.111
1817.77	512.889
1819.84	508.889
1821.92	491.111
1823.99	506
1826.06	495.111
1828.14	500.444
1830.21	507.111
1832.28	495.111
1834.35	494.889
1836.42	494.889
1838.49	490.222
1840.56	488.444
1842.63	496.889
1844.7	491.778
1846.77	495.778
1848.83	491.111
1850.9	496.222
1852.96	494
1855.03	478.444
1857.09	483.111
1859.15	481.778
1861.22	474.889
1863.28	480
1865.34	478.667
1867.4	487.111
1869.46	476.222
1871.52	486
1873.58	490.444
1875.64	473.111
1877.7	481.111
1879.76	482.222
1881.81	482.889
1883.87	475.778
1885.92	474.444
1887.98	476.889
1890.03	474.444
1892.09	478.889
1894.14	470.667
1896.19	457.333
1898.24	485.333
1900.29	474.667
1902.34	474.444
1904.4	481.111
1906.44	474.444
1908.49	475.333
1910.54	478
1912.59	480.889
1914.63	472
1916.68	462.444
1918.73	476
1920.77	462.889
1922.81	470
1924.86	467.556
1926.9	461.333
1928.94	473.556
1930.99	474.222
1933.03	469.778
1935.07	462.889
1937.11	457.111
1939.15	464.889
1941.19	471.778
1943.22	469.778
1945.26	457.111
1947.3	450
1949.33	462.889
1951.37	460.667
1953.4	449.333
1955.44	459.111
1957.47	449.333
1959.51	461.111
1961.54	449.111
1963.57	446.667
1965.6	451.111
1967.63	461.111
1969.66	454.444
1971.69	460.889
1973.72	450.667
1975.75	456.444
1977.78	445.778
1979.8	442
1981.83	440.444
1983.86	449.778
1985.88	457.333
1987.91	442.889
1989.93	446
1991.95	439.333
1993.98	450
1996	449.111
1998.02	440.444
2000.04	447.111
2002.06	440.444
2004.08	437.111
2006.1	445.556
2008.12	441.333
2010.14	436.667
2012.15	445.556
2014.17	442
2016.19	445.333
2018.2	440.222
2020.22	435.111
2022.23	435.778
2024.25	439.556
2026.26	445.333
2028.27	438.444
2030.28	442.444
2032.29	442
2034.3	448.667
2036.32	443.556
2038.32	442
2040.33	433.556
2042.34	431.333
2044.35	437.111
2046.36	430.667
2048.36	423.111
2050.37	434.889
2052.37	436
2054.38	432.667
2056.38	428.667
2058.39	430.222
2060.39	427.778
2062.39	431.111
2064.39	433.333
2066.39	422.667
2068.39	423.778
2070.39	423.778
2072.39	427.556
2074.39	422.889
2076.39	416.889
2078.39	433.778
2080.39	428.222
2082.38	424
2084.38	416.222
2086.37	413.111
2088.37	422.444
2090.36	426.222
2092.35	421.333
2094.35	426.889
2096.34	416.444
2098.33	413.556
2100.32	420.222
2102.31	411.111
2104.3	424.222
2106.29	421.778
2108.28	412.667
2110.27	415.778
2112.25	416.889
2114.24	420
2116.23	420
2118.21	432.222
2120.2	424.222
2122.18	428
2124.17	436.667
2126.15	438.889
2128.13	428
2130.11	436
2132.09	422
2134.08	431.333
2136.06	422
2138.04	426
2140.02	421.111
2141.99	431.778
2143.97	420
2145.95	422
2147.93	411.556
2149.9	422.222
2151.88	417.111
2153.85	406
2155.83	418.444
2157.8	415.111
2159.77	409.333
2161.75	408.222
2163.72	414
2165.69	406.222
2167.66	407.111
2169.63	409.556
2171.6	402.222
2173.57	409.333
2175.54	402.444
2177.51	409.556
2179.47	395.333
2181.44	393.556
2183.41	400
2185.37	403.556
2187.34	396.889
2189.3	392.444
2191.27	384.444
2193.23	390.889
2195.19	380.444
2197.15	401.778
2199.11	390.222
2201.08	389.111
2203.04	391.333
2205	389.333
2206.96	387.556
2208.91	395.111
2210.87	394.444
2212.83	382
2214.79	390
2216.74	381.556
2218.7	390.667
2220.65	394.667
2222.61	394.889
2224.56	394.222
2226.52	400.889
2228.47	398.222
2230.42	389.778
2232.37	377.111
2234.32	390.444
2236.27	388.444
2238.22	381.556
2240.17	378
2242.12	378.889
2244.07	377.778
2246.02	370.222
2247.97	372
2249.91	372.444
2251.86	371.111
2253.8	367.778
2255.75	373.111
2257.69	369.111
2259.64	365.111
2261.58	366.667
2263.52	373.556
2265.46	375.778
2267.4	371.556
2269.35	362.889
2271.29	360.444
2273.23	364.222
2275.16	362
2277.1	358.667
2279.04	358.222
2280.98	360.889
2282.92	363.556
2284.85	361.333
2286.79	359.333
2288.72	353.556
2290.66	358.222
2292.59	355.333
2294.52	357.111
2296.46	355.778
2298.39	358.889
2300.32	356
2302.25	350.667
2304.18	358.889
2306.11	357.333
2308.04	357.778
2309.97	356.222
2311.9	349.778
2313.83	354.667
2315.75	348.444
2317.68	349.778
2319.61	346.444
2321.53	354.889
2323.46	346.222
2325.38	354.667
2327.3	348.222
2329.23	350
2331.15	348.889
2333.07	340.889
2334.99	342
2336.91	348
2338.83	348.222
2340.75	349.111
2342.67	345.111
2344.59	345.111
2346.51	338
2348.43	337.778
2350.35	336.889
2352.26	342.222
2354.18	337.111
2356.09	330.889
2358.01	341.111
2359.92	336.667
2361.83	337.111
2363.75	338.444
2365.66	335.333
2367.57	330.444
2369.48	339.333
2371.39	333.778
2373.31	344
2375.21	338.667
2377.12	332.444
2379.03	343.333
2380.94	335.111
2382.85	335.556
2384.76	330.889
2386.66	340.222
2388.57	334.667
2390.47	326.889
2392.38	332
2394.28	330.444
2396.18	327.111
2398.09	330
2399.99	330.889
2401.89	323.333
2403.79	331.778
2405.69	325.111
2407.59	330
2409.49	321.333
2411.39	324
2413.29	324.889
2415.19	332.889
2417.09	329.333
2418.98	325.333
2420.88	317.333
2422.78	318.222
2424.67	325.556
2426.57	323.556
2428.46	323.333
2430.35	319.556
2432.25	324
2434.14	316.667
2436.03	322.889
2437.92	325.556
2439.81	317.556
2441.7	316.667
2443.59	321.111
2445.48	310.667
2447.37	320.222
2449.26	316.889
2451.15	322.667
2453.03	320.889
