186.85	500.889
189.449	519.333
192.047	506.889
194.645	506.222
197.241	504.444
199.837	500.889
202.431	510
205.025	505.778
207.619	512
210.21	499.111
212.802	506.222
215.392	508.222
217.982	505.556
220.57	502.444
223.158	513.333
225.744	515.778
228.331	514
230.915	525.778
233.5	522
236.083	525.778
238.666	517.111
241.247	536.667
243.827	534.222
246.408	527.556
248.986	538.889
251.565	527.333
254.142	534.444
256.719	536
259.294	534.667
261.868	526.667
264.443	536.444
267.015	546
269.587	523.111
272.159	531.111
274.729	530.444
277.298	537.111
279.867	514
282.435	528.444
285.001	518.889
287.568	526.444
290.133	528
292.697	516.222
295.26	536
297.824	517.111
300.385	530.667
302.945	540.667
305.505	542.222
308.064	524.889
310.623	533.111
313.18	528.889
315.737	517.111
318.292	515.778
320.847	513.111
323.402	519.111
325.955	520.222
328.507	521.778
331.058	513.778
333.609	536.222
336.158	517.556
338.707	512.667
341.255	522.444
343.802	514.889
346.349	525.333
348.895	531.111
351.439	525.111
353.983	532.222
356.526	521.333
359.068	523.778
361.609	526.444
364.149	522.667
366.689	522
369.227	532.444
371.765	525.333
374.302	528.889
376.838	550
379.374	540.222
381.908	551.778
384.442	547.778
386.973	528.445
389.505	519.111
392.036	520.222
394.567	525.111
397.096	517.111
399.625	523.111
402.153	530.222
404.68	526
407.206	521.333
409.73	524.222
412.254	517.778
414.778	522.889
417.301	518.222
419.823	533.556
422.343	532.444
424.863	522.667
427.383	534
429.901	524.444
432.418	537.111
434.935	544.667
437.451	547.333
439.966	546.222
442.48	530.444
444.993	533.333
447.506	534.667
450.019	529.556
452.528	537.111
455.039	540
457.549	532
460.056	539.333
462.564	538.667
465.07	541.333
467.576	528.667
470.082	522.444
472.585	525.111
475.089	536.889
477.591	526.667
480.093	522
482.595	535.333
485.094	527.333
487.594	528.444
490.091	535.333
492.59	536.222
495.086	535.778
497.582	528.444
500.076	537.556
502.571	533.333
505.064	527.333
507.558	522.889
510.049	535.333
512.54	526.889
515.03	537.556
517.518	540.222
520.008	537.778
522.495	540.667
524.983	532.667
527.468	532.222
529.954	523.333
532.438	531.778
534.921	527.111
537.404	532
539.886	528.667
542.366	529.333
544.848	537.111
547.327	528.222
549.805	550.444
552.284	540
554.76	529.778
557.236	540.444
559.711	539.333
562.186	530.667
564.66	539.333
567.132	532.222
569.604	536.667
572.076	544.444
574.547	536.222
577.016	536.889
579.484	545.111
581.952	551.778
584.419	546.444
586.887	537.778
589.352	534.667
591.816	534
594.28	536.667
596.743	540.889
599.205	547.556
601.667	538.667
604.127	537.333
606.588	542.444
609.047	539.778
611.505	548
613.963	543.556
616.419	543.778
618.875	535.111
621.33	554
623.784	558.444
626.238	540.889
628.69	545.556
631.142	549.778
633.593	547.556
636.043	549.111
638.493	555.556
640.941	548.667
643.389	561.111
645.835	547.111
648.281	548.444
650.727	545.556
653.171	542
655.615	550.444
658.058	556.889
660.501	544.444
662.942	539.111
665.382	557.111
667.822	551.556
670.261	540.889
672.699	554.222
675.137	551.556
677.574	544.444
680.008	549.333
682.443	557.778
684.878	553.111
687.312	552
689.743	555.778
692.175	553.778
694.607	552.889
697.037	550
699.466	556.889
701.895	560.444
704.323	548.667
706.749	562.222
709.175	552
711.601	564.444
714.025	563.111
716.449	560
718.871	557.556
721.294	557.778
723.716	560.222
726.136	560
728.556	559.333
730.975	550
733.394	544.445
735.812	552.667
738.228	542.222
740.644	547.333
743.058	548
745.473	542.667
747.886	537.778
750.3	539.556
752.711	542
755.123	549.778
757.533	535.556
759.942	538
762.351	548.444
764.759	546
767.167	545.555
769.573	551.333
771.979	533.778
774.383	552
776.787	547.333
779.191	549.778
781.593	549.778
783.994	547.556
786.396	546.444
788.796	544
791.195	560.222
793.595	556
795.992	552.444
798.389	565.778
800.786	558.667
803.181	551.111
805.576	554
807.969	558.222
810.363	549.111
812.755	555.778
815.147	551.111
817.537	561.111
819.927	562.889
822.318	547.778
824.706	555.778
827.093	551.778
829.48	550.889
831.866	552.667
834.251	548.222
836.636	566
839.021	545.333
841.404	551.111
843.786	560.222
846.167	547.556
848.548	546.889
850.928	557.556
853.307	553.778
855.685	565.333
858.063	552.667
860.44	561.556
862.816	566.444
865.192	561.556
867.566	547.556
869.94	560.222
872.313	549.333
874.685	557.333
877.057	564.222
879.428	560
881.798	560
884.167	551.778
886.536	561.556
888.902	556.667
891.269	566
893.636	564
896.001	569.333
898.366	555.556
900.73	561.333
903.094	564.667
905.455	544.444
907.817	555.111
910.178	557.556
912.538	562.445
914.898	546.667
917.255	546.222
919.613	545.556
921.971	541.778
924.327	551.778
926.682	539.778
929.037	542.889
931.391	551.111
933.744	538.889
936.096	542.667
938.449	540.445
940.799	547.555
943.149	540.222
945.499	548.445
947.847	542.444
950.195	548.667
952.542	543.111
954.889	554.444
957.235	545.333
959.579	545.333
961.924	552.222
964.266	547.778
966.609	554.222
968.951	554.222
971.292	553.778
973.632	551.556
975.972	545.778
978.31	549.111
980.649	551.333
982.986	550.222
985.323	548
987.659	551.556
989.994	552.889
992.328	563.778
994.662	558
996.995	568.667
999.326	562.889
1001.66	563.333
1003.99	571.778
1006.32	557.556
1008.65	558.889
1010.98	554.667
1013.3	559.556
1015.63	567.778
1017.96	555.111
1020.28	558.889
1022.61	562.222
1024.93	556
1027.25	564
1029.58	550.889
1031.9	552.667
1034.22	562.444
1036.54	544.889
1038.86	549.333
1041.18	555.333
1043.49	556.444
1045.81	551.111
1048.13	554.889
1050.44	557.556
1052.76	562.444
1055.07	568.889
1057.39	556.222
1059.7	571.333
1062.01	576.222
1064.32	580
1066.63	571.333
1068.94	590.445
1071.25	600.222
1073.56	597.556
1075.87	594.889
1078.17	591.111
1080.48	579.778
1082.79	587.556
1085.09	595.333
1087.39	595.556
1089.7	589.556
1092	609.778
1094.3	613.778
1096.6	623.778
1098.9	635.111
1101.2	604
1103.5	599.111
1105.8	598.444
1108.1	589.333
1110.39	595.556
1112.69	602.222
1114.98	598.445
1117.28	614.889
1119.57	611.556
1121.86	612.667
1124.16	607.555
1126.45	619.111
1128.74	605.111
1131.03	601.778
1133.32	602.222
1135.61	581.778
1137.89	578.889
1140.18	601.333
1142.47	579.556
1144.75	582.667
1147.04	587.333
1149.32	595.333
1151.61	586.667
1153.89	587.778
1156.17	597.111
1158.45	581.111
1160.73	586.444
1163.01	591.333
1165.29	576.444
1167.57	579.111
1169.85	583.556
1172.12	580.667
1174.4	576
1176.68	580.222
1178.95	584.444
1181.22	579.778
1183.5	577.111
1185.77	569.333
1188.04	580.667
1190.31	577.333
1192.58	576.667
1194.85	572.889
1197.12	572.222
1199.39	579.556
1201.66	568.222
1203.92	586.222
1206.19	582
1208.45	582.889
1210.72	580
1212.98	592
1215.25	586.889
1217.51	589.556
1219.77	590.444
1222.03	580
1224.29	594.444
1226.55	588.222
1228.81	588.889
1231.07	599.778
1233.33	582.667
1235.58	583.111
1237.84	593.333
1240.09	602.889
1242.35	603.556
1244.6	598.222
1246.86	595.333
1249.11	605.556
1251.36	610.889
1253.61	604
1255.86	605.778
1258.11	606.889
1260.36	606.222
1262.61	602.889
1264.86	596.222
1267.1	605.111
1269.35	600
1271.6	607.111
1273.84	602
1276.08	593.778
1278.33	605.556
1280.57	609.556
1282.81	592
1285.05	606
1287.29	604.889
1289.53	592.444
1291.77	604.222
1294.01	614.889
1296.25	595.778
1298.48	598.222
1300.72	598
1302.96	602
1305.19	608.222
1307.42	597.556
1309.66	605.556
1311.89	597.778
1314.12	608.444
1316.35	608
1318.58	598.889
1320.81	610.667
1323.04	609.778
1325.27	627.778
1327.5	607.556
1329.73	598.667
1331.95	616
1334.18	615.333
1336.4	613.333
1338.63	619.556
1340.85	627.111
1343.08	627.111
1345.3	605.778
1347.52	602.222
1349.74	594.889
1351.96	601.111
1354.18	599.111
1356.4	609.111
1358.61	608.222
1360.83	616
1363.05	615.778
1365.27	620.889
1367.48	604.667
1369.69	609.111
1371.91	609.778
1374.12	627.111
1376.33	626
1378.55	621.556
1380.76	618.889
1382.97	617.556
1385.18	616.222
1387.39	614.889
1389.59	602.667
1391.8	593.333
1394.01	593.111
1396.21	596
1398.42	594.889
1400.63	577.556
1402.83	588.889
1405.03	584.222
1407.24	583.556
1409.44	584.222
1411.64	586.667
1413.84	591.111
1416.04	576.444
1418.24	584.667
1420.44	583.778
1422.64	580.667
1424.83	580.889
1427.03	581.778
1429.23	590.667
1431.42	587.778
1433.62	579.333
1435.81	586
1438	581.111
1440.19	597.333
1442.39	592.222
1444.58	579.778
1446.77	603.111
1448.96	601.556
1451.15	598.667
1453.34	592.222
1455.52	603.556
1457.71	592.889
1459.9	608.889
1462.08	598.667
1464.27	612.667
1466.45	599.333
1468.64	604.444
1470.82	590.667
1473	591.778
1475.18	597.556
1477.36	606.222
1479.54	591.111
1481.72	588.222
1483.9	595.111
1486.08	588.444
1488.26	610.667
1490.43	596.222
1492.61	590.222
1494.78	595.555
1496.96	606.222
1499.13	605.111
1501.31	603.778
1503.48	600.444
1505.65	607.333
1507.82	604.222
1509.99	615.111
1512.16	614.889
1514.33	612.889
1516.5	624.667
1518.67	609.556
1520.84	620.444
1523	617.333
1525.17	634.444
1527.34	616
1529.5	632.222
1531.66	636.667
1533.83	635.556
1535.99	644
1538.15	626.667
1540.31	636.667
1542.47	647.333
1544.63	655.556
1546.79	639.556
1548.95	640
1551.11	646.889
1553.27	634.667
1555.42	641.111
1557.58	661.111
1559.73	647.556
1561.89	662
1564.04	665.556
1566.2	662.889
1568.35	658.222
1570.5	663.333
1572.65	664
1574.8	668.444
1576.95	680.444
1579.1	689.778
1581.25	701.778
1583.4	689.333
1585.55	697.111
1587.69	692
1589.84	679.778
1591.99	681.333
1594.13	686.222
1596.27	673.333
1598.42	670.444
1600.56	653.111
1602.7	673.556
1604.84	658.667
1606.98	649.111
1609.12	656
1611.26	648.667
1613.4	639.333
1615.54	619.111
1617.68	626.889
1619.81	598.889
1621.95	597.778
1624.08	610
1626.22	593.333
1628.35	599.111
1630.49	592.445
1632.62	583.556
1634.75	568.444
1636.88	571.333
1639.01	583.556
1641.14	565.778
1643.27	546.667
1645.4	560.222
1647.53	544.889
1649.66	542.444
1651.79	531.333
1653.91	526
1656.04	537.556
1658.16	531.778
1660.29	524.444
1662.41	522.667
1664.53	512.445
1666.66	516.444
1668.78	513.111
1670.9	517.778
1673.02	512.222
1675.14	514.667
1677.26	509.778
1679.38	510.444
1681.49	498.667
1683.61	498.889
1685.73	491.556
1687.84	494.667
1689.96	496.889
1692.07	502.667
1694.19	496
1696.3	489.333
1698.41	490
1700.52	498.667
1702.64	496.222
1704.75	483.556
1706.86	489.333
1708.97	482.667
1711.07	499.333
1713.18	472.222
1715.29	485.556
1717.4	483.556
1719.5	484.889
1721.61	480.667
1723.71	480.889
1725.82	480.889
1727.92	471.556
1730.02	470.889
1732.12	472.889
1734.23	477.778
1736.33	466.667
1738.43	464
1740.53	471.556
1742.63	472
1744.72	466.889
1746.82	467.556
1748.92	472.444
1751.02	471.556
1753.11	471.333
1755.21	465.778
1757.3	461.111
1759.4	462.444
1761.49	454.444
1763.58	473.556
1765.67	467.333
1767.76	450.889
1769.86	457.778
1771.95	463.556
1774.03	461.778
1776.12	452.222
1778.21	464.444
1780.3	452
1782.39	455.778
1784.47	452.222
1786.56	458.889
1788.64	449.111
1790.73	453.111
1792.81	454.222
1794.89	458.222
1796.98	459.778
1799.06	460
1801.14	442
1803.22	447.556
1805.3	452.444
1807.38	444
1809.46	445.333
1811.54	450.667
1813.61	440.667
1815.69	444.889
1817.77	450.667
1819.84	443.778
1821.92	445.556
1823.99	448.444
1826.06	447.778
1828.14	437.333
1830.21	435.333
1832.28	440
1834.35	439.556
1836.42	437.111
1838.49	437.333
1840.56	444.222
1842.63	425.778
1844.7	430
1846.77	427.111
1848.83	434.667
1850.9	427.778
1852.96	433.333
1855.03	422.444
1857.09	424
1859.15	418.222
1861.22	431.333
1863.28	432.889
1865.34	426.222
1867.4	428.222
1869.46	420.444
1871.52	431.333
1873.58	430.444
1875.64	429.333
1877.7	432
1879.76	427.778
1881.81	418.222
1883.87	421.778
1885.92	430
1887.98	417.333
1890.03	424.444
1892.09	424
1894.14	415.333
1896.19	417.778
1898.24	417.556
1900.29	416.444
1902.34	420
1904.4	416.667
1906.44	424.444
1908.49	424.444
1910.54	420.667
1912.59	420
1914.63	419.111
1916.68	412.444
1918.73	416.222
1920.77	419.111
1922.81	419.556
1924.86	412.889
1926.9	416.444
1928.94	419.333
1930.99	419.333
1933.03	407.778
1935.07	411.556
1937.11	409.556
1939.15	416
1941.19	408.444
1943.22	413.111
1945.26	408.889
1947.3	404.444
1949.33	398.667
1951.37	410
1953.4	408.222
1955.44	401.556
1957.47	402
1959.51	404.444
1961.54	406
1963.57	398.667
1965.6	397.333
1967.63	396.444
1969.66	402.889
1971.69	400.667
1973.72	390.222
1975.75	405.556
1977.78	409.111
1979.8	401.333
1981.83	397.111
1983.86	397.556
1985.88	394.444
1987.91	389.778
1989.93	399.556
1991.95	396.222
1993.98	389.333
1996	393.556
1998.02	394
2000.04	400.667
2002.06	406.667
2004.08	399.556
2006.1	391.111
2008.12	403.556
2010.14	395.111
2012.15	398
2014.17	387.333
2016.19	394
2018.2	388.222
2020.22	396
2022.23	394
2024.25	393.778
2026.26	390.889
2028.27	391.111
2030.28	403.111
2032.29	401.556
2034.3	390.667
2036.32	385.556
2038.32	389.333
2040.33	386.444
2042.34	390.889
2044.35	392.222
2046.36	389.778
2048.36	394
2050.37	383.556
2052.37	385.556
2054.38	387.333
2056.38	382
2058.39	378.444
2060.39	378.667
2062.39	380.889
2064.39	366.889
2066.39	387.111
2068.39	380.667
2070.39	391.556
2072.39	379.333
2074.39	385.333
2076.39	377.778
2078.39	376.444
2080.39	385.333
2082.38	378.222
2084.38	375.556
2086.37	387.333
2088.37	376.444
2090.36	381.778
2092.35	380.222
2094.35	372.222
2096.34	368.667
2098.33	378
2100.32	379.333
2102.31	365.111
2104.3	366.889
2106.29	378.222
2108.28	369.111
2110.27	374
2112.25	377.111
2114.24	374.667
2116.23	370
2118.21	379.556
2120.2	379.778
2122.18	377.556
2124.17	380.222
2126.15	383.333
2128.13	382.222
2130.11	387.111
2132.09	385.778
2134.08	384
2136.06	385.333
2138.04	381.333
2140.02	377.556
2141.99	373.333
2143.97	377.778
2145.95	373.333
2147.93	368.889
2149.9	375.333
2151.88	373.333
2153.85	367.333
2155.83	370.222
2157.8	369.111
2159.77	364.444
2161.75	366
2163.72	368.667
2165.69	359.111
2167.66	356.667
2169.63	360.222
2171.6	358.222
2173.57	363.333
2175.54	367.333
2177.51	356.222
2179.47	367.333
2181.44	357.778
2183.41	359.778
2185.37	358.222
2187.34	352.222
2189.3	355.556
2191.27	357.778
2193.23	349.111
2195.19	353.778
2197.15	348.222
2199.11	356.667
2201.08	350.667
2203.04	352.222
2205	350.889
2206.96	354.444
2208.91	353.556
2210.87	350.444
2212.83	352.444
2214.79	352.444
2216.74	355.111
2218.7	361.778
2220.65	358.667
2222.61	356.222
2224.56	363.778
2226.52	363.778
2228.47	347.111
2230.42	355.111
2232.37	355.111
2234.32	342.667
2236.27	353.778
2238.22	341.111
2240.17	341.333
2242.12	340
2244.07	337.778
2246.02	345.556
2247.97	341.333
2249.91	332.667
2251.86	341.556
2253.8	338.444
2255.75	338.889
2257.69	326
2259.64	325.778
2261.58	336.889
2263.52	334.667
2265.46	336
2267.4	330
2269.35	337.556
2271.29	332.222
2273.23	325.556
2275.16	335.111
2277.1	329.333
2279.04	324.667
2280.98	338
2282.92	327.778
2284.85	326.222
2286.79	316.222
2288.72	319.556
2290.66	318.889
2292.59	323.111
2294.52	326.222
2296.46	312.889
2298.39	318.667
2300.32	316.667
2302.25	309.333
2304.18	318
2306.11	308.889
2308.04	315.111
2309.97	324.222
2311.9	319.778
2313.83	323.333
2315.75	314.222
2317.68	309.333
2319.61	309.333
2321.53	314
2323.46	312
2325.38	313.111
2327.3	315.778
2329.23	318.889
2331.15	311.556
2333.07	313.333
2334.99	311.556
2336.91	314.222
2338.83	309.556
2340.75	310.444
2342.67	318
2344.59	308.889
2346.51	310.667
2348.43	307.778
2350.35	301.556
2352.26	311.778
2354.18	308
2356.09	302
2358.01	310.889
2359.92	310
2361.83	304
2363.75	304.222
2365.66	306
2367.57	299.111
2369.48	308.667
2371.39	297.778
2373.31	304
2375.21	308.222
2377.12	297.778
2379.03	300
2380.94	300.889
2382.85	298.889
2384.76	302
2386.66	306.444
2388.57	303.333
2390.47	302.667
2392.38	295.111
2394.28	294.889
2396.18	305.778
2398.09	298
2399.99	291.556
2401.89	292.667
2403.79	294.444
2405.69	290.222
2407.59	300
2409.49	294
2411.39	290
2413.29	288.667
2415.19	292.889
2417.09	284
2418.98	289.778
2420.88	290.222
2422.78	291.111
2424.67	284.667
2426.57	289.778
2428.46	285.111
2430.35	289.778
2432.25	295.333
2434.14	283.556
2436.03	287.778
2437.92	293.778
2439.81	280.222
2441.7	290
2443.59	286.667
2445.48	290.444
2447.37	278.667
2449.26	282
2451.15	284.667
2453.03	290
