186.85	524.889
189.449	530.889
192.047	528.444
194.645	525.111
197.241	528.444
199.837	520.444
202.431	533.333
205.025	534
207.619	529.111
210.21	537.556
212.802	535.333
215.392	533.333
217.982	529.556
220.57	530
223.158	535.556
225.744	543.111
228.331	538
230.915	554.222
233.5	543.555
236.083	545.778
238.666	545.555
241.247	547.778
243.827	555.111
246.408	562.667
248.986	562.222
251.565	554.445
254.142	572.222
256.719	562.667
259.294	566
261.868	565.778
264.443	549.111
267.015	555.333
269.587	557.111
272.159	562.889
274.729	558.667
277.298	561.111
279.867	552.222
282.435	562.667
285.001	561.778
287.568	558.889
290.133	560
292.697	565.333
295.26	572.889
297.824	567.333
300.385	589.778
302.945	588
305.505	564.444
308.064	588
310.623	580.667
313.18	584
315.737	581.333
318.292	573.333
320.847	574.667
323.402	580
325.955	576.889
328.507	596.222
331.058	596.222
333.609	605.111
336.158	594.667
338.707	586.444
341.255	588.667
343.802	600.667
346.349	591.556
348.895	604.222
351.439	602.222
353.983	599.556
356.526	602.222
359.068	609.333
361.609	605.333
364.149	610.222
366.689	610.222
369.227	609.333
371.765	613.778
374.302	610.667
376.838	640
379.374	634.889
381.908	634.444
384.442	638.222
386.973	610.889
389.505	607.778
392.036	599.111
394.567	610.222
397.096	599.111
399.625	595.333
402.153	604.222
404.68	598.889
407.206	606
409.73	607.111
412.254	601.333
414.778	610.667
417.301	609.111
419.823	606.889
422.343	597.333
424.863	616.444
427.383	621.778
429.901	613.556
432.418	630.222
434.935	644.444
437.451	635.333
439.966	640.222
442.48	634.889
444.993	617.556
447.506	621.778
450.019	628.444
452.528	618
455.039	625.778
457.549	634.667
460.056	631.556
462.564	620.222
465.07	612.889
467.576	617.111
470.082	615.556
472.585	612.444
475.089	620.222
477.591	620.222
480.093	620.222
482.595	617.111
485.094	618.889
487.594	620.444
490.091	616.222
492.59	625.333
495.086	622.222
497.582	612.444
500.076	615.556
502.571	620
505.064	631.111
507.558	617.556
510.049	627.778
512.54	622.889
515.03	622.889
517.518	628.222
520.008	631.556
522.495	630.667
524.983	623.778
527.468	616
529.954	623.778
532.438	624.667
534.921	620.222
537.404	607.111
539.886	618.444
542.366	618
544.848	620.444
547.327	626
549.805	619.556
552.284	617.778
554.76	614.444
557.236	630
559.711	631.556
562.186	631.111
564.66	632.889
567.132	632
569.604	625.555
572.076	636.667
574.547	628.222
577.016	631.778
579.484	618.889
581.952	608.667
584.419	624.667
586.887	622.667
589.352	630.222
591.816	618.889
594.28	622
596.743	613.111
599.205	623.556
601.667	623.333
604.127	618.889
606.588	628
609.047	634.889
611.505	630.667
613.963	624.667
616.419	624.222
618.875	628.667
621.33	630.444
623.784	627.333
626.238	621.556
628.69	630.444
631.142	628
633.593	630.889
636.043	626.889
638.493	636.444
640.941	627.778
643.389	615.333
645.835	627.556
648.281	622.222
650.727	626.889
653.171	635.333
655.615	628.222
658.058	629.333
660.501	632.222
662.942	637.111
665.382	623.556
667.822	631.778
670.261	622.667
672.699	618.889
675.137	627.778
677.574	625.556
680.008	631.333
682.443	626.667
684.878	614
687.312	622
689.743	621.111
692.175	624.444
694.607	629.556
697.037	624.444
699.466	631.333
701.895	629.556
704.323	624.222
706.749	623.555
709.175	633.556
711.601	616.889
714.025	637.556
716.449	631.778
718.871	630.222
721.294	634.444
723.716	627.778
726.136	628.222
728.556	636.222
730.975	624.222
733.394	628.444
735.812	627.333
738.228	624
740.644	618.889
743.058	624.444
745.473	618.889
747.886	628.667
750.3	616.222
752.711	632.444
755.123	620.667
757.533	622.667
759.942	617.778
762.351	625.333
764.759	612.222
767.167	626.222
769.573	627.111
771.979	619.333
774.383	628
776.787	614.444
779.191	615.333
781.593	622.444
783.994	636.445
786.396	632.222
788.796	626.889
791.195	634.667
793.595	617.556
795.992	625.556
798.389	622
800.786	636.222
803.181	628
805.576	630
807.969	633.778
810.363	614.889
812.755	620.889
815.147	626.667
817.537	636.667
819.927	625.778
822.318	622.222
824.706	622.667
827.093	610.222
829.48	617.778
831.866	631.556
834.251	630.444
836.636	616.889
839.021	618.889
841.404	620.444
843.786	615.778
846.167	612.889
848.548	616
850.928	608.889
853.307	612
855.685	612.889
858.063	626
860.44	621.111
862.816	634.222
865.192	617.333
867.566	621.111
869.94	622.222
872.313	611.333
874.685	623.333
877.057	622
879.428	620.445
881.798	626.222
884.167	622.444
886.536	620.222
888.902	623.556
891.269	628.444
893.636	626
896.001	615.111
898.366	642.444
900.73	630.444
903.094	629.556
905.455	616.889
907.817	617.111
910.178	628.222
912.538	615.111
914.898	620.667
917.255	619.556
919.613	603.333
921.971	615.111
924.327	616.444
926.682	614.889
929.037	616
931.391	603.333
933.744	604.222
936.096	602.222
938.449	610.445
940.799	597.778
943.149	604.222
945.499	617.333
947.847	615.333
950.195	599.778
952.542	614
954.889	610
957.235	607.333
959.579	617.111
961.924	612.222
964.266	621.778
966.609	626
968.951	621.778
971.292	621.111
973.632	602.889
975.972	614.444
978.31	615.111
980.649	621.556
982.986	608.445
985.323	620.667
987.659	611.555
989.994	619.556
992.328	616.889
994.662	627.556
996.995	626.667
999.326	623.333
1001.66	633.778
1003.99	624
1006.32	624
1008.65	616.222
1010.98	618.444
1013.3	618.889
1015.63	620.444
1017.96	609.333
1020.28	603.111
1022.61	612.222
1024.93	607.333
1027.25	622.444
1029.58	617.556
1031.9	617.333
1034.22	614
1036.54	626
1038.86	597.556
1041.18	619.111
1043.49	620.222
1045.81	613.778
1048.13	612.667
1050.44	631.778
1052.76	623.556
1055.07	629.778
1057.39	640
1059.7	634.222
1062.01	631.778
1064.32	629.556
1066.63	637.333
1068.94	629.111
1071.25	639.778
1073.56	644
1075.87	645.556
1078.17	643.778
1080.48	642.667
1082.79	639.778
1085.09	630.667
1087.39	655.333
1089.7	664
1092	682.222
1094.3	706.222
1096.6	726.444
1098.9	718.889
1101.2	694.444
1103.5	676.222
1105.8	659.778
1108.1	648.444
1110.39	650.667
1112.69	652.222
1114.98	666.444
1117.28	668.222
1119.57	670.667
1121.86	679.778
1124.16	669.333
1126.45	656.889
1128.74	660.667
1131.03	665.778
1133.32	642.222
1135.61	635.778
1137.89	632.667
1140.18	629.778
1142.47	630.222
1144.75	617.111
1147.04	639.111
1149.32	630.667
1151.61	639.556
1153.89	632.444
1156.17	633.778
1158.45	634.444
1160.73	624.222
1163.01	627.333
1165.29	622.667
1167.57	616
1169.85	610.667
1172.12	594.222
1174.4	602.889
1176.68	620
1178.95	622.889
1181.22	614.444
1183.5	603.333
1185.77	614
1188.04	594.222
1190.31	609.111
1192.58	604.889
1194.85	600.445
1197.12	600.444
1199.39	602.222
1201.66	603.333
1203.92	605.111
1206.19	601.111
1208.45	592
1210.72	600
1212.98	604.222
1215.25	610.444
1217.51	599.333
1219.77	615.333
1222.03	597.556
1224.29	615.333
1226.55	604.222
1228.81	604.667
1231.07	616.889
1233.33	614
1235.58	605.778
1237.84	602.889
1240.09	619.111
1242.35	616.889
1244.6	614
1246.86	604.889
1249.11	614.667
1251.36	629.556
1253.61	615.111
1255.86	615.333
1258.11	609.556
1260.36	603.333
1262.61	606.667
1264.86	602.444
1267.1	609.556
1269.35	618.667
1271.6	619.556
1273.84	624.222
1276.08	622.667
1278.33	609.333
1280.57	616
1282.81	615.111
1285.05	623.111
1287.29	619.333
1289.53	625.111
1291.77	616.889
1294.01	616.444
1296.25	621.111
1298.48	611.333
1300.72	612
1302.96	605.111
1305.19	623.333
1307.42	609.111
1309.66	615.333
1311.89	611.111
1314.12	614.889
1316.35	610.667
1318.58	613.111
1320.81	611.333
1323.04	623.778
1325.27	620.222
1327.5	624
1329.73	624.444
1331.95	627.556
1334.18	619.333
1336.4	628
1338.63	619.333
1340.85	626.222
1343.08	636
1345.3	616.667
1347.52	605.111
1349.74	601.111
1351.96	618.667
1354.18	611.556
1356.4	612.222
1358.61	616.222
1360.83	612.889
1363.05	623.556
1365.27	610
1367.48	610.444
1369.69	614.444
1371.91	623.333
1374.12	623.556
1376.33	638.667
1378.55	621.111
1380.76	622.222
1382.97	624.889
1385.18	623.556
1387.39	623.556
1389.59	626.889
1391.8	603.556
1394.01	607.556
1396.21	602.445
1398.42	595.778
1400.63	601.333
1402.83	593.111
1405.03	595.111
1407.24	596.222
1409.44	598.667
1411.64	584
1413.84	583.333
1416.04	594.889
1418.24	602.222
1420.44	587.111
1422.64	588.222
1424.83	581.778
1427.03	587.333
1429.23	591.333
1431.42	594.222
1433.62	583.556
1435.81	591.778
1438	587.333
1440.19	589.333
1442.39	574.889
1444.58	584
1446.77	593.778
1448.96	598.444
1451.15	581.778
1453.34	587.556
1455.52	594.667
1457.71	593.778
1459.9	594
1462.08	599.556
1464.27	594
1466.45	594
1468.64	587.333
1470.82	600
1473	592.445
1475.18	590
1477.36	605.333
1479.54	606.444
1481.72	584.222
1483.9	607.111
1486.08	596.444
1488.26	583.556
1490.43	592.667
1492.61	581.556
1494.78	579.333
1496.96	588.444
1499.13	586
1501.31	570.444
1503.48	579.111
1505.65	574.667
1507.82	574.222
1509.99	580.444
1512.16	566.444
1514.33	592
1516.5	566
1518.67	578.222
1520.84	568
1523	562.444
1525.17	580.889
1527.34	579.778
1529.5	570.222
1531.66	558
1533.83	573.778
1535.99	574
1538.15	569.111
1540.31	576
1542.47	573.778
1544.63	584.222
1546.79	586.222
1548.95	579.556
1551.11	579.111
1553.27	578.444
1555.42	588.667
1557.58	572.667
1559.73	593.556
1561.89	582.889
1564.04	585.111
1566.2	584.667
1568.35	586.667
1570.5	581.778
1572.65	578.222
1574.8	597.333
1576.95	576.889
1579.1	596.889
1581.25	600.222
1583.4	601.778
1585.55	598.444
1587.69	588.889
1589.84	581.111
1591.99	590
1594.13	593.778
1596.27	586.889
1598.42	589.556
1600.56	589.778
1602.7	580.445
1604.84	582.444
1606.98	585.778
1609.12	582.222
1611.26	575.333
1613.4	583.333
1615.54	569.778
1617.68	566.222
1619.81	562.889
1621.95	560.667
1624.08	564.889
1626.22	553.111
1628.35	552.667
1630.49	551.333
1632.62	544
1634.75	549.556
1636.88	544.667
1639.01	548.667
1641.14	539.778
1643.27	537.778
1645.4	535.111
1647.53	526.889
1649.66	533.333
1651.79	534.889
1653.91	531.778
1656.04	542.889
1658.16	531.333
1660.29	531.556
1662.41	529.111
1664.53	527.556
1666.66	529.556
1668.78	520.445
1670.9	518.889
1673.02	527.556
1675.14	523.111
1677.26	514.445
1679.38	514.222
1681.49	520
1683.61	510.667
1685.73	521.333
1687.84	516
1689.96	516.444
1692.07	512.222
1694.19	509.778
1696.3	516.667
1698.41	510.889
1700.52	513.556
1702.64	515.333
1704.75	512.222
1706.86	504
1708.97	511.556
1711.07	518.444
1713.18	510.889
1715.29	512.444
1717.4	511.111
1719.5	504.222
1721.61	515.111
1723.71	506.667
1725.82	500.889
1727.92	504.889
1730.02	507.333
1732.12	497.333
1734.23	498.667
1736.33	500
1738.43	512
1740.53	489.778
1742.63	497.778
1744.72	502.667
1746.82	498.889
1748.92	489.556
1751.02	489.333
1753.11	486
1755.21	495.778
1757.3	488.667
1759.4	486.889
1761.49	480.222
1763.58	482.444
1765.67	487.556
1767.76	483.778
1769.86	484
1771.95	482.889
1774.03	485.778
1776.12	487.778
1778.21	477.556
1780.3	488
1782.39	484.222
1784.47	478.444
1786.56	486.667
1788.64	479.111
1790.73	484.889
1792.81	484
1794.89	487.333
1796.98	482.889
1799.06	474
1801.14	477.333
1803.22	476.444
1805.3	481.333
1807.38	470.667
1809.46	478.667
1811.54	472.889
1813.61	470
1815.69	469.778
1817.77	460.222
1819.84	473.556
1821.92	480.667
1823.99	467.778
1826.06	476
1828.14	476.222
1830.21	472.222
1832.28	471.333
1834.35	467.333
1836.42	462.222
1838.49	467.333
1840.56	464.667
1842.63	470.667
1844.7	467.111
1846.77	455.111
1848.83	471.778
1850.9	472.222
1852.96	466.222
1855.03	475.333
1857.09	460
1859.15	461.556
1861.22	453.556
1863.28	458.667
1865.34	466.222
1867.4	456.222
1869.46	452.667
1871.52	454
1873.58	451.556
1875.64	455.111
1877.7	462.889
1879.76	452
1881.81	460.444
1883.87	454.444
1885.92	451.778
1887.98	449.111
1890.03	447.556
1892.09	453.556
1894.14	453.333
1896.19	446.667
1898.24	458.667
1900.29	448.222
1902.34	453.778
1904.4	453.111
1906.44	441.778
1908.49	444.667
1910.54	453.111
1912.59	460
1914.63	440
1916.68	448
1918.73	450
1920.77	443.778
1922.81	461.333
1924.86	435.556
1926.9	442
1928.94	447.111
1930.99	448.667
1933.03	438.667
1935.07	438
1937.11	435.111
1939.15	439.778
1941.19	435.111
1943.22	432.667
1945.26	442
1947.3	433.556
1949.33	438.222
1951.37	426
1953.4	432.222
1955.44	433.778
1957.47	437.111
1959.51	426
1961.54	423.556
1963.57	415.778
1965.6	428.889
1967.63	419.333
1969.66	437.111
1971.69	421.556
1973.72	422.222
1975.75	428.667
1977.78	424.444
1979.8	424.444
1981.83	419.778
1983.86	414.889
1985.88	418
1987.91	422.222
1989.93	423.556
1991.95	422.889
1993.98	418.444
1996	417.778
1998.02	411.556
2000.04	422.222
2002.06	410.667
2004.08	411.333
2006.1	424
2008.12	429.556
2010.14	414.222
2012.15	411.333
2014.17	417.556
2016.19	414.222
2018.2	406.667
2020.22	410.222
2022.23	417.111
2024.25	418.889
2026.26	413.778
2028.27	413.111
2030.28	419.333
2032.29	422.222
2034.3	416.667
2036.32	418
2038.32	412.889
2040.33	402.222
2042.34	419.111
2044.35	403.778
2046.36	409.556
2048.36	406.222
2050.37	406.444
2052.37	406.444
2054.38	409.111
2056.38	407.333
2058.39	418.889
2060.39	408.222
2062.39	398.222
2064.39	400.444
2066.39	415.111
2068.39	399.333
2070.39	402
2072.39	396
2074.39	399.556
2076.39	408.667
2078.39	403.778
2080.39	402
2082.38	397.556
2084.38	400.444
2086.37	394.889
2088.37	393.111
2090.36	400.222
2092.35	398.667
2094.35	383.111
2096.34	403.778
2098.33	393.111
2100.32	398.222
2102.31	385.778
2104.3	387.333
2106.29	389.778
2108.28	391.778
2110.27	388
2112.25	384.667
2114.24	384
2116.23	390.222
2118.21	388.889
2120.2	388.889
2122.18	392.222
2124.17	387.111
2126.15	383.778
2128.13	387.333
2130.11	390.444
2132.09	393.333
2134.08	389.111
2136.06	396.667
2138.04	387.333
2140.02	388.667
2141.99	389.333
2143.97	377.333
2145.95	379.778
2147.93	378.444
2149.9	395.778
2151.88	388.444
2153.85	376.444
2155.83	374.222
2157.8	375.556
2159.77	379.333
2161.75	382.222
2163.72	376.889
2165.69	372.444
2167.66	375.556
2169.63	377.333
2171.6	372.444
2173.57	375.111
2175.54	375.333
2177.51	374.667
2179.47	373.778
2181.44	364.222
2183.41	374
2185.37	372.444
2187.34	366.889
2189.3	364.222
2191.27	361.556
2193.23	370.444
2195.19	359.333
2197.15	368
2199.11	366.667
2201.08	360.444
2203.04	368.222
2205	367.333
2206.96	355.778
2208.91	363.111
2210.87	358.667
2212.83	356
2214.79	352
2216.74	358.222
2218.7	364.444
2220.65	362.444
2222.61	357.111
2224.56	353.111
2226.52	364.444
2228.47	356.667
2230.42	354.222
2232.37	358
2234.32	360.667
2236.27	365.556
2238.22	358.667
2240.17	349.778
2242.12	357.111
2244.07	351.333
2246.02	344.667
2247.97	347.556
2249.91	350.889
2251.86	346.444
2253.8	350
2255.75	339.556
2257.69	339.778
2259.64	345.778
2261.58	347.556
2263.52	349.333
2265.46	340
2267.4	345.556
2269.35	338
2271.29	344.444
2273.23	340.444
2275.16	347.556
2277.1	338.444
2279.04	337.778
2280.98	334.667
2282.92	337.778
2284.85	331.778
2286.79	335.778
2288.72	331.778
2290.66	330
2292.59	328
2294.52	327.556
2296.46	329.333
2298.39	329.778
2300.32	325.778
2302.25	333.333
2304.18	324
2306.11	328.667
2308.04	330
2309.97	332.222
2311.9	326.222
2313.83	322.889
2315.75	328.667
2317.68	330.667
2319.61	324.444
2321.53	335.111
2323.46	329.333
2325.38	322
2327.3	320.222
2329.23	324.667
2331.15	323.556
2333.07	322.222
2334.99	323.556
2336.91	328.889
2338.83	318.889
2340.75	325.778
2342.67	319.778
2344.59	321.111
2346.51	326.222
2348.43	320.667
2350.35	314.222
2352.26	320
2354.18	313.556
2356.09	320.889
2358.01	321.556
2359.92	322.444
2361.83	313.556
2363.75	313.556
2365.66	311.556
2367.57	313.556
2369.48	309.556
2371.39	310.889
2373.31	302
2375.21	307.556
2377.12	313.111
2379.03	308.667
2380.94	308.667
2382.85	309.111
2384.76	312.889
2386.66	302.222
2388.57	307.111
2390.47	310
2392.38	306.667
2394.28	308.889
2396.18	298.889
2398.09	305.111
2399.99	298.444
2401.89	305.333
2403.79	301.556
2405.69	298.889
2407.59	298.889
2409.49	306.667
2411.39	302.444
2413.29	298.444
2415.19	294
2417.09	300.667
2418.98	299.556
2420.88	302.667
2422.78	294.444
2424.67	298.222
2426.57	295.556
2428.46	288.667
2430.35	293.778
2432.25	296.889
2434.14	292.444
2436.03	296.444
2437.92	299.556
2439.81	293.778
2441.7	292.889
2443.59	297.333
2445.48	289.556
2447.37	296.889
2449.26	288
2451.15	296.667
2453.03	301.111
