178.677	267.556
181.278	276.222
183.879	275.778
186.48	268.444
189.078	267.111
191.677	261.556
194.275	261.333
196.871	262.222
199.467	260.222
202.061	253.556
204.656	255.111
207.248	254.444
209.841	258
212.431	256.444
215.022	252
217.613	251.333
220.201	245.556
222.789	246.889
225.375	239.778
227.962	238.444
230.547	233.556
233.13	239.778
235.714	236.222
238.296	236.222
240.879	236.667
243.459	234.667
246.04	224.889
248.618	234.444
251.196	227.333
253.774	227.556
256.35	230.889
258.927	225.556
261.501	229.111
264.074	226.222
266.648	228
269.22	221.111
271.791	222.444
274.362	229.333
276.931	225.778
279.5	231.778
282.069	234
284.635	233.111
287.201	237.556
289.766	240.889
292.331	236.444
294.894	234
297.457	238.222
300.018	247.111
302.58	232.222
305.14	235.111
307.699	221.333
310.257	219.556
312.814	215.333
315.372	216.222
317.928	206.444
320.482	205.778
323.036	202.889
325.589	207.333
328.142	204.444
330.693	202.222
333.243	200.667
335.795	202.222
338.343	203.111
340.891	204
343.439	201.333
345.985	207.778
348.53	208
351.075	207.556
353.619	203.333
356.162	206.444
358.704	207.333
361.245	214
363.786	222.889
366.325	223.111
368.864	227.556
371.402	225.556
373.939	238.222
376.475	230.889
379.011	230.667
381.545	239.111
384.079	224.222
386.612	228.444
389.144	224.222
391.674	225.778
394.204	222.222
396.734	220.889
399.263	224.667
401.791	224.889
404.318	221.778
406.844	225.778
409.368	226
411.893	226.444
414.417	228.889
416.94	226.667
419.462	218.889
421.982	222
424.502	222
427.022	223.778
429.541	215.556
432.057	216
434.574	233.111
437.091	224.222
439.606	225.556
442.12	231.333
444.634	228.889
447.147	228.889
449.657	221.778
452.169	226.889
454.68	222
457.188	225.333
459.697	220.889
462.205	216
464.711	218.222
467.217	213.111
469.722	218.444
472.227	210
474.731	212.667
477.232	220
479.735	218.889
482.235	213.778
484.736	222
487.234	214.222
489.734	219.333
492.23	219.778
494.728	220.889
497.223	228.889
499.719	230.444
502.213	229.556
504.707	234
507.199	236.222
509.692	237.778
512.182	233.556
514.673	228.889
517.162	232.444
519.65	232.444
522.139	230.444
524.625	221.556
527.112	220.667
529.597	218.667
532.081	220.889
534.565	228.444
537.047	226
539.529	217.778
542.011	218.667
544.491	219.556
546.97	216.444
549.45	222.222
551.927	218.444
554.404	221.333
556.88	217.778
559.356	217.333
561.831	217.556
564.304	216.889
566.777	222
569.25	210.222
571.721	216.222
574.191	214.444
576.661	212.667
579.129	217.333
581.599	212.444
584.066	219.556
586.532	218.222
588.997	215.111
591.462	216
593.926	216.889
596.389	218.889
598.851	225.111
601.314	222.444
603.775	226.444
606.235	222.889
608.694	222.667
611.152	219.333
613.609	227.333
616.066	231.333
618.522	221.778
620.977	225.556
623.431	230.444
625.885	229.111
628.338	241.111
630.79	256.667
633.241	258.222
635.691	273.333
638.141	272.667
640.589	255.333
643.036	259.556
645.483	260.889
647.929	254.667
650.375	250.667
652.82	240.222
655.264	243.556
657.707	246.889
660.149	235.556
662.59	227.333
665.031	238
667.471	235.111
669.91	242.667
672.349	236.889
674.786	239.111
677.222	240.889
679.658	238.222
682.093	251.778
684.528	240.889
686.96	242.667
689.393	242.667
691.826	248.444
694.256	241.111
696.686	245.556
699.116	238
701.545	246
703.972	242.444
706.4	242.889
708.826	242.889
711.251	247.778
713.676	245.333
716.099	246
718.523	245.556
720.946	240.889
723.366	242.222
725.788	248.667
728.207	245.333
730.627	254.889
733.044	251.556
735.462	252.444
737.88	260.444
740.295	270.667
742.711	288.222
745.125	281.778
747.539	275.778
749.951	276.889
752.363	272.444
754.775	258
757.185	254.444
759.595	256
762.003	258.222
764.412	253.778
766.819	248.444
769.225	249.556
771.632	249.333
774.036	253.111
776.441	256.889
778.844	256
781.246	260
783.649	257.333
786.05	258.889
788.449	267.778
790.85	271.111
793.248	270
795.646	283.333
798.042	277.778
800.44	285.333
802.835	291.333
805.23	305.111
807.623	300
810.018	321.556
812.41	326.222
814.801	337.778
817.192	339.556
819.582	333.556
821.972	338.222
824.361	336
826.748	343.111
829.135	343.778
831.521	338.444
833.907	335.333
836.291	348.222
838.675	349.333
841.059	362.444
843.442	364
845.823	378.222
848.204	402.444
850.584	424
852.963	427.556
855.342	433.111
857.72	443.333
860.097	439.556
862.473	446
864.848	435.778
867.223	408.222
869.597	371.111
871.97	338.889
874.343	314
876.714	296.667
879.084	293.556
881.454	289.333
883.824	272.667
886.192	274.667
888.56	277.778
890.927	268.889
893.294	269.333
895.66	269.778
898.023	273.333
900.387	261.778
902.751	266.444
905.114	259.778
907.476	269.333
909.835	270
912.196	260.889
914.555	268.667
916.914	254.444
919.271	273.111
921.629	270.667
923.985	270.222
926.341	269.778
928.695	274.889
931.05	280.667
933.404	279.111
935.755	283.111
938.107	280
940.459	288.889
942.808	277.778
945.158	282.667
947.508	277.556
949.855	281.778
952.202	268.889
954.548	282
956.894	275.333
959.239	270.889
961.583	277.111
963.928	265.111
966.27	276.222
968.612	269.556
970.953	270.222
973.294	273.556
975.633	270.889
977.972	276.667
980.31	274.889
982.647	279.556
984.984	278
987.32	284
989.656	282.889
991.989	269.778
994.324	272.444
996.656	270.444
998.988	272
1001.32	273.333
1003.65	270.667
1005.98	280.444
1008.31	281.778
1010.64	282.444
1012.97	291.778
1015.29	282.667
1017.62	278
1019.94	276.222
1022.27	262
1024.59	272.889
1026.92	265.333
1029.24	264.444
1031.56	269.111
1033.88	271.556
1036.2	272.444
1038.52	280
1040.84	273.778
1043.16	267.111
1045.48	273.111
1047.79	264.444
1050.11	270.667
1052.42	272.444
1054.74	268
1057.05	264.667
1059.36	263.556
1061.67	275.556
1063.99	269.333
1066.3	274
1068.61	282.444
1070.92	282.889
1073.22	279.556
1075.53	276
1077.84	281.556
1080.15	290.889
1082.45	294.222
1084.76	303.556
1087.06	303.111
1089.36	302.889
1091.66	309.333
1093.97	314.667
1096.27	320
1098.57	329.556
1100.87	360.222
1103.17	378.222
1105.46	405.778
1107.76	424.667
1110.06	456.444
1112.35	456
1114.65	433.556
1116.94	395.556
1119.24	360.222
1121.53	342.222
1123.82	338.667
1126.11	342.444
1128.4	353.333
1130.7	356
1132.98	374
1135.27	378.222
1137.56	378
1139.85	380.444
1142.13	376
1144.42	372.444
1146.71	363.111
1148.99	378.444
1151.27	371.778
1153.56	370.667
1155.84	368.222
1158.12	369.333
1160.4	358.889
1162.68	355.111
1164.96	351.111
1167.24	360.889
1169.51	345.111
1171.79	336
1174.07	342
1176.34	337.333
1178.62	332.667
1180.89	343.111
1183.17	341.778
1185.44	350.444
1187.71	349.333
1189.98	356.444
1192.25	359.333
1194.52	353.556
1196.79	373.778
1199.06	373.556
1201.33	384.667
1203.59	386.222
1205.86	382.222
1208.12	408.444
1210.39	419.111
1212.65	417.333
1214.92	428
1217.18	434
1219.44	439.111
1221.7	452
1223.96	455.556
1226.22	460.444
1228.48	466
1230.74	481.111
1233	486.889
1235.25	479.333
1237.51	494.222
1239.77	495.111
1242.02	492.222
1244.27	513.111
1246.53	513.778
1248.78	521.778
1251.03	547.111
1253.28	555.556
1255.53	558.667
1257.78	586
1260.03	598.889
1262.28	602.889
1264.53	621.111
1266.78	624.889
1269.02	636
1271.27	634.889
1273.51	654.222
1275.76	671.778
1278	693.778
1280.24	710.667
1282.48	751.778
1284.72	779.556
1286.97	810.889
1289.21	830.444
1291.44	841.778
1293.68	843.111
1295.92	844.889
1298.16	848
1300.39	852.667
1302.63	836
1304.86	832
1307.1	805.333
1309.33	785.556
1311.56	775.778
1313.8	762.889
1316.03	768.667
1318.26	758.889
1320.49	770
1322.72	782.222
1324.95	784.444
1327.17	771.111
1329.4	759.111
1331.63	742.222
1333.85	717.111
1336.08	714
1338.3	674
1340.53	643.111
1342.75	597.111
1344.97	562.444
1347.19	521.111
1349.41	488.444
1351.63	458.889
1353.85	434.667
1356.07	399.556
1358.29	388.222
1360.51	372.222
1362.72	378.667
1364.94	371.333
1367.16	367.111
1369.37	374.444
1371.58	375.556
1373.8	371.333
1376.01	371.333
1378.22	371.556
1380.43	390.444
1382.64	386.667
1384.85	393.333
1387.06	385.333
1389.27	381.333
1391.48	379.111
1393.68	375.778
1395.89	376.222
1398.1	369.333
1400.3	373.556
1402.51	374
1404.71	374.889
1406.91	374.222
1409.11	380.222
1411.32	369.556
1413.52	370.444
1415.72	375.111
1417.92	380.444
1420.11	375.556
1422.31	364.444
1424.51	368.889
1426.71	366
1428.9	350.222
1431.1	353.556
1433.29	346.444
1435.49	342.222
1437.68	346.667
1439.87	350.222
1442.06	353.778
1444.25	351.111
1446.45	353.111
1448.64	347.778
1450.82	344.444
1453.01	346.222
1455.2	353.556
1457.39	340
1459.57	341.111
1461.76	348
1463.94	340.444
1466.13	337.556
1468.31	346
1470.5	346.222
1472.68	340.667
1474.86	346.889
1477.04	352
1479.22	349.556
1481.4	346.222
1483.58	346.222
1485.76	349.333
1487.94	350
1490.11	346.444
1492.29	344.222
1494.46	346.444
1496.64	350.222
1498.81	351.556
1500.99	365.111
1503.16	355.556
1505.33	353.778
1507.5	357.778
1509.67	358.444
1511.84	342.222
1514.01	350.889
1516.18	342.222
1518.35	355.333
1520.52	346
1522.68	334.444
1524.85	344.889
1527.02	341.778
1529.18	348.222
1531.35	343.556
1533.51	352.444
1535.67	351.111
1537.83	360.444
1539.99	338.889
1542.16	350.889
1544.31	348
1546.47	335.556
1548.63	345.556
1550.79	347.333
1552.95	347.778
1555.11	352.444
1557.26	352.889
1559.42	357.778
1561.57	355.778
1563.73	360
1565.88	356.667
1568.03	359.556
1570.18	356.222
1572.34	370
1574.49	369.333
1576.64	366.889
1578.79	384.222
1580.93	377.778
1583.08	382.889
1585.23	390.444
1587.38	404.889
1589.52	413.778
1591.67	412.667
1593.81	418.444
1595.96	415.111
1598.1	403.333
1600.24	378.889
1602.38	372.667
1604.53	376.667
1606.67	373.556
1608.81	371.333
1610.95	362
1613.09	359.778
1615.22	347.333
1617.36	356.222
1619.5	357.778
1621.63	342.889
1623.77	341.778
1625.9	332.667
1628.04	327.111
1630.17	318.889
1632.3	307.778
1634.44	314.667
1636.57	309.333
1638.7	312.222
1640.83	291.111
1642.96	309.556
1645.09	306.667
1647.22	300.667
1649.34	289.778
1651.47	296.222
1653.6	291.556
1655.72	294.889
1657.85	288.444
1659.97	282.667
1662.1	290
1664.22	284.667
1666.34	290.667
1668.46	288.889
1670.58	285.778
1672.7	277.333
1674.82	280.667
1676.94	276.222
1679.06	275.111
1681.18	266.889
1683.3	273.778
1685.41	272.222
1687.53	272
1689.64	264.667
1691.76	273.778
1693.87	269.778
1695.99	266.667
1698.1	269.333
1700.21	272.889
1702.32	269.556
1704.43	264.222
1706.54	270
1708.65	259.556
1710.76	270
1712.87	269.556
1714.98	258.444
1717.08	262.889
1719.19	266.889
1721.29	265.333
1723.4	262.444
1725.5	263.778
1727.61	257.333
1729.71	256.222
1731.81	258.444
1733.91	260.444
1736.02	259.111
1738.12	265.556
1740.22	262
1742.31	261.778
1744.41	267.333
1746.51	260.222
1748.61	255.778
1750.7	256.889
1752.8	262
1754.9	258.667
1756.99	252.222
1759.08	257.333
1761.18	258.667
1763.27	249.778
1765.36	263.111
1767.45	256.444
1769.54	260.222
1771.63	252.444
1773.72	256.444
1775.81	256.222
1777.9	252.444
1779.99	258.667
1782.08	262.889
1784.16	260.444
1786.25	262.667
1788.33	258.444
1790.42	255.333
1792.5	261.556
1794.58	254.889
1796.67	254.222
1798.75	255.556
1800.83	255.556
1802.91	264
1804.99	258
1807.07	255.556
1809.15	252
1811.23	252.222
1813.3	249.333
1815.38	253.333
1817.46	250
1819.53	248.667
1821.61	255.111
1823.68	255.556
1825.75	245.111
1827.83	246
1829.9	255.556
1831.97	243.778
1834.04	246.444
1836.11	247.778
1838.18	250.667
1840.25	245.778
1842.32	245.556
1844.39	240.889
1846.46	251.778
1848.52	248.667
1850.59	246.889
1852.65	246.444
1854.72	250.222
1856.78	253.556
1858.85	243.333
1860.91	249.556
1862.97	248.444
1865.03	247.556
1867.09	240.667
1869.16	248.667
1871.22	249.778
1873.27	242
1875.33	247.111
1877.39	244.889
1879.45	244.667
1881.51	247.556
1883.56	240.889
1885.62	248
1887.67	247.333
1889.73	247.556
1891.78	242
1893.83	242.667
1895.89	248.889
1897.94	248
1899.99	251.333
1902.04	241.778
1904.09	245.333
1906.14	241.556
1908.19	245.556
1910.23	241.778
1912.28	241.333
1914.33	249.333
1916.37	247.778
1918.42	248.444
1920.46	252.222
1922.51	247.111
1924.55	246.889
1926.6	253.556
1928.64	240.444
1930.68	246
1932.72	240.667
1934.76	241.778
1936.8	251.556
1938.84	249.333
1940.88	247.778
1942.92	244
1944.96	245.111
1946.99	242.222
1949.03	242.444
1951.06	244.667
1953.1	242.222
1955.13	243.333
1957.17	238
1959.2	248.444
1961.23	238.444
1963.27	242.222
1965.3	242.222
1967.33	238.889
1969.36	234.889
1971.39	247.778
1973.42	238.667
1975.44	243.778
1977.47	239.111
1979.5	232
1981.53	245.111
1983.55	247.556
1985.58	242.222
1987.6	238
1989.63	237.778
1991.65	239.778
1993.67	239.778
1995.69	240.222
1997.72	235.333
1999.74	234
2001.76	247.556
2003.78	240.667
2005.8	236.889
2007.82	244.667
2009.83	236.889
2011.85	240.889
2013.87	243.778
2015.88	243.556
2017.9	243.556
2019.91	239.556
2021.93	234.222
2023.94	244.667
2025.96	239.111
2027.97	249.778
2029.98	239.778
2031.99	234.444
2034	236
2036.01	243.778
2038.02	241.333
2040.03	234.222
2042.04	248.889
2044.05	230.667
2046.05	236.444
2048.06	233.333
2050.07	238.444
2052.07	234.889
2054.08	238.444
2056.08	239.556
2058.08	238.222
2060.09	238
2062.09	236.889
2064.09	229.556
2066.09	239.333
2068.09	234.444
2070.09	233.111
2072.09	242.222
2074.09	242.444
2076.09	234
2078.09	237.333
2080.08	235.111
2082.08	235.778
2084.08	235.778
2086.07	231.778
2088.07	234.889
2090.06	234.222
2092.05	236.444
2094.05	232.222
2096.04	233.333
2098.03	228.889
2100.02	232
2102.01	236.222
2104	240
2105.99	231.778
2107.98	234.667
2109.97	240.222
2111.95	231.556
2113.94	238
2115.93	235.111
2117.91	244.222
2119.9	240.222
2121.88	242.667
2123.87	239.778
2125.85	239.778
2127.83	235.111
2129.81	240.667
2131.8	237.111
2133.78	238.889
2135.76	238
2137.74	239.556
2139.72	236.222
2141.69	243.778
2143.67	230.889
2145.65	236
2147.63	229.333
2149.6	233.111
2151.58	236.222
2153.55	235.778
2155.53	231.333
2157.5	228.222
2159.48	232.889
2161.45	227.333
2163.42	225.556
2165.39	234.222
2167.36	224.222
2169.33	234.889
2171.3	228.222
2173.27	230.444
2175.24	223.778
2177.21	224
2179.18	222
2181.14	236.444
2183.11	226.667
2185.07	230
2187.04	229.333
2189	232.889
2190.97	230.444
2192.93	228.889
2194.89	228.889
2196.86	228.444
2198.82	226.889
2200.78	226.889
2202.74	230.222
2204.7	231.556
2206.66	223.556
2208.62	222.222
2210.57	225.556
2212.53	228
2214.49	231.778
2216.45	225.556
2218.4	225.333
2220.36	222.889
2222.31	230.222
2224.27	224.889
2226.22	229.556
2228.17	234.444
2230.12	231.778
2232.08	225.111
2234.03	226.667
2235.98	227.556
2237.93	221.778
2239.88	222.667
2241.83	231.778
2243.78	225.111
2245.72	226.222
2247.67	222.889
2249.62	225.778
2251.56	223.111
2253.51	222.444
2255.45	228.444
2257.4	222
2259.34	219.333
2261.28	222.444
2263.23	220
2265.17	230.222
2267.11	213.556
2269.05	226.667
2270.99	222
2272.93	226.222
2274.87	220
2276.81	223.778
2278.75	218.222
2280.68	219.111
2282.62	223.333
2284.56	221.333
2286.49	222.667
2288.43	220.222
2290.36	221.111
2292.3	221.556
2294.23	220
2296.16	221.556
2298.09	220.889
2300.03	216.222
2301.96	212.667
2303.89	217.556
2305.82	214.889
2307.75	219.111
2309.68	211.778
2311.6	216.889
2313.53	217.778
2315.46	212.889
2317.39	216.222
2319.31	219.111
2321.24	221.111
2323.16	218.444
2325.09	217.333
2327.01	222.444
2328.93	217.556
2330.86	218.889
2332.78	219.333
2334.7	216.222
2336.62	214.667
2338.54	217.111
2340.46	217.333
2342.38	216.444
2344.3	216.889
2346.22	219.556
2348.14	218.222
2350.05	221.556
2351.97	216.889
2353.89	220.889
2355.8	220.222
2357.71	212.667
2359.63	216.444
2361.54	220.667
2363.46	217.556
2365.37	218.222
2367.28	214
2369.19	212
2371.1	216.667
2373.01	211.556
2374.92	213.333
2376.83	214.222
2378.74	214.667
2380.65	211.111
2382.56	215.778
2384.46	217.778
2386.37	217.333
2388.27	210
2390.18	212.222
2392.08	216.889
2393.99	215.556
2395.89	212.222
2397.8	215.111
2399.7	206.667
2401.6	210.667
2403.5	212
2405.4	208
2407.3	209.778
2409.2	213.556
2411.1	214.667
2413	219.333
2414.9	209.556
2416.8	210.444
2418.69	211.778
2420.59	209.333
2422.48	213.111
2424.38	217.111
2426.28	204.889
2428.17	213.556
2430.06	214.222
2431.96	212.667
2433.85	216
2435.74	217.111
2437.63	208.222
2439.52	208.222
2441.41	213.778
2443.3	214.667
2445.19	206
2447.08	210.222
