178.677	322.889
181.278	321.333
183.879	316.667
186.48	313.111
189.078	312.222
191.677	307.556
194.275	314
196.871	311.778
199.467	313.333
202.061	310.222
204.656	314.444
207.248	312.667
209.841	304.889
212.431	301.556
215.022	305.333
217.613	307.111
220.201	304
222.789	304.444
225.375	304
227.962	300.444
230.547	295.556
233.13	299.778
235.714	299.556
238.296	297.111
240.879	296.444
243.459	300.444
246.04	300.444
248.618	301.778
251.196	294
253.774	297.333
256.35	302.444
258.927	299.778
261.501	297.111
264.074	296.222
266.648	299.556
269.22	288
271.791	298.222
274.362	296.667
276.931	296.889
279.5	295.111
282.069	296.667
284.635	306.667
287.201	301.111
289.766	304
292.331	306.444
294.894	306.222
297.457	305.333
300.018	311.556
302.58	309.778
305.14	303.778
307.699	296
310.257	286.889
312.814	293.333
315.372	289.111
317.928	290.889
320.482	284
323.036	274.222
325.589	283.333
328.142	289.333
330.693	284.222
333.243	280
335.795	287.778
338.343	280.222
340.891	280.222
343.439	281.111
345.985	281.333
348.53	283.111
351.075	290.222
353.619	292.222
356.162	294.889
358.704	294
361.245	302.444
363.786	297.111
366.325	310.667
368.864	304.222
371.402	314
373.939	318.222
376.475	312.222
379.011	314.444
381.545	316.889
384.079	312
386.612	314.667
389.144	310
391.674	308
394.204	304.667
396.734	311.333
399.263	315.556
401.791	308.667
404.318	313.111
406.844	308.667
409.368	325.111
411.893	309.333
414.417	310.444
416.94	314.889
419.462	318.889
421.982	310
424.502	308.889
427.022	310.667
429.541	312.222
432.057	316.222
434.574	321.111
437.091	317.556
439.606	322.667
442.12	321.111
444.634	322
447.147	325.111
449.657	328.444
452.169	328.444
454.68	324.667
457.188	316.889
459.697	319.556
462.205	309.556
464.711	315.333
467.217	315.333
469.722	313.778
472.227	321.556
474.731	319.778
477.232	316.667
479.735	317.556
482.235	324.222
484.736	312.222
487.234	319.111
489.734	327.556
492.23	320
494.728	328.667
497.223	330.444
499.719	330.222
502.213	326.222
504.707	330.667
507.199	338.444
509.692	337.111
512.182	335.556
514.673	324.444
517.162	335.111
519.65	333.778
522.139	334.667
524.625	324.444
527.112	322.667
529.597	314.444
532.081	322.889
534.565	319.556
537.047	318.667
539.529	321.778
542.011	326.222
544.491	314.667
546.97	326.667
549.45	325.111
551.927	313.333
554.404	323.111
556.88	321.111
559.356	322.889
561.831	320.889
564.304	323.556
566.777	329.778
569.25	327.111
571.721	322.444
574.191	322.889
576.661	326.889
579.129	326.667
581.599	332.222
584.066	320.222
586.532	331.111
588.997	329.111
591.462	330.222
593.926	322.667
596.389	323.778
598.851	332
601.314	333.778
603.775	332
606.235	333.556
608.694	330.889
611.152	326.444
613.609	325.556
616.066	324.667
618.522	333.556
620.977	334.444
623.431	331.333
625.885	341.333
628.338	352.889
630.79	372.667
633.241	367.556
635.691	376.889
638.141	369.333
640.589	372.889
643.036	370.444
645.483	370.667
647.929	353.333
650.375	345.778
652.82	347.333
655.264	350.667
657.707	342.667
660.149	342
662.59	341.333
665.031	335.778
667.471	348.667
669.91	344.667
672.349	342.667
674.786	345.333
677.222	333.778
679.658	339.778
682.093	337.778
684.528	347.778
686.96	352.222
689.393	340.667
691.826	348.667
694.256	344.889
696.686	346.889
699.116	342.222
701.545	348
703.972	337.111
706.4	343.111
708.826	346
711.251	356.222
713.676	352.889
716.099	358
718.523	350.444
720.946	346.667
723.366	359.778
725.788	348.222
728.207	358
730.627	345.778
733.044	356.889
735.462	349.111
737.88	359.333
740.295	376.222
742.711	367.778
745.125	378.222
747.539	368.444
749.951	373.111
752.363	362.889
754.775	356.667
757.185	360.444
759.595	356.444
762.003	358.444
764.412	354.889
766.819	360
769.225	362.444
771.632	363.778
774.036	364.444
776.441	362.667
778.844	354.889
781.246	362.444
783.649	360
786.05	370.222
788.449	372.222
790.85	378.444
793.248	370.889
795.646	376
798.042	378.667
800.44	375.333
802.835	378.889
805.23	387.778
807.623	381.778
810.018	396.444
812.41	417.778
814.801	416.667
817.192	422.667
819.582	418.444
821.972	412.444
824.361	408.222
826.748	421.778
829.135	412.444
831.521	412.222
833.907	418.667
836.291	424.667
838.675	422.667
841.059	429.111
843.442	436.444
845.823	450.444
848.204	457.556
850.584	466.222
852.963	475.333
855.342	470.444
857.72	483.556
860.097	474.667
862.473	495.111
864.848	477.778
867.223	460.222
869.597	442.667
871.97	417.333
874.343	406.889
876.714	400.667
879.084	388.444
881.454	376.667
883.824	384.222
886.192	378.667
888.56	378.444
890.927	381.778
893.294	380.889
895.66	376.667
898.023	368.222
900.387	369.111
902.751	366.667
905.114	363.778
907.476	370.222
909.835	365.111
912.196	377.111
914.555	372.667
916.914	372.222
919.271	378.222
921.629	366.444
923.985	369.556
926.341	372.444
928.695	375.111
931.05	377.111
933.404	376.667
935.755	373.111
938.107	378
940.459	378.667
942.808	388.222
945.158	368.889
947.508	377.111
949.855	382.889
952.202	382.889
954.548	388.444
956.894	381.333
959.239	370.889
961.583	383.333
963.928	384.222
966.27	372.889
968.612	378.444
970.953	376.667
973.294	380.889
975.633	376.667
977.972	376.667
980.31	379.556
982.647	381.111
984.984	377.333
987.32	387.333
989.656	384
991.989	382.889
994.324	380.222
996.656	375.778
998.988	368.889
1001.32	379.556
1003.65	380
1005.98	379.333
1008.31	377.556
1010.64	385.333
1012.97	387.778
1015.29	377.556
1017.62	389.778
1019.94	368.889
1022.27	383.111
1024.59	367.556
1026.92	374.667
1029.24	378.444
1031.56	374.667
1033.88	371.778
1036.2	386.222
1038.52	378.222
1040.84	374.444
1043.16	378.889
1045.48	369.556
1047.79	376.222
1050.11	379.333
1052.42	377.111
1054.74	377.778
1057.05	376.889
1059.36	382.889
1061.67	376.444
1063.99	374.222
1066.3	385.556
1068.61	394.222
1070.92	392
1073.22	386.889
1075.53	385.778
1077.84	386.889
1080.15	380.667
1082.45	397.333
1084.76	400.444
1087.06	390.667
1089.36	410.889
1091.66	398.667
1093.97	412.667
1096.27	419.111
1098.57	434
1100.87	438.444
1103.17	450
1105.46	470
1107.76	494.667
1110.06	508.222
1112.35	512.444
1114.65	492.222
1116.94	480.222
1119.24	460.667
1121.53	443.778
1123.82	441.333
1126.11	454
1128.4	453.333
1130.7	468
1132.98	473.556
1135.27	470.222
1137.56	477.111
1139.85	487.778
1142.13	471.556
1144.42	474
1146.71	481.556
1148.99	474.222
1151.27	469.778
1153.56	451.778
1155.84	452.889
1158.12	447.556
1160.4	436.444
1162.68	446.889
1164.96	444.222
1167.24	449.556
1169.51	452.444
1171.79	441.111
1174.07	445.556
1176.34	441.556
1178.62	443.778
1180.89	437.111
1183.17	437.778
1185.44	444.667
1187.71	452.889
1189.98	457.333
1192.25	456.667
1194.52	457.111
1196.79	463.556
1199.06	471.556
1201.33	464.667
1203.59	476.889
1205.86	486.667
1208.12	492.889
1210.39	496
1212.65	503.333
1214.92	506
1217.18	510.222
1219.44	509.111
1221.7	514.222
1223.96	512.667
1226.22	530.222
1228.48	534
1230.74	530.667
1233	535.333
1235.25	545.556
1237.51	540.444
1239.77	539.111
1242.02	548.222
1244.27	560.444
1246.53	555.556
1248.78	563.778
1251.03	577.333
1253.28	589.333
1255.53	602.444
1257.78	610.444
1260.03	615.778
1262.28	634.222
1264.53	626.222
1266.78	630.889
1269.02	637.556
1271.27	642.222
1273.51	641.778
1275.76	647.333
1278	668.444
1280.24	689.333
1282.48	697.778
1284.72	718.667
1286.97	734.889
1289.21	738
1291.44	751.333
1293.68	737.778
1295.92	750.222
1298.16	749.778
1300.39	743.333
1302.63	752.889
1304.86	740.667
1307.1	733.556
1309.33	726.667
1311.56	707.111
1313.8	708.889
1316.03	707.556
1318.26	706
1320.49	723.111
1322.72	719.555
1324.95	734.444
1327.17	723.333
1329.4	729.333
1331.63	719.111
1333.85	705.111
1336.08	719.333
1338.3	687.778
1340.53	671.778
1342.75	664.889
1344.97	633.333
1347.19	610.667
1349.41	578.889
1351.63	557.778
1353.85	531.778
1356.07	520.889
1358.29	496.889
1360.51	476.667
1362.72	477.778
1364.94	478
1367.16	478.222
1369.37	476.444
1371.58	473.111
1373.8	474.889
1376.01	474.444
1378.22	470.444
1380.43	470.222
1382.64	477.778
1384.85	479.333
1387.06	478.667
1389.27	492
1391.48	487.333
1393.68	478.667
1395.89	476.222
1398.1	480.667
1400.3	486.889
1402.51	484
1404.71	478.889
1406.91	478.667
1409.11	480
1411.32	474.222
1413.52	486.444
1415.72	484
1417.92	484.222
1420.11	482.889
1422.31	489.778
1424.51	483.111
1426.71	469.333
1428.9	469.333
1431.1	480.667
1433.29	474.889
1435.49	469.333
1437.68	456.667
1439.87	461.333
1442.06	459.333
1444.25	459.778
1446.45	453.778
1448.64	464.667
1450.82	453.556
1453.01	450.889
1455.2	444.222
1457.39	450.222
1459.57	462.444
1461.76	448.667
1463.94	444.444
1466.13	453.111
1468.31	453.333
1470.5	444.889
1472.68	448.889
1474.86	443.556
1477.04	449.778
1479.22	456
1481.4	450.889
1483.58	456.222
1485.76	465.111
1487.94	455.778
1490.11	456
1492.29	461.333
1494.46	460.889
1496.64	456.222
1498.81	454.444
1500.99	471.778
1503.16	451.111
1505.33	461.556
1507.5	456.889
1509.67	466.222
1511.84	454.222
1514.01	458.889
1516.18	454.889
1518.35	453.778
1520.52	458.889
1522.68	445.333
1524.85	456
1527.02	462.667
1529.18	456.667
1531.35	464.444
1533.51	466.667
1535.67	454
1537.83	463.556
1539.99	468.667
1542.16	451.556
1544.31	464
1546.47	460
1548.63	456.222
1550.79	470.222
1552.95	462.667
1555.11	465.778
1557.26	459.556
1559.42	475.111
1561.57	460.222
1563.73	472.222
1565.88	468.889
1568.03	469.778
1570.18	470.222
1572.34	469.333
1574.49	477.111
1576.64	482.667
1578.79	494.667
1580.93	492.667
1583.08	482.889
1585.23	510.667
1587.38	503.778
1589.52	534.444
1591.67	520.889
1593.81	526.667
1595.96	530.222
1598.1	511.556
1600.24	506.667
1602.38	502.667
1604.53	485.333
1606.67	472
1608.81	494.222
1610.95	487.778
1613.09	488.667
1615.22	487.778
1617.36	478.222
1619.5	466
1621.63	468.222
1623.77	462.667
1625.9	449.778
1628.04	452.222
1630.17	434.889
1632.3	436
1634.44	436.889
1636.57	431.333
1638.7	422.667
1640.83	421.333
1642.96	417.111
1645.09	403.556
1647.22	411.556
1649.34	408.444
1651.47	401.778
1653.6	400.222
1655.72	398.444
1657.85	395.333
1659.97	395.556
1662.1	398.222
1664.22	384
1666.34	380.444
1668.46	385.778
1670.58	383.778
1672.7	374.889
1674.82	379.556
1676.94	373.556
1679.06	374.222
1681.18	372.444
1683.3	373.111
1685.41	373.333
1687.53	368.667
1689.64	364
1691.76	366.667
1693.87	374.889
1695.99	371.333
1698.1	358.889
1700.21	354.889
1702.32	360.667
1704.43	353.778
1706.54	356.222
1708.65	360.889
1710.76	354.889
1712.87	355.333
1714.98	362
1717.08	358
1719.19	352
1721.29	356.889
1723.4	358.222
1725.5	359.333
1727.61	354
1729.71	357.333
1731.81	348.444
1733.91	350.444
1736.02	351.111
1738.12	354.889
1740.22	348.222
1742.31	346.889
1744.41	351.778
1746.51	352
1748.61	350.667
1750.7	348.222
1752.8	351.778
1754.9	359.333
1756.99	348.222
1759.08	338
1761.18	349.778
1763.27	338
1765.36	349.111
1767.45	341.778
1769.54	350.444
1771.63	348.444
1773.72	346.667
1775.81	358.444
1777.9	350.667
1779.99	341.556
1782.08	348.889
1784.16	347.556
1786.25	346.889
1788.33	343.778
1790.42	341.778
1792.5	335.111
1794.58	353.556
1796.67	349.556
1798.75	348.889
1800.83	351.333
1802.91	338.444
1804.99	349.333
1807.07	342
1809.15	348.222
1811.23	353.556
1813.3	338
1815.38	338.222
1817.46	350.889
1819.53	340.222
1821.61	346.889
1823.68	333.333
1825.75	340.222
1827.83	339.778
1829.9	336.667
1831.97	338.444
1834.04	347.556
1836.11	336.667
1838.18	336.889
1840.25	342.444
1842.32	331.778
1844.39	341.111
1846.46	333.778
1848.52	332.444
1850.59	338
1852.65	330.222
1854.72	333.111
1856.78	331.333
1858.85	337.111
1860.91	337.556
1862.97	326
1865.03	326.222
1867.09	334.667
1869.16	329.333
1871.22	332.667
1873.27	322.222
1875.33	331.333
1877.39	338.667
1879.45	329.333
1881.51	328
1883.56	332.444
1885.62	327.556
1887.67	326.889
1889.73	332.444
1891.78	332.444
1893.83	336.667
1895.89	328.889
1897.94	332
1899.99	325.556
1902.04	336.444
1904.09	329.333
1906.14	337.333
1908.19	334.667
1910.23	326
1912.28	331.778
1914.33	325.778
1916.37	328.889
1918.42	335.556
1920.46	328.222
1922.51	322
1924.55	329.778
1926.6	332.444
1928.64	326.667
1930.68	328
1932.72	322.889
1934.76	323.333
1936.8	327.111
1938.84	325.111
1940.88	320.889
1942.92	323.333
1944.96	323.111
1946.99	320
1949.03	325.556
1951.06	318.444
1953.1	328.667
1955.13	319.333
1957.17	320.889
1959.2	318
1961.23	319.778
1963.27	318.222
1965.3	318.889
1967.33	322
1969.36	316
1971.39	320.667
1973.42	317.111
1975.44	320.222
1977.47	321.778
1979.5	315.333
1981.53	316.222
1983.55	315.556
1985.58	317.556
1987.6	325.556
1989.63	312.667
1991.65	308.444
1993.67	322
1995.69	315.333
1997.72	315.333
1999.74	315.333
2001.76	317.778
2003.78	317.778
2005.8	315.778
2007.82	307.556
2009.83	317.333
2011.85	323.333
2013.87	312
2015.88	312.444
2017.9	320.889
2019.91	317.111
2021.93	318.444
2023.94	314.667
2025.96	315.333
2027.97	318
2029.98	310.222
2031.99	318.667
2034	315.333
2036.01	320.222
2038.02	314.444
2040.03	314.667
2042.04	318.667
2044.05	320.889
2046.05	316.444
2048.06	312.889
2050.07	314.667
2052.07	317.778
2054.08	311.333
2056.08	311.556
2058.08	319.556
2060.09	305.556
2062.09	312.667
2064.09	313.333
2066.09	310.444
2068.09	309.778
2070.09	316.667
2072.09	323.556
2074.09	308
2076.09	305.778
2078.09	308.222
2080.08	318.667
2082.08	318
2084.08	313.111
2086.07	307.778
2088.07	297.778
2090.06	308.222
2092.05	307.111
2094.05	302.444
2096.04	311.556
2098.03	299.778
2100.02	305.333
2102.01	300.667
2104	310.889
2105.99	308.889
2107.98	306.667
2109.97	309.778
2111.95	305.111
2113.94	311.333
2115.93	311.333
2117.91	307.111
2119.9	307.111
2121.88	303.778
2123.87	308.889
2125.85	305.556
2127.83	307.778
2129.81	311.778
2131.8	312.667
2133.78	307.556
2135.76	308.222
2137.74	311.111
2139.72	302.889
2141.69	307.556
2143.67	309.556
2145.65	303.556
2147.63	309.111
2149.6	300.667
2151.58	299.778
2153.55	300.444
2155.53	302
2157.5	307.111
2159.48	298.889
2161.45	300.222
2163.42	299.556
2165.39	295.556
2167.36	302.667
2169.33	300
2171.3	294
2173.27	306
2175.24	300.667
2177.21	299.333
2179.18	298.222
2181.14	295.333
2183.11	296.222
2185.07	303.778
2187.04	292.889
2189	298.667
2190.97	296.444
2192.93	291.556
2194.89	294
2196.86	296.889
2198.82	294.667
2200.78	290.222
2202.74	294.444
2204.7	295.778
2206.66	291.778
2208.62	290
2210.57	298.222
2212.53	294.444
2214.49	293.333
2216.45	294
2218.4	290
2220.36	294.667
2222.31	287.778
2224.27	291.778
2226.22	294.444
2228.17	292.889
2230.12	292.222
2232.08	290.444
2234.03	289.111
2235.98	284.889
2237.93	290.889
2239.88	285.333
2241.83	287.556
2243.78	290.444
2245.72	298.889
2247.67	290.444
2249.62	282.222
2251.56	286.444
2253.51	290.889
2255.45	285.111
2257.4	288.667
2259.34	290.889
2261.28	288
2263.23	287.111
2265.17	287.111
2267.11	295.111
2269.05	285.778
2270.99	292.222
2272.93	286
2274.87	285.333
2276.81	277.111
2278.75	285.556
2280.68	287.556
2282.62	280.444
2284.56	275.333
2286.49	280.667
2288.43	284.222
2290.36	288.222
2292.3	282.444
2294.23	269.556
2296.16	288.222
2298.09	280
2300.03	285.333
2301.96	273.778
2303.89	283.333
2305.82	277.556
2307.75	280
2309.68	280.667
2311.6	277.111
2313.53	284
2315.46	279.333
2317.39	279.556
2319.31	274.222
2321.24	275.778
2323.16	275.778
2325.09	274.667
2327.01	276.222
2328.93	282.444
2330.86	283.333
2332.78	274.667
2334.7	280.889
2336.62	279.778
2338.54	278.222
2340.46	279.111
2342.38	274
2344.3	278.222
2346.22	269.556
2348.14	274.222
2350.05	269.111
2351.97	276.667
2353.89	266.889
2355.8	276.222
2357.71	273.778
2359.63	275.333
2361.54	270.444
2363.46	275.556
2365.37	274.889
2367.28	271.556
2369.19	270
2371.1	274.444
2373.01	270.889
2374.92	274.444
2376.83	266.444
2378.74	275.778
2380.65	272.222
2382.56	272
2384.46	268.222
2386.37	264.889
2388.27	272.222
2390.18	277.333
2392.08	267.333
2393.99	271.556
2395.89	270.667
2397.8	274.889
2399.7	268.222
2401.6	265.778
2403.5	267.556
2405.4	262.667
2407.3	266.889
2409.2	264.222
2411.1	261.778
2413	267.333
2414.9	269.556
2416.8	266.222
2418.69	269.111
2420.59	270
2422.48	266
2424.38	260.667
2426.28	272.444
2428.17	268.444
2430.06	265.111
2431.96	260.889
2433.85	269.333
2435.74	261.556
2437.63	267.333
2439.52	267.778
2441.41	261.556
2443.3	261.333
2445.19	265.556
2447.08	258.667
