178.677	318.667
181.278	310
183.879	308.889
186.48	316.889
189.078	306
191.677	302.222
194.275	306.222
196.871	295.778
199.467	297.111
202.061	297.333
204.656	296.444
207.248	292.444
209.841	295.778
212.431	285.556
215.022	289.778
217.613	287.778
220.201	282.889
222.789	285.111
225.375	271.556
227.962	281.778
230.547	271.111
233.13	270
235.714	267.333
238.296	278
240.879	272.444
243.459	273.778
246.04	274.222
248.618	266.222
251.196	263.556
253.774	269.333
256.35	260.889
258.927	255.111
261.501	261.111
264.074	261.556
266.648	254.667
269.22	257.111
271.791	260.444
274.362	266
276.931	251.333
279.5	260.667
282.069	265.778
284.635	261.333
287.201	263.111
289.766	276
292.331	269.111
294.894	274.222
297.457	281.111
300.018	272.889
302.58	271.778
305.14	275.556
307.699	255.111
310.257	258.889
312.814	249.333
315.372	244
317.928	241.111
320.482	245.333
323.036	239.778
325.589	237.556
328.142	235.111
330.693	230.667
333.243	233.556
335.795	235.778
338.343	236.222
340.891	235.556
343.439	231.556
345.985	239.333
348.53	237.333
351.075	241.111
353.619	237.333
356.162	248
358.704	244.889
361.245	240.444
363.786	258.222
366.325	256.667
368.864	259.111
371.402	266.444
373.939	275.333
376.475	272.667
379.011	273.111
381.545	270.667
384.079	262
386.612	264.667
389.144	264.444
391.674	256.444
394.204	258.444
396.734	255.111
399.263	263.333
401.791	261.556
404.318	257.111
406.844	257.556
409.368	256
411.893	264.444
414.417	255.333
416.94	258.667
419.462	263.556
421.982	260.667
424.502	258.444
427.022	258.667
429.541	258
432.057	264
434.574	258
437.091	260
439.606	257.333
442.12	268.444
444.634	263.778
447.147	266.222
449.657	256
452.169	253.778
454.68	262.222
457.188	256.222
459.697	250
462.205	255.111
464.711	250.667
467.217	253.778
469.722	250.667
472.227	256.889
474.731	260
477.232	241.778
479.735	255.333
482.235	260
484.736	261.778
487.234	259.111
489.734	258.222
492.23	258.667
494.728	264
497.223	268.444
499.719	261.333
502.213	270.444
504.707	273.333
507.199	270.667
509.692	270.444
512.182	281.111
514.673	275.556
517.162	273.556
519.65	276.222
522.139	274.889
524.625	267.556
527.112	258.444
529.597	264.889
532.081	261.333
534.565	254.667
537.047	253.556
539.529	254.667
542.011	251.111
544.491	258.222
546.97	254
549.45	246.889
551.927	252.667
554.404	254.444
556.88	255.556
559.356	252.444
561.831	250.889
564.304	253.556
566.777	252.889
569.25	251.333
571.721	253.111
574.191	253.111
576.661	254.444
579.129	252.667
581.599	256
584.066	258
586.532	256.889
588.997	267.111
591.462	253.111
593.926	258.889
596.389	261.333
598.851	258
601.314	266
603.775	253.333
606.235	265.556
608.694	260.222
611.152	255.333
613.609	268
616.066	255.556
618.522	259.111
620.977	266.444
623.431	269.556
625.885	270.444
628.338	284.889
630.79	299.778
633.241	314
635.691	312
638.141	310.444
640.589	314.444
643.036	308
645.483	302.889
647.929	296.444
650.375	294.222
652.82	294.444
655.264	278.889
657.707	278.222
660.149	285.111
662.59	283.111
665.031	282.667
667.471	270.889
669.91	277.333
672.349	271.111
674.786	271.556
677.222	278.889
679.658	284.889
682.093	278.889
684.528	283.111
686.96	288.444
689.393	279.556
691.826	282
694.256	284.444
696.686	285.556
699.116	280.667
701.545	292.444
703.972	286.889
706.4	284.444
708.826	282.222
711.251	280.667
713.676	289.333
716.099	291.778
718.523	288.667
720.946	286.444
723.366	288.667
725.788	289.778
728.207	292.222
730.627	295.111
733.044	298
735.462	299.556
737.88	302.222
740.295	308.889
742.711	314.444
745.125	322.444
747.539	329.778
749.951	315.778
752.363	316
754.775	299.778
757.185	294
759.595	297.333
762.003	296.222
764.412	290.222
766.819	291.333
769.225	295.556
771.632	292.889
774.036	288
776.441	296.222
778.844	303.333
781.246	300.222
783.649	302.222
786.05	302.444
788.449	310.222
790.85	321.556
793.248	314
795.646	317.556
798.042	326.889
800.44	325.556
802.835	334.667
805.23	352.444
807.623	348.889
810.018	371.556
812.41	371.111
814.801	387.333
817.192	385.556
819.582	400.222
821.972	395.556
824.361	384.444
826.748	393.778
829.135	386
831.521	377.333
833.907	393.556
836.291	398
838.675	403.556
841.059	400
843.442	428.222
845.823	447.778
848.204	473.778
850.584	498.444
852.963	489.556
855.342	499.333
857.72	501.778
860.097	509.556
862.473	506.889
864.848	494.222
867.223	470.222
869.597	419.556
871.97	390.889
874.343	352.667
876.714	350.889
879.084	330.889
881.454	334.444
883.824	320.889
886.192	326.889
888.56	314.667
890.927	314.444
893.294	311.333
895.66	312.667
898.023	308.444
900.387	315.333
902.751	304
905.114	306
907.476	310.222
909.835	308.667
912.196	305.556
914.555	315.333
916.914	315.556
919.271	311.333
921.629	321.111
923.985	318.222
926.341	320.222
928.695	322.667
931.05	318.889
933.404	328.444
935.755	328.667
938.107	324
940.459	322.667
942.808	326.444
945.158	322.222
947.508	327.778
949.855	328.444
952.202	326.222
954.548	320.889
956.894	325.111
959.239	322.222
961.583	324.444
963.928	311.333
966.27	304.889
968.612	318.667
970.953	311.778
973.294	319.111
975.633	318.222
977.972	322.889
980.31	331.111
982.647	328
984.984	326.667
987.32	325.111
989.656	322.667
991.989	323.556
994.324	314.222
996.656	318.444
998.988	312.667
1001.32	313.333
1003.65	317.111
1005.98	318.667
1008.31	314
1010.64	328.889
1012.97	324.889
1015.29	329.778
1017.62	331.111
1019.94	322.667
1022.27	315.333
1024.59	314.889
1026.92	305.333
1029.24	313.556
1031.56	316.667
1033.88	316.889
1036.2	322.667
1038.52	315.333
1040.84	320
1043.16	318
1045.48	314.444
1047.79	312.889
1050.11	314
1052.42	319.111
1054.74	320.889
1057.05	316.889
1059.36	314
1061.67	324
1063.99	329.778
1066.3	324.444
1068.61	328.222
1070.92	326
1073.22	330.889
1075.53	321.333
1077.84	330.444
1080.15	334.444
1082.45	347.333
1084.76	351.333
1087.06	345.111
1089.36	349.333
1091.66	355.556
1093.97	366.667
1096.27	376.444
1098.57	400.667
1100.87	414.444
1103.17	438
1105.46	469.778
1107.76	504.222
1110.06	517.111
1112.35	530.444
1114.65	507.778
1116.94	462
1119.24	422.222
1121.53	404
1123.82	409.556
1126.11	411.778
1128.4	404.444
1130.7	423.556
1132.98	434.667
1135.27	449.111
1137.56	447.333
1139.85	448.222
1142.13	449.778
1144.42	451.333
1146.71	453.778
1148.99	447.333
1151.27	440.667
1153.56	432.889
1155.84	435.333
1158.12	430.444
1160.4	417.556
1162.68	420
1164.96	419.111
1167.24	418.889
1169.51	414.667
1171.79	410.667
1174.07	400.889
1176.34	391.333
1178.62	406
1180.89	393.111
1183.17	392.222
1185.44	408.889
1187.71	414.222
1189.98	419.333
1192.25	425.111
1194.52	424.444
1196.79	433.333
1199.06	441.111
1201.33	447.778
1203.59	452.222
1205.86	453.111
1208.12	478.889
1210.39	478.667
1212.65	493.333
1214.92	494.667
1217.18	510
1219.44	504
1221.7	532.445
1223.96	533.111
1226.22	543.111
1228.48	548.667
1230.74	552.889
1233	569.556
1235.25	566.222
1237.51	577.111
1239.77	578
1242.02	589.111
1244.27	597.333
1246.53	596.889
1248.78	597.333
1251.03	625.111
1253.28	628.667
1255.53	650.889
1257.78	667.111
1260.03	694.889
1262.28	705.111
1264.53	714.444
1266.78	712.222
1269.02	724
1271.27	742.889
1273.51	745.111
1275.76	771.111
1278	804.222
1280.24	819.111
1282.48	846.889
1284.72	892
1286.97	916.444
1289.21	938.667
1291.44	951.778
1293.68	962.889
1295.92	956.889
1298.16	961.778
1300.39	966.889
1302.63	942.222
1304.86	944.444
1307.1	927.778
1309.33	897.333
1311.56	878
1313.8	869.333
1316.03	864
1318.26	879.111
1320.49	882.222
1322.72	883.778
1324.95	882.222
1327.17	888.889
1329.4	866.444
1331.63	847.556
1333.85	831.778
1336.08	815.556
1338.3	772.889
1340.53	750.222
1342.75	702.444
1344.97	648.889
1347.19	606
1349.41	577.333
1351.63	523.556
1353.85	502
1356.07	476.889
1358.29	459.333
1360.51	444.444
1362.72	439.333
1364.94	437.111
1367.16	429.111
1369.37	433.333
1371.58	430.889
1373.8	438.889
1376.01	445.778
1378.22	451.556
1380.43	451.778
1382.64	466.667
1384.85	461.778
1387.06	466.667
1389.27	455.778
1391.48	459.556
1393.68	460.889
1395.89	446
1398.1	448
1400.3	436.889
1402.51	442.222
1404.71	441.556
1406.91	441.778
1409.11	434
1411.32	436.667
1413.52	447.111
1415.72	443.111
1417.92	445.556
1420.11	438
1422.31	424.889
1424.51	437.556
1426.71	429.333
1428.9	409.111
1431.1	419.778
1433.29	410.889
1435.49	420
1437.68	408
1439.87	406.889
1442.06	404.889
1444.25	420.444
1446.45	411.333
1448.64	408.444
1450.82	408.444
1453.01	406.444
1455.2	412
1457.39	403.333
1459.57	405.111
1461.76	402.444
1463.94	400.667
1466.13	410
1468.31	401.333
1470.5	402.889
1472.68	402.667
1474.86	406.222
1477.04	384
1479.22	404
1481.4	406.444
1483.58	403.556
1485.76	411.111
1487.94	404.667
1490.11	408.889
1492.29	410
1494.46	418.222
1496.64	417.111
1498.81	418
1500.99	413.556
1503.16	428.444
1505.33	421.111
1507.5	416.444
1509.67	424
1511.84	411.778
1514.01	412
1516.18	406.889
1518.35	411.111
1520.52	400
1522.68	389.333
1524.85	398.667
1527.02	391.778
1529.18	390.889
1531.35	404
1533.51	397.778
1535.67	409.111
1537.83	409.778
1539.99	410.889
1542.16	406.667
1544.31	403.333
1546.47	402.444
1548.63	412.889
1550.79	409.556
1552.95	406
1555.11	410.444
1557.26	418.667
1559.42	416.222
1561.57	424.444
1563.73	428
1565.88	418.667
1568.03	421.556
1570.18	420.444
1572.34	428.222
1574.49	440.222
1576.64	434
1578.79	448
1580.93	445.111
1583.08	468.667
1585.23	472.222
1587.38	470.444
1589.52	490.667
1591.67	496.222
1593.81	505.778
1595.96	488.667
1598.1	476.889
1600.24	465.111
1602.38	447.111
1604.53	437.111
1606.67	448.444
1608.81	431.778
1610.95	431.333
1613.09	428.667
1615.22	422.444
1617.36	416.667
1619.5	406.444
1621.63	405.333
1623.77	397.556
1625.9	393.111
1628.04	384.889
1630.17	372.444
1632.3	371.111
1634.44	370.444
1636.57	370.889
1638.7	357.778
1640.83	365.333
1642.96	360
1645.09	353.333
1647.22	355.111
1649.34	344.667
1651.47	341.556
1653.6	332
1655.72	337.778
1657.85	343.111
1659.97	331.556
1662.1	337.778
1664.22	328.444
1666.34	337.556
1668.46	322.889
1670.58	328.667
1672.7	321.778
1674.82	326.889
1676.94	319.778
1679.06	320.222
1681.18	320.889
1683.3	313.556
1685.41	312.667
1687.53	313.333
1689.64	310.889
1691.76	310
1693.87	301.556
1695.99	312
1698.1	302.444
1700.21	313.111
1702.32	305.778
1704.43	306.667
1706.54	308.444
1708.65	305.333
1710.76	310
1712.87	312.444
1714.98	314.444
1717.08	308
1719.19	310
1721.29	297.778
1723.4	304.222
1725.5	298.889
1727.61	308.222
1729.71	303.556
1731.81	298.222
1733.91	301.111
1736.02	301.111
1738.12	307.333
1740.22	304.444
1742.31	293.556
1744.41	298
1746.51	296.444
1748.61	295.333
1750.7	303.333
1752.8	306.222
1754.9	293.111
1756.99	296.667
1759.08	290.444
1761.18	292.889
1763.27	303.333
1765.36	297.778
1767.45	296.222
1769.54	293.556
1771.63	295.778
1773.72	297.778
1775.81	296.667
1777.9	299.111
1779.99	294.889
1782.08	296
1784.16	291.556
1786.25	297.556
1788.33	293.556
1790.42	299.333
1792.5	296.444
1794.58	301.111
1796.67	289.111
1798.75	293.111
1800.83	294.667
1802.91	293.778
1804.99	294.889
1807.07	290.889
1809.15	293.778
1811.23	298.444
1813.3	297.778
1815.38	287.778
1817.46	285.333
1819.53	293.333
1821.61	279.556
1823.68	292.889
1825.75	288.667
1827.83	288
1829.9	298.889
1831.97	280.889
1834.04	284
1836.11	286.444
1838.18	284.667
1840.25	286.222
1842.32	290.444
1844.39	284.444
1846.46	294
1848.52	282.222
1850.59	284.667
1852.65	286.444
1854.72	279.333
1856.78	290.222
1858.85	282.889
1860.91	285.556
1862.97	286
1865.03	280.889
1867.09	279.556
1869.16	279.111
1871.22	286.889
1873.27	286.889
1875.33	276.667
1877.39	282.222
1879.45	281.333
1881.51	288.444
1883.56	284.222
1885.62	285.778
1887.67	286.667
1889.73	278.889
1891.78	280.222
1893.83	281.556
1895.89	278
1897.94	289.556
1899.99	282.667
1902.04	281.778
1904.09	277.556
1906.14	287.111
1908.19	284
1910.23	280.444
1912.28	277.778
1914.33	278.222
1916.37	286.889
1918.42	280
1920.46	278.889
1922.51	283.778
1924.55	284.667
1926.6	284.667
1928.64	282.222
1930.68	278.889
1932.72	281.333
1934.76	277.111
1936.8	278
1938.84	278.222
1940.88	273.778
1942.92	279.111
1944.96	277.778
1946.99	280.889
1949.03	276
1951.06	277.778
1953.1	279.778
1955.13	275.111
1957.17	281.556
1959.2	270.222
1961.23	281.111
1963.27	271.333
1965.3	276
1967.33	269.778
1969.36	276.667
1971.39	267.556
1973.42	275.778
1975.44	280
1977.47	275.778
1979.5	272.889
1981.53	279.778
1983.55	277.556
1985.58	271.333
1987.6	270
1989.63	270.667
1991.65	269.778
1993.67	273.333
1995.69	273.778
1997.72	264.889
1999.74	274.222
2001.76	274.667
2003.78	274
2005.8	278
2007.82	277.333
2009.83	274.667
2011.85	268.222
2013.87	274
2015.88	273.556
2017.9	271.556
2019.91	274.667
2021.93	274.222
2023.94	270.889
2025.96	268.444
2027.97	275.111
2029.98	269.556
2031.99	272.222
2034	278.889
2036.01	268.889
2038.02	271.111
2040.03	273.111
2042.04	267.778
2044.05	269.333
2046.05	279.556
2048.06	273.111
2050.07	268.444
2052.07	270.444
2054.08	277.778
2056.08	267.333
2058.08	263.111
2060.09	276.889
2062.09	276.889
2064.09	272.222
2066.09	269.778
2068.09	267.556
2070.09	268.444
2072.09	264.444
2074.09	267.333
2076.09	270.667
2078.09	269.778
2080.08	269.111
2082.08	271.333
2084.08	261.333
2086.07	262.444
2088.07	264.444
2090.06	270.222
2092.05	264.889
2094.05	271.778
2096.04	268
2098.03	267.556
2100.02	264.889
2102.01	271.556
2104	272.889
2105.99	269.111
2107.98	267.778
2109.97	273.333
2111.95	261.111
2113.94	268.889
2115.93	269.556
2117.91	282
2119.9	272.222
2121.88	265.778
2123.87	266.889
2125.85	270
2127.83	279.778
2129.81	269.778
2131.8	278.889
2133.78	268.444
2135.76	266.222
2137.74	267.778
2139.72	266.889
2141.69	265.556
2143.67	274.444
2145.65	267.111
2147.63	263.111
2149.6	262.222
2151.58	264.667
2153.55	270.667
2155.53	260.222
2157.5	269.556
2159.48	264.667
2161.45	260.667
2163.42	257.111
2165.39	258.889
2167.36	262
2169.33	266.667
2171.3	265.111
2173.27	261.778
2175.24	260.444
2177.21	260.222
2179.18	258.667
2181.14	266.444
2183.11	263.333
2185.07	251.333
2187.04	263.778
2189	256.222
2190.97	259.111
2192.93	252
2194.89	256.222
2196.86	252.667
2198.82	256.667
2200.78	260.667
2202.74	262.222
2204.7	255.556
2206.66	258
2208.62	260.444
2210.57	262.222
2212.53	253.333
2214.49	251.778
2216.45	259.778
2218.4	252
2220.36	253.778
2222.31	256.889
2224.27	256.667
2226.22	256.444
2228.17	257.111
2230.12	260.889
2232.08	257.778
2234.03	255.778
2235.98	256
2237.93	259.556
2239.88	253.778
2241.83	251.778
2243.78	251.778
2245.72	256.444
2247.67	249.556
2249.62	253.556
2251.56	257.111
2253.51	254.444
2255.45	250.444
2257.4	258.222
2259.34	258
2261.28	246.667
2263.23	248.667
2265.17	243.778
2267.11	254.444
2269.05	252.667
2270.99	254.667
2272.93	237.778
2274.87	247.333
2276.81	242.444
2278.75	240
2280.68	246.444
2282.62	238.889
2284.56	247.556
2286.49	250.667
2288.43	247.111
2290.36	245.333
2292.3	249.111
2294.23	248.222
2296.16	250.222
2298.09	241.111
2300.03	243.556
2301.96	242.222
2303.89	252.667
2305.82	243.333
2307.75	246.444
2309.68	244.889
2311.6	243.778
2313.53	249.556
2315.46	242
2317.39	247.333
2319.31	241.111
2321.24	244
2323.16	240.667
2325.09	246.444
2327.01	244.222
2328.93	247.111
2330.86	245.111
2332.78	242.889
2334.7	241.778
2336.62	246
2338.54	240.889
2340.46	239.111
2342.38	236
2344.3	240.889
2346.22	237.778
2348.14	240
2350.05	241.333
2351.97	240
2353.89	241.333
2355.8	241.333
2357.71	243.111
2359.63	238
2361.54	242.444
2363.46	245.778
2365.37	239.556
2367.28	236.444
2369.19	239.333
2371.1	244.222
2373.01	233.778
2374.92	243.111
2376.83	243.778
2378.74	235.333
2380.65	234
2382.56	243.333
2384.46	234
2386.37	241.556
2388.27	243.111
2390.18	234
2392.08	236
2393.99	233.556
2395.89	241.333
2397.8	241.556
2399.7	235.333
2401.6	236
2403.5	242
2405.4	236
2407.3	239.556
2409.2	238.444
2411.1	234.889
2413	233.111
2414.9	231.778
2416.8	238.889
2418.69	233.556
2420.59	235.778
2422.48	232.889
2424.38	242.889
2426.28	238
2428.17	238.222
2430.06	239.778
2431.96	242
2433.85	231.333
2435.74	239.556
2437.63	236.222
2439.52	236.222
2441.41	233.556
2443.3	229.778
2445.19	227.556
2447.08	232.222
