178.677	294.444
181.278	286.667
183.879	289.556
186.48	279.778
189.078	280.222
191.677	278.667
194.275	272.667
196.871	276.667
199.467	271.333
202.061	261.333
204.656	268.444
207.248	271.556
209.841	268.222
212.431	260
215.022	256.667
217.613	261.333
220.201	257.333
222.789	252.222
225.375	251.778
227.962	251.111
230.547	250.444
233.13	251.111
235.714	250.222
238.296	251.333
240.879	249.111
243.459	252
246.04	246
248.618	243.333
251.196	242.889
253.774	244.667
256.35	248.889
258.927	239.556
261.501	237.111
264.074	238.444
266.648	238.667
269.22	236.889
271.791	246.222
274.362	247.111
276.931	236
279.5	246.667
282.069	249.778
284.635	247.333
287.201	254.444
289.766	254.222
292.331	256
294.894	257.111
297.457	262.444
300.018	254
302.58	249.556
305.14	248.667
307.699	240.222
310.257	241.556
312.814	229.556
315.372	225.333
317.928	224.667
320.482	218
323.036	215.778
325.589	218.667
328.142	217.556
330.693	208.889
333.243	219.556
335.795	211.111
338.343	216.667
340.891	221.111
343.439	213.333
345.985	223.111
348.53	219.556
351.075	221.778
353.619	220.667
356.162	226.444
358.704	225.778
361.245	223.111
363.786	236
366.325	244.889
368.864	246.667
371.402	246.222
373.939	254.889
376.475	246.889
379.011	253.111
381.545	248.444
384.079	244
386.612	246.222
389.144	232.667
391.674	238
394.204	237.778
396.734	241.111
399.263	244
401.791	238.444
404.318	239.333
406.844	242.444
409.368	241.111
411.893	240.444
414.417	241.111
416.94	240.222
419.462	244.667
421.982	237.111
424.502	241.111
427.022	238.222
429.541	236.444
432.057	242.889
434.574	239.333
437.091	245.778
439.606	242
442.12	235.778
444.634	242.222
447.147	247.556
449.657	247.778
452.169	237.333
454.68	240.889
457.188	236
459.697	235.778
462.205	236.444
464.711	237.778
467.217	235.556
469.722	233.778
472.227	236.444
474.731	232.889
477.232	238.444
479.735	237.111
482.235	230.222
484.736	239.111
487.234	232.889
489.734	235.333
492.23	235.556
494.728	242.889
497.223	245.778
499.719	241.556
502.213	246.889
504.707	257.556
507.199	249.333
509.692	250.889
512.182	247.333
514.673	249.556
517.162	252.667
519.65	253.333
522.139	251.556
524.625	247.778
527.112	239.778
529.597	238.889
532.081	243.333
534.565	234.444
537.047	236.667
539.529	247.111
542.011	235.333
544.491	229.778
546.97	238.667
549.45	242
551.927	239.111
554.404	240
556.88	237.556
559.356	239.333
561.831	240.889
564.304	234.889
566.777	237.556
569.25	237.111
571.721	236.444
574.191	240.667
576.661	236.444
579.129	230.889
581.599	236.667
584.066	240.444
586.532	242.889
588.997	230.889
591.462	232.667
593.926	238.889
596.389	239.778
598.851	236.444
601.314	236.444
603.775	242.222
606.235	246
608.694	241.111
611.152	244.889
613.609	245.111
616.066	244.889
618.522	244.444
620.977	234.889
623.431	246
625.885	255.333
628.338	270
630.79	275.111
633.241	278.667
635.691	287.778
638.141	282.667
640.589	292.889
643.036	286
645.483	286
647.929	272
650.375	273.111
652.82	260.667
655.264	258.222
657.707	254.222
660.149	263.333
662.59	258.222
665.031	258
667.471	263.111
669.91	263.778
672.349	258.667
674.786	254
677.222	258.222
679.658	260.222
682.093	261.111
684.528	264.667
686.96	261.778
689.393	254.667
691.826	260.889
694.256	261.556
696.686	253.778
699.116	262.667
701.545	264.667
703.972	262.444
706.4	261.111
708.826	269.778
711.251	262.889
713.676	266.444
716.099	263.333
718.523	258
720.946	266.889
723.366	260.667
725.788	263.778
728.207	259.556
730.627	268.889
733.044	265.333
735.462	270.667
737.88	277.333
740.295	290.667
742.711	298.222
745.125	292.889
747.539	304.222
749.951	287.111
752.363	278.222
754.775	280.889
757.185	269.333
759.595	270.667
762.003	271.778
764.412	268.222
766.819	275.778
769.225	269.333
771.632	267.333
774.036	269.556
776.441	274.667
778.844	273.778
781.246	280.889
783.649	274.889
786.05	282.889
788.449	284.222
790.85	288.444
793.248	290.222
795.646	297.556
798.042	296.444
800.44	298.667
802.835	308
805.23	315.778
807.623	318.444
810.018	337.333
812.41	339.778
814.801	349.333
817.192	357.333
819.582	357.778
821.972	351.556
824.361	349.333
826.748	351.556
829.135	350
831.521	357.111
833.907	349.111
836.291	360.444
838.675	363.333
841.059	374.444
843.442	387.556
845.823	396.889
848.204	415.778
850.584	440.444
852.963	436.444
855.342	445.556
857.72	447.111
860.097	450.667
862.473	446
864.848	439.778
867.223	400.667
869.597	373.333
871.97	346.444
874.343	327.556
876.714	316.444
879.084	311.333
881.454	301.333
883.824	305.111
886.192	289.778
888.56	296.889
890.927	292.889
893.294	283.111
895.66	281.778
898.023	292.222
900.387	276.667
902.751	280
905.114	280.444
907.476	277.333
909.835	272
912.196	274.667
914.555	284
916.914	284
919.271	281.556
921.629	278.222
923.985	281.111
926.341	286.444
928.695	288
931.05	283.333
933.404	294.667
935.755	292.889
938.107	298.444
940.459	298.667
942.808	299.111
945.158	292
947.508	290.222
949.855	292.444
952.202	289.333
954.548	291.778
956.894	296.222
959.239	294.444
961.583	293.111
963.928	288.889
966.27	294.222
968.612	285.556
970.953	287.111
973.294	291.778
975.633	295.333
977.972	296.222
980.31	294.889
982.647	301.111
984.984	299.778
987.32	291.111
989.656	294
991.989	288.667
994.324	284.667
996.656	282.889
998.988	287.333
1001.32	293.111
1003.65	284.444
1005.98	292.222
1008.31	290.444
1010.64	301.111
1012.97	304.444
1015.29	304.444
1017.62	290
1019.94	293.333
1022.27	282
1024.59	285.778
1026.92	284.222
1029.24	286.889
1031.56	285.778
1033.88	278.222
1036.2	289.556
1038.52	297.778
1040.84	290.889
1043.16	285.111
1045.48	279.111
1047.79	283.111
1050.11	285.111
1052.42	285.333
1054.74	287.778
1057.05	277.333
1059.36	281.333
1061.67	283.333
1063.99	288.444
1066.3	290
1068.61	287.333
1070.92	286.889
1073.22	295.111
1075.53	293.111
1077.84	300
1080.15	304.222
1082.45	309.333
1084.76	306.889
1087.06	310.222
1089.36	323.333
1091.66	311.333
1093.97	326.444
1096.27	332.667
1098.57	347.333
1100.87	363.778
1103.17	386.667
1105.46	398.444
1107.76	437.556
1110.06	449.111
1112.35	463.556
1114.65	427.556
1116.94	391.333
1119.24	384
1121.53	364.889
1123.82	357.556
1126.11	360.444
1128.4	365.556
1130.7	390
1132.98	397.111
1135.27	397.333
1137.56	398.222
1139.85	402
1142.13	403.778
1144.42	396.889
1146.71	383.556
1148.99	387.778
1151.27	390.667
1153.56	387.333
1155.84	379.778
1158.12	380.222
1160.4	370.667
1162.68	358.667
1164.96	370.667
1167.24	363.778
1169.51	353.556
1171.79	355.778
1174.07	350.444
1176.34	349.556
1178.62	347.111
1180.89	356
1183.17	345.778
1185.44	360.889
1187.71	356
1189.98	363.111
1192.25	362
1194.52	375.111
1196.79	376.222
1199.06	383.111
1201.33	394.667
1203.59	394.889
1205.86	397.778
1208.12	411.333
1210.39	422
1212.65	429.111
1214.92	437.333
1217.18	440.444
1219.44	441.778
1221.7	442.889
1223.96	465.556
1226.22	469.778
1228.48	467.111
1230.74	484.889
1233	475.333
1235.25	487.556
1237.51	493.556
1239.77	495.333
1242.02	502.222
1244.27	509.111
1246.53	522.889
1248.78	522
1251.03	538.889
1253.28	550.222
1255.53	561.111
1257.78	560.667
1260.03	574.889
1262.28	598.889
1264.53	589.333
1266.78	597.333
1269.02	616
1271.27	613.111
1273.51	630.667
1275.76	636.889
1278	669.333
1280.24	693.556
1282.48	701.556
1284.72	739.556
1286.97	770
1289.21	777.111
1291.44	776.667
1293.68	776.222
1295.92	789.556
1298.16	793.333
1300.39	787.778
1302.63	779.778
1304.86	770.889
1307.1	741.111
1309.33	734.222
1311.56	715.333
1313.8	727.111
1316.03	716.444
1318.26	720.222
1320.49	724.889
1322.72	725.111
1324.95	725.111
1327.17	717.556
1329.4	700.889
1331.63	688.222
1333.85	671.333
1336.08	665.111
1338.3	628.444
1340.53	609.778
1342.75	559.778
1344.97	538.444
1347.19	497.556
1349.41	470.444
1351.63	441.333
1353.85	424
1356.07	405.556
1358.29	389.111
1360.51	375.556
1362.72	372.444
1364.94	372.222
1367.16	370.667
1369.37	377.333
1371.58	370.889
1373.8	382.444
1376.01	384.444
1378.22	391.333
1380.43	392
1382.64	389.333
1384.85	392.889
1387.06	400
1389.27	397.778
1391.48	389.111
1393.68	395.778
1395.89	393.556
1398.1	390.667
1400.3	377.556
1402.51	373.556
1404.71	374.667
1406.91	375.333
1409.11	369.556
1411.32	375.556
1413.52	372.222
1415.72	377.333
1417.92	386
1420.11	380
1422.31	372.444
1424.51	370.444
1426.71	364.889
1428.9	356.444
1431.1	356.444
1433.29	354.667
1435.49	363.333
1437.68	353.333
1439.87	354.444
1442.06	342.667
1444.25	350.222
1446.45	352.444
1448.64	343.556
1450.82	354.889
1453.01	348.222
1455.2	355.556
1457.39	342.667
1459.57	342.889
1461.76	344
1463.94	344.667
1466.13	347.778
1468.31	346.222
1470.5	345.556
1472.68	349.333
1474.86	339.778
1477.04	346.889
1479.22	352.444
1481.4	350.889
1483.58	356.222
1485.76	358.889
1487.94	350.667
1490.11	351.333
1492.29	346.444
1494.46	353.778
1496.64	359.333
1498.81	351.556
1500.99	363.111
1503.16	357.111
1505.33	360
1507.5	362.667
1509.67	350.889
1511.84	350.667
1514.01	356.222
1516.18	347.778
1518.35	346.222
1520.52	346.667
1522.68	338.444
1524.85	340.222
1527.02	338.889
1529.18	340
1531.35	343.778
1533.51	349.778
1535.67	349.778
1537.83	342
1539.99	341.111
1542.16	350
1544.31	345.556
1546.47	343.778
1548.63	344.667
1550.79	351.111
1552.95	347.778
1555.11	351.111
1557.26	353.333
1559.42	355.111
1561.57	344.667
1563.73	353.556
1565.88	353.333
1568.03	349.778
1570.18	356
1572.34	370.444
1574.49	369.556
1576.64	374
1578.79	381.333
1580.93	381.556
1583.08	393.111
1585.23	397.556
1587.38	416.889
1589.52	406.667
1591.67	411.556
1593.81	409.111
1595.96	405.556
1598.1	402.889
1600.24	391.111
1602.38	376
1604.53	379.111
1606.67	373.111
1608.81	362.222
1610.95	364.667
1613.09	349.778
1615.22	360.222
1617.36	352.444
1619.5	343.556
1621.63	351.333
1623.77	338
1625.9	335.778
1628.04	324.222
1630.17	324.444
1632.3	318.444
1634.44	317.556
1636.57	311.778
1638.7	309.556
1640.83	306.667
1642.96	310
1645.09	305.556
1647.22	302.889
1649.34	306
1651.47	296.444
1653.6	298.889
1655.72	296.444
1657.85	290.667
1659.97	289.556
1662.1	293.111
1664.22	288.444
1666.34	288.444
1668.46	291.111
1670.58	293.111
1672.7	273.111
1674.82	277.778
1676.94	285.111
1679.06	278
1681.18	275.556
1683.3	271.556
1685.41	277.333
1687.53	273.333
1689.64	273.778
1691.76	273.556
1693.87	281.333
1695.99	276.444
1698.1	277.111
1700.21	274.667
1702.32	268
1704.43	268
1706.54	264.222
1708.65	276
1710.76	259.111
1712.87	264.444
1714.98	274
1717.08	270.667
1719.19	264.889
1721.29	265.111
1723.4	274.889
1725.5	268.444
1727.61	266.667
1729.71	269.778
1731.81	263.111
1733.91	265.556
1736.02	270.889
1738.12	265.778
1740.22	263.778
1742.31	268.667
1744.41	259.778
1746.51	268
1748.61	261.778
1750.7	258.667
1752.8	256
1754.9	259.778
1756.99	264.444
1759.08	264.444
1761.18	261.111
1763.27	268.444
1765.36	259.111
1767.45	260.889
1769.54	257.111
1771.63	254.444
1773.72	259.111
1775.81	267.111
1777.9	264.444
1779.99	260.667
1782.08	257.778
1784.16	254
1786.25	261.333
1788.33	266
1790.42	260.222
1792.5	266.222
1794.58	257.556
1796.67	262.222
1798.75	263.778
1800.83	264
1802.91	263.333
1804.99	257.556
1807.07	261.333
1809.15	250
1811.23	253.778
1813.3	252.444
1815.38	255.333
1817.46	252.222
1819.53	256.222
1821.61	256.222
1823.68	264
1825.75	257.333
1827.83	256.889
1829.9	258.222
1831.97	253.778
1834.04	256.889
1836.11	253.111
1838.18	250.222
1840.25	250.444
1842.32	252.889
1844.39	252
1846.46	248.889
1848.52	251.111
1850.59	249.778
1852.65	247.778
1854.72	248.667
1856.78	252.667
1858.85	244.889
1860.91	244.889
1862.97	254.444
1865.03	251.111
1867.09	260.222
1869.16	247.778
1871.22	246.667
1873.27	255.778
1875.33	254.889
1877.39	253.556
1879.45	249.556
1881.51	257.333
1883.56	247.556
1885.62	242.222
1887.67	251.333
1889.73	243.556
1891.78	243.111
1893.83	245.333
1895.89	244.889
1897.94	252.222
1899.99	252
1902.04	254.889
1904.09	245.556
1906.14	249.333
1908.19	245.333
1910.23	246.889
1912.28	252.444
1914.33	249.333
1916.37	248.444
1918.42	244.444
1920.46	249.111
1922.51	255.111
1924.55	247.556
1926.6	247.778
1928.64	246.444
1930.68	248
1932.72	241.333
1934.76	246.444
1936.8	249.333
1938.84	245.111
1940.88	249.111
1942.92	247.111
1944.96	244.667
1946.99	245.778
1949.03	244.889
1951.06	243.111
1953.1	240.444
1955.13	245.778
1957.17	240.667
1959.2	245.778
1961.23	237.556
1963.27	234.222
1965.3	238.222
1967.33	245.111
1969.36	239.778
1971.39	238
1973.42	235.333
1975.44	241.111
1977.47	246.889
1979.5	244.667
1981.53	241.556
1983.55	240.444
1985.58	238
1987.6	242.222
1989.63	240
1991.65	240
1993.67	231.778
1995.69	243.111
1997.72	234.667
1999.74	238
2001.76	236.444
2003.78	248.222
2005.8	247.111
2007.82	237.556
2009.83	236.667
2011.85	236.444
2013.87	246
2015.88	239.778
2017.9	239.778
2019.91	237.111
2021.93	239.778
2023.94	241.333
2025.96	240
2027.97	243.778
2029.98	240.667
2031.99	238
2034	231.778
2036.01	242.222
2038.02	240.222
2040.03	240
2042.04	239.778
2044.05	245.111
2046.05	238.889
2048.06	245.333
2050.07	243.778
2052.07	236
2054.08	239.778
2056.08	241.333
2058.08	238.667
2060.09	239.556
2062.09	241.333
2064.09	235.556
2066.09	240.889
2068.09	241.333
2070.09	232.667
2072.09	241.778
2074.09	234.667
2076.09	237.333
2078.09	236.444
2080.08	231.333
2082.08	234.889
2084.08	237.556
2086.07	242.222
2088.07	227.556
2090.06	232.667
2092.05	240
2094.05	237.778
2096.04	231.778
2098.03	240.667
2100.02	233.778
2102.01	243.333
2104	237.111
2105.99	234.667
2107.98	232.889
2109.97	236.889
2111.95	239.111
2113.94	239.333
2115.93	240.889
2117.91	236.444
2119.9	241.778
2121.88	238
2123.87	244.667
2125.85	239.111
2127.83	239.778
2129.81	243.556
2131.8	233.778
2133.78	236
2135.76	235.778
2137.74	237.111
2139.72	241.556
2141.69	238.667
2143.67	236.667
2145.65	232.222
2147.63	234.222
2149.6	240.889
2151.58	232.667
2153.55	233.556
2155.53	230.222
2157.5	240
2159.48	230.889
2161.45	226.444
2163.42	230.667
2165.39	231.333
2167.36	230.889
2169.33	225.556
2171.3	230.222
2173.27	228.222
2175.24	233.111
2177.21	227.111
2179.18	229.556
2181.14	229.333
2183.11	230.444
2185.07	224.222
2187.04	232.667
2189	229.333
2190.97	226.444
2192.93	229.778
2194.89	223.778
2196.86	223.333
2198.82	217.556
2200.78	230.444
2202.74	233.111
2204.7	226
2206.66	233.778
2208.62	222.444
2210.57	224.667
2212.53	218.667
2214.49	218.222
2216.45	227.111
2218.4	229.333
2220.36	218
2222.31	221.333
2224.27	231.778
2226.22	221.333
2228.17	233.556
2230.12	224.222
2232.08	224.667
2234.03	220.222
2235.98	220.889
2237.93	222.667
2239.88	222.222
2241.83	220
2243.78	222.667
2245.72	218.667
2247.67	228
2249.62	221.556
2251.56	226.889
2253.51	223.778
2255.45	224.444
2257.4	218.667
2259.34	220.222
2261.28	216.889
2263.23	221.778
2265.17	222
2267.11	218.444
2269.05	219.556
2270.99	222.667
2272.93	219.778
2274.87	215.111
2276.81	218.444
2278.75	215.778
2280.68	217.556
2282.62	221.778
2284.56	222.667
2286.49	225.556
2288.43	216.444
2290.36	220
2292.3	218
2294.23	214.222
2296.16	223.111
2298.09	215.111
2300.03	216.222
2301.96	213.333
2303.89	217.111
2305.82	215.556
2307.75	219.778
2309.68	217.556
2311.6	214.889
2313.53	220
2315.46	216
2317.39	219.556
2319.31	219.111
2321.24	221.333
2323.16	214.222
2325.09	212.222
2327.01	214.889
2328.93	215.778
2330.86	215.778
2332.78	217.556
2334.7	216
2336.62	211.556
2338.54	214
2340.46	217.556
2342.38	212.889
2344.3	211.556
2346.22	210.889
2348.14	215.556
2350.05	212.667
2351.97	206.889
2353.89	213.778
2355.8	211.111
2357.71	208.222
2359.63	217.111
2361.54	215.111
2363.46	215.556
2365.37	214
2367.28	212.444
2369.19	209.111
2371.1	208.444
2373.01	211.778
2374.92	214.889
2376.83	213.333
2378.74	220.667
2380.65	206
2382.56	212.667
2384.46	211.556
2386.37	209.111
2388.27	214.444
2390.18	207.333
2392.08	208.444
2393.99	210.444
2395.89	204.444
2397.8	211.778
2399.7	214
2401.6	210
2403.5	212
2405.4	208
2407.3	207.556
2409.2	204.667
2411.1	206.667
2413	211.333
2414.9	205.556
2416.8	210.222
2418.69	214.889
2420.59	209.556
2422.48	206.444
2424.38	206.444
2426.28	208.444
2428.17	211.333
2430.06	206
2431.96	218.444
2433.85	212.667
2435.74	210.444
2437.63	208
2439.52	204.222
2441.41	203.778
2443.3	208.667
2445.19	204.889
2447.08	209.778
