178.677	307.778
181.278	304.222
183.879	294.222
186.48	289.778
189.078	279.556
191.677	289.111
194.275	283.111
196.871	282.667
199.467	280.444
202.061	277.333
204.656	273.111
207.248	280
209.841	270.667
212.431	271.778
215.022	268.667
217.613	266.444
220.201	263.333
222.789	267.778
225.375	264.667
227.962	262.667
230.547	258.222
233.13	248.222
235.714	259.333
238.296	255.778
240.879	240.667
243.459	252
246.04	251.778
248.618	247.111
251.196	242.889
253.774	251.111
256.35	248.222
258.927	245.333
261.501	253.111
264.074	244.889
266.648	247.333
269.22	239.333
271.791	243.333
274.362	247.111
276.931	249.556
279.5	246.889
282.069	249.111
284.635	243.778
287.201	251.556
289.766	252.667
292.331	252
294.894	259.556
297.457	253.333
300.018	259.333
302.58	257.333
305.14	246.444
307.699	245.556
310.257	238.222
312.814	234.222
315.372	234.889
317.928	226.222
320.482	227.333
323.036	226.222
325.589	221.778
328.142	220.444
330.693	227.111
333.243	221.111
335.795	222.222
338.343	216.889
340.891	218.889
343.439	221.111
345.985	218.889
348.53	226.667
351.075	217.111
353.619	218.667
356.162	228.222
358.704	231.333
361.245	226.889
363.786	233.111
366.325	237.556
368.864	245.333
371.402	244.889
373.939	253.333
376.475	262.222
379.011	256.444
381.545	254.889
384.079	252
386.612	242.444
389.144	243.778
391.674	245.111
394.204	235.111
396.734	246
399.263	241.111
401.791	241.556
404.318	239.778
406.844	247.333
409.368	242.667
411.893	243.778
414.417	245.111
416.94	240.889
419.462	251.111
421.982	243.778
424.502	242.889
427.022	243.556
429.541	242
432.057	242.889
434.574	243.778
437.091	250.222
439.606	249.333
442.12	247.778
444.634	244.667
447.147	246.667
449.657	245.556
452.169	251.333
454.68	239.778
457.188	242.222
459.697	242.889
462.205	239.333
464.711	240.444
467.217	236.222
469.722	224.667
472.227	236
474.731	233.556
477.232	230.889
479.735	238.222
482.235	233.111
484.736	234.444
487.234	233.778
489.734	241.333
492.23	243.333
494.728	245.556
497.223	246.667
499.719	252.222
502.213	252.889
504.707	254
507.199	253.111
509.692	256.222
512.182	254.222
514.673	254.222
517.162	256
519.65	248.222
522.139	250.444
524.625	252.667
527.112	242.222
529.597	244.444
532.081	242.667
534.565	235.111
537.047	236.444
539.529	239.111
542.011	240.889
544.491	239.778
546.97	232
549.45	237.333
551.927	237.111
554.404	245.556
556.88	240.667
559.356	243.778
561.831	241.778
564.304	238
566.777	238.222
569.25	245.556
571.721	235.333
574.191	234.667
576.661	240.222
579.129	235.111
581.599	239.556
584.066	241.333
586.532	240.667
588.997	241.333
591.462	245.556
593.926	242.444
596.389	242.222
598.851	243.556
601.314	247.333
603.775	245.111
606.235	240.444
608.694	252.667
611.152	246
613.609	242.889
616.066	249.556
618.522	243.556
620.977	242.889
623.431	252.667
625.885	261.556
628.338	262.444
630.79	279.778
633.241	284.222
635.691	302.222
638.141	300.667
640.589	298.667
643.036	289.333
645.483	283.333
647.929	278
650.375	270.444
652.82	263.556
655.264	258.444
657.707	254
660.149	269.556
662.59	263.778
665.031	256.889
667.471	259.111
669.91	256.889
672.349	257.333
674.786	256.889
677.222	261.556
679.658	266.889
682.093	266.222
684.528	256.889
686.96	264.667
689.393	267.111
691.826	269.778
694.256	266
696.686	267.333
699.116	258.444
701.545	262.444
703.972	263.333
706.4	266.444
708.826	272.222
711.251	270.667
713.676	270.444
716.099	260
718.523	264.667
720.946	268.222
723.366	275.333
725.788	264.667
728.207	275.111
730.627	264.889
733.044	272.889
735.462	273.333
737.88	285.333
740.295	291.778
742.711	302
745.125	310
747.539	304.222
749.951	292.667
752.363	293.111
754.775	280.444
757.185	287.333
759.595	283.333
762.003	279.556
764.412	276
766.819	276.889
769.225	274.667
771.632	274
774.036	281.556
776.441	278.444
778.844	279.111
781.246	284.667
783.649	291.333
786.05	290.889
788.449	291.111
790.85	294.667
793.248	299.111
795.646	301.111
798.042	304.444
800.44	311.111
802.835	321.556
805.23	312.444
807.623	324.889
810.018	345.778
812.41	355.556
814.801	366
817.192	364.222
819.582	368.444
821.972	369.778
824.361	363.778
826.748	368.222
829.135	353.333
831.521	363.111
833.907	370.222
836.291	374.222
838.675	372.444
841.059	380.889
843.442	397.333
845.823	418.444
848.204	443.333
850.584	453.111
852.963	471.111
855.342	467.556
857.72	461.111
860.097	474.444
862.473	467.333
864.848	459.778
867.223	426.667
869.597	391.556
871.97	363.778
874.343	340.444
876.714	334.889
879.084	319.556
881.454	308.222
883.824	305.556
886.192	306.444
888.56	294.444
890.927	293.778
893.294	284.667
895.66	285.556
898.023	287.556
900.387	289.111
902.751	290.667
905.114	296.444
907.476	287.556
909.835	290.222
912.196	283.111
914.555	292
916.914	289.111
919.271	293.333
921.629	289.556
923.985	292.667
926.341	286.667
928.695	301.111
931.05	306
933.404	304.889
935.755	301.111
938.107	308.667
940.459	302.444
942.808	302.667
945.158	303.778
947.508	304
949.855	299.778
952.202	303.333
954.548	300.667
956.894	307.556
959.239	302.889
961.583	305.111
963.928	303.333
966.27	294.444
968.612	301.778
970.953	308
973.294	303.556
975.633	300.444
977.972	306.889
980.31	307.778
982.647	312.889
984.984	303.111
987.32	308.889
989.656	300.667
991.989	293.556
994.324	297.778
996.656	299.333
998.988	300.222
1001.32	297.778
1003.65	297.778
1005.98	301.111
1008.31	309.111
1010.64	317.333
1012.97	318.667
1015.29	318
1017.62	306.222
1019.94	297.333
1022.27	289.111
1024.59	292.889
1026.92	294.444
1029.24	291.778
1031.56	304.222
1033.88	287.333
1036.2	293.333
1038.52	301.111
1040.84	305.556
1043.16	297.556
1045.48	300.667
1047.79	294
1050.11	300.444
1052.42	292.667
1054.74	297.556
1057.05	293.111
1059.36	302.667
1061.67	305.333
1063.99	303.111
1066.3	299.111
1068.61	302.667
1070.92	309.778
1073.22	304.444
1075.53	308
1077.84	309.778
1080.15	313.556
1082.45	320.889
1084.76	318.444
1087.06	321.111
1089.36	331.111
1091.66	342
1093.97	343.556
1096.27	349.333
1098.57	361.333
1100.87	381.333
1103.17	414.889
1105.46	444.889
1107.76	464.889
1110.06	488.667
1112.35	496.667
1114.65	459.333
1116.94	430
1119.24	407.556
1121.53	375.333
1123.82	371.556
1126.11	374.222
1128.4	382.889
1130.7	401.111
1132.98	410.444
1135.27	421.556
1137.56	415.556
1139.85	411.778
1142.13	429.778
1144.42	420.222
1146.71	412
1148.99	402.222
1151.27	410.222
1153.56	401.111
1155.84	398.222
1158.12	400.889
1160.4	390.222
1162.68	384.667
1164.96	380.444
1167.24	384.889
1169.51	386.889
1171.79	366.889
1174.07	370.444
1176.34	363.111
1178.62	370
1180.89	368.444
1183.17	374
1185.44	379.111
1187.71	388.444
1189.98	387.333
1192.25	389.111
1194.52	397.556
1196.79	406.889
1199.06	413.556
1201.33	418.444
1203.59	418.667
1205.86	433.556
1208.12	444
1210.39	454
1212.65	463.778
1214.92	467.778
1217.18	466
1219.44	484.222
1221.7	487.556
1223.96	498.889
1226.22	488.222
1228.48	508.889
1230.74	515.778
1233	526.889
1235.25	526.222
1237.51	527.778
1239.77	536.667
1242.02	541.556
1244.27	546.222
1246.53	564.889
1248.78	578.444
1251.03	583.556
1253.28	603.556
1255.53	614.889
1257.78	622.889
1260.03	637.556
1262.28	652.222
1264.53	657.778
1266.78	672.889
1269.02	683.111
1271.27	683.333
1273.51	696.889
1275.76	718.222
1278	734.222
1280.24	754.222
1282.48	790.667
1284.72	817.111
1286.97	846.444
1289.21	861.111
1291.44	868.444
1293.68	867.778
1295.92	888.444
1298.16	894
1300.39	885.111
1302.63	873.333
1304.86	881.111
1307.1	850.889
1309.33	831.111
1311.56	808.667
1313.8	806.889
1316.03	809.333
1318.26	791.111
1320.49	809.111
1322.72	818.444
1324.95	822
1327.17	818.222
1329.4	794.222
1331.63	779.111
1333.85	766.444
1336.08	741.111
1338.3	708.889
1340.53	689.333
1342.75	660.667
1344.97	592.667
1347.19	564.444
1349.41	528.889
1351.63	499.111
1353.85	459.111
1356.07	448.444
1358.29	422.667
1360.51	416.889
1362.72	404.222
1364.94	403.111
1367.16	400.889
1369.37	397.778
1371.58	398.222
1373.8	402.889
1376.01	404
1378.22	409.556
1380.43	418.222
1382.64	415.778
1384.85	424.889
1387.06	430.889
1389.27	424.889
1391.48	425.111
1393.68	420.667
1395.89	416.889
1398.1	418
1400.3	417.111
1402.51	406.222
1404.71	408
1406.91	406.444
1409.11	417.333
1411.32	400.222
1413.52	415.333
1415.72	408.222
1417.92	407.556
1420.11	408.667
1422.31	409.556
1424.51	402.889
1426.71	398.667
1428.9	398.667
1431.1	386.889
1433.29	386.889
1435.49	392.222
1437.68	385.111
1439.87	377.111
1442.06	390.444
1444.25	379.333
1446.45	387.333
1448.64	374.222
1450.82	384.667
1453.01	381.778
1455.2	376.889
1457.39	376.889
1459.57	366
1461.76	372
1463.94	379.333
1466.13	377.111
1468.31	371.556
1470.5	377.333
1472.68	378.444
1474.86	374
1477.04	377.333
1479.22	374.444
1481.4	386.222
1483.58	384
1485.76	374
1487.94	387.556
1490.11	380.889
1492.29	378.444
1494.46	384.889
1496.64	396.444
1498.81	389.333
1500.99	399.111
1503.16	389.111
1505.33	392
1507.5	389.333
1509.67	390.222
1511.84	384.444
1514.01	382.667
1516.18	382.667
1518.35	379.556
1520.52	381.111
1522.68	369.333
1524.85	372
1527.02	372
1529.18	380.889
1531.35	382
1533.51	375.556
1535.67	393.111
1537.83	382.444
1539.99	387.111
1542.16	384.222
1544.31	376.667
1546.47	380
1548.63	379.778
1550.79	377.333
1552.95	387.556
1555.11	386.444
1557.26	379.778
1559.42	391.556
1561.57	386.222
1563.73	405.111
1565.88	398.667
1568.03	396.667
1570.18	390.444
1572.34	396.222
1574.49	408.667
1576.64	415.333
1578.79	410.222
1580.93	407.778
1583.08	426.444
1585.23	435.778
1587.38	450
1589.52	456.444
1591.67	455.556
1593.81	460.444
1595.96	446.889
1598.1	441.556
1600.24	431.333
1602.38	415.556
1604.53	404.222
1606.67	400.222
1608.81	396.667
1610.95	394.667
1613.09	396
1615.22	382.889
1617.36	394.222
1619.5	383.333
1621.63	377.111
1623.77	374.222
1625.9	369.111
1628.04	348.444
1630.17	353.556
1632.3	344.222
1634.44	347.111
1636.57	334.222
1638.7	340.222
1640.83	328.889
1642.96	328.444
1645.09	331.333
1647.22	329.111
1649.34	334.889
1651.47	323.111
1653.6	319.556
1655.72	313.333
1657.85	320.667
1659.97	314.222
1662.1	314.667
1664.22	309.333
1666.34	323.333
1668.46	306.667
1670.58	310.667
1672.7	307.333
1674.82	301.778
1676.94	308.444
1679.06	300.667
1681.18	298
1683.3	293.556
1685.41	295.556
1687.53	297.111
1689.64	290
1691.76	295.556
1693.87	293.556
1695.99	288.889
1698.1	290.889
1700.21	289.333
1702.32	285.556
1704.43	290
1706.54	285.111
1708.65	294.889
1710.76	291.111
1712.87	296
1714.98	296.444
1717.08	294.667
1719.19	288.444
1721.29	285.111
1723.4	292
1725.5	288.222
1727.61	276
1729.71	287.778
1731.81	284.222
1733.91	280.667
1736.02	279.556
1738.12	284.444
1740.22	283.556
1742.31	279.556
1744.41	278.444
1746.51	279.556
1748.61	289.111
1750.7	280.222
1752.8	280.889
1754.9	283.556
1756.99	284
1759.08	288.444
1761.18	280.222
1763.27	277.556
1765.36	281.111
1767.45	294.222
1769.54	278.889
1771.63	289.556
1773.72	282
1775.81	282.667
1777.9	278.889
1779.99	277.556
1782.08	288.222
1784.16	284.444
1786.25	278.444
1788.33	294.889
1790.42	284.444
1792.5	285.556
1794.58	282.667
1796.67	284.667
1798.75	280.667
1800.83	282
1802.91	271.778
1804.99	284.444
1807.07	276.889
1809.15	280.444
1811.23	282.222
1813.3	282.222
1815.38	276.444
1817.46	270.667
1819.53	276.222
1821.61	280
1823.68	272
1825.75	273.778
1827.83	278.444
1829.9	271.333
1831.97	264.444
1834.04	275.333
1836.11	275.778
1838.18	273.111
1840.25	268.222
1842.32	271.333
1844.39	273.333
1846.46	268
1848.52	280
1850.59	267.778
1852.65	275.333
1854.72	267.333
1856.78	269.333
1858.85	270.222
1860.91	268.222
1862.97	261.333
1865.03	273.111
1867.09	269.111
1869.16	275.111
1871.22	264.667
1873.27	268.889
1875.33	270
1877.39	272.667
1879.45	271.333
1881.51	268.222
1883.56	270.222
1885.62	267.556
1887.67	266.222
1889.73	265.778
1891.78	266.889
1893.83	269.111
1895.89	271.778
1897.94	262.444
1899.99	260.667
1902.04	275.556
1904.09	264.889
1906.14	270.667
1908.19	272.222
1910.23	269.556
1912.28	272.889
1914.33	273.556
1916.37	271.778
1918.42	270.889
1920.46	270.889
1922.51	263.333
1924.55	270.667
1926.6	272
1928.64	271.333
1930.68	272.222
1932.72	272.222
1934.76	268
1936.8	268.667
1938.84	266
1940.88	266.444
1942.92	264.889
1944.96	267.111
1946.99	257.556
1949.03	268.667
1951.06	268
1953.1	269.778
1955.13	260
1957.17	261.111
1959.2	270.444
1961.23	267.333
1963.27	260.444
1965.3	258.889
1967.33	263.556
1969.36	265.556
1971.39	255.556
1973.42	268.889
1975.44	264.222
1977.47	259.556
1979.5	251.556
1981.53	260.444
1983.55	265.333
1985.58	257.111
1987.6	255.556
1989.63	262.222
1991.65	256.889
1993.67	255.556
1995.69	267.556
1997.72	254.222
1999.74	261.556
2001.76	260.444
2003.78	261.778
2005.8	259.333
2007.82	260.222
2009.83	265.556
2011.85	260.222
2013.87	258.667
2015.88	258.667
2017.9	253.778
2019.91	252.667
2021.93	270.222
2023.94	262.667
2025.96	258.667
2027.97	266.889
2029.98	259.556
2031.99	259.111
2034	266.222
2036.01	262.889
2038.02	257.111
2040.03	261.333
2042.04	264.444
2044.05	254
2046.05	260
2048.06	258.667
2050.07	256.889
2052.07	267.778
2054.08	259.111
2056.08	257.778
2058.08	254.889
2060.09	257.778
2062.09	260
2064.09	259.111
2066.09	256.889
2068.09	257.556
2070.09	251.778
2072.09	254.889
2074.09	258.444
2076.09	262.667
2078.09	261.556
2080.08	256.667
2082.08	247.556
2084.08	259.111
2086.07	259.556
2088.07	260.667
2090.06	260.667
2092.05	252.222
2094.05	257.778
2096.04	256
2098.03	249.111
2100.02	258
2102.01	260.889
2104	257.556
2105.99	260.667
2107.98	257.111
2109.97	254.444
2111.95	253.556
2113.94	254
2115.93	260.889
2117.91	266
2119.9	265.778
2121.88	260
2123.87	260.222
2125.85	258.222
2127.83	259.111
2129.81	261.111
2131.8	257.333
2133.78	264.444
2135.76	255.333
2137.74	258.444
2139.72	257.333
2141.69	257.333
2143.67	257.778
2145.65	253.333
2147.63	255.111
2149.6	259.556
2151.58	251.556
2153.55	249.333
2155.53	257.778
2157.5	250.444
2159.48	241.556
2161.45	251.111
2163.42	245.333
2165.39	247.556
2167.36	251.111
2169.33	250.222
2171.3	253.111
2173.27	251.111
2175.24	244.667
2177.21	252.889
2179.18	250.667
2181.14	252.667
2183.11	246.667
2185.07	247.333
2187.04	250
2189	242
2190.97	246.667
2192.93	245.778
2194.89	248.444
2196.86	243.556
2198.82	246.667
2200.78	249.333
2202.74	246.667
2204.7	249.111
2206.66	238.444
2208.62	246.889
2210.57	246.444
2212.53	245.556
2214.49	248.667
2216.45	246.889
2218.4	250.889
2220.36	241.111
2222.31	241.556
2224.27	246.667
2226.22	244.444
2228.17	238.222
2230.12	241.333
2232.08	239.556
2234.03	248
2235.98	238.222
2237.93	236.889
2239.88	247.778
2241.83	243.556
2243.78	247.111
2245.72	244.889
2247.67	256.444
2249.62	248
2251.56	240.222
2253.51	240.222
2255.45	240
2257.4	238.222
2259.34	242.222
2261.28	239.111
2263.23	237.333
2265.17	240.444
2267.11	231.778
2269.05	243.556
2270.99	237.556
2272.93	240.667
2274.87	238.889
2276.81	242
2278.75	234.889
2280.68	235.556
2282.62	240.667
2284.56	238
2286.49	233.778
2288.43	240.667
2290.36	229.333
2292.3	235.778
2294.23	240.667
2296.16	234.667
2298.09	239.333
2300.03	238.444
2301.96	239.556
2303.89	240.889
2305.82	232.444
2307.75	238
2309.68	239.111
2311.6	232.444
2313.53	234.667
2315.46	230
2317.39	230.444
2319.31	233.111
2321.24	238.444
2323.16	236.222
2325.09	241.778
2327.01	240.444
2328.93	236.889
2330.86	241.556
2332.78	236.889
2334.7	233.333
2336.62	236.667
2338.54	232.222
2340.46	237.778
2342.38	233.778
2344.3	228.889
2346.22	233.778
2348.14	226.444
2350.05	233.333
2351.97	227.556
2353.89	231.556
2355.8	227.778
2357.71	232.667
2359.63	226.222
2361.54	235.333
2363.46	233.333
2365.37	236.222
2367.28	233.111
2369.19	235.556
2371.1	232
2373.01	232.667
2374.92	228.667
2376.83	233.333
2378.74	226.444
2380.65	235.556
2382.56	227.778
2384.46	230.889
2386.37	226.667
2388.27	238.667
2390.18	226.444
2392.08	232.889
2393.99	228.444
2395.89	226.222
2397.8	227.556
2399.7	228.444
2401.6	228.667
2403.5	229.778
2405.4	232.444
2407.3	220.222
2409.2	229.111
2411.1	230
2413	227.556
2414.9	236.222
2416.8	230.667
2418.69	233.111
2420.59	223.778
2422.48	225.778
2424.38	229.556
2426.28	231.556
2428.17	231.333
2430.06	230.667
2431.96	230.667
2433.85	233.111
2435.74	226.667
2437.63	230
2439.52	231.333
2441.41	225.556
2443.3	228.222
2445.19	227.111
2447.08	230.222
