178.677	71.5556
181.278	75.5556
183.879	72.6667
186.48	74.2222
189.078	72.4444
191.677	72.4444
194.275	73.3333
196.871	74.2222
199.467	69.5556
202.061	74
204.656	73.7778
207.248	74.8889
209.841	70.4444
212.431	72
215.022	73.5556
217.613	72.4444
220.201	72.6667
222.789	72.4444
225.375	69.7778
227.962	74.2222
230.547	74.4444
233.13	75.1111
235.714	72.8889
238.296	70.8889
240.879	73.5556
243.459	74
246.04	77.3333
248.618	74.6667
251.196	73.1111
253.774	74
256.35	73.5556
258.927	77.7778
261.501	73.7778
264.074	75.3333
266.648	76.2222
269.22	79.5555
271.791	77.5556
274.362	74.8889
276.931	79.1111
279.5	77.3333
282.069	77.5555
284.635	70.2222
287.201	78
289.766	69.5556
292.331	70.8889
294.894	72.8889
297.457	72.6667
300.018	67.3333
302.58	70
305.14	70.2222
307.699	68.6667
310.257	67.5556
312.814	68.8889
315.372	66.4444
317.928	68.4445
320.482	66
323.036	71.5556
325.589	68
328.142	69.1111
330.693	66.6667
333.243	70
335.795	72.4444
338.343	71.5556
340.891	67.1111
343.439	67.3333
345.985	65.5556
348.53	71.3333
351.075	71.5556
353.619	70.6667
356.162	70.6667
358.704	69.3333
361.245	68.8889
363.786	71.7778
366.325	66.6667
368.864	70.8889
371.402	72
373.939	71.7778
376.475	70.8889
379.011	67.3333
381.545	68.4444
384.079	69.3333
386.612	71.5556
389.144	68.2222
391.674	68.8889
394.204	67.7778
396.734	69.3333
399.263	72
401.791	73.1111
404.318	68.4444
406.844	67.5556
409.368	73.5556
411.893	70.2222
414.417	71.7778
416.94	73.7778
419.462	71.7778
421.982	70.4444
424.502	70.8889
427.022	68.2222
429.541	70.2222
432.057	67.3333
434.574	67.3333
437.091	67.3333
439.606	66.6667
442.12	69.7778
444.634	67.1111
447.147	69.1111
449.657	68.4444
452.169	69.7778
454.68	67.5556
457.188	63.3333
459.697	70
462.205	65.7778
464.711	69.5556
467.217	67.1111
469.722	66
472.227	64.8889
474.731	66.4444
477.232	65.7778
479.735	68.4445
482.235	68.6667
484.736	68.2222
487.234	68.4444
489.734	66
492.23	69.7778
494.728	66.4444
497.223	68.2222
499.719	70.8889
502.213	69.3333
504.707	68
507.199	65.5556
509.692	68.8889
512.182	68.2222
514.673	67.3333
517.162	69.7778
519.65	71.1111
522.139	68
524.625	70.2222
527.112	69.3333
529.597	70.2222
532.081	66.6667
534.565	66.6667
537.047	68.6667
539.529	70.2222
542.011	67.3333
544.491	67.7778
546.97	67.5556
549.45	66.2222
551.927	68.2222
554.404	66
556.88	68.8889
559.356	65.7778
561.831	67.5556
564.304	68.2222
566.777	69.5556
569.25	66.6667
571.721	68
574.191	70.4444
576.661	68.2222
579.129	68.4445
581.599	68
584.066	64.8889
586.532	71.7778
588.997	71.1111
591.462	66
593.926	72
596.389	65.5556
598.851	68.4444
601.314	67.5555
603.775	68.2222
606.235	66.6667
608.694	68.4444
611.152	68.4444
613.609	69.7778
616.066	69.1111
618.522	71.3333
620.977	70.6667
623.431	70.6667
625.885	69.3333
628.338	69.1111
630.79	69.1111
633.241	71.3333
635.691	68.6667
638.141	70.4444
640.589	67.3333
643.036	67.3333
645.483	73.3333
647.929	69.1111
650.375	72.2222
652.82	72.8889
655.264	67.1111
657.707	72.6667
660.149	73.5556
662.59	70.8889
665.031	72.4444
667.471	76
669.91	73.1111
672.349	74
674.786	69.7778
677.222	69.7778
679.658	71.3333
682.093	72.6667
684.528	69.3333
686.96	71.7778
689.393	73.5556
691.826	76.2222
694.256	75.5556
696.686	70.8889
699.116	72.8889
701.545	71.1111
703.972	74
706.4	70.8889
708.826	71.1111
711.251	71.1111
713.676	75.5556
716.099	73.7778
718.523	72.2222
720.946	73.3333
723.366	75.1111
725.788	73.5556
728.207	73.7778
730.627	76.6667
733.044	76.2222
735.462	74.4444
737.88	75.3333
740.295	74
742.711	70.8889
745.125	77.5556
747.539	75.1111
749.951	77.1111
752.363	75.3333
754.775	72.2222
757.185	74.6667
759.595	74.6667
762.003	74.6667
764.412	76.2222
766.819	73.7778
769.225	76.4444
771.632	73.7778
774.036	78.4444
776.441	79.3333
778.844	78.6667
781.246	75.5556
783.649	76.4444
786.05	76.8889
788.449	76.8889
790.85	76.2222
793.248	77.1111
795.646	78
798.042	77.7778
800.44	75.5556
802.835	78.4444
805.23	79.1111
807.623	75.7778
810.018	78
812.41	79.5556
814.801	77.1111
817.192	76.4445
819.582	78
821.972	77.1111
824.361	74.8889
826.748	79.3333
829.135	79.3333
831.521	81.5556
833.907	77.5555
836.291	80.6667
838.675	79.1111
841.059	75.7778
843.442	80.2222
845.823	78.6667
848.204	78.6667
850.584	81.1111
852.963	79.7778
855.342	81.7778
857.72	79.3333
860.097	80.2222
862.473	76.4444
864.848	79.1111
867.223	76.6667
869.597	82.6667
871.97	76.4444
874.343	81.3333
876.714	76.4444
879.084	77.5556
881.454	75.1111
883.824	78.2222
886.192	74.6667
888.56	78.6667
890.927	79.1111
893.294	78
895.66	78.6667
898.023	76.2222
900.387	78.4444
902.751	77.1111
905.114	72.8889
907.476	77.5555
909.835	77.1111
912.196	74
914.555	75.7778
916.914	74.8889
919.271	76.4444
921.629	78.4444
923.985	80.4444
926.341	73.3333
928.695	73.7778
931.05	78.2222
933.404	74.4444
935.755	74
938.107	73.5556
940.459	76.2222
942.808	72.4444
945.158	78.8889
947.508	73.3333
949.855	72
952.202	75.5556
954.548	74.8889
956.894	77.5556
959.239	74.6667
961.583	74.4444
963.928	74
966.27	78.2222
968.612	75.7778
970.953	80
973.294	77.1111
975.633	74.2222
977.972	76
980.31	76.4444
982.647	77.5556
984.984	78.2222
987.32	77.7778
989.656	75.3333
991.989	78.4444
994.324	76.6667
996.656	80.4444
998.988	78.8889
1001.32	80.2222
1003.65	80.2222
1005.98	77.1111
1008.31	76.4444
1010.64	82.4444
1012.97	84
1015.29	82.4444
1017.62	82.8889
1019.94	83.5556
1022.27	80.6667
1024.59	80.2222
1026.92	77.7778
1029.24	80.6667
1031.56	80.8889
1033.88	80.2222
1036.2	80
1038.52	80.2222
1040.84	77.5556
1043.16	78
1045.48	79.7778
1047.79	78
1050.11	76.6667
1052.42	75.7778
1054.74	76.8889
1057.05	79.7778
1059.36	77.5556
1061.67	75.3333
1063.99	78
1066.3	80
1068.61	81.7778
1070.92	79.7778
1073.22	79.1111
1075.53	78.8889
1077.84	79.3333
1080.15	75.7778
1082.45	73.5556
1084.76	77.3333
1087.06	74.2222
1089.36	74.2222
1091.66	74.6667
1093.97	74
1096.27	71.3333
1098.57	76
1100.87	79.3333
1103.17	77.1111
1105.46	76
1107.76	72.4445
1110.06	74
1112.35	74.8889
1114.65	78.4444
1116.94	73.1111
1119.24	71.7778
1121.53	74.4444
1123.82	75.3333
1126.11	77.3333
1128.4	73.3333
1130.7	75.7778
1132.98	75.7778
1135.27	77.7778
1137.56	73.7778
1139.85	78.2222
1142.13	71.1111
1144.42	77.7778
1146.71	73.1111
1148.99	75.5556
1151.27	78.4445
1153.56	76.4444
1155.84	76.4444
1158.12	76
1160.4	78.4444
1162.68	77.5556
1164.96	77.1111
1167.24	78.8889
1169.51	76.4444
1171.79	78.6667
1174.07	74.8889
1176.34	75.1111
1178.62	75.3333
1180.89	73.7778
1183.17	76.4444
1185.44	75.7778
1187.71	74.6667
1189.98	72.8889
1192.25	77.5556
1194.52	77.1111
1196.79	80.4444
1199.06	77.5556
1201.33	72.8889
1203.59	79.7778
1205.86	78.4444
1208.12	82
1210.39	76.6667
1212.65	78
1214.92	78
1217.18	76.8889
1219.44	81.7778
1221.7	79.7778
1223.96	80
1226.22	76.2222
1228.48	76.6667
1230.74	76.4444
1233	79.7778
1235.25	82.2222
1237.51	78
1239.77	79.3333
1242.02	78.6667
1244.27	78.2222
1246.53	81.5556
1248.78	79.7778
1251.03	83.5556
1253.28	79.7778
1255.53	82.2222
1257.78	82.4444
1260.03	77.1111
1262.28	80.8889
1264.53	82.2222
1266.78	76.6667
1269.02	80.6667
1271.27	79.1111
1273.51	84.4444
1275.76	81.3333
1278	80.2222
1280.24	77.5556
1282.48	81.1111
1284.72	79.1111
1286.97	80
1289.21	82.8889
1291.44	78.6667
1293.68	80.2222
1295.92	84
1298.16	80.4444
1300.39	78.8889
1302.63	79.3333
1304.86	83.7778
1307.1	81.1111
1309.33	83.3333
1311.56	83.5556
1313.8	84.4444
1316.03	81.3333
1318.26	80.8889
1320.49	80.6667
1322.72	85.7778
1324.95	78.2222
1327.17	77.3333
1329.4	82.6667
1331.63	84.6667
1333.85	83.3333
1336.08	80
1338.3	82.8889
1340.53	83.5556
1342.75	84.2222
1344.97	82.2222
1347.19	83.1111
1349.41	82.8889
1351.63	85.1111
1353.85	83.3333
1356.07	86.8889
1358.29	84.6667
1360.51	83.1111
1362.72	84.2222
1364.94	86.4445
1367.16	85.5555
1369.37	87.7778
1371.58	87.5556
1373.8	87.1111
1376.01	83.5556
1378.22	89.1111
1380.43	87.5556
1382.64	84.6667
1384.85	89.5556
1387.06	86.6667
1389.27	86.4444
1391.48	84
1393.68	87.1111
1395.89	83.5556
1398.1	87.5556
1400.3	87.3333
1402.51	84.6667
1404.71	83.7778
1406.91	85.5556
1409.11	85.1111
1411.32	86.2222
1413.52	81.5556
1415.72	84.6667
1417.92	87.5556
1420.11	85.7778
1422.31	84.4444
1424.51	82.8889
1426.71	85.7778
1428.9	82.4444
1431.1	86.8889
1433.29	84.4444
1435.49	87.1111
1437.68	85.7778
1439.87	86
1442.06	88.8889
1444.25	86.4444
1446.45	86.2222
1448.64	82.8889
1450.82	86.4444
1453.01	86.8889
1455.2	84.4444
1457.39	84.6667
1459.57	86.2222
1461.76	86.2222
1463.94	86.8889
1466.13	88.4444
1468.31	86.6667
1470.5	88.4444
1472.68	83.7778
1474.86	84.6667
1477.04	86.4444
1479.22	83.5556
1481.4	89.3333
1483.58	90.8889
1485.76	86.6667
1487.94	90.2222
1490.11	87.7778
1492.29	88.4445
1494.46	84.2222
1496.64	85.1111
1498.81	86.6667
1500.99	90.6667
1503.16	86.4444
1505.33	86
1507.5	88.2222
1509.67	83.5556
1511.84	88.8889
1514.01	84.8889
1516.18	86
1518.35	86.8889
1520.52	87.3333
1522.68	84.8889
1524.85	87.3333
1527.02	88
1529.18	90
1531.35	87.7778
1533.51	89.3333
1535.67	89.7778
1537.83	90.4444
1539.99	90.8889
1542.16	90.2222
1544.31	93.1111
1546.47	89.3333
1548.63	88.4444
1550.79	93.1111
1552.95	92.2222
1555.11	92.8889
1557.26	93.5556
1559.42	89.3333
1561.57	90
1563.73	90
1565.88	89.1111
1568.03	92.2222
1570.18	90
1572.34	88.8889
1574.49	92
1576.64	93.3333
1578.79	90.6667
1580.93	90
1583.08	93.7778
1585.23	89.7778
1587.38	88.6667
1589.52	90.8889
1591.67	91.7778
1593.81	89.1111
1595.96	86.8889
1598.1	91.3333
1600.24	91.1111
1602.38	90.8889
1604.53	89.1111
1606.67	89.1111
1608.81	88.6667
1610.95	92
1613.09	90
1615.22	90.4444
1617.36	91.1111
1619.5	90.2222
1621.63	91.3333
1623.77	89.1111
1625.9	86.4445
1628.04	90.2222
1630.17	89.3333
1632.3	87.5556
1634.44	88.4444
1636.57	84.8889
1638.7	89.7778
1640.83	86.6667
1642.96	90.2222
1645.09	88.8889
1647.22	90
1649.34	86.4444
1651.47	86
1653.6	89.5556
1655.72	89.5556
1657.85	88.8889
1659.97	88.6667
1662.1	82.8889
1664.22	88
1666.34	87.3333
1668.46	83.3333
1670.58	87.3333
1672.7	87.1111
1674.82	86.2222
1676.94	86.8889
1679.06	89.1111
1681.18	85.7778
1683.3	88.8889
1685.41	86.6667
1687.53	85.7778
1689.64	87.1111
1691.76	86.6667
1693.87	87.3333
1695.99	84.6667
1698.1	88.6667
1700.21	87.7778
1702.32	84.8889
1704.43	89.5556
1706.54	86.6667
1708.65	89.5556
1710.76	87.7778
1712.87	86.8889
1714.98	86.8889
1717.08	89.1111
1719.19	87.7778
1721.29	87.1111
1723.4	88
1725.5	87.7778
1727.61	90
1729.71	87.7778
1731.81	87.1111
1733.91	88
1736.02	90.8889
1738.12	88
1740.22	88.2222
1742.31	88
1744.41	87.1111
1746.51	86.8889
1748.61	89.7778
1750.7	88.2222
1752.8	85.5556
1754.9	87.5556
1756.99	88
1759.08	86.2222
1761.18	85.7778
1763.27	88.2222
1765.36	91.1111
1767.45	89.5556
1769.54	84.2222
1771.63	90.8889
1773.72	90.6667
1775.81	87.3333
1777.9	87.5556
1779.99	86.2222
1782.08	90
1784.16	88.4445
1786.25	86.2222
1788.33	80.4444
1790.42	87.5556
1792.5	88
1794.58	85.5556
1796.67	88.8889
1798.75	87.1111
1800.83	87.7778
1802.91	87.5555
1804.99	88.6667
1807.07	83.3333
1809.15	90.6667
1811.23	89.5556
1813.3	90.4444
1815.38	89.1111
1817.46	86.8889
1819.53	88.2222
1821.61	91.1111
1823.68	89.7778
1825.75	91.7778
1827.83	91.5556
1829.9	90
1831.97	86
1834.04	85.7778
1836.11	88.6667
1838.18	89.1111
1840.25	88.8889
1842.32	89.7778
1844.39	88.6667
1846.46	87.1111
1848.52	90.6667
1850.59	86.4444
1852.65	89.5556
1854.72	85.5556
1856.78	87.7778
1858.85	89.5556
1860.91	86.6667
1862.97	87.7778
1865.03	89.1111
1867.09	91.3333
1869.16	87.7778
1871.22	88.4444
1873.27	86.4444
1875.33	85.3333
1877.39	89.5556
1879.45	90.8889
1881.51	86.4444
1883.56	89.5556
1885.62	85.1111
1887.67	84.8889
1889.73	91.7778
1891.78	86.6667
1893.83	86.4444
1895.89	92
1897.94	83.7778
1899.99	88.6667
1902.04	85.7778
1904.09	87.5555
1906.14	94.2222
1908.19	90.4444
1910.23	88.2222
1912.28	85.5556
1914.33	85.5555
1916.37	87.5556
1918.42	86.6667
1920.46	88.6667
1922.51	88.8889
1924.55	90.6667
1926.6	88.4444
1928.64	91.7778
1930.68	88.6667
1932.72	88
1934.76	89.5556
1936.8	90.4444
1938.84	92.4444
1940.88	91.5556
1942.92	90
1944.96	88.4444
1946.99	91.3333
1949.03	93.3333
1951.06	92.6667
1953.1	92.2222
1955.13	90.6667
1957.17	91.1111
1959.2	89.7778
1961.23	90.8889
1963.27	91.3333
1965.3	90.4444
1967.33	91.3333
1969.36	92
1971.39	88
1973.42	94.2222
1975.44	92.8889
1977.47	91.5555
1979.5	91.3333
1981.53	91.1111
1983.55	85.1111
1985.58	88
1987.6	92.2222
1989.63	90
1991.65	89.7778
1993.67	88.8889
1995.69	89.7778
1997.72	91.5556
1999.74	94.2222
2001.76	89.1111
2003.78	89.5555
2005.8	87.5556
2007.82	92.4444
2009.83	88.8889
2011.85	88
2013.87	91.3333
2015.88	94
2017.9	88.8889
2019.91	90.8889
2021.93	89.3333
2023.94	93.3333
2025.96	94.8889
2027.97	92.2222
2029.98	88.8889
2031.99	92.2222
2034	90.6667
2036.01	95.3333
2038.02	86.2222
2040.03	96.4444
2042.04	92.6667
2044.05	91.3333
2046.05	94.2222
2048.06	91.5555
2050.07	91.7778
2052.07	90
2054.08	93.5556
2056.08	95.3333
2058.08	84.8889
2060.09	94
2062.09	93.7778
2064.09	89.3333
2066.09	93.3333
2068.09	94.4444
2070.09	93.3333
2072.09	94.6667
2074.09	89.3333
2076.09	91.3333
2078.09	93.7778
2080.08	94.2222
2082.08	93.3333
2084.08	94.2222
2086.07	90.4444
2088.07	93.5556
2090.06	95.1111
2092.05	94.8889
2094.05	93.3333
2096.04	92.4444
2098.03	94.2222
2100.02	90.2222
2102.01	95.7778
2104	89.1111
2105.99	93.5556
2107.98	89.3333
2109.97	93.7778
2111.95	94.8889
2113.94	93.7778
2115.93	94.6667
2117.91	93.1111
2119.9	94.8889
2121.88	91.5556
2123.87	96
2125.85	96.2222
2127.83	91.7778
2129.81	93.1111
2131.8	97.7778
2133.78	94.2222
2135.76	95.1111
2137.74	91.3333
2139.72	98
2141.69	98
2143.67	94.6667
2145.65	91.1111
2147.63	91.7778
2149.6	90.6667
2151.58	94.4444
2153.55	95.3333
2155.53	98.2222
2157.5	97.3333
2159.48	94.2222
2161.45	93.5556
2163.42	95.5556
2165.39	95.5556
2167.36	94.2222
2169.33	90.8889
2171.3	94
2173.27	93.7778
2175.24	91.7778
2177.21	92.8889
2179.18	90
2181.14	95.5555
2183.11	98.2222
2185.07	98.6667
2187.04	98
2189	97.3333
2190.97	95.3333
2192.93	92.8889
2194.89	92.6667
2196.86	96
2198.82	93.7778
2200.78	98.8889
2202.74	95.3333
2204.7	94.2222
2206.66	97.1111
2208.62	97.7778
2210.57	90.4444
2212.53	96.8889
2214.49	94.6667
2216.45	94.4444
2218.4	95.5556
2220.36	98
2222.31	93.1111
2224.27	93.5556
2226.22	95.1111
2228.17	96.4444
2230.12	95.3333
2232.08	94
2234.03	93.1111
2235.98	92.6667
2237.93	94
2239.88	95.3333
2241.83	97.1111
2243.78	96
2245.72	92.2222
2247.67	91.7778
2249.62	94.2222
2251.56	99.7778
2253.51	92.4444
2255.45	97.5556
2257.4	96.6667
2259.34	94.4444
2261.28	95.7778
2263.23	92
2265.17	98.4444
2267.11	92.4444
2269.05	97.1111
2270.99	95.7778
2272.93	95.5556
2274.87	93.1111
2276.81	92.8889
2278.75	93.7778
2280.68	96.4444
2282.62	97.5556
2284.56	95.7778
2286.49	95.3333
2288.43	91.7778
2290.36	100.444
2292.3	97.1111
2294.23	92.8889
2296.16	98.6667
2298.09	96
2300.03	99.3333
2301.96	94
2303.89	92.8889
2305.82	93.7778
2307.75	95.5556
2309.68	94.4444
2311.6	97.3333
2313.53	98
2315.46	96.4444
2317.39	93.1111
2319.31	96.4444
2321.24	93.1111
2323.16	95.5556
2325.09	97.5556
2327.01	99.7778
2328.93	101.556
2330.86	99.3333
2332.78	99.1111
2334.7	99.3333
2336.62	96.4445
2338.54	90.6667
2340.46	96.8889
2342.38	95.1111
2344.3	98.2222
2346.22	95.5556
2348.14	101.778
2350.05	97.1111
2351.97	99.5556
2353.89	97.1111
2355.8	97.5556
2357.71	98.4444
2359.63	91.5555
2361.54	96.4445
2363.46	96.4444
2365.37	95.1111
2367.28	94.4444
2369.19	96
2371.1	99.5556
2373.01	97.3333
2374.92	95.5556
2376.83	94.6667
2378.74	96.4444
2380.65	91.5556
2382.56	99.3333
2384.46	95.1111
2386.37	99.7778
2388.27	97.7778
2390.18	98.2222
2392.08	96.2222
2393.99	93.1111
2395.89	96.8889
2397.8	95.3333
2399.7	99.1111
2401.6	97.5556
2403.5	99.5556
2405.4	93.1111
2407.3	95.1111
2409.2	97.1111
2411.1	96.4444
2413	98.8889
2414.9	97.7778
2416.8	96.2222
2418.69	99.1111
2420.59	98.4444
2422.48	99.7778
2424.38	99.3333
2426.28	96.4444
2428.17	94.4444
2430.06	92.6667
2431.96	95.3333
2433.85	98.2222
2435.74	93.3333
2437.63	98.2222
2439.52	102.444
2441.41	101.556
2443.3	99.1111
2445.19	102
2447.08	102.889
