178.677	213.778
181.278	216.667
183.879	212.444
186.48	216.667
189.078	217.111
191.677	208.444
194.275	210.889
196.871	206
199.467	207.556
202.061	214
204.656	210
207.248	210.222
209.841	204
212.431	216.667
215.022	211.111
217.613	215.556
220.201	216.889
222.789	221.556
225.375	225.556
227.962	222
230.547	226
233.13	228.889
235.714	226.889
238.296	227.556
240.879	240
243.459	234.222
246.04	229.333
248.618	234.444
251.196	239.111
253.774	239.556
256.35	242
258.927	235.111
261.501	232.667
264.074	231.333
266.648	226.667
269.22	220.222
271.791	215.778
274.362	213.111
276.931	203.333
279.5	206.889
282.069	210
284.635	208.222
287.201	196.889
289.766	203.556
292.331	200.222
294.894	201.111
297.457	199.556
300.018	191.556
302.58	196.667
305.14	198.444
307.699	192.667
310.257	192.444
312.814	199.778
315.372	189.778
317.928	196.889
320.482	199.333
323.036	192.667
325.589	195.556
328.142	199.111
330.693	199.111
333.243	199.778
335.795	198
338.343	198.889
340.891	196.444
343.439	202.889
345.985	196.222
348.53	206.889
351.075	199.778
353.619	206.444
356.162	201.333
358.704	211.556
361.245	207.333
363.786	202.444
366.325	214.444
368.864	206.444
371.402	205.111
373.939	208.444
376.475	205.556
379.011	202.444
381.545	206.222
384.079	206.222
386.612	209.778
389.144	209.333
391.674	206.667
394.204	203.778
396.734	203.556
399.263	204.222
401.791	210.222
404.318	208.222
406.844	209.333
409.368	205.778
411.893	211.111
414.417	213.556
416.94	214
419.462	214
421.982	214
424.502	212.889
427.022	210.889
429.541	212
432.057	208.889
434.574	208.667
437.091	212.222
439.606	212.889
442.12	206.889
444.634	222.444
447.147	217.778
449.657	218.222
452.169	209.111
454.68	217.333
457.188	220.667
459.697	216.667
462.205	214.889
464.711	218.444
467.217	213.111
469.722	216.444
472.227	208.667
474.731	218
477.232	219.333
479.735	216.444
482.235	219.778
484.736	218.222
487.234	219.333
489.734	227.111
492.23	223.333
494.728	219.556
497.223	219.556
499.719	220
502.213	225.111
504.707	224.222
507.199	225.333
509.692	224.444
512.182	225.111
514.673	222.889
517.162	223.556
519.65	232.667
522.139	227.778
524.625	223.778
527.112	230
529.597	230.889
532.081	226.889
534.565	230.444
537.047	221.333
539.529	229.111
542.011	231.778
544.491	232
546.97	236.889
549.45	234.889
551.927	238.444
554.404	240
556.88	241.111
559.356	240
561.831	239.556
564.304	238.889
566.777	242.667
569.25	245.778
571.721	243.333
574.191	240.444
576.661	244.444
579.129	246.444
581.599	243.111
584.066	242
586.532	245.556
588.997	241.556
591.462	243.111
593.926	243.111
596.389	242.444
598.851	235.333
601.314	237.778
603.775	245.333
606.235	239.333
608.694	241.778
611.152	236.444
613.609	236.222
616.066	237.778
618.522	240.889
620.977	244
623.431	241.111
625.885	236.667
628.338	245.111
630.79	231.778
633.241	244.667
635.691	239.556
638.141	241.556
640.589	236.889
643.036	240.222
645.483	245.556
647.929	246.444
650.375	242
652.82	239.333
655.264	232.667
657.707	238
660.149	240
662.59	242
665.031	249.333
667.471	240
669.91	239.111
672.349	241.556
674.786	245.556
677.222	237.778
679.658	248.889
682.093	249.778
684.528	248
686.96	244.889
689.393	238.222
691.826	238
694.256	242.222
696.686	239.778
699.116	246.667
701.545	244.889
703.972	246.667
706.4	249.333
708.826	248.222
711.251	243.778
713.676	244
716.099	245.111
718.523	248.889
720.946	243.333
723.366	244
725.788	242.222
728.207	243.111
730.627	246.222
733.044	243.556
735.462	238.667
737.88	247.556
740.295	251.111
742.711	245.333
745.125	251.556
747.539	243.333
749.951	254.889
752.363	245.111
754.775	254.667
757.185	253.111
759.595	246.444
762.003	245.111
764.412	240.667
766.819	238.889
769.225	246.444
771.632	253.111
774.036	260.222
776.441	248.889
778.844	260.889
781.246	254.222
783.649	256.444
786.05	250.444
788.449	257.778
790.85	252
793.248	257.333
795.646	258
798.042	254.667
800.44	267.333
802.835	260.444
805.23	260
807.623	256
810.018	259.556
812.41	261.333
814.801	257.333
817.192	264.889
819.582	260.444
821.972	252.667
824.361	262.222
826.748	258.667
829.135	264.444
831.521	260.667
833.907	257.778
836.291	266.889
838.675	260
841.059	262.667
843.442	269.556
845.823	269.111
848.204	264
850.584	269.778
852.963	278.222
855.342	278.222
857.72	278
860.097	271.556
862.473	286.222
864.848	276.222
867.223	271.556
869.597	265.111
871.97	264.667
874.343	256.444
876.714	265.333
879.084	260.889
881.454	260.444
883.824	263.556
886.192	269.556
888.56	256.222
890.927	264.222
893.294	256.667
895.66	256.667
898.023	254.444
900.387	257.556
902.751	254.889
905.114	248.222
907.476	253.556
909.835	252
912.196	254.889
914.555	248.222
916.914	255.778
919.271	254.889
921.629	252.889
923.985	252.444
926.341	251.556
928.695	255.111
931.05	249.111
933.404	259.556
935.755	258.444
938.107	260.444
940.459	257.778
942.808	259.111
945.158	257.778
947.508	257.778
949.855	257.333
952.202	258.889
954.548	260
956.894	251.111
959.239	257.556
961.583	270
963.928	264
966.27	258.889
968.612	258
970.953	264.889
973.294	260.222
975.633	266.889
977.972	261.556
980.31	261.778
982.647	268.222
984.984	275.333
987.32	261.778
989.656	275.333
991.989	266.889
994.324	272
996.656	276.667
998.988	279.111
1001.32	280.222
1003.65	288
1005.98	297.111
1008.31	320.222
1010.64	355.778
1012.97	381.778
1015.29	368.444
1017.62	351.111
1019.94	339.333
1022.27	348.444
1024.59	341.556
1026.92	306.444
1029.24	296.444
1031.56	302.444
1033.88	298.667
1036.2	304.444
1038.52	318.444
1040.84	321.556
1043.16	294.222
1045.48	291.111
1047.79	288.889
1050.11	286.222
1052.42	284
1054.74	286.667
1057.05	283.778
1059.36	274.222
1061.67	274.444
1063.99	268
1066.3	275.333
1068.61	273.556
1070.92	286.222
1073.22	270.667
1075.53	263.778
1077.84	270
1080.15	260.889
1082.45	267.556
1084.76	256
1087.06	269.778
1089.36	268.667
1091.66	262.667
1093.97	263.111
1096.27	264.889
1098.57	267.111
1100.87	262.222
1103.17	269.333
1105.46	269.333
1107.76	267.333
1110.06	267.556
1112.35	264.667
1114.65	278.889
1116.94	266.222
1119.24	270.444
1121.53	266.889
1123.82	269.778
1126.11	260.444
1128.4	266.889
1130.7	267.778
1132.98	273.778
1135.27	268.444
1137.56	268
1139.85	265.556
1142.13	269.111
1144.42	268.222
1146.71	274
1148.99	268
1151.27	270.444
1153.56	270
1155.84	274.667
1158.12	268
1160.4	272.667
1162.68	266.222
1164.96	268.889
1167.24	268
1169.51	276.889
1171.79	274.222
1174.07	273.333
1176.34	266.444
1178.62	272.444
1180.89	277.333
1183.17	276.444
1185.44	280.222
1187.71	274.889
1189.98	282.222
1192.25	275.111
1194.52	277.556
1196.79	271.111
1199.06	277.333
1201.33	270.444
1203.59	275.111
1205.86	277.778
1208.12	280.667
1210.39	280.222
1212.65	277.333
1214.92	274.222
1217.18	282.667
1219.44	277.556
1221.7	282
1223.96	280.222
1226.22	273.111
1228.48	277.556
1230.74	283.778
1233	289.111
1235.25	288.444
1237.51	289.778
1239.77	284.889
1242.02	285.111
1244.27	286.444
1246.53	276.222
1248.78	273.778
1251.03	281.778
1253.28	285.333
1255.53	282.222
1257.78	275.333
1260.03	290.444
1262.28	287.111
1264.53	287.111
1266.78	284
1269.02	284.444
1271.27	285.778
1273.51	285.333
1275.76	289.111
1278	292.222
1280.24	287.556
1282.48	285.556
1284.72	296.222
1286.97	288.222
1289.21	287.556
1291.44	287.556
1293.68	286
1295.92	282.444
1298.16	286.444
1300.39	293.778
1302.63	280.444
1304.86	286.889
1307.1	280.889
1309.33	284.667
1311.56	279.556
1313.8	282.667
1316.03	276.444
1318.26	279.111
1320.49	284
1322.72	274.222
1324.95	271.556
1327.17	282.222
1329.4	278.667
1331.63	276.889
1333.85	285.556
1336.08	279.333
1338.3	276.222
1340.53	282.667
1342.75	290.889
1344.97	279.556
1347.19	283.333
1349.41	279.111
1351.63	294.667
1353.85	276.444
1356.07	289.333
1358.29	293.111
1360.51	285.556
1362.72	282.667
1364.94	287.778
1367.16	294
1369.37	277.556
1371.58	283.556
1373.8	287.333
1376.01	283.111
1378.22	278
1380.43	284.444
1382.64	278.667
1384.85	278.889
1387.06	278.889
1389.27	276.222
1391.48	278.667
1393.68	275.556
1395.89	282.222
1398.1	282.889
1400.3	270.444
1402.51	269.333
1404.71	273.556
1406.91	280
1409.11	273.778
1411.32	274.222
1413.52	272.444
1415.72	273.333
1417.92	280
1420.11	273.556
1422.31	270.889
1424.51	275.111
1426.71	277.556
1428.9	284.222
1431.1	279.111
1433.29	292.889
1435.49	282.444
1437.68	289.556
1439.87	287.778
1442.06	282
1444.25	286.444
1446.45	286.889
1448.64	284.222
1450.82	286.444
1453.01	283.333
1455.2	282
1457.39	288.667
1459.57	273.111
1461.76	275.333
1463.94	284.444
1466.13	284.222
1468.31	274.222
1470.5	272.667
1472.68	279.778
1474.86	271.556
1477.04	274
1479.22	274.667
1481.4	271.778
1483.58	275.556
1485.76	276.444
1487.94	280.667
1490.11	279.333
1492.29	276.222
1494.46	283.111
1496.64	277.556
1498.81	274.889
1500.99	270.667
1503.16	273.333
1505.33	276.222
1507.5	267.778
1509.67	274
1511.84	274.667
1514.01	270
1516.18	277.778
1518.35	276.889
1520.52	276
1522.68	274.222
1524.85	271.333
1527.02	275.556
1529.18	277.556
1531.35	281.778
1533.51	280
1535.67	292.444
1537.83	285.556
1539.99	290.222
1542.16	274.889
1544.31	283.556
1546.47	278.667
1548.63	275.556
1550.79	277.556
1552.95	274.889
1555.11	284.889
1557.26	279.111
1559.42	278.667
1561.57	271.556
1563.73	285.333
1565.88	283.333
1568.03	288.444
1570.18	291.778
1572.34	292.667
1574.49	285.111
1576.64	290.444
1578.79	286
1580.93	285.556
1583.08	294.889
1585.23	289.111
1587.38	297.556
1589.52	291.778
1591.67	292.444
1593.81	300
1595.96	302.667
1598.1	319.111
1600.24	306.667
1602.38	303.111
1604.53	308
1606.67	304.444
1608.81	304.222
1610.95	304.444
1613.09	300.667
1615.22	285.778
1617.36	280.889
1619.5	289.111
1621.63	281.556
1623.77	281.333
1625.9	272.444
1628.04	275.778
1630.17	282.444
1632.3	282.222
1634.44	271.333
1636.57	274.444
1638.7	261.111
1640.83	268.222
1642.96	266.667
1645.09	265.778
1647.22	262
1649.34	266.222
1651.47	259.556
1653.6	263.111
1655.72	260
1657.85	258
1659.97	262.444
1662.1	255.333
1664.22	258
1666.34	258.444
1668.46	261.111
1670.58	259.111
1672.7	256.444
1674.82	263.556
1676.94	259.333
1679.06	256
1681.18	257.333
1683.3	254.222
1685.41	251.778
1687.53	254.222
1689.64	260.444
1691.76	258.222
1693.87	258.889
1695.99	259.778
1698.1	261.778
1700.21	241.556
1702.32	251.778
1704.43	254
1706.54	248.889
1708.65	252.222
1710.76	250.222
1712.87	246.444
1714.98	250.889
1717.08	257.556
1719.19	245.111
1721.29	246
1723.4	252.889
1725.5	242.444
1727.61	250.444
1729.71	243.333
1731.81	246.889
1733.91	245.778
1736.02	255.333
1738.12	251.111
1740.22	238
1742.31	244.222
1744.41	238.444
1746.51	244.889
1748.61	244.667
1750.7	253.556
1752.8	244.667
1754.9	242.889
1756.99	238.444
1759.08	241.778
1761.18	240
1763.27	238.444
1765.36	240.667
1767.45	242.667
1769.54	239.556
1771.63	238.222
1773.72	246.222
1775.81	240.444
1777.9	236.889
1779.99	238.667
1782.08	242.667
1784.16	237.333
1786.25	237.778
1788.33	237.333
1790.42	231.333
1792.5	245.333
1794.58	234.667
1796.67	240.444
1798.75	238.222
1800.83	236.667
1802.91	238.889
1804.99	233.556
1807.07	236.444
1809.15	234.667
1811.23	236.444
1813.3	234.667
1815.38	238.667
1817.46	234.667
1819.53	239.778
1821.61	239.111
1823.68	231.778
1825.75	232.889
1827.83	237.333
1829.9	230
1831.97	239.778
1834.04	231.778
1836.11	229.111
1838.18	233.778
1840.25	234.889
1842.32	233.556
1844.39	232
1846.46	230
1848.52	231.778
1850.59	237.333
1852.65	235.556
1854.72	225.556
1856.78	230.889
1858.85	235.778
1860.91	222.667
1862.97	234
1865.03	228.222
1867.09	232.667
1869.16	230.889
1871.22	226.667
1873.27	229.778
1875.33	232.222
1877.39	231.111
1879.45	238.444
1881.51	230.667
1883.56	233.111
1885.62	226
1887.67	230.222
1889.73	230.444
1891.78	233.778
1893.83	233.556
1895.89	222
1897.94	229.778
1899.99	227.556
1902.04	224.444
1904.09	233.556
1906.14	228.889
1908.19	225.778
1910.23	222.222
1912.28	226.889
1914.33	231.778
1916.37	228.667
1918.42	230
1920.46	230.444
1922.51	226.444
1924.55	230.889
1926.6	226
1928.64	224.222
1930.68	234.222
1932.72	234.889
1934.76	225.556
1936.8	232
1938.84	224.889
1940.88	229.556
1942.92	224.889
1944.96	226.444
1946.99	225.556
1949.03	223.111
1951.06	226.222
1953.1	228.444
1955.13	222.222
1957.17	222.444
1959.2	223.556
1961.23	228.444
1963.27	226
1965.3	222
1967.33	227.111
1969.36	220.222
1971.39	219.778
1973.42	222.889
1975.44	224.889
1977.47	221.111
1979.5	221.333
1981.53	224.667
1983.55	223.778
1985.58	214.667
1987.6	220
1989.63	218.444
1991.65	219.778
1993.67	220
1995.69	218
1997.72	229.778
1999.74	220.222
2001.76	221.778
2003.78	218.444
2005.8	220.444
2007.82	222.444
2009.83	218.667
2011.85	215.778
2013.87	227.556
2015.88	221.778
2017.9	218.667
2019.91	227.111
2021.93	217.333
2023.94	216.667
2025.96	221.111
2027.97	229.333
2029.98	220.222
2031.99	216.444
2034	220.667
2036.01	226.222
2038.02	218
2040.03	213.556
2042.04	222.889
2044.05	220.889
2046.05	211.778
2048.06	220.444
2050.07	220
2052.07	222.667
2054.08	217.333
2056.08	224.667
2058.08	221.111
2060.09	222.889
2062.09	215.556
2064.09	215.778
2066.09	220.222
2068.09	220
2070.09	222.222
2072.09	211.111
2074.09	211.778
2076.09	218
2078.09	218
2080.08	214.889
2082.08	219.333
2084.08	213.778
2086.07	217.778
2088.07	212
2090.06	211.778
2092.05	217.333
2094.05	218.222
2096.04	220
2098.03	211.111
2100.02	215.556
2102.01	211.111
2104	215.333
2105.99	215.111
2107.98	218
2109.97	220.667
2111.95	217.778
2113.94	211.111
2115.93	217.556
2117.91	215.556
2119.9	218
2121.88	217.778
2123.87	217.111
2125.85	218.889
2127.83	220.667
2129.81	218.222
2131.8	216.222
2133.78	216.667
2135.76	214.444
2137.74	221.778
2139.72	219.333
2141.69	215.333
2143.67	215.778
2145.65	218.222
2147.63	216
2149.6	220.667
2151.58	211.333
2153.55	215.111
2155.53	217.333
2157.5	219.778
2159.48	225.333
2161.45	220.444
2163.42	219.333
2165.39	229.111
2167.36	224
2169.33	225.556
2171.3	232.444
2173.27	226.889
2175.24	230.667
2177.21	224.222
2179.18	225.111
2181.14	234.667
2183.11	232.444
2185.07	233.333
2187.04	226.667
2189	226
2190.97	223.778
2192.93	221.778
2194.89	224.222
2196.86	219.333
2198.82	225.778
2200.78	220
2202.74	215.778
2204.7	213.556
2206.66	220
2208.62	210
2210.57	218
2212.53	209.778
2214.49	211.556
2216.45	206.889
2218.4	208.667
2220.36	205.111
2222.31	202.444
2224.27	207.556
2226.22	204.444
2228.17	206.667
2230.12	204.889
2232.08	210.889
2234.03	204.667
2235.98	208.889
2237.93	204.889
2239.88	213.556
2241.83	204.889
2243.78	210.667
2245.72	209.111
2247.67	206.889
2249.62	203.556
2251.56	199.778
2253.51	201.778
2255.45	200.667
2257.4	202.889
2259.34	197.778
2261.28	201.556
2263.23	202
2265.17	202.444
2267.11	200.222
2269.05	202.889
2270.99	200.667
2272.93	205.556
2274.87	203.778
2276.81	202.222
2278.75	205.556
2280.68	203.333
2282.62	200
2284.56	194
2286.49	200.222
2288.43	201.556
2290.36	196.444
2292.3	204.889
2294.23	200.889
2296.16	194.444
2298.09	203.778
2300.03	196.667
2301.96	202.222
2303.89	199.556
2305.82	198.444
2307.75	197.111
2309.68	197.778
2311.6	196.667
2313.53	201.556
2315.46	194
2317.39	194.444
2319.31	197.333
2321.24	197.111
2323.16	198
2325.09	197.778
2327.01	193.778
2328.93	202.889
2330.86	201.111
2332.78	198
2334.7	201.111
2336.62	196.444
2338.54	192.222
2340.46	198.667
2342.38	195.778
2344.3	199.111
2346.22	193.556
2348.14	196.667
2350.05	195.556
2351.97	198.444
2353.89	200.222
2355.8	196.889
2357.71	194.889
2359.63	188.889
2361.54	195.333
2363.46	192.222
2365.37	195.556
2367.28	195.333
2369.19	192.444
2371.1	195.556
2373.01	193.556
2374.92	193.111
2376.83	189.556
2378.74	192.444
2380.65	196.222
2382.56	196.444
2384.46	192.667
2386.37	195.333
2388.27	188.667
2390.18	189.778
2392.08	192.667
2393.99	188
2395.89	194.889
2397.8	198.889
2399.7	192.222
2401.6	190.889
2403.5	189.778
2405.4	186.222
2407.3	194
2409.2	194.889
2411.1	192.889
2413	185.333
2414.9	192.889
2416.8	184
2418.69	191.556
2420.59	195.556
2422.48	190.667
2424.38	188.444
2426.28	186.667
2428.17	194.889
2430.06	189.333
2431.96	188.667
2433.85	187.333
2435.74	190.667
2437.63	192.889
2439.52	184.889
2441.41	191.778
2443.3	191.333
2445.19	185.333
2447.08	186.444
