186.85	462
189.449	470.444
192.047	468.889
194.645	470.889
197.241	472.667
199.837	466.222
202.431	464.222
205.025	468.889
207.619	481.778
210.21	464
212.802	473.556
215.392	464
217.982	472
220.57	488.667
223.158	468.222
225.744	469.556
228.331	484
230.915	493.778
233.5	484.222
236.083	484.667
238.666	474
241.247	478
243.827	488.444
246.408	478.889
248.986	474
251.565	478.667
254.142	488.222
256.719	478
259.294	479.556
261.868	476.667
264.443	475.333
267.015	471.778
269.587	474.667
272.159	472.444
274.729	474.444
277.298	463.778
279.867	468.222
282.435	466.889
285.001	469.778
287.568	471.111
290.133	463.778
292.697	465.556
295.26	462.889
297.824	461.111
300.385	466
302.945	473.556
305.505	462.222
308.064	472.667
310.623	471.111
313.18	470.444
315.737	458.222
318.292	465.778
320.847	461.778
323.402	462.222
325.955	456
328.507	472.222
331.058	467.778
333.609	473.333
336.158	467.778
338.707	474.667
341.255	468.222
343.802	473.556
346.349	468
348.895	486.444
351.439	472.889
353.983	474.889
356.526	475.556
359.068	470.222
361.609	483.333
364.149	479.556
366.689	469.556
369.227	480
371.765	482.889
374.302	489.111
376.838	497.778
379.374	501.111
381.908	510
384.442	493.556
386.973	489.556
389.505	470.667
392.036	476.889
394.567	474.667
397.096	475.333
399.625	469.556
402.153	484.667
404.68	474.444
407.206	471.333
409.73	488
412.254	482.889
414.778	472
417.301	491.333
419.823	485.778
422.343	484
424.863	490.444
427.383	491.111
429.901	500.444
432.418	501.333
434.935	511.111
437.451	501.333
439.966	505.333
442.48	502.444
444.993	488
447.506	497.333
450.019	492.889
452.528	489.778
455.039	490.667
457.549	496.444
460.056	497.333
462.564	491.778
465.07	482.222
467.576	478.444
470.082	483.556
472.585	475.778
475.089	480.222
477.591	485.333
480.093	480.444
482.595	484
485.094	480.889
487.594	490.444
490.091	489.333
492.59	496.889
495.086	493.333
497.582	486.667
500.076	492.889
502.571	486.667
505.064	492.444
507.558	490
510.049	481.111
512.54	489.333
515.03	489.556
517.518	498
520.008	505.111
522.495	490.444
524.983	483.333
527.468	482.444
529.954	487.333
532.438	482.667
534.921	469.556
537.404	478.222
539.886	478.444
542.366	484.444
544.848	483.556
547.327	483.778
549.805	487.556
552.284	486.222
554.76	487.333
557.236	493.111
559.711	489.556
562.186	488.667
564.66	498
567.132	491.778
569.604	487.333
572.076	487.556
574.547	489.333
577.016	488.667
579.484	491.556
581.952	496.444
584.419	496.667
586.887	489.333
589.352	488.444
591.816	488.889
594.28	482
596.743	489.333
599.205	486.222
601.667	486.667
604.127	486.222
606.588	484
609.047	484.222
611.505	487.556
613.963	482.444
616.419	492.444
618.875	485.111
621.33	488.222
623.784	486.222
626.238	495.111
628.69	492.889
631.142	497.778
633.593	499.556
636.043	486
638.493	486.222
640.941	503.556
643.389	496
645.835	495.556
648.281	493.556
650.727	485.778
653.171	484.889
655.615	492.444
658.058	498.667
660.501	510
662.942	501.333
665.382	490.222
667.822	485.111
670.261	492.444
672.699	490
675.137	486.667
677.574	478.889
680.008	488.222
682.443	479.556
684.878	477.111
687.312	490.889
689.743	484.444
692.175	483.778
694.607	490.444
697.037	494.889
699.466	491.556
701.895	492.444
704.323	487.111
706.749	481.778
709.175	491.333
711.601	499.333
714.025	491.111
716.449	498.667
718.871	481.111
721.294	492.667
723.716	492.444
726.136	496.222
728.556	496.222
730.975	482.444
733.394	488.222
735.812	480.889
738.228	482.222
740.644	485.778
743.058	486.667
745.473	478
747.886	477.556
750.3	487.333
752.711	491.111
755.123	481.778
757.533	481.556
759.942	480.222
762.351	484.444
764.759	477.111
767.167	482.889
769.573	486.667
771.979	486.667
774.383	486
776.787	484
779.191	482.667
781.593	479.111
783.994	488.889
786.396	492.444
788.796	488.889
791.195	489.778
793.595	497.778
795.992	487.556
798.389	499.333
800.786	498.889
803.181	486
805.576	485.333
807.969	494.889
810.363	497.778
812.755	504.667
815.147	502.667
817.537	504.444
819.927	477.333
822.318	499.778
824.706	481.778
827.093	482.889
829.48	487.333
831.866	475.111
834.251	480
836.636	471.333
839.021	482.889
841.404	472
843.786	493.333
846.167	484.667
848.548	468.444
850.928	488.222
853.307	484.889
855.685	473.556
858.063	482.667
860.44	477.778
862.816	479.333
865.192	476.222
867.566	482.667
869.94	489.333
872.313	481.556
874.685	472.222
877.057	475.778
879.428	484.889
881.798	480.889
884.167	489.111
886.536	480.889
888.902	473.778
891.269	484.444
893.636	493.778
896.001	491.556
898.366	485.333
900.73	487.111
903.094	480
905.455	485.556
907.817	476.444
910.178	477.556
912.538	474.444
914.898	472.889
917.255	478
919.613	479.111
921.971	480.889
924.327	468.889
926.682	478.889
929.037	470
931.391	470.667
933.744	469.111
936.096	476.667
938.449	473.556
940.799	469.556
943.149	468.444
945.499	476.222
947.847	473.333
950.195	476
952.542	479.556
954.889	474.222
957.235	468.444
959.579	471.111
961.924	485.111
964.266	483.333
966.609	479.778
968.951	475.778
971.292	484.667
973.632	479.333
975.972	478.889
978.31	482.222
980.649	479.778
982.986	478.222
985.323	488.889
987.659	476.222
989.994	477.556
992.328	496.222
994.662	512
996.995	516.222
999.326	517.778
1001.66	536.444
1003.99	545.556
1006.32	542.222
1008.65	572.889
1010.98	583.111
1013.3	575.556
1015.63	562
1017.96	526.222
1020.28	507.333
1022.61	495.556
1024.93	490
1027.25	497.333
1029.58	488.222
1031.9	480.667
1034.22	477.111
1036.54	476.444
1038.86	488
1041.18	484.222
1043.49	483.111
1045.81	479.556
1048.13	482.222
1050.44	484.222
1052.76	489.333
1055.07	494.667
1057.39	493.556
1059.7	493.556
1062.01	480.889
1064.32	494.889
1066.63	490
1068.94	495.778
1071.25	497.778
1073.56	495.778
1075.87	500
1078.17	503.333
1080.48	501.778
1082.79	507.778
1085.09	511.778
1087.39	520.222
1089.7	519.333
1092	527.778
1094.3	553.556
1096.6	540.667
1098.9	531.556
1101.2	521.778
1103.5	512.667
1105.8	502.444
1108.1	502.222
1110.39	513.333
1112.69	521.778
1114.98	523.111
1117.28	516.444
1119.57	534.444
1121.86	530.222
1124.16	530
1126.45	505.556
1128.74	515.333
1131.03	502.667
1133.32	503.333
1135.61	481.556
1137.89	489.111
1140.18	495.556
1142.47	487.778
1144.75	485.778
1147.04	497.333
1149.32	489.556
1151.61	500
1153.89	495.778
1156.17	502
1158.45	490.444
1160.73	495.778
1163.01	487.333
1165.29	474.222
1167.57	475.111
1169.85	489.111
1172.12	475.778
1174.4	490.222
1176.68	473.778
1178.95	468.889
1181.22	479.111
1183.5	477.111
1185.77	488.667
1188.04	468.444
1190.31	468.667
1192.58	472.889
1194.85	463.778
1197.12	466.667
1199.39	462.889
1201.66	472.222
1203.92	476
1206.19	466.444
1208.45	462
1210.72	453.556
1212.98	453.778
1215.25	466.444
1217.51	459.556
1219.77	448
1222.03	466.889
1224.29	472.222
1226.55	458.667
1228.81	456.444
1231.07	473.111
1233.33	465.333
1235.58	480.222
1237.84	466.222
1240.09	467.556
1242.35	471.556
1244.6	463.778
1246.86	467.778
1249.11	456
1251.36	464.667
1253.61	469.778
1255.86	470
1258.11	468.444
1260.36	467.778
1262.61	463.333
1264.86	472.889
1267.1	464.667
1269.35	461.333
1271.6	476.222
1273.84	474.444
1276.08	469.333
1278.33	476.444
1280.57	476.444
1282.81	475.556
1285.05	471.111
1287.29	472
1289.53	469.333
1291.77	467.111
1294.01	476.222
1296.25	462.222
1298.48	472.667
1300.72	468.667
1302.96	462.667
1305.19	463.778
1307.42	468.889
1309.66	472.889
1311.89	473.333
1314.12	490.444
1316.35	466.444
1318.58	470
1320.81	482.222
1323.04	463.778
1325.27	467.333
1327.5	473.333
1329.73	466.444
1331.95	482.889
1334.18	478.667
1336.4	473.333
1338.63	478.667
1340.85	474.444
1343.08	494.222
1345.3	476.667
1347.52	479.111
1349.74	480.444
1351.96	486.222
1354.18	482.889
1356.4	477.111
1358.61	483.111
1360.83	482.667
1363.05	487.333
1365.27	500.222
1367.48	498.889
1369.69	502.444
1371.91	497.556
1374.12	508
1376.33	516.889
1378.55	519.778
1380.76	534
1382.97	530.444
1385.18	526.889
1387.39	525.333
1389.59	523.556
1391.8	510
1394.01	484.222
1396.21	492.222
1398.42	481.778
1400.63	477.333
1402.83	487.111
1405.03	464.667
1407.24	471.333
1409.44	468.667
1411.64	470
1413.84	474.667
1416.04	466.222
1418.24	463.333
1420.44	475.111
1422.64	469.333
1424.83	472.667
1427.03	474
1429.23	477.333
1431.42	475.111
1433.62	476.444
1435.81	464.889
1438	467.778
1440.19	479.333
1442.39	466
1444.58	457.556
1446.77	463.111
1448.96	463.333
1451.15	454.889
1453.34	458.667
1455.52	464.444
1457.71	459.556
1459.9	462
1462.08	466.667
1464.27	457.111
1466.45	454.889
1468.64	461.333
1470.82	459.333
1473	457.111
1475.18	456.889
1477.36	459.778
1479.54	466.444
1481.72	455.778
1483.9	452
1486.08	462.667
1488.26	464
1490.43	456.444
1492.61	441.778
1494.78	443.333
1496.96	436.889
1499.13	452
1501.31	437.333
1503.48	445.333
1505.65	448.444
1507.82	440.667
1509.99	445.778
1512.16	438.667
1514.33	434.222
1516.5	441.778
1518.67	450
1520.84	435.556
1523	434.889
1525.17	440.222
1527.34	425.778
1529.5	448.889
1531.66	443.778
1533.83	441.556
1535.99	433.111
1538.15	439.778
1540.31	441.111
1542.47	434
1544.63	443.111
1546.79	446.889
1548.95	444.889
1551.11	454
1553.27	445.333
1555.42	446.667
1557.58	446
1559.73	454.222
1561.89	450.889
1564.04	445.333
1566.2	446.444
1568.35	462.222
1570.5	460.889
1572.65	469.333
1574.8	469.556
1576.95	468
1579.1	458
1581.25	450.444
1583.4	445.778
1585.55	447.111
1587.69	452.889
1589.84	441.556
1591.99	447.111
1594.13	454.889
1596.27	446.444
1598.42	450.222
1600.56	446.222
1602.7	444.222
1604.84	433.556
1606.98	437.333
1609.12	440.222
1611.26	431.778
1613.4	437.778
1615.54	428.667
1617.68	427.333
1619.81	433.111
1621.95	425.778
1624.08	412.444
1626.22	423.111
1628.35	421.778
1630.49	425.111
1632.62	430.444
1634.75	417.778
1636.88	424.444
1639.01	418.667
1641.14	420.444
1643.27	418.667
1645.4	417.111
1647.53	423.333
1649.66	422.667
1651.79	410.444
1653.91	415.111
1656.04	419.333
1658.16	415.556
1660.29	411.333
1662.41	414.444
1664.53	399.556
1666.66	416.667
1668.78	404.889
1670.9	414.444
1673.02	418
1675.14	425.111
1677.26	417.778
1679.38	420.222
1681.49	418.222
1683.61	407.111
1685.73	412.667
1687.84	420.222
1689.96	417.778
1692.07	410.444
1694.19	418.444
1696.3	423.333
1698.41	414.667
1700.52	416.444
1702.64	412.444
1704.75	414
1706.86	404.444
1708.97	415.778
1711.07	405.111
1713.18	404.444
1715.29	414.667
1717.4	416
1719.5	410
1721.61	416
1723.71	404.222
1725.82	402.889
1727.92	409.778
1730.02	408.444
1732.12	406.889
1734.23	410.667
1736.33	405.333
1738.43	408.667
1740.53	408.889
1742.63	403.111
1744.72	405.778
1746.82	404.667
1748.92	398.222
1751.02	397.556
1753.11	394.222
1755.21	398
1757.3	387.111
1759.4	394.444
1761.49	400.667
1763.58	389.556
1765.67	400.444
1767.76	391.556
1769.86	393.778
1771.95	396.889
1774.03	389.333
1776.12	387.111
1778.21	392.444
1780.3	402.222
1782.39	402.444
1784.47	398
1786.56	396.444
1788.64	392.889
1790.73	387.556
1792.81	389.556
1794.89	389.333
1796.98	388
1799.06	401.111
1801.14	380.222
1803.22	392
1805.3	394.444
1807.38	394
1809.46	385.778
1811.54	384.667
1813.61	390
1815.69	382.222
1817.77	393.333
1819.84	385.333
1821.92	384.222
1823.99	386.889
1826.06	394.444
1828.14	389.778
1830.21	385.111
1832.28	389.333
1834.35	385.333
1836.42	384.222
1838.49	380.667
1840.56	384.444
1842.63	388
1844.7	387.111
1846.77	370.667
1848.83	383.556
1850.9	377.333
1852.96	378
1855.03	377.556
1857.09	374.667
1859.15	374.222
1861.22	373.778
1863.28	382.222
1865.34	369.111
1867.4	371.111
1869.46	374
1871.52	374.444
1873.58	371.778
1875.64	370.889
1877.7	378.889
1879.76	374.222
1881.81	380.889
1883.87	380.667
1885.92	372.667
1887.98	371.778
1890.03	360.667
1892.09	373.333
1894.14	373.556
1896.19	369.778
1898.24	369.111
1900.29	375.111
1902.34	374.222
1904.4	383.778
1906.44	370
1908.49	372.667
1910.54	375.111
1912.59	367.556
1914.63	363.333
1916.68	363.556
1918.73	371.333
1920.77	369.556
1922.81	365.778
1924.86	374.889
1926.9	367.111
1928.94	368
1930.99	350
1933.03	358.444
1935.07	364.222
1937.11	365.333
1939.15	358.667
1941.19	360.667
1943.22	371.778
1945.26	360.889
1947.3	354.667
1949.33	360.667
1951.37	362.889
1953.4	363.333
1955.44	356
1957.47	345.333
1959.51	357.333
1961.54	358
1963.57	351.333
1965.6	356.222
1967.63	358
1969.66	359.111
1971.69	351.333
1973.72	352.889
1975.75	356.222
1977.78	349.111
1979.8	349.333
1981.83	350.222
1983.86	353.556
1985.88	348.444
1987.91	351.333
1989.93	348
1991.95	349.111
1993.98	349.333
1996	349.111
1998.02	350.667
2000.04	347.333
2002.06	348.444
2004.08	351.556
2006.1	349.333
2008.12	352.667
2010.14	343.556
2012.15	349.111
2014.17	342.444
2016.19	343.333
2018.2	341.111
2020.22	352.889
2022.23	342.889
2024.25	349.556
2026.26	357.333
2028.27	346
2030.28	349.778
2032.29	348
2034.3	339.333
2036.32	350.222
2038.32	348.889
2040.33	349.111
2042.34	348.889
2044.35	340
2046.36	339.556
2048.36	342.667
2050.37	346.222
2052.37	339.333
2054.38	340.444
2056.38	343.778
2058.39	345.111
2060.39	343.111
2062.39	342.444
2064.39	338.222
2066.39	349.111
2068.39	340
2070.39	340.667
2072.39	329.778
2074.39	336.222
2076.39	339.333
2078.39	334.222
2080.39	335.111
2082.38	320.222
2084.38	337.111
2086.37	337.333
2088.37	328.667
2090.36	330.222
2092.35	329.778
2094.35	328.667
2096.34	329.333
2098.33	335.111
2100.32	330.222
2102.31	329.111
2104.3	327.556
2106.29	330
2108.28	334.444
2110.27	334.444
2112.25	339.333
2114.24	332.444
2116.23	333.333
2118.21	332.667
2120.2	328.889
2122.18	327.778
2124.17	327.556
2126.15	326.444
2128.13	322.222
2130.11	324
2132.09	315.556
2134.08	325.111
2136.06	325.111
2138.04	326.889
2140.02	331.333
2141.99	328.444
2143.97	314.889
2145.95	322.222
2147.93	317.556
2149.9	327.778
2151.88	322.222
2153.85	317.556
2155.83	322.444
2157.8	318.667
2159.77	322
2161.75	316.222
2163.72	316.222
2165.69	318
2167.66	314.889
2169.63	320.667
2171.6	320
2173.57	319.333
2175.54	318
2177.51	318.222
2179.47	312.667
2181.44	311.333
2183.41	313.111
2185.37	312.889
2187.34	308
2189.3	310.222
2191.27	310.889
2193.23	308.667
2195.19	312
2197.15	304.889
2199.11	305.111
2201.08	308
2203.04	307.556
2205	308.222
2206.96	317.333
2208.91	312.889
2210.87	308.444
2212.83	306.444
2214.79	309.778
2216.74	307.333
2218.7	306
2220.65	302.889
2222.61	313.778
2224.56	311.333
2226.52	298.444
2228.47	308.667
2230.42	309.778
2232.37	305.333
2234.32	300.667
2236.27	309.556
2238.22	297.556
2240.17	295.778
2242.12	303.111
2244.07	294.667
2246.02	301.778
2247.97	306
2249.91	297.333
2251.86	298.889
2253.8	295.111
2255.75	296.667
2257.69	302.444
2259.64	298.889
2261.58	298.667
2263.52	300
2265.46	293.333
2267.4	290.889
2269.35	300.444
2271.29	282.444
2273.23	294.444
2275.16	290.444
2277.1	288
2279.04	284.444
2280.98	288
2282.92	294.444
2284.85	289.778
2286.79	291.778
2288.72	288.889
2290.66	286.222
2292.59	286.222
2294.52	286.222
2296.46	288
2298.39	283.778
2300.32	280.444
2302.25	288.222
2304.18	284.889
2306.11	285.111
2308.04	290.222
2309.97	285.111
2311.9	279.111
2313.83	272.222
2315.75	286.667
2317.68	280.222
2319.61	281.556
2321.53	288.889
2323.46	284.667
2325.38	277.111
2327.3	287.333
2329.23	279.556
2331.15	281.111
2333.07	274.444
2334.99	277.111
2336.91	274.889
2338.83	274.222
2340.75	274.889
2342.67	277.778
2344.59	271.778
2346.51	283.111
2348.43	270.667
2350.35	279.556
2352.26	273.778
2354.18	280.889
2356.09	280.444
2358.01	277.111
2359.92	274
2361.83	277.778
2363.75	279.111
2365.66	268.444
2367.57	276.889
2369.48	273.556
2371.39	268.222
2373.31	272.222
2375.21	266.667
2377.12	272.667
2379.03	262.444
2380.94	266.667
2382.85	270.667
2384.76	267.778
2386.66	262.889
2388.57	262.444
2390.47	273.111
2392.38	266.444
2394.28	263.333
2396.18	274.889
2398.09	260
2399.99	270.444
2401.89	265.778
2403.79	258.222
2405.69	267.111
2407.59	265.333
2409.49	260.889
2411.39	262.889
2413.29	260.889
2415.19	270
2417.09	263.556
2418.98	260.222
2420.88	260.889
2422.78	260
2424.67	262.222
2426.57	260.667
2428.46	266.667
2430.35	267.333
2432.25	262
2434.14	252.444
2436.03	265.778
2437.92	259.111
2439.81	258.667
2441.7	254.222
2443.59	255.778
2445.48	264
2447.37	257.111
2449.26	258.889
2451.15	261.778
2453.03	258.889
