186.85	429.111
189.449	433.111
192.047	437.111
194.645	446
197.241	437.111
199.837	430.889
202.431	440.667
205.025	441.556
207.619	445.111
210.21	443.111
212.802	445.556
215.392	442.444
217.982	444.444
220.57	442.444
223.158	445.556
225.744	444.667
228.331	444.222
230.915	451.111
233.5	443.556
236.083	454
238.666	450
241.247	450.222
243.827	464.222
246.408	447.111
248.986	461.778
251.565	454.889
254.142	458.667
256.719	458.444
259.294	459.556
261.868	452.889
264.443	446
267.015	460.444
269.587	447.111
272.159	450.667
274.729	455.111
277.298	456.889
279.867	450.222
282.435	457.778
285.001	448.667
287.568	442
290.133	453.333
292.697	450.222
295.26	454.222
297.824	448.667
300.385	443.111
302.945	446.667
305.505	454.889
308.064	444.667
310.623	450.889
313.18	458.444
315.737	452.667
318.292	454.222
320.847	447.111
323.402	442.222
325.955	443.556
328.507	453.556
331.058	464.444
333.609	448
336.158	452.667
338.707	453.778
341.255	459.111
343.802	453.111
346.349	456.444
348.895	455.111
351.439	467.778
353.983	458.222
356.526	471.333
359.068	477.556
361.609	468.889
364.149	470.667
366.689	466
369.227	465.111
371.765	467.778
374.302	474.667
376.838	485.111
379.374	490
381.908	494.222
384.442	484.222
386.973	470.222
389.505	461.556
392.036	462.444
394.567	454.889
397.096	461.556
399.625	458
402.153	472
404.68	460.222
407.206	472
409.73	458.889
412.254	465.556
414.778	470.889
417.301	468
419.823	469.111
422.343	467.556
424.863	475.333
427.383	471.778
429.901	480
432.418	486
434.935	495.556
437.451	486.444
439.966	480
442.48	492.444
444.993	480
447.506	468.444
450.019	484.444
452.528	480.222
455.039	471.556
457.549	485.333
460.056	478
462.564	475.556
465.07	479.111
467.576	483.556
470.082	468.222
472.585	473.778
475.089	475.333
477.591	473.111
480.093	472.667
482.595	469.556
485.094	477.333
487.594	464.667
490.091	470.222
492.59	478.222
495.086	481.333
497.582	472.889
500.076	476.667
502.571	473.111
505.064	480.667
507.558	473.778
510.049	483.111
512.54	477.333
515.03	489.111
517.518	471.111
520.008	485.333
522.495	477.333
524.983	476.889
527.468	479.778
529.954	477.111
532.438	478.222
534.921	473.111
537.404	462.222
539.886	468.444
542.366	478.222
544.848	478
547.327	479.556
549.805	470
552.284	472.667
554.76	483.111
557.236	470.444
559.711	488.222
562.186	476.222
564.66	482.889
567.132	473.556
569.604	485.556
572.076	474.444
574.547	485.556
577.016	481.778
579.484	482
581.952	482.444
584.419	476
586.887	480.444
589.352	489.333
591.816	475.111
594.28	471.111
596.743	466.444
599.205	473.778
601.667	474.444
604.127	473.778
606.588	479.111
609.047	477.333
611.505	484.444
613.963	470.667
616.419	480
618.875	478
621.33	481.778
623.784	472.444
626.238	482.667
628.69	472.444
631.142	475.333
633.593	493.111
636.043	469.556
638.493	476.667
640.941	481.111
643.389	475.333
645.835	471.111
648.281	481.333
650.727	474
653.171	492
655.615	484
658.058	479.333
660.501	492.222
662.942	491.778
665.382	481.333
667.822	480.889
670.261	483.111
672.699	473.778
675.137	472.444
677.574	474.444
680.008	487.111
682.443	476.667
684.878	468.667
687.312	475.556
689.743	472.222
692.175	474.222
694.607	473.333
697.037	478.889
699.466	481.556
701.895	475.333
704.323	479.111
706.749	484.222
709.175	482.667
711.601	481.333
714.025	471.778
716.449	474.889
718.871	478.444
721.294	479.778
723.716	486.444
726.136	479.333
728.556	474.889
730.975	472.889
733.394	475.111
735.812	471.333
738.228	463.111
740.644	473.556
743.058	470.889
745.473	469.778
747.886	478.444
750.3	465.556
752.711	467.111
755.123	474.889
757.533	472
759.942	470.667
762.351	471.111
764.759	466
767.167	458.889
769.573	461.333
771.979	471.778
774.383	478.444
776.787	473.111
779.191	474
781.593	473.778
783.994	466
786.396	470.444
788.796	468.889
791.195	481.556
793.595	477.556
795.992	478.889
798.389	487.333
800.786	474.667
803.181	483.111
805.576	488.667
807.969	479.111
810.363	482
812.755	482.889
815.147	483.111
817.537	478.667
819.927	479.778
822.318	483.556
824.706	482.889
827.093	467.778
829.48	474.444
831.866	467.778
834.251	462
836.636	472
839.021	464.444
841.404	456
843.786	464
846.167	464.889
848.548	462.444
850.928	466.222
853.307	461.111
855.685	462.222
858.063	471.333
860.44	459.556
862.816	470.222
865.192	464.444
867.566	474
869.94	463.556
872.313	467.778
874.685	465.778
877.057	474.667
879.428	470.444
881.798	459.778
884.167	465.778
886.536	462.444
888.902	468.444
891.269	464.444
893.636	473.778
896.001	455.333
898.366	468.222
900.73	467.333
903.094	472.889
905.455	484.222
907.817	454
910.178	459.556
912.538	474.444
914.898	466
917.255	467.778
919.613	455.333
921.971	454.444
924.327	457.778
926.682	452.222
929.037	460.222
931.391	446
933.744	460.444
936.096	463.556
938.449	458.667
940.799	459.556
943.149	454
945.499	456.889
947.847	454.222
950.195	464
952.542	459.111
954.889	452.667
957.235	454.444
959.579	466
961.924	452.444
964.266	467.556
966.609	461.778
968.951	462.222
971.292	465.111
973.632	456
975.972	460
978.31	461.333
980.649	462.444
982.986	458.667
985.323	463.111
987.659	468.889
989.994	477.778
992.328	475.556
994.662	482.222
996.995	490
999.326	488.889
1001.66	488.222
1003.99	505.333
1006.32	511.778
1008.65	518
1010.98	530.444
1013.3	523.556
1015.63	521.111
1017.96	504.222
1020.28	487.556
1022.61	469.556
1024.93	467.778
1027.25	471.111
1029.58	463.556
1031.9	467.778
1034.22	460.222
1036.54	460
1038.86	467.333
1041.18	461.778
1043.49	471.111
1045.81	467.333
1048.13	472.444
1050.44	466.667
1052.76	476
1055.07	476.667
1057.39	474.222
1059.7	478.667
1062.01	474.889
1064.32	466.444
1066.63	471.333
1068.94	474.222
1071.25	476.444
1073.56	474.889
1075.87	477.778
1078.17	487.333
1080.48	483.556
1082.79	487.111
1085.09	491.333
1087.39	484.667
1089.7	506.667
1092	513.778
1094.3	525.556
1096.6	524.667
1098.9	524.889
1101.2	511.556
1103.5	509.778
1105.8	498.444
1108.1	490.222
1110.39	492.889
1112.69	495.556
1114.98	496.444
1117.28	498.222
1119.57	498.444
1121.86	508.889
1124.16	503.556
1126.45	501.111
1128.74	490.667
1131.03	486.667
1133.32	485.111
1135.61	480
1137.89	473.556
1140.18	465.333
1142.47	460.222
1144.75	472.667
1147.04	471.556
1149.32	478.667
1151.61	472.222
1153.89	465.333
1156.17	482.222
1158.45	477.111
1160.73	474.667
1163.01	463.111
1165.29	466.222
1167.57	466.222
1169.85	452
1172.12	466
1174.4	464.667
1176.68	466
1178.95	463.556
1181.22	460.667
1183.5	462.444
1185.77	467.778
1188.04	458.222
1190.31	461.111
1192.58	450.667
1194.85	452
1197.12	453.778
1199.39	450.222
1201.66	454.222
1203.92	462.222
1206.19	452.222
1208.45	449.111
1210.72	446.667
1212.98	440.667
1215.25	444.222
1217.51	434.889
1219.77	456.889
1222.03	447.333
1224.29	454.222
1226.55	449.333
1228.81	450.222
1231.07	454.222
1233.33	450.222
1235.58	453.556
1237.84	456.222
1240.09	456.444
1242.35	456
1244.6	448.444
1246.86	451.111
1249.11	448.889
1251.36	449.556
1253.61	452.667
1255.86	461.778
1258.11	448.444
1260.36	463.111
1262.61	439.333
1264.86	455.111
1267.1	458
1269.35	450.222
1271.6	451.333
1273.84	464.222
1276.08	452.444
1278.33	456.889
1280.57	455.111
1282.81	439.556
1285.05	452.667
1287.29	452
1289.53	455.778
1291.77	461.333
1294.01	463.778
1296.25	460.889
1298.48	449.333
1300.72	445.778
1302.96	460.889
1305.19	448.667
1307.42	452.667
1309.66	459.111
1311.89	455.778
1314.12	446.222
1316.35	453.111
1318.58	443.111
1320.81	456.667
1323.04	456
1325.27	454.444
1327.5	453.111
1329.73	461.111
1331.95	458.889
1334.18	460.889
1336.4	472
1338.63	469.111
1340.85	461.778
1343.08	460
1345.3	458.444
1347.52	451.556
1349.74	448.889
1351.96	463.333
1354.18	446.889
1356.4	463.778
1358.61	471.778
1360.83	463.778
1363.05	458.889
1365.27	468.889
1367.48	472.222
1369.69	474
1371.91	477.556
1374.12	477.556
1376.33	487.333
1378.55	490.444
1380.76	500.667
1382.97	493.778
1385.18	492.667
1387.39	482
1389.59	488.667
1391.8	476.667
1394.01	462.889
1396.21	454.889
1398.42	447.111
1400.63	454.889
1402.83	444
1405.03	455.556
1407.24	442.667
1409.44	444.222
1411.64	454
1413.84	450
1416.04	446
1418.24	445.778
1420.44	459.556
1422.64	450.889
1424.83	447.778
1427.03	460.889
1429.23	456.444
1431.42	463.556
1433.62	460.444
1435.81	448.667
1438	456.889
1440.19	448.667
1442.39	460.444
1444.58	448.667
1446.77	440.444
1448.96	437.778
1451.15	449.333
1453.34	445.111
1455.52	450.667
1457.71	449.111
1459.9	446.222
1462.08	448
1464.27	440
1466.45	444.444
1468.64	438.667
1470.82	441.111
1473	455.556
1475.18	439.778
1477.36	439.111
1479.54	433.111
1481.72	450.222
1483.9	432.444
1486.08	430.667
1488.26	436
1490.43	421.556
1492.61	436.444
1494.78	432
1496.96	421.333
1499.13	428
1501.31	433.333
1503.48	429.111
1505.65	425.778
1507.82	427.111
1509.99	433.556
1512.16	423.333
1514.33	430.444
1516.5	429.111
1518.67	415.111
1520.84	414.889
1523	430
1525.17	425.111
1527.34	423.778
1529.5	427.778
1531.66	431.556
1533.83	428.222
1535.99	433.333
1538.15	424.222
1540.31	427.778
1542.47	429.333
1544.63	434.444
1546.79	446.444
1548.95	429.333
1551.11	430.222
1553.27	445.111
1555.42	433.111
1557.58	439.556
1559.73	440
1561.89	444.222
1564.04	444.444
1566.2	435.333
1568.35	450.667
1570.5	443.111
1572.65	441.778
1574.8	446
1576.95	445.111
1579.1	447.778
1581.25	443.778
1583.4	438.667
1585.55	452.444
1587.69	443.556
1589.84	433.778
1591.99	443.556
1594.13	440
1596.27	435.556
1598.42	442
1600.56	437.778
1602.7	436.667
1604.84	429.778
1606.98	418.889
1609.12	442
1611.26	432.667
1613.4	413.556
1615.54	429.111
1617.68	427.556
1619.81	413.778
1621.95	417.333
1624.08	420.889
1626.22	413.111
1628.35	416.889
1630.49	415.333
1632.62	415.111
1634.75	406
1636.88	404.889
1639.01	410.222
1641.14	403.778
1643.27	405.111
1645.4	398
1647.53	418.667
1649.66	408.889
1651.79	404.667
1653.91	405.556
1656.04	400
1658.16	405.778
1660.29	407.556
1662.41	407.778
1664.53	405.556
1666.66	394
1668.78	396
1670.9	400.889
1673.02	406
1675.14	409.778
1677.26	395.111
1679.38	405.333
1681.49	387.778
1683.61	403.333
1685.73	403.556
1687.84	401.778
1689.96	395.778
1692.07	396.444
1694.19	400.444
1696.3	394.667
1698.41	397.778
1700.52	395.333
1702.64	390
1704.75	399.556
1706.86	402.222
1708.97	399.556
1711.07	395.111
1713.18	392
1715.29	398.444
1717.4	395.111
1719.5	389.556
1721.61	393.333
1723.71	395.333
1725.82	401.778
1727.92	391.556
1730.02	390.444
1732.12	389.333
1734.23	388.444
1736.33	391.556
1738.43	387.111
1740.53	393.333
1742.63	381.333
1744.72	385.333
1746.82	385.778
1748.92	383.778
1751.02	393.333
1753.11	375.111
1755.21	382.444
1757.3	370.444
1759.4	381.778
1761.49	376
1763.58	372.889
1765.67	385.333
1767.76	379.111
1769.86	376.444
1771.95	383.111
1774.03	382.222
1776.12	374.667
1778.21	376.889
1780.3	370.222
1782.39	385.556
1784.47	389.111
1786.56	372.444
1788.64	372.667
1790.73	374.889
1792.81	363.556
1794.89	376.889
1796.98	375.556
1799.06	366
1801.14	384.444
1803.22	381.111
1805.3	372.444
1807.38	372.444
1809.46	380
1811.54	374.667
1813.61	379.333
1815.69	371.778
1817.77	370.889
1819.84	376.222
1821.92	361.556
1823.99	363.556
1826.06	374.667
1828.14	366.667
1830.21	367.556
1832.28	367.333
1834.35	371.778
1836.42	369.111
1838.49	372
1840.56	373.111
1842.63	370.667
1844.7	370.889
1846.77	365.778
1848.83	362.222
1850.9	365.111
1852.96	362.667
1855.03	358.667
1857.09	366.222
1859.15	359.111
1861.22	366.222
1863.28	363.111
1865.34	352.222
1867.4	354
1869.46	360
1871.52	357.111
1873.58	360.444
1875.64	349.333
1877.7	358.222
1879.76	359.556
1881.81	355.333
1883.87	355.778
1885.92	359.333
1887.98	360.667
1890.03	362.222
1892.09	355.778
1894.14	362.222
1896.19	360.889
1898.24	351.333
1900.29	345.333
1902.34	361.778
1904.4	342.667
1906.44	356
1908.49	354.444
1910.54	358.889
1912.59	354.667
1914.63	339.778
1916.68	355.556
1918.73	353.333
1920.77	355.556
1922.81	354.889
1924.86	350.444
1926.9	349.778
1928.94	351.778
1930.99	353.111
1933.03	348.222
1935.07	339.333
1937.11	347.778
1939.15	352
1941.19	355.111
1943.22	342
1945.26	346.444
1947.3	345.111
1949.33	343.333
1951.37	338.667
1953.4	353.333
1955.44	350.889
1957.47	344.889
1959.51	335.778
1961.54	343.778
1963.57	334.889
1965.6	341.333
1967.63	346
1969.66	344.889
1971.69	332.222
1973.72	337.778
1975.75	344
1977.78	330.889
1979.8	335.556
1981.83	343.556
1983.86	334.444
1985.88	345.333
1987.91	332.222
1989.93	337.111
1991.95	338.889
1993.98	332.444
1996	331.111
1998.02	333.556
2000.04	329.556
2002.06	337.333
2004.08	334.889
2006.1	336.667
2008.12	337.556
2010.14	337.333
2012.15	336.444
2014.17	339.556
2016.19	331.333
2018.2	334
2020.22	337.333
2022.23	331.111
2024.25	328.667
2026.26	332.889
2028.27	332.444
2030.28	338.222
2032.29	325.333
2034.3	333.778
2036.32	334.889
2038.32	329.111
2040.33	336
2042.34	329.556
2044.35	332.444
2046.36	324.222
2048.36	322.444
2050.37	330.667
2052.37	326.889
2054.38	327.778
2056.38	323.556
2058.39	328.889
2060.39	331.778
2062.39	321.333
2064.39	324.889
2066.39	321.111
2068.39	319.556
2070.39	326.222
2072.39	321.556
2074.39	313.778
2076.39	316.889
2078.39	328.222
2080.39	318.667
2082.38	322.889
2084.38	313.333
2086.37	326.222
2088.37	317.778
2090.36	314.889
2092.35	324.444
2094.35	314.222
2096.34	319.778
2098.33	322.222
2100.32	310.222
2102.31	314.667
2104.3	312.889
2106.29	305.333
2108.28	324.222
2110.27	315.333
2112.25	315.556
2114.24	310.222
2116.23	312.667
2118.21	310
2120.2	299.778
2122.18	310.667
2124.17	309.556
2126.15	312
2128.13	303.333
2130.11	314.222
2132.09	308.889
2134.08	305.556
2136.06	303.778
2138.04	304.444
2140.02	307.556
2141.99	308.667
2143.97	306.222
2145.95	308.222
2147.93	309.778
2149.9	305.556
2151.88	310.444
2153.85	296.889
2155.83	301.111
2157.8	305.556
2159.77	300
2161.75	305.111
2163.72	296.444
2165.69	300.444
2167.66	304.889
2169.63	295.333
2171.6	303.111
2173.57	300
2175.54	301.556
2177.51	298.889
2179.47	296.222
2181.44	304
2183.41	298.222
2185.37	304
2187.34	304
2189.3	295.556
2191.27	297.111
2193.23	281.333
2195.19	291.333
2197.15	291.778
2199.11	293.778
2201.08	292.444
2203.04	301.778
2205	302.889
2206.96	296.222
2208.91	297.778
2210.87	294.444
2212.83	290
2214.79	288.444
2216.74	291.778
2218.7	296.222
2220.65	292.667
2222.61	297.111
2224.56	294.889
2226.52	296
2228.47	284.889
2230.42	291.333
2232.37	291.778
2234.32	288.444
2236.27	295.556
2238.22	284.667
2240.17	279.111
2242.12	286.667
2244.07	290.667
2246.02	289.111
2247.97	282.889
2249.91	285.556
2251.86	284.889
2253.8	278.667
2255.75	283.778
2257.69	276.444
2259.64	279.111
2261.58	276.222
2263.52	279.778
2265.46	281.333
2267.4	284
2269.35	274.444
2271.29	282
2273.23	277.556
2275.16	279.333
2277.1	277.556
2279.04	265.111
2280.98	278.222
2282.92	277.333
2284.85	265.778
2286.79	271.111
2288.72	274
2290.66	277.778
2292.59	272
2294.52	273.556
2296.46	271.556
2298.39	274
2300.32	266.889
2302.25	270.444
2304.18	270
2306.11	260.444
2308.04	270.444
2309.97	270.444
2311.9	278.444
2313.83	270.667
2315.75	272.889
2317.68	265.111
2319.61	266.889
2321.53	265.778
2323.46	270
2325.38	267.333
2327.3	266.667
2329.23	264.667
2331.15	274.222
2333.07	270.222
2334.99	265.111
2336.91	270.889
2338.83	259.333
2340.75	259.333
2342.67	263.333
2344.59	259.111
2346.51	256
2348.43	258
2350.35	253.778
2352.26	256.444
2354.18	261.111
2356.09	258.222
2358.01	261.333
2359.92	272
2361.83	257.556
2363.75	256.444
2365.66	264
2367.57	257.333
2369.48	256.444
2371.39	252
2373.31	256.889
2375.21	260.889
2377.12	254.444
2379.03	260.222
2380.94	250.667
2382.85	249.333
2384.76	246.222
2386.66	251.556
2388.57	249.778
2390.47	255.333
2392.38	250.222
2394.28	254.667
2396.18	247.111
2398.09	250.444
2399.99	255.778
2401.89	253.111
2403.79	253.778
2405.69	246.444
2407.59	243.333
2409.49	249.333
2411.39	242.889
2413.29	257.556
2415.19	243.778
2417.09	243.111
2418.98	248.667
2420.88	245.333
2422.78	248.667
2424.67	246.889
2426.57	237.111
2428.46	247.778
2430.35	242.889
2432.25	235.333
2434.14	243.778
2436.03	240
2437.92	245.778
2439.81	242.889
2441.7	243.556
2443.59	241.778
2445.48	238.222
2447.37	230
2449.26	237.556
2451.15	242.667
2453.03	234.444
