186.85	376.444
189.449	373.556
192.047	374.444
194.645	381.333
197.241	385.778
199.837	372
202.431	379.111
205.025	379.778
207.619	381.778
210.21	382.889
212.802	385.333
215.392	383.778
217.982	380.667
220.57	376.222
223.158	390
225.744	394.444
228.331	396.222
230.915	385.111
233.5	389.111
236.083	394
238.666	390
241.247	383.778
243.827	384.889
246.408	398.444
248.986	392.222
251.565	388.444
254.142	388.667
256.719	394.889
259.294	395.333
261.868	389.778
264.443	380.222
267.015	387.556
269.587	378.222
272.159	383.556
274.729	388.889
277.298	382.889
279.867	378.444
282.435	370.889
285.001	370
287.568	365.778
290.133	378.222
292.697	386
295.26	388.444
297.824	372.889
300.385	374.667
302.945	373.111
305.505	377.333
308.064	366
310.623	372.667
313.18	370.667
315.737	379.111
318.292	378.667
320.847	376.889
323.402	377.778
325.955	368.667
328.507	384.889
331.058	390.667
333.609	388
336.158	384.667
338.707	376.667
341.255	380
343.802	388.444
346.349	390.667
348.895	378.222
351.439	385.778
353.983	387.333
356.526	378.444
359.068	384.667
361.609	384.667
364.149	383.111
366.689	380.667
369.227	387.556
371.765	383.556
374.302	398.667
376.838	400.889
379.374	412.444
381.908	408
384.442	398.889
386.973	392.222
389.505	400.222
392.036	378.889
394.567	385.111
397.096	370.222
399.625	382.667
402.153	374
404.68	382.444
407.206	381.778
409.73	382.667
412.254	389.778
414.778	383.111
417.301	382.667
419.823	395.778
422.343	394.222
424.863	379.111
427.383	381.556
429.901	396.444
432.418	398.444
434.935	409.333
437.451	411.556
439.966	412.889
442.48	398.889
444.993	396.444
447.506	390.222
450.019	397.333
452.528	392
455.039	397.556
457.549	398.444
460.056	395.778
462.564	395.778
465.07	396.444
467.576	397.111
470.082	378
472.585	379.556
475.089	385.333
477.591	385.778
480.093	404
482.595	391.333
485.094	388
487.594	393.111
490.091	394.667
492.59	390.667
495.086	386.889
497.582	390
500.076	394.222
502.571	387.556
505.064	387.111
507.558	386
510.049	385.333
512.54	396
515.03	389.556
517.518	395.556
520.008	400.667
522.495	406
524.983	395.333
527.468	384.222
529.954	385.111
532.438	386.667
534.921	387.111
537.404	381.556
539.886	382.444
542.366	389.333
544.848	375.111
547.327	386.222
549.805	388
552.284	405.111
554.76	379.556
557.236	383.111
559.711	391.556
562.186	388.889
564.66	396
567.132	380.667
569.604	402.222
572.076	387.111
574.547	390.667
577.016	395.333
579.484	389.333
581.952	384.667
584.419	388.444
586.887	390.889
589.352	384.222
591.816	390.667
594.28	390.222
596.743	395.778
599.205	391.111
601.667	383.778
604.127	387.778
606.588	384.667
609.047	387.111
611.505	386.444
613.963	387.556
616.419	394.222
618.875	392.222
621.33	392.667
623.784	399.111
626.238	394.889
628.69	399.111
631.142	397.556
633.593	398.444
636.043	392.889
638.493	397.333
640.941	386.444
643.389	394.444
645.835	387.778
648.281	395.111
650.727	396
653.171	384
655.615	394.444
658.058	396
660.501	396.444
662.942	414.889
665.382	396
667.822	393.556
670.261	387.556
672.699	385.556
675.137	390.889
677.574	394
680.008	394.889
682.443	390
684.878	386.444
687.312	395.556
689.743	387.111
692.175	392
694.607	382.889
697.037	388.222
699.466	390.889
701.895	392.667
704.323	385.111
706.749	396.444
709.175	379.556
711.601	391.333
714.025	379.333
716.449	395.556
718.871	395.556
721.294	382.889
723.716	386
726.136	395.333
728.556	396.444
730.975	380
733.394	388.667
735.812	393.111
738.228	388.444
740.644	370.444
743.058	383.778
745.473	385.111
747.886	384
750.3	386.222
752.711	388.889
755.123	392.667
757.533	388.222
759.942	392.444
762.351	389.556
764.759	388.444
767.167	385.333
769.573	390.667
771.979	391.111
774.383	387.333
776.787	394.444
779.191	386
781.593	388.667
783.994	397.333
786.396	395.111
788.796	400.889
791.195	398.444
793.595	396
795.992	400.444
798.389	398
800.786	407.556
803.181	389.111
805.576	390.667
807.969	388
810.363	403.556
812.755	394.444
815.147	393.111
817.537	389.333
819.927	388
822.318	389.556
824.706	394.889
827.093	394.889
829.48	381.333
831.866	386
834.251	380.444
836.636	381.333
839.021	391.333
841.404	387.556
843.786	379.778
846.167	392.222
848.548	390.889
850.928	384
853.307	381.556
855.685	380.444
858.063	386.444
860.44	389.778
862.816	380.222
865.192	389.778
867.566	383.333
869.94	382
872.313	380.444
874.685	390.444
877.057	384
879.428	384.222
881.798	383.778
884.167	377.111
886.536	391.778
888.902	382.444
891.269	393.778
893.636	398.667
896.001	391.778
898.366	388.444
900.73	387.778
903.094	393.556
905.455	381.111
907.817	379.556
910.178	381.333
912.538	382.444
914.898	380
917.255	381.778
919.613	380.444
921.971	388.222
924.327	377.778
926.682	377.778
929.037	377.778
931.391	383.778
933.744	381.333
936.096	375.111
938.449	377.111
940.799	371.778
943.149	372.667
945.499	378
947.847	367.111
950.195	381.556
952.542	372.667
954.889	387.333
957.235	383.778
959.579	379.111
961.924	374.889
964.266	386.444
966.609	384.667
968.951	373.778
971.292	390.889
973.632	382.889
975.972	380.222
978.31	384.444
980.649	378.889
982.986	387.333
985.323	381.333
987.659	381.556
989.994	390.667
992.328	396.222
994.662	398.444
996.995	400.667
999.326	419.556
1001.66	427.778
1003.99	424.444
1006.32	439.556
1008.65	459.556
1010.98	464.444
1013.3	470.222
1015.63	460
1017.96	438.889
1020.28	420.889
1022.61	399.556
1024.93	400.444
1027.25	391.111
1029.58	384
1031.9	391.333
1034.22	392.667
1036.54	387.111
1038.86	392.222
1041.18	380
1043.49	386.667
1045.81	396.222
1048.13	386.222
1050.44	401.778
1052.76	397.556
1055.07	392.667
1057.39	388.667
1059.7	394.444
1062.01	388.667
1064.32	393.778
1066.63	396.667
1068.94	393.333
1071.25	401.778
1073.56	399.556
1075.87	396.222
1078.17	410.889
1080.48	410.667
1082.79	412.222
1085.09	404.222
1087.39	417.111
1089.7	429.556
1092	438.222
1094.3	446.444
1096.6	455.333
1098.9	458.222
1101.2	436.222
1103.5	422.889
1105.8	424.444
1108.1	401.778
1110.39	423.556
1112.69	408.222
1114.98	417.556
1117.28	428.667
1119.57	435.556
1121.86	426.222
1124.16	425.111
1126.45	424.667
1128.74	417.333
1131.03	420
1133.32	397.333
1135.61	398.889
1137.89	398.444
1140.18	400
1142.47	397.778
1144.75	392
1147.04	392.889
1149.32	393.333
1151.61	402.667
1153.89	407.778
1156.17	397.333
1158.45	402.889
1160.73	395.111
1163.01	388.667
1165.29	387.556
1167.57	387.556
1169.85	385.111
1172.12	380.222
1174.4	378.222
1176.68	383.333
1178.95	378.667
1181.22	384
1183.5	374.222
1185.77	386.444
1188.04	384.667
1190.31	372.222
1192.58	369.333
1194.85	373.778
1197.12	375.111
1199.39	370.444
1201.66	371.333
1203.92	368.889
1206.19	376
1208.45	366.444
1210.72	371.778
1212.98	372.889
1215.25	363.556
1217.51	366.222
1219.77	372.889
1222.03	376.667
1224.29	364.667
1226.55	369.333
1228.81	364.444
1231.07	371.778
1233.33	377.111
1235.58	378.667
1237.84	379.556
1240.09	381.111
1242.35	373.778
1244.6	369.556
1246.86	367.111
1249.11	374.889
1251.36	368
1253.61	379.333
1255.86	374.889
1258.11	374
1260.36	376.222
1262.61	381.778
1264.86	373.778
1267.1	378.222
1269.35	366.667
1271.6	377.111
1273.84	378.222
1276.08	380
1278.33	373.778
1280.57	369.111
1282.81	379.111
1285.05	378.667
1287.29	380.222
1289.53	382.444
1291.77	386.222
1294.01	386.889
1296.25	387.333
1298.48	386.222
1300.72	381.556
1302.96	372.222
1305.19	375.556
1307.42	374
1309.66	386.444
1311.89	384.667
1314.12	380.889
1316.35	382.667
1318.58	378.667
1320.81	387.111
1323.04	383.778
1325.27	386
1327.5	396.444
1329.73	386.889
1331.95	391.333
1334.18	391.333
1336.4	390.889
1338.63	398
1340.85	396
1343.08	391.556
1345.3	393.333
1347.52	387.778
1349.74	389.778
1351.96	384.444
1354.18	396.444
1356.4	399.333
1358.61	388
1360.83	393.111
1363.05	403.556
1365.27	404
1367.48	410.444
1369.69	413.111
1371.91	403.778
1374.12	427.556
1376.33	426.444
1378.55	430
1380.76	436.889
1382.97	436.667
1385.18	439.778
1387.39	432.222
1389.59	421.111
1391.8	423.556
1394.01	405.556
1396.21	404
1398.42	388.222
1400.63	390
1402.83	387.333
1405.03	378
1407.24	381.111
1409.44	387.333
1411.64	379.333
1413.84	383.111
1416.04	377.333
1418.24	377.111
1420.44	378.222
1422.64	378
1424.83	386.222
1427.03	386.667
1429.23	384
1431.42	384.222
1433.62	374
1435.81	380.667
1438	386.667
1440.19	375.111
1442.39	381.556
1444.58	367.556
1446.77	370.889
1448.96	370.222
1451.15	379.556
1453.34	374.889
1455.52	372.889
1457.71	372
1459.9	369.778
1462.08	372.222
1464.27	371.333
1466.45	365.778
1468.64	362.889
1470.82	367.333
1473	359.778
1475.18	363.556
1477.36	364
1479.54	371.556
1481.72	361.111
1483.9	367.111
1486.08	366.667
1488.26	364.222
1490.43	353.556
1492.61	352.222
1494.78	359.333
1496.96	346.444
1499.13	358.667
1501.31	364.444
1503.48	350
1505.65	361.333
1507.82	352
1509.99	347.333
1512.16	358.444
1514.33	353.778
1516.5	355.333
1518.67	352.667
1520.84	352.667
1523	352.444
1525.17	341.333
1527.34	349.333
1529.5	353.111
1531.66	358.889
1533.83	356.444
1535.99	355.111
1538.15	351.333
1540.31	359.111
1542.47	350.222
1544.63	348.667
1546.79	359.778
1548.95	355.556
1551.11	354
1553.27	360.667
1555.42	358.667
1557.58	360.667
1559.73	363.111
1561.89	360.667
1564.04	360.889
1566.2	356.222
1568.35	363.778
1570.5	360.444
1572.65	374.667
1574.8	368.889
1576.95	371.556
1579.1	369.556
1581.25	362.222
1583.4	364.667
1585.55	359.778
1587.69	360
1589.84	354
1591.99	347.556
1594.13	363.333
1596.27	363.333
1598.42	362.444
1600.56	354.222
1602.7	357.556
1604.84	359.556
1606.98	354.667
1609.12	342.889
1611.26	347.111
1613.4	344.222
1615.54	346.444
1617.68	342.889
1619.81	354.667
1621.95	353.111
1624.08	353.333
1626.22	339.111
1628.35	334
1630.49	341.111
1632.62	345.111
1634.75	330
1636.88	329.556
1639.01	342.667
1641.14	344.667
1643.27	339.111
1645.4	336.222
1647.53	338.222
1649.66	338
1651.79	338.667
1653.91	341.111
1656.04	328.222
1658.16	333.778
1660.29	332.444
1662.41	340.889
1664.53	329.111
1666.66	333.111
1668.78	343.111
1670.9	327.111
1673.02	338.667
1675.14	333.111
1677.26	332.667
1679.38	340.444
1681.49	331.333
1683.61	330.222
1685.73	334
1687.84	330.444
1689.96	328.667
1692.07	329.111
1694.19	328.667
1696.3	337.556
1698.41	333.111
1700.52	323.556
1702.64	333.333
1704.75	338.889
1706.86	340.222
1708.97	327.333
1711.07	334.444
1713.18	333.111
1715.29	322.889
1717.4	331.778
1719.5	339.778
1721.61	327.111
1723.71	332.889
1725.82	329.333
1727.92	324.667
1730.02	337.111
1732.12	320.222
1734.23	332.667
1736.33	323.111
1738.43	319.556
1740.53	324.222
1742.63	323.333
1744.72	325.111
1746.82	319.778
1748.92	325.778
1751.02	319.111
1753.11	323.333
1755.21	316
1757.3	323.778
1759.4	325.778
1761.49	325.111
1763.58	317.333
1765.67	319.111
1767.76	321.111
1769.86	309.778
1771.95	309.556
1774.03	315.556
1776.12	319.556
1778.21	317.556
1780.3	327.111
1782.39	312
1784.47	323.778
1786.56	317.111
1788.64	321.333
1790.73	320
1792.81	316
1794.89	318.889
1796.98	311.111
1799.06	316.667
1801.14	315.778
1803.22	319.778
1805.3	306.889
1807.38	309.556
1809.46	310.667
1811.54	312.667
1813.61	310.667
1815.69	309.778
1817.77	311.111
1819.84	316
1821.92	321.333
1823.99	313.333
1826.06	310
1828.14	309.333
1830.21	319.778
1832.28	309.778
1834.35	302.444
1836.42	315.556
1838.49	311.556
1840.56	303.333
1842.63	306.444
1844.7	307.778
1846.77	308.222
1848.83	307.556
1850.9	302.444
1852.96	308.889
1855.03	304.222
1857.09	312.889
1859.15	300.444
1861.22	310.889
1863.28	305.556
1865.34	296.667
1867.4	306.667
1869.46	302
1871.52	305.111
1873.58	298.889
1875.64	303.111
1877.7	303.333
1879.76	296.667
1881.81	303.111
1883.87	302.889
1885.92	297.111
1887.98	299.111
1890.03	303.778
1892.09	304.667
1894.14	300.444
1896.19	300.444
1898.24	299.333
1900.29	303.111
1902.34	300.222
1904.4	305.111
1906.44	294.889
1908.49	303.778
1910.54	301.111
1912.59	309.111
1914.63	295.333
1916.68	299.333
1918.73	295.333
1920.77	298.444
1922.81	300.667
1924.86	303.333
1926.9	295.333
1928.94	298.222
1930.99	298.667
1933.03	290.222
1935.07	300.444
1937.11	301.778
1939.15	294.889
1941.19	295.111
1943.22	294.222
1945.26	298.444
1947.3	287.333
1949.33	298.222
1951.37	291.111
1953.4	292.667
1955.44	294.667
1957.47	292.889
1959.51	287.778
1961.54	282.444
1963.57	287.778
1965.6	286.889
1967.63	289.333
1969.66	287.556
1971.69	287.111
1973.72	278.889
1975.75	288.222
1977.78	286.667
1979.8	278.667
1981.83	287.111
1983.86	286.444
1985.88	286.444
1987.91	285.111
1989.93	290.889
1991.95	279.556
1993.98	288.444
1996	283.556
1998.02	287.333
2000.04	277.556
2002.06	291.111
2004.08	279.111
2006.1	278.222
2008.12	286.444
2010.14	283.778
2012.15	277.111
2014.17	273.556
2016.19	277.333
2018.2	289.333
2020.22	281.111
2022.23	284.222
2024.25	282.222
2026.26	282.889
2028.27	281.556
2030.28	281.333
2032.29	287.333
2034.3	275.778
2036.32	279.111
2038.32	277.778
2040.33	288.444
2042.34	282.889
2044.35	288.222
2046.36	264.444
2048.36	274
2050.37	287.333
2052.37	276.667
2054.38	280.444
2056.38	277.111
2058.39	282.667
2060.39	280.444
2062.39	280.222
2064.39	279.333
2066.39	277.333
2068.39	274.444
2070.39	271.111
2072.39	278.889
2074.39	268.889
2076.39	269.333
2078.39	274.667
2080.39	267.556
2082.38	276.444
2084.38	271.778
2086.37	265.556
2088.37	272.222
2090.36	276.667
2092.35	272
2094.35	277.556
2096.34	275.111
2098.33	267.333
2100.32	272.222
2102.31	268.222
2104.3	273.556
2106.29	271.333
2108.28	267.111
2110.27	266.222
2112.25	266.889
2114.24	268.889
2116.23	268.444
2118.21	264.667
2120.2	271.111
2122.18	261.111
2124.17	268.667
2126.15	271.556
2128.13	266.444
2130.11	267.111
2132.09	268.444
2134.08	265.556
2136.06	257.778
2138.04	262.889
2140.02	269.333
2141.99	265.111
2143.97	261.333
2145.95	260.444
2147.93	262.222
2149.9	264.889
2151.88	260.222
2153.85	263.556
2155.83	260.889
2157.8	254
2159.77	261.556
2161.75	255.556
2163.72	261.778
2165.69	261.778
2167.66	254.889
2169.63	256.889
2171.6	256
2173.57	257.778
2175.54	258.444
2177.51	256.222
2179.47	253.111
2181.44	253.333
2183.41	253.333
2185.37	248.444
2187.34	252.222
2189.3	246
2191.27	253.778
2193.23	257.111
2195.19	248.444
2197.15	256.222
2199.11	249.333
2201.08	257.111
2203.04	253.556
2205	252.444
2206.96	252
2208.91	251.778
2210.87	250
2212.83	256.222
2214.79	242
2216.74	243.333
2218.7	248.444
2220.65	244
2222.61	242.889
2224.56	252
2226.52	248.667
2228.47	253.333
2230.42	255.556
2232.37	242
2234.32	251.778
2236.27	242.444
2238.22	241.556
2240.17	241.333
2242.12	238.889
2244.07	245.333
2246.02	246.667
2247.97	248.667
2249.91	244.444
2251.86	247.778
2253.8	246.222
2255.75	242
2257.69	236.444
2259.64	235.333
2261.58	243.333
2263.52	243.556
2265.46	241.556
2267.4	228.222
2269.35	234.667
2271.29	241.111
2273.23	244.444
2275.16	238.444
2277.1	233.556
2279.04	241.778
2280.98	240.889
2282.92	237.333
2284.85	240
2286.79	234.667
2288.72	242.444
2290.66	232.889
2292.59	232.444
2294.52	232.889
2296.46	236
2298.39	232.889
2300.32	229.111
2302.25	235.333
2304.18	235.556
2306.11	237.778
2308.04	226.222
2309.97	233.556
2311.9	232
2313.83	232
2315.75	231.778
2317.68	231.778
2319.61	232
2321.53	237.556
2323.46	234
2325.38	230
2327.3	235.111
2329.23	227.111
2331.15	228.889
2333.07	225.556
2334.99	223.111
2336.91	234
2338.83	228.667
2340.75	230.667
2342.67	228.444
2344.59	229.556
2346.51	224.222
2348.43	221.111
2350.35	232
2352.26	225.111
2354.18	228.889
2356.09	218.444
2358.01	222
2359.92	222.444
2361.83	222.222
2363.75	219.111
2365.66	228.444
2367.57	217.333
2369.48	221.778
2371.39	224.889
2373.31	220.667
2375.21	222.889
2377.12	221.556
2379.03	220
2380.94	222.667
2382.85	217.778
2384.76	216.444
2386.66	215.111
2388.57	217.778
2390.47	215.111
2392.38	219.778
2394.28	214.889
2396.18	218.667
2398.09	221.111
2399.99	219.778
2401.89	218.667
2403.79	215.556
2405.69	223.778
2407.59	215.111
2409.49	213.111
2411.39	219.111
2413.29	216.222
2415.19	211.333
2417.09	216.889
2418.98	219.778
2420.88	217.556
2422.78	224.889
2424.67	209.778
2426.57	219.556
2428.46	213.333
2430.35	218.222
2432.25	214.667
2434.14	208.222
2436.03	204.667
2437.92	210
2439.81	218.222
2441.7	213.778
2443.59	209.333
2445.48	215.556
2447.37	213.778
2449.26	207.333
2451.15	213.111
2453.03	211.333
