186.85	672.222
189.449	685.333
192.047	674.667
194.645	679.556
197.241	686.667
199.837	685.778
202.431	680
205.025	688.444
207.619	691.333
210.21	682.667
212.802	686.667
215.392	690
217.982	703.556
220.57	700.889
223.158	690.444
225.744	690.222
228.331	700.667
230.915	708.889
233.5	705.556
236.083	692.889
238.666	707.111
241.247	708.222
243.827	707.778
246.408	712.667
248.986	719.778
251.565	724
254.142	718.889
256.719	712.222
259.294	718.222
261.868	709.333
264.443	711.333
267.015	706.667
269.587	707.555
272.159	694
274.729	703.556
277.298	698.444
279.867	701.333
282.435	705.111
285.001	706.222
287.568	715.111
290.133	702.444
292.697	697.111
295.26	704.444
297.824	710.889
300.385	704.667
302.945	703.333
305.505	713.111
308.064	716.667
310.623	716.222
313.18	714.667
315.737	721.111
318.292	719.111
320.847	719.111
323.402	724.222
325.955	718
328.507	719.333
331.058	721.778
333.609	729.333
336.158	728.667
338.707	714.667
341.255	737.333
343.802	739.111
346.349	748.667
348.895	741.333
351.439	743.111
353.983	738.889
356.526	743.556
359.068	735.556
361.609	746.889
364.149	741.556
366.689	743.778
369.227	754.667
371.765	751.111
374.302	755.333
376.838	774.889
379.374	789.556
381.908	792.889
384.442	778.444
386.973	764.222
389.505	756
392.036	742.667
394.567	744.889
397.096	750.222
399.625	745.111
402.153	722.444
404.68	745.333
407.206	744.222
409.73	744.444
412.254	749.778
414.778	741.778
417.301	754.222
419.823	746.444
422.343	758
424.863	753.333
427.383	757.556
429.901	768.222
432.418	767.556
434.935	777.778
437.451	781.556
439.966	785.778
442.48	768.444
444.993	763.778
447.506	756.444
450.019	761.778
452.528	762.222
455.039	768.222
457.549	772.667
460.056	780.222
462.564	764.667
465.07	768
467.576	768.222
470.082	752.444
472.585	749.111
475.089	746.444
477.591	750.444
480.093	760.222
482.595	757.778
485.094	756.444
487.594	749.556
490.091	769.556
492.59	753.333
495.086	769.111
497.582	768.222
500.076	759.778
502.571	764
505.064	758.667
507.558	767.333
510.049	763.556
512.54	771.778
515.03	766.889
517.518	776.667
520.008	778
522.495	769.556
524.983	764
527.468	770.444
529.954	753.111
532.438	758.889
534.921	754.444
537.404	757.111
539.886	760.222
542.366	758.667
544.848	764.222
547.327	769.556
549.805	765.111
552.284	761.556
554.76	772.889
557.236	770.444
559.711	770.444
562.186	763.778
564.66	767.556
567.132	752.222
569.604	767.111
572.076	766.889
574.547	772.667
577.016	752.889
579.484	761.778
581.952	764.667
584.419	763.556
586.887	764.889
589.352	757.556
591.816	774.222
594.28	776.667
596.743	752.889
599.205	764
601.667	760
604.127	764.667
606.588	767.333
609.047	767.333
611.505	760.444
613.963	764.444
616.419	774.222
618.875	770.222
621.33	769.556
623.784	772
626.238	769.778
628.69	781.111
631.142	762
633.593	769.333
636.043	777.333
638.493	778.889
640.941	762.889
643.389	782.444
645.835	778.222
648.281	766
650.727	776.222
653.171	769.778
655.615	774.667
658.058	776.889
660.501	779.556
662.942	777.556
665.382	768.667
667.822	761.333
670.261	755.333
672.699	747.778
675.137	754.667
677.574	762.222
680.008	754.222
682.443	752.667
684.878	738.444
687.312	777.556
689.743	762.667
692.175	763.556
694.607	761.333
697.037	768.889
699.466	759.111
701.895	761.111
704.323	762.444
706.749	766.667
709.175	766.667
711.601	762.667
714.025	761.333
716.449	768.222
718.871	775.778
721.294	771.556
723.716	772.667
726.136	767.556
728.556	764.889
730.975	760.444
733.394	766.444
735.812	772.444
738.228	754.667
740.644	758.222
743.058	762
745.473	753.778
747.886	762.667
750.3	760.222
752.711	751.778
755.123	739.333
757.533	767.111
759.942	742.667
762.351	760.444
764.759	749.111
767.167	752.222
769.573	757.556
771.979	756.889
774.383	747.778
776.787	760.222
779.191	758.222
781.593	761.556
783.994	755.556
786.396	764.667
788.796	761.556
791.195	771.333
793.595	767.111
795.992	767.111
798.389	766
800.786	767.778
803.181	769.333
805.576	778.889
807.969	770.667
810.363	754.222
812.755	771.778
815.147	762.667
817.537	763.778
819.927	772
822.318	755.778
824.706	749.778
827.093	758.444
829.48	761.556
831.866	746.667
834.251	752.667
836.636	744.222
839.021	750.889
841.404	746
843.786	740
846.167	748.444
848.548	745.778
850.928	756.222
853.307	748
855.685	749.333
858.063	754.444
860.44	752
862.816	743.556
865.192	754.222
867.566	750.889
869.94	746
872.313	754
874.685	764.667
877.057	752
879.428	742.667
881.798	758.444
884.167	751.556
886.536	764.667
888.902	756.222
891.269	762.445
893.636	771.333
896.001	744
898.366	766.444
900.73	741.333
903.094	768.222
905.455	758.889
907.817	769.333
910.178	759.778
912.538	756.889
914.898	742.889
917.255	740.889
919.613	751.333
921.971	733.778
924.327	740.667
926.682	747.111
929.037	740.667
931.391	738.667
933.744	742.667
936.096	732.222
938.449	739.333
940.799	737.333
943.149	741.111
945.499	736.444
947.847	745.556
950.195	754.667
952.542	734
954.889	754.889
957.235	738.889
959.579	755.333
961.924	744.222
964.266	752.222
966.609	750.889
968.951	751.333
971.292	753.778
973.632	758.444
975.972	750.889
978.31	746
980.649	748.667
982.986	751.333
985.323	748.222
987.659	748
989.994	748.222
992.328	762.222
994.662	764.222
996.995	757.111
999.326	779.333
1001.66	778
1003.99	784
1006.32	785.556
1008.65	793.111
1010.98	814.222
1013.3	810.667
1015.63	798.667
1017.96	773.556
1020.28	771.778
1022.61	766.667
1024.93	753.556
1027.25	741.333
1029.58	752
1031.9	752
1034.22	760.222
1036.54	768.667
1038.86	758
1041.18	768
1043.49	762.444
1045.81	746.222
1048.13	751.111
1050.44	767.111
1052.76	771.778
1055.07	769.778
1057.39	781.556
1059.7	768
1062.01	763.778
1064.32	764.222
1066.63	772.889
1068.94	760.889
1071.25	760
1073.56	770
1075.87	768
1078.17	766.222
1080.48	773.556
1082.79	765.333
1085.09	782.889
1087.39	784.667
1089.7	810.222
1092	818.667
1094.3	845.111
1096.6	850.222
1098.9	828.667
1101.2	811.778
1103.5	801.556
1105.8	787.778
1108.1	789.778
1110.39	784.889
1112.69	783.556
1114.98	793.111
1117.28	818.889
1119.57	801.778
1121.86	808.444
1124.16	803.556
1126.45	808.222
1128.74	791.111
1131.03	779.778
1133.32	774.889
1135.61	768.222
1137.89	755.556
1140.18	752.222
1142.47	758.667
1144.75	757.556
1147.04	758.222
1149.32	779.333
1151.61	774.444
1153.89	778.889
1156.17	756.222
1158.45	766.444
1160.73	749.333
1163.01	744
1165.29	754.889
1167.57	741.778
1169.85	750.444
1172.12	743.778
1174.4	741.778
1176.68	741.111
1178.95	743.333
1181.22	744
1183.5	749.333
1185.77	734.222
1188.04	735.556
1190.31	734.889
1192.58	742.222
1194.85	732.667
1197.12	729.333
1199.39	725.556
1201.66	728.889
1203.92	728.222
1206.19	730.889
1208.45	719.556
1210.72	724
1212.98	719.778
1215.25	724.444
1217.51	715.778
1219.77	717.111
1222.03	715.556
1224.29	732.667
1226.55	739.333
1228.81	730.444
1231.07	739.556
1233.33	725.778
1235.58	734.222
1237.84	734.667
1240.09	722.222
1242.35	727.778
1244.6	731.111
1246.86	716.444
1249.11	728.222
1251.36	743.333
1253.61	736.889
1255.86	740.889
1258.11	730.667
1260.36	736.445
1262.61	728
1264.86	746.444
1267.1	747.778
1269.35	738.222
1271.6	735.333
1273.84	734
1276.08	735.333
1278.33	730.444
1280.57	744.889
1282.81	730.667
1285.05	733.333
1287.29	728.444
1289.53	732.444
1291.77	740.444
1294.01	749.333
1296.25	747.333
1298.48	730
1300.72	727.778
1302.96	722.889
1305.19	728.444
1307.42	730.667
1309.66	717.778
1311.89	727.333
1314.12	731.333
1316.35	737.111
1318.58	730.667
1320.81	739.111
1323.04	733.111
1325.27	742.222
1327.5	748.889
1329.73	741.333
1331.95	740.222
1334.18	750
1336.4	761.778
1338.63	761.555
1340.85	748
1343.08	746.889
1345.3	737.333
1347.52	744.444
1349.74	744.222
1351.96	742.889
1354.18	752.222
1356.4	746
1358.61	754.667
1360.83	746.667
1363.05	754
1365.27	744.444
1367.48	761.333
1369.69	766.222
1371.91	765.778
1374.12	768.667
1376.33	775.556
1378.55	780.889
1380.76	790.444
1382.97	808.222
1385.18	779.111
1387.39	778
1389.59	767.111
1391.8	763.556
1394.01	760.222
1396.21	740
1398.42	736.889
1400.63	749.111
1402.83	735.778
1405.03	716
1407.24	728.889
1409.44	721.556
1411.64	752.222
1413.84	725.556
1416.04	732.667
1418.24	719.778
1420.44	729.111
1422.64	728.667
1424.83	724.445
1427.03	731.111
1429.23	717.555
1431.42	724.444
1433.62	721.333
1435.81	734.889
1438	723.333
1440.19	729.556
1442.39	718
1444.58	721.333
1446.77	717.555
1448.96	720.667
1451.15	719.778
1453.34	725.778
1455.52	718.667
1457.71	709.333
1459.9	728
1462.08	716.667
1464.27	721.333
1466.45	719.333
1468.64	710.889
1470.82	720.667
1473	720.222
1475.18	717.333
1477.36	725.111
1479.54	721.778
1481.72	719.111
1483.9	708
1486.08	720
1488.26	718.444
1490.43	702
1492.61	699.333
1494.78	693.111
1496.96	696.889
1499.13	692.889
1501.31	704.444
1503.48	690.667
1505.65	697.778
1507.82	687.111
1509.99	691.333
1512.16	697.333
1514.33	700.667
1516.5	681.333
1518.67	683.333
1520.84	701.778
1523	691.111
1525.17	704.889
1527.34	687.333
1529.5	696
1531.66	696.889
1533.83	691.778
1535.99	697.111
1538.15	694.667
1540.31	675.556
1542.47	683.111
1544.63	702.889
1546.79	688.444
1548.95	699.111
1551.11	697.333
1553.27	689.778
1555.42	693.333
1557.58	694
1559.73	700.444
1561.89	708
1564.04	698.667
1566.2	701.333
1568.35	695.556
1570.5	712.222
1572.65	707.333
1574.8	708.667
1576.95	710
1579.1	706.889
1581.25	708.889
1583.4	703.556
1585.55	705.778
1587.69	693.778
1589.84	700.889
1591.99	701.111
1594.13	706.222
1596.27	699.778
1598.42	688.889
1600.56	683.778
1602.7	703.333
1604.84	690.222
1606.98	687.111
1609.12	682.889
1611.26	685.778
1613.4	681.111
1615.54	685.333
1617.68	674
1619.81	670.889
1621.95	675.556
1624.08	674.889
1626.22	657.556
1628.35	671.556
1630.49	682
1632.62	673.111
1634.75	662.222
1636.88	673.333
1639.01	662.889
1641.14	682
1643.27	662.667
1645.4	670.222
1647.53	671.111
1649.66	663.556
1651.79	678.222
1653.91	660.222
1656.04	651.111
1658.16	669.111
1660.29	655.556
1662.41	657.333
1664.53	665.778
1666.66	672.222
1668.78	670.444
1670.9	668.667
1673.02	671.778
1675.14	660.889
1677.26	660.444
1679.38	658
1681.49	663.111
1683.61	665.556
1685.73	664.222
1687.84	662.444
1689.96	658.444
1692.07	664
1694.19	649.333
1696.3	653.333
1698.41	661.556
1700.52	644
1702.64	667.111
1704.75	657.778
1706.86	647.111
1708.97	653.333
1711.07	643.778
1713.18	640.444
1715.29	645.778
1717.4	651.333
1719.5	650.889
1721.61	648.667
1723.71	639.778
1725.82	643.556
1727.92	646
1730.02	645.111
1732.12	645.111
1734.23	658.667
1736.33	640.222
1738.43	636
1740.53	620.444
1742.63	631.111
1744.72	637.111
1746.82	641.778
1748.92	640.889
1751.02	642.667
1753.11	634.222
1755.21	630.889
1757.3	634.889
1759.4	632.889
1761.49	627.111
1763.58	625.111
1765.67	623.778
1767.76	624.667
1769.86	637.333
1771.95	630.444
1774.03	637.111
1776.12	619.333
1778.21	617.555
1780.3	622.667
1782.39	626.889
1784.47	628.222
1786.56	624.889
1788.64	620.444
1790.73	620.667
1792.81	621.778
1794.89	616.667
1796.98	621.333
1799.06	617.778
1801.14	629.111
1803.22	619.111
1805.3	614
1807.38	616.889
1809.46	612.222
1811.54	623.111
1813.61	608.889
1815.69	629.111
1817.77	620.889
1819.84	614.667
1821.92	613.333
1823.99	604.444
1826.06	612.444
1828.14	613.111
1830.21	616.444
1832.28	609.111
1834.35	604.889
1836.42	611.333
1838.49	609.333
1840.56	613.778
1842.63	608.889
1844.7	607.556
1846.77	594.222
1848.83	619.111
1850.9	602
1852.96	601.111
1855.03	596.444
1857.09	598.889
1859.15	590.445
1861.22	597.111
1863.28	588.222
1865.34	594.444
1867.4	587.111
1869.46	602.222
1871.52	600.444
1873.58	606.667
1875.64	594.222
1877.7	589.556
1879.76	597.556
1881.81	596
1883.87	590.222
1885.92	589.778
1887.98	597.778
1890.03	595.333
1892.09	592.444
1894.14	580.444
1896.19	587.111
1898.24	587.778
1900.29	598
1902.34	582.444
1904.4	594
1906.44	598
1908.49	581.111
1910.54	593.333
1912.59	596.889
1914.63	588.222
1916.68	584.667
1918.73	592.667
1920.77	579.333
1922.81	579.778
1924.86	579.778
1926.9	579.778
1928.94	578.444
1930.99	572.889
1933.03	584.667
1935.07	579.778
1937.11	579.333
1939.15	572.667
1941.19	577.111
1943.22	581.111
1945.26	571.556
1947.3	570.222
1949.33	574.667
1951.37	575.111
1953.4	565.333
1955.44	563.778
1957.47	560.667
1959.51	570.222
1961.54	564.222
1963.57	570
1965.6	560
1967.63	553.778
1969.66	571.778
1971.69	559.556
1973.72	549.333
1975.75	562.222
1977.78	551.111
1979.8	554.444
1981.83	565.778
1983.86	554.222
1985.88	551.111
1987.91	551.111
1989.93	557.556
1991.95	552.222
1993.98	544.889
1996	544.444
1998.02	554.222
2000.04	555.333
2002.06	553.111
2004.08	535.778
2006.1	550.444
2008.12	548.222
2010.14	546.889
2012.15	545.111
2014.17	559.333
2016.19	547.778
2018.2	543.111
2020.22	546.445
2022.23	556
2024.25	550.889
2026.26	545.778
2028.27	546.667
2030.28	534.889
2032.29	546.222
2034.3	549.778
2036.32	541.111
2038.32	550.222
2040.33	536.889
2042.34	545.111
2044.35	544.667
2046.36	536.667
2048.36	540.889
2050.37	539.333
2052.37	542.667
2054.38	534.667
2056.38	533.333
2058.39	547.333
2060.39	531.556
2062.39	529.778
2064.39	525.333
2066.39	532
2068.39	527.778
2070.39	528.222
2072.39	531.333
2074.39	539.556
2076.39	523.778
2078.39	520.667
2080.39	529.333
2082.38	522
2084.38	522.889
2086.37	520.444
2088.37	531.111
2090.36	517.333
2092.35	529.333
2094.35	534.889
2096.34	514.222
2098.33	524.667
2100.32	519.556
2102.31	514.889
2104.3	516
2106.29	525.111
2108.28	512.889
2110.27	520.667
2112.25	516.889
2114.24	520.667
2116.23	512.667
2118.21	509.333
2120.2	508.667
2122.18	516
2124.17	520.889
2126.15	514.889
2128.13	513.778
2130.11	510.444
2132.09	512.222
2134.08	514
2136.06	508.222
2138.04	508.667
2140.02	501.333
2141.99	509.333
2143.97	518.667
2145.95	494.667
2147.93	508.444
2149.9	505.111
2151.88	497.333
2153.85	500.444
2155.83	489.111
2157.8	502.889
2159.77	500.667
2161.75	505.778
2163.72	495.778
2165.69	491.111
2167.66	493.111
2169.63	495.778
2171.6	495.778
2173.57	496.667
2175.54	491.333
2177.51	493.556
2179.47	491.556
2181.44	482.667
2183.41	490.222
2185.37	493.556
2187.34	477.556
2189.3	480.222
2191.27	486.889
2193.23	481.556
2195.19	482.889
2197.15	480
2199.11	482.889
2201.08	490.667
2203.04	476
2205	484.889
2206.96	481.556
2208.91	481.333
2210.87	471.778
2212.83	484.222
2214.79	472.444
2216.74	474.444
2218.7	482.222
2220.65	477.333
2222.61	476.889
2224.56	478.444
2226.52	480.444
2228.47	471.556
2230.42	460.667
2232.37	464.222
2234.32	466.222
2236.27	466.444
2238.22	465.111
2240.17	474.667
2242.12	461.778
2244.07	458.222
2246.02	468.667
2247.97	464
2249.91	470.444
2251.86	468.667
2253.8	466.444
2255.75	460.889
2257.69	469.111
2259.64	460.222
2261.58	458.667
2263.52	449.556
2265.46	454.444
2267.4	472.444
2269.35	456.667
2271.29	455.333
2273.23	451.111
2275.16	454.667
2277.1	454.667
2279.04	451.556
2280.98	448.889
2282.92	453.333
2284.85	436.444
2286.79	445.778
2288.72	441.111
2290.66	443.111
2292.59	445.556
2294.52	439.111
2296.46	442.667
2298.39	449.556
2300.32	444.444
2302.25	444.444
2304.18	432.222
2306.11	441.333
2308.04	449.778
2309.97	440.889
2311.9	439.333
2313.83	428.444
2315.75	437.333
2317.68	434.222
2319.61	435.556
2321.53	431.778
2323.46	434.667
2325.38	434.667
2327.3	436.444
2329.23	434.444
2331.15	424.222
2333.07	429.333
2334.99	438.889
2336.91	424.667
2338.83	434.667
2340.75	426.889
2342.67	425.333
2344.59	428.222
2346.51	418
2348.43	427.111
2350.35	434
2352.26	430.444
2354.18	417.778
2356.09	427.556
2358.01	417.111
2359.92	414.444
2361.83	413.333
2363.75	415.111
2365.66	417.778
2367.57	414.889
2369.48	413.333
2371.39	413.333
2373.31	416.444
2375.21	413.778
2377.12	402.889
2379.03	416.889
2380.94	420
2382.85	418.889
2384.76	421.111
2386.66	416.222
2388.57	415.111
2390.47	408.222
2392.38	411.556
2394.28	416
2396.18	410.444
2398.09	402.667
2399.99	394.889
2401.89	408.222
2403.79	412.889
2405.69	409.333
2407.59	400.889
2409.49	400.667
2411.39	396.222
2413.29	406
2415.19	402.222
2417.09	396.889
2418.98	399.111
2420.88	402.889
2422.78	399.333
2424.67	402.889
2426.57	395.556
2428.46	400.889
2430.35	399.556
2432.25	400.444
2434.14	401.333
2436.03	396
2437.92	399.556
2439.81	386.444
2441.7	392
2443.59	403.333
2445.48	390.444
2447.37	394.222
2449.26	393.111
2451.15	398.222
2453.03	396.444
