186.85	439.333
189.449	446.444
192.047	456
194.645	458.222
197.241	456
199.837	462
202.431	465.333
205.025	458.222
207.619	471.111
210.21	469.111
212.802	464
215.392	473.556
217.982	460.667
220.57	469.556
223.158	462.889
225.744	475.333
228.331	475.111
230.915	462
233.5	471.778
236.083	471.778
238.666	460.222
241.247	465.778
243.827	481.556
246.408	478.667
248.986	486.889
251.565	482.667
254.142	471.111
256.719	474.667
259.294	466.667
261.868	466.222
264.443	465.111
267.015	462.667
269.587	455.333
272.159	460.222
274.729	460.667
277.298	448.667
279.867	451.333
282.435	450
285.001	440.444
287.568	443.111
290.133	448.667
292.697	446.889
295.26	441.333
297.824	444.444
300.385	444.889
302.945	436
305.505	443.111
308.064	431.778
310.623	437.778
313.18	430.889
315.737	429.333
318.292	425.778
320.847	435.778
323.402	426
325.955	430.222
328.507	436.667
331.058	433.333
333.609	431.556
336.158	432.222
338.707	438.889
341.255	443.556
343.802	434.222
346.349	447.778
348.895	445.333
351.439	428.444
353.983	440.889
356.526	434.444
359.068	444.667
361.609	438.889
364.149	436.444
366.689	443.111
369.227	442
371.765	446
374.302	455.778
376.838	451.778
379.374	472.222
381.908	464.889
384.442	458.222
386.973	439.778
389.505	437.111
392.036	440.889
394.567	433.111
397.096	431.111
399.625	435.556
402.153	431.111
404.68	426.222
407.206	442
409.73	441.111
412.254	442
414.778	439.333
417.301	443.778
419.823	439.556
422.343	446.222
424.863	444.222
427.383	450
429.901	457.556
432.418	456.889
434.935	460.222
437.451	465.333
439.966	464.222
442.48	458.667
444.993	440.667
447.506	440.444
450.019	444
452.528	453.556
455.039	451.556
457.549	457.333
460.056	452.444
462.564	453.778
465.07	449.111
467.576	440.444
470.082	438
472.585	449.556
475.089	433.778
477.591	442.444
480.093	436.667
482.595	441.333
485.094	444.889
487.594	445.778
490.091	450.889
492.59	444.667
495.086	446.222
497.582	450.667
500.076	443.111
502.571	443.556
505.064	448
507.558	442.444
510.049	457.778
512.54	452.889
515.03	444.667
517.518	454.222
520.008	453.556
522.495	441.111
524.983	442.667
527.468	439.111
529.954	443.778
532.438	442.667
534.921	447.778
537.404	443.333
539.886	446.667
542.366	440.222
544.848	448
547.327	444.222
549.805	439.333
552.284	445.333
554.76	440
557.236	446.222
559.711	449.333
562.186	444.444
564.66	448.444
567.132	452.667
569.604	455.333
572.076	449.778
574.547	438.889
577.016	442.444
579.484	451.111
581.952	443.333
584.419	457.333
586.887	436.889
589.352	437.556
591.816	446.889
594.28	451.111
596.743	440.667
599.205	442.222
601.667	439.556
604.127	443.556
606.588	447.111
609.047	443.111
611.505	444.889
613.963	449.111
616.419	450
618.875	450.444
621.33	445.111
623.784	438.667
626.238	452.222
628.69	446.222
631.142	442.222
633.593	432.889
636.043	449.556
638.493	454.667
640.941	444.889
643.389	446
645.835	447.111
648.281	450.889
650.727	440.889
653.171	456.889
655.615	454.222
658.058	456.667
660.501	466.889
662.942	459.333
665.382	455.111
667.822	436.889
670.261	449.556
672.699	443.778
675.137	433.778
677.574	449.556
680.008	444.444
682.443	438
684.878	437.333
687.312	446.222
689.743	439.111
692.175	442.444
694.607	446.667
697.037	455.778
699.466	454.222
701.895	447.333
704.323	441.111
706.749	452
709.175	446.222
711.601	453.778
714.025	432
716.449	444.667
718.871	439.778
721.294	446.889
723.716	433.778
726.136	441.333
728.556	447.778
730.975	444.889
733.394	440.667
735.812	440.889
738.228	443.111
740.644	446.444
743.058	434.444
745.473	448.444
747.886	444.667
750.3	438.667
752.711	436
755.123	432
757.533	435.778
759.942	435.778
762.351	432.222
764.759	442
767.167	434.222
769.573	438
771.979	438.889
774.383	450.444
776.787	448.444
779.191	436.444
781.593	444.667
783.994	451.111
786.396	446.889
788.796	447.778
791.195	453.111
793.595	455.111
795.992	453.778
798.389	452.667
800.786	452.444
803.181	450
805.576	453.111
807.969	448.222
810.363	453.556
812.755	442.667
815.147	453.333
817.537	450.889
819.927	453.778
822.318	446.222
824.706	452.444
827.093	444.444
829.48	440.444
831.866	424.444
834.251	439.111
836.636	434
839.021	437.778
841.404	433.111
843.786	437.111
846.167	438.222
848.548	445.778
850.928	433.111
853.307	450.667
855.685	446.889
858.063	436.444
860.44	436
862.816	441.556
865.192	438.889
867.566	440.667
869.94	431.111
872.313	434
874.685	442.889
877.057	438.889
879.428	442.222
881.798	438.667
884.167	427.111
886.536	446.667
888.902	436.889
891.269	441.556
893.636	439.778
896.001	441.556
898.366	439.111
900.73	437.556
903.094	452.889
905.455	448.444
907.817	447.333
910.178	445.111
912.538	438.667
914.898	436.667
917.255	439.778
919.613	419.778
921.971	439.333
924.327	427.333
926.682	426.444
929.037	435.333
931.391	423.556
933.744	434.889
936.096	438.667
938.449	429.111
940.799	432.444
943.149	434.444
945.499	434
947.847	422.222
950.195	431.556
952.542	434.667
954.889	427.111
957.235	439.556
959.579	439.556
961.924	431.778
964.266	428.444
966.609	432
968.951	447.556
971.292	437.778
973.632	434.444
975.972	434.667
978.31	436.889
980.649	440.667
982.986	441.556
985.323	435.556
987.659	442.889
989.994	457.333
992.328	453.333
994.662	462
996.995	463.556
999.326	464.889
1001.66	481.778
1003.99	494
1006.32	505.778
1008.65	532.444
1010.98	548.222
1013.3	550.889
1015.63	532.222
1017.96	490.667
1020.28	479.333
1022.61	474.667
1024.93	455.556
1027.25	444.444
1029.58	441.556
1031.9	445.111
1034.22	447.778
1036.54	451.778
1038.86	441.556
1041.18	455.111
1043.49	447.333
1045.81	449.333
1048.13	448.667
1050.44	460.667
1052.76	458.444
1055.07	446.444
1057.39	455.778
1059.7	449.778
1062.01	456.889
1064.32	447.778
1066.63	445.111
1068.94	453.556
1071.25	462.444
1073.56	459.556
1075.87	451.556
1078.17	458.667
1080.48	468.222
1082.79	468.222
1085.09	462.222
1087.39	458.444
1089.7	481.111
1092	490.222
1094.3	504.889
1096.6	508.444
1098.9	500.444
1101.2	494.222
1103.5	480.222
1105.8	473.778
1108.1	480
1110.39	466.222
1112.69	475.778
1114.98	480.444
1117.28	480.889
1119.57	493.111
1121.86	482.889
1124.16	485.111
1126.45	487.556
1128.74	478.444
1131.03	463.333
1133.32	463.556
1135.61	461.778
1137.89	452
1140.18	455.778
1142.47	463.111
1144.75	457.333
1147.04	444.444
1149.32	454.667
1151.61	454.444
1153.89	465.556
1156.17	460.222
1158.45	460.444
1160.73	449.333
1163.01	449.111
1165.29	444.222
1167.57	444.667
1169.85	438.444
1172.12	432.444
1174.4	430
1176.68	441.111
1178.95	438.222
1181.22	446.222
1183.5	438.667
1185.77	435.111
1188.04	436.222
1190.31	446.222
1192.58	427.778
1194.85	429.778
1197.12	430.222
1199.39	428
1201.66	435.111
1203.92	429.778
1206.19	436.444
1208.45	427.333
1210.72	428.667
1212.98	418
1215.25	419.333
1217.51	420.222
1219.77	426.222
1222.03	430.444
1224.29	416.667
1226.55	428.667
1228.81	433.778
1231.07	430.222
1233.33	432.889
1235.58	428.222
1237.84	429.111
1240.09	430.889
1242.35	432.222
1244.6	432.667
1246.86	423.333
1249.11	432.889
1251.36	424.222
1253.61	431.778
1255.86	439.556
1258.11	427.556
1260.36	432
1262.61	428.889
1264.86	431.556
1267.1	438.444
1269.35	440.222
1271.6	440.889
1273.84	445.556
1276.08	434
1278.33	432.667
1280.57	444.444
1282.81	444.667
1285.05	436.667
1287.29	437.778
1289.53	433.778
1291.77	451.333
1294.01	440.889
1296.25	441.778
1298.48	429.333
1300.72	444.889
1302.96	449.333
1305.19	430.444
1307.42	446.889
1309.66	438.889
1311.89	437.778
1314.12	449.778
1316.35	434.667
1318.58	442.889
1320.81	441.333
1323.04	432.667
1325.27	437.111
1327.5	446.667
1329.73	433.778
1331.95	451.333
1334.18	452.667
1336.4	460
1338.63	452.444
1340.85	450
1343.08	454.889
1345.3	448.889
1347.52	457.333
1349.74	451.556
1351.96	451.556
1354.18	442.667
1356.4	452.889
1358.61	459.778
1360.83	457.111
1363.05	466.889
1365.27	458.222
1367.48	471.333
1369.69	478.889
1371.91	479.556
1374.12	486.444
1376.33	490
1378.55	503.556
1380.76	507.556
1382.97	510.889
1385.18	510.222
1387.39	506.667
1389.59	492.667
1391.8	480.444
1394.01	476.222
1396.21	464.889
1398.42	444
1400.63	437.111
1402.83	449.111
1405.03	437.556
1407.24	444
1409.44	440.889
1411.64	444.444
1413.84	437.778
1416.04	443.556
1418.24	440.889
1420.44	447.111
1422.64	432.889
1424.83	447.111
1427.03	447.111
1429.23	435.778
1431.42	453.111
1433.62	436.667
1435.81	435.111
1438	448.889
1440.19	445.333
1442.39	449.556
1444.58	451.778
1446.77	439.778
1448.96	433.111
1451.15	441.778
1453.34	439.333
1455.52	439.333
1457.71	430.444
1459.9	431.556
1462.08	432.667
1464.27	439.333
1466.45	431.778
1468.64	431.778
1470.82	430
1473	435.556
1475.18	424.889
1477.36	424
1479.54	420.222
1481.72	433.556
1483.9	428.889
1486.08	423.111
1488.26	414.444
1490.43	417.333
1492.61	414
1494.78	410.222
1496.96	418.444
1499.13	420
1501.31	408.222
1503.48	407.333
1505.65	410.667
1507.82	426.444
1509.99	421.556
1512.16	417.333
1514.33	416.889
1516.5	409.778
1518.67	406.667
1520.84	408.222
1523	412
1525.17	413.111
1527.34	408.889
1529.5	413.778
1531.66	411.111
1533.83	419.111
1535.99	422.444
1538.15	404.889
1540.31	419.556
1542.47	419.556
1544.63	421.556
1546.79	411.556
1548.95	418.444
1551.11	425.333
1553.27	417.111
1555.42	423.111
1557.58	408
1559.73	419.333
1561.89	417.778
1564.04	434.222
1566.2	418.222
1568.35	431.333
1570.5	432.667
1572.65	435.111
1574.8	430
1576.95	434.444
1579.1	432
1581.25	425.778
1583.4	425.778
1585.55	424.222
1587.69	426.444
1589.84	421.556
1591.99	420.444
1594.13	414.889
1596.27	428.444
1598.42	408.222
1600.56	417.111
1602.7	406.444
1604.84	408.889
1606.98	407.778
1609.12	407.556
1611.26	400.444
1613.4	410.444
1615.54	412.889
1617.68	408.889
1619.81	400.889
1621.95	395.556
1624.08	409.333
1626.22	402.667
1628.35	408.222
1630.49	396.222
1632.62	392.444
1634.75	394.222
1636.88	402.444
1639.01	396
1641.14	392
1643.27	394.444
1645.4	386.889
1647.53	392.889
1649.66	396
1651.79	393.333
1653.91	388.889
1656.04	393.111
1658.16	394.889
1660.29	394.667
1662.41	389.556
1664.53	381.111
1666.66	384.444
1668.78	383.333
1670.9	390
1673.02	391.111
1675.14	383.778
1677.26	390.222
1679.38	396.222
1681.49	390.667
1683.61	397.333
1685.73	382.222
1687.84	386
1689.96	386.444
1692.07	380.222
1694.19	393.778
1696.3	386.889
1698.41	393.778
1700.52	391.778
1702.64	381.111
1704.75	385.778
1706.86	382.222
1708.97	382.667
1711.07	388.444
1713.18	388.222
1715.29	383.556
1717.4	379.556
1719.5	387.111
1721.61	385.556
1723.71	371.333
1725.82	376.444
1727.92	385.778
1730.02	381.556
1732.12	380
1734.23	377.778
1736.33	383.333
1738.43	384.444
1740.53	373.111
1742.63	378.222
1744.72	379.333
1746.82	374.889
1748.92	371.556
1751.02	375.556
1753.11	363.778
1755.21	376
1757.3	363.778
1759.4	372.667
1761.49	382.444
1763.58	372.667
1765.67	378
1767.76	372.222
1769.86	361.333
1771.95	364.444
1774.03	362.222
1776.12	363.111
1778.21	372.889
1780.3	366.889
1782.39	377.556
1784.47	364
1786.56	367.333
1788.64	372.222
1790.73	359.333
1792.81	365.556
1794.89	366
1796.98	360.667
1799.06	361.778
1801.14	366
1803.22	358.667
1805.3	365.778
1807.38	366.444
1809.46	374.222
1811.54	367.778
1813.61	362.444
1815.69	365.333
1817.77	355.556
1819.84	370
1821.92	359.778
1823.99	359.556
1826.06	373.111
1828.14	362.222
1830.21	356
1832.28	355.333
1834.35	364.667
1836.42	355.778
1838.49	359.333
1840.56	362.222
1842.63	358.667
1844.7	356.667
1846.77	354
1848.83	353.556
1850.9	367.778
1852.96	356
1855.03	360.667
1857.09	350.889
1859.15	365.111
1861.22	349.111
1863.28	353.556
1865.34	347.556
1867.4	344
1869.46	354.889
1871.52	354.444
1873.58	352
1875.64	353.111
1877.7	352
1879.76	346.444
1881.81	354.222
1883.87	349.778
1885.92	347.778
1887.98	351.778
1890.03	348.889
1892.09	348
1894.14	349.111
1896.19	351.111
1898.24	345.778
1900.29	345.778
1902.34	343.333
1904.4	347.333
1906.44	353.556
1908.49	344
1910.54	356.222
1912.59	341.333
1914.63	348
1916.68	351.556
1918.73	348.889
1920.77	348.667
1922.81	346.222
1924.86	341.778
1926.9	346.222
1928.94	347.111
1930.99	350.444
1933.03	345.111
1935.07	344.444
1937.11	337.778
1939.15	343.556
1941.19	346.222
1943.22	341.333
1945.26	344.889
1947.3	337.333
1949.33	339.556
1951.37	335.556
1953.4	344.222
1955.44	344.222
1957.47	338.667
1959.51	339.778
1961.54	325.556
1963.57	336.889
1965.6	331.111
1967.63	340.889
1969.66	331.778
1971.69	337.111
1973.72	334
1975.75	320
1977.78	324.444
1979.8	335.778
1981.83	330
1983.86	329.111
1985.88	335.333
1987.91	332.667
1989.93	332.444
1991.95	332.222
1993.98	330.444
1996	335.333
1998.02	321.333
2000.04	322.222
2002.06	325.778
2004.08	320.667
2006.1	326.667
2008.12	328
2010.14	327.778
2012.15	327.778
2014.17	331.111
2016.19	325.333
2018.2	332.667
2020.22	333.778
2022.23	320
2024.25	324.667
2026.26	319.556
2028.27	326
2030.28	334.444
2032.29	325.778
2034.3	324.444
2036.32	331.111
2038.32	330
2040.33	328.889
2042.34	319.556
2044.35	330.667
2046.36	324.444
2048.36	326.667
2050.37	326.222
2052.37	316.444
2054.38	325.111
2056.38	320.889
2058.39	328.667
2060.39	319.111
2062.39	322.667
2064.39	320.667
2066.39	315.333
2068.39	317.333
2070.39	319.111
2072.39	323.111
2074.39	321.111
2076.39	318.667
2078.39	316.889
2080.39	321.111
2082.38	316.667
2084.38	320.889
2086.37	314.222
2088.37	308
2090.36	306.444
2092.35	315.778
2094.35	318.889
2096.34	301.778
2098.33	309.778
2100.32	305.333
2102.31	317.111
2104.3	311.778
2106.29	301.556
2108.28	316.222
2110.27	310.889
2112.25	314.444
2114.24	306.222
2116.23	301.556
2118.21	303.111
2120.2	315.556
2122.18	313.556
2124.17	313.778
2126.15	308.444
2128.13	308.667
2130.11	304.667
2132.09	304.444
2134.08	302.667
2136.06	306.667
2138.04	305.556
2140.02	309.556
2141.99	304.889
2143.97	305.778
2145.95	309.778
2147.93	301.111
2149.9	308.444
2151.88	302.667
2153.85	305.333
2155.83	313.333
2157.8	302.889
2159.77	302.667
2161.75	299.556
2163.72	294.889
2165.69	300.222
2167.66	300.889
2169.63	302
2171.6	303.111
2173.57	304.222
2175.54	298
2177.51	298.222
2179.47	300.667
2181.44	285.778
2183.41	285.556
2185.37	301.111
2187.34	290.222
2189.3	288.444
2191.27	294.667
2193.23	294.889
2195.19	290
2197.15	295.778
2199.11	296.667
2201.08	295.778
2203.04	282.222
2205	292.889
2206.96	296.444
2208.91	296.667
2210.87	292.667
2212.83	285.778
2214.79	290.222
2216.74	293.778
2218.7	288
2220.65	299.333
2222.61	294.222
2224.56	291.778
2226.52	294.667
2228.47	290.444
2230.42	284.444
2232.37	295.778
2234.32	287.111
2236.27	289.778
2238.22	286.222
2240.17	287.111
2242.12	291.778
2244.07	286.889
2246.02	279.556
2247.97	282.889
2249.91	279.778
2251.86	284.667
2253.8	279.778
2255.75	285.111
2257.69	277.333
2259.64	286.222
2261.58	275.111
2263.52	283.556
2265.46	285.778
2267.4	275.778
2269.35	274.222
2271.29	280.222
2273.23	273.111
2275.16	281.111
2277.1	277.556
2279.04	282.222
2280.98	277.111
2282.92	279.556
2284.85	282.889
2286.79	274
2288.72	274.667
2290.66	276.222
2292.59	275.111
2294.52	274.667
2296.46	272.667
2298.39	276.222
2300.32	272.222
2302.25	277.111
2304.18	269.333
2306.11	263.778
2308.04	272.222
2309.97	270.222
2311.9	266.444
2313.83	264.889
2315.75	267.778
2317.68	266.889
2319.61	265.333
2321.53	267.778
2323.46	262
2325.38	275.111
2327.3	267.333
2329.23	266.444
2331.15	266
2333.07	266
2334.99	262
2336.91	267.111
2338.83	258
2340.75	269.556
2342.67	275.333
2344.59	263.333
2346.51	268.444
2348.43	261.333
2350.35	256.667
2352.26	256
2354.18	253.778
2356.09	269.333
2358.01	267.111
2359.92	258.222
2361.83	261.333
2363.75	261.111
2365.66	256
2367.57	258.444
2369.48	258.222
2371.39	256
2373.31	264.444
2375.21	253.111
2377.12	256.222
2379.03	255.556
2380.94	260
2382.85	256.889
2384.76	257.778
2386.66	255.333
2388.57	253.333
2390.47	254
2392.38	248.667
2394.28	249.333
2396.18	260.667
2398.09	255.556
2399.99	254.222
2401.89	259.111
2403.79	257.333
2405.69	252.889
2407.59	254
2409.49	256.889
2411.39	248.889
2413.29	250.444
2415.19	251.778
2417.09	253.333
2418.98	250.222
2420.88	250.222
2422.78	250.222
2424.67	249.556
2426.57	248.444
2428.46	251.111
2430.35	253.778
2432.25	249.556
2434.14	245.333
2436.03	252
2437.92	250.222
2439.81	242
2441.7	254.222
2443.59	247.111
2445.48	249.111
2447.37	242
2449.26	243.111
2451.15	246.667
2453.03	245.778
