186.85	583.111
189.449	587.778
192.047	573.111
194.645	584.222
197.241	583.333
199.837	576.667
202.431	584.667
205.025	578.444
207.619	582.889
210.21	593.111
212.802	578.667
215.392	578.444
217.982	581.778
220.57	592.889
223.158	586
225.744	584.889
228.331	580.889
230.915	583.333
233.5	602.667
236.083	591.556
238.666	598.667
241.247	594
243.827	592.667
246.408	584.444
248.986	588.222
251.565	586
254.142	569.333
256.719	571.556
259.294	575.111
261.868	576
264.443	557.111
267.015	552.889
269.587	558.222
272.159	549.556
274.729	558.889
277.298	544.444
279.867	539.556
282.435	544
285.001	536
287.568	541.778
290.133	539.556
292.697	530.222
295.26	543.778
297.824	533.556
300.385	543.778
302.945	533.778
305.505	541.778
308.064	535.111
310.623	540
313.18	539.556
315.737	532
318.292	534.667
320.847	522.667
323.402	530
325.955	536.667
328.507	546
331.058	545.778
333.609	540.222
336.158	534
338.707	537.556
341.255	546.444
343.802	537.556
346.349	556
348.895	550.889
351.439	545.333
353.983	544
356.526	542.444
359.068	542.222
361.609	538.889
364.149	551.778
366.689	535.111
369.227	552.222
371.765	551.556
374.302	558.889
376.838	564.667
379.374	591.333
381.908	586.667
384.442	570.222
386.973	564.889
389.505	561.556
392.036	546
394.567	546.444
397.096	541.778
399.625	546.222
402.153	552
404.68	543.333
407.206	548.889
409.73	553.333
412.254	556
414.778	553.556
417.301	557.111
419.823	557.778
422.343	562
424.863	577.556
427.383	566.444
429.901	582
432.418	577.333
434.935	604.222
437.451	592.889
439.966	591.556
442.48	578.222
444.993	562.667
447.506	559.333
450.019	562.667
452.528	558.444
455.039	564.889
457.549	570.444
460.056	581.111
462.564	567.556
465.07	570
467.576	558.444
470.082	553.556
472.585	555.111
475.089	555.111
477.591	568
480.093	558
482.595	555.778
485.094	560.222
487.594	553.556
490.091	572.444
492.59	553.778
495.086	554.889
497.582	557.333
500.076	559.556
502.571	561.333
505.064	563.333
507.558	563.333
510.049	556
512.54	558
515.03	564.222
517.518	568.444
520.008	573.556
522.495	570.444
524.983	561.333
527.468	559.111
529.954	548.444
532.438	548.667
534.921	553.556
537.404	564.222
539.886	563.333
542.366	555.111
544.848	553.556
547.327	551.333
549.805	559.778
552.284	562.445
554.76	565.778
557.236	571.778
559.711	568.889
562.186	565.556
564.66	564.444
567.132	560.222
569.604	564.444
572.076	570.667
574.547	550.222
577.016	562
579.484	561.556
581.952	554.889
584.419	565.556
586.887	555.778
589.352	558
591.816	561.333
594.28	561.111
596.743	562.222
599.205	560.889
601.667	551.333
604.127	558.667
606.588	561.111
609.047	547.333
611.505	557.333
613.963	549.778
616.419	558.444
618.875	552.444
621.33	568.667
623.784	560.222
626.238	563.333
628.69	563.111
631.142	570.444
633.593	576.667
636.043	580
638.493	565.778
640.941	573.778
643.389	572.222
645.835	561.111
648.281	566.667
650.727	568.667
653.171	574.222
655.615	581.778
658.058	586.222
660.501	586.889
662.942	584
665.382	572.667
667.822	576
670.261	569.333
672.699	564.889
675.137	565.111
677.574	555.778
680.008	573.556
682.443	554.445
684.878	560
687.312	563.556
689.743	565.111
692.175	558
694.607	560.444
697.037	559.333
699.466	561.333
701.895	561.333
704.323	554.444
706.749	568.889
709.175	564.667
711.601	562.889
714.025	569.556
716.449	568.444
718.871	564.444
721.294	562.444
723.716	560.444
726.136	567.778
728.556	559.333
730.975	560.444
733.394	551.778
735.812	557.556
738.228	559.556
740.644	544.889
743.058	545.778
745.473	554
747.886	550.889
750.3	552.889
752.711	552.222
755.123	543.556
757.533	555.556
759.942	558
762.351	562
764.759	568.444
767.167	570.667
769.573	563.333
771.979	559.556
774.383	555.111
776.787	553.333
779.191	546.222
781.593	558
783.994	560.667
786.396	563.556
788.796	560.444
791.195	562.444
793.595	568.444
795.992	565.111
798.389	564.889
800.786	582.444
803.181	561.333
805.576	568
807.969	565.111
810.363	568.222
812.755	562.889
815.147	567.333
817.537	568
819.927	566.667
822.318	556.889
824.706	550.889
827.093	562
829.48	555.778
831.866	552.222
834.251	555.778
836.636	553.111
839.021	558.444
841.404	556.889
843.786	557.111
846.167	544.222
848.548	563.778
850.928	551.556
853.307	563.333
855.685	544.222
858.063	558.444
860.44	551.111
862.816	567.111
865.192	556.445
867.566	551.333
869.94	556.667
872.313	550.889
874.685	564.222
877.057	549.555
879.428	553.333
881.798	538.667
884.167	559.333
886.536	558.889
888.902	548.889
891.269	566.222
893.636	551.556
896.001	557.111
898.366	560.889
900.73	556.667
903.094	565.111
905.455	555.556
907.817	549.556
910.178	556
912.538	547.333
914.898	558
917.255	560.222
919.613	551.333
921.971	541.111
924.327	541.333
926.682	545.333
929.037	535.778
931.391	536.222
933.744	543.778
936.096	540.667
938.449	544.667
940.799	544.222
943.149	553.556
945.499	538.889
947.847	545.778
950.195	542.444
952.542	540.667
954.889	548.222
957.235	548
959.579	547.333
961.924	556.667
964.266	549.111
966.609	554.222
968.951	552.444
971.292	556
973.632	546.444
975.972	563.333
978.31	555.111
980.649	567.556
982.986	581.778
985.323	582.667
987.659	613.778
989.994	632.222
992.328	656
994.662	676.444
996.995	706.222
999.326	718
1001.66	739.556
1003.99	742.667
1006.32	757.333
1008.65	749.333
1010.98	732.222
1013.3	705.778
1015.63	653.111
1017.96	620.444
1020.28	590.889
1022.61	573.778
1024.93	563.778
1027.25	572.444
1029.58	574.444
1031.9	582.667
1034.22	573.778
1036.54	580
1038.86	573.556
1041.18	570.889
1043.49	576.889
1045.81	579.556
1048.13	612.889
1050.44	608.222
1052.76	606.667
1055.07	604.222
1057.39	590
1059.7	595.556
1062.01	572.444
1064.32	586.444
1066.63	585.111
1068.94	571.778
1071.25	580.667
1073.56	583.556
1075.87	577.778
1078.17	611.556
1080.48	620.667
1082.79	615.333
1085.09	628.222
1087.39	626.222
1089.7	625.556
1092	638.889
1094.3	652.222
1096.6	672.222
1098.9	661.333
1101.2	629.556
1103.5	627.111
1105.8	611.333
1108.1	614.444
1110.39	606.444
1112.69	619.111
1114.98	629.333
1117.28	649.778
1119.57	638.667
1121.86	635.778
1124.16	627.778
1126.45	621.111
1128.74	616
1131.03	606.444
1133.32	593.778
1135.61	591.111
1137.89	584.667
1140.18	574.667
1142.47	579.111
1144.75	584
1147.04	572.222
1149.32	587.333
1151.61	597.556
1153.89	589.778
1156.17	596.444
1158.45	581.778
1160.73	577.111
1163.01	583.556
1165.29	581.333
1167.57	585.778
1169.85	568.444
1172.12	568
1174.4	563.333
1176.68	554.444
1178.95	544.667
1181.22	574.889
1183.5	553.333
1185.77	567.556
1188.04	559.556
1190.31	556
1192.58	549.333
1194.85	564.222
1197.12	549.556
1199.39	549.778
1201.66	547.556
1203.92	536.667
1206.19	539.556
1208.45	559.556
1210.72	535.556
1212.98	561.778
1215.25	545.333
1217.51	558.222
1219.77	555.111
1222.03	547.111
1224.29	541.778
1226.55	561.111
1228.81	557.111
1231.07	575.111
1233.33	567.556
1235.58	564.444
1237.84	562
1240.09	552
1242.35	554.667
1244.6	558.222
1246.86	559.333
1249.11	559.778
1251.36	567.333
1253.61	566.667
1255.86	566.889
1258.11	549.556
1260.36	567.111
1262.61	570.667
1264.86	559.778
1267.1	562.667
1269.35	560
1271.6	577.333
1273.84	563.778
1276.08	550.889
1278.33	574.444
1280.57	565.556
1282.81	569.333
1285.05	571.333
1287.29	574
1289.53	562.222
1291.77	572.667
1294.01	585.333
1296.25	581.556
1298.48	564.444
1300.72	573.778
1302.96	567.111
1305.19	574.444
1307.42	573.778
1309.66	582
1311.89	574.222
1314.12	555.333
1316.35	564.889
1318.58	572
1320.81	572.889
1323.04	566.222
1325.27	568.667
1327.5	558.444
1329.73	574
1331.95	581.333
1334.18	578.444
1336.4	574.667
1338.63	590.445
1340.85	581.111
1343.08	573.778
1345.3	577.778
1347.52	568.444
1349.74	589.556
1351.96	586.667
1354.18	571.111
1356.4	578.444
1358.61	584.667
1360.83	586.444
1363.05	592.889
1365.27	598
1367.48	609.333
1369.69	603.111
1371.91	601.778
1374.12	609.556
1376.33	618
1378.55	633.333
1380.76	638.222
1382.97	639.111
1385.18	638.444
1387.39	617.111
1389.59	614.444
1391.8	604.889
1394.01	582.222
1396.21	582.667
1398.42	563.333
1400.63	564
1402.83	561.556
1405.03	552
1407.24	545.111
1409.44	550
1411.64	559.778
1413.84	561.111
1416.04	559.111
1418.24	551.333
1420.44	557.556
1422.64	566.222
1424.83	548.222
1427.03	548
1429.23	563.556
1431.42	552
1433.62	553.556
1435.81	564
1438	570.889
1440.19	557.111
1442.39	545.111
1444.58	550.222
1446.77	548.667
1448.96	544.889
1451.15	535.111
1453.34	539.556
1455.52	532.667
1457.71	540
1459.9	540.667
1462.08	540.444
1464.27	548.889
1466.45	543.556
1468.64	545.556
1470.82	540
1473	534.667
1475.18	541.111
1477.36	545.111
1479.54	543.111
1481.72	526.222
1483.9	528.889
1486.08	533.556
1488.26	519.556
1490.43	520
1492.61	515.556
1494.78	514.889
1496.96	517.778
1499.13	512.889
1501.31	514.444
1503.48	508
1505.65	500.889
1507.82	504.889
1509.99	509.778
1512.16	521.111
1514.33	521.333
1516.5	523.556
1518.67	508.444
1520.84	520
1523	516.222
1525.17	525.111
1527.34	516.889
1529.5	530
1531.66	536.889
1533.83	542.222
1535.99	550.222
1538.15	545.333
1540.31	549.111
1542.47	552
1544.63	562.444
1546.79	551.333
1548.95	558.667
1551.11	562.222
1553.27	571.111
1555.42	549.111
1557.58	562
1559.73	562.444
1561.89	561.556
1564.04	572.667
1566.2	584.222
1568.35	584
1570.5	599.555
1572.65	600.444
1574.8	590.222
1576.95	590.667
1579.1	573.111
1581.25	569.556
1583.4	573.333
1585.55	578
1587.69	571.556
1589.84	577.111
1591.99	553.111
1594.13	565.778
1596.27	555.333
1598.42	547.778
1600.56	547.778
1602.7	541.333
1604.84	535.111
1606.98	525.778
1609.12	530.667
1611.26	522.444
1613.4	519.556
1615.54	505.556
1617.68	512
1619.81	514.444
1621.95	501.111
1624.08	510.444
1626.22	506.222
1628.35	505.778
1630.49	504
1632.62	511.333
1634.75	505.556
1636.88	502
1639.01	493.778
1641.14	490.444
1643.27	496.444
1645.4	497.778
1647.53	490.667
1649.66	475.333
1651.79	485.556
1653.91	482
1656.04	480.667
1658.16	472.667
1660.29	476.667
1662.41	475.556
1664.53	477.111
1666.66	464.444
1668.78	471.778
1670.9	476
1673.02	470
1675.14	475.556
1677.26	470.444
1679.38	468.222
1681.49	478.444
1683.61	470.667
1685.73	479.556
1687.84	464.667
1689.96	481.111
1692.07	460.889
1694.19	462.889
1696.3	473.111
1698.41	469.333
1700.52	459.111
1702.64	451.333
1704.75	464.444
1706.86	464.889
1708.97	464
1711.07	461.111
1713.18	457.556
1715.29	455.111
1717.4	458.889
1719.5	453.556
1721.61	456.444
1723.71	460.667
1725.82	452.667
1727.92	452.222
1730.02	464.667
1732.12	454.222
1734.23	451.111
1736.33	451.111
1738.43	451.111
1740.53	451.556
1742.63	459.778
1744.72	447.556
1746.82	454.889
1748.92	453.778
1751.02	453.556
1753.11	450.444
1755.21	453.111
1757.3	449.333
1759.4	447.556
1761.49	447.111
1763.58	450
1765.67	440
1767.76	445.778
1769.86	442.667
1771.95	442.222
1774.03	436.444
1776.12	439.333
1778.21	447.556
1780.3	449.111
1782.39	432.667
1784.47	443.556
1786.56	435.111
1788.64	438.222
1790.73	447.111
1792.81	433.556
1794.89	439.778
1796.98	430.667
1799.06	432.444
1801.14	440.889
1803.22	440.222
1805.3	433.556
1807.38	432.667
1809.46	436.667
1811.54	434.222
1813.61	430.444
1815.69	434.444
1817.77	428.889
1819.84	426.222
1821.92	436
1823.99	432.444
1826.06	434.222
1828.14	422.667
1830.21	422.667
1832.28	430.889
1834.35	415.556
1836.42	425.778
1838.49	420.889
1840.56	431.333
1842.63	430.222
1844.7	430.444
1846.77	416.444
1848.83	425.333
1850.9	411.556
1852.96	420.444
1855.03	426.667
1857.09	420
1859.15	418
1861.22	430.889
1863.28	419.333
1865.34	423.111
1867.4	411.333
1869.46	420.667
1871.52	415.333
1873.58	415.111
1875.64	431.333
1877.7	410
1879.76	416.889
1881.81	412.889
1883.87	422.667
1885.92	413.556
1887.98	407.778
1890.03	421.778
1892.09	417.333
1894.14	408.444
1896.19	410.889
1898.24	413.333
1900.29	406.889
1902.34	422.667
1904.4	413.556
1906.44	418.222
1908.49	410.444
1910.54	414.222
1912.59	418.222
1914.63	412.444
1916.68	414
1918.73	412
1920.77	415.111
1922.81	407.556
1924.86	412.222
1926.9	406
1928.94	402.889
1930.99	414.222
1933.03	410.444
1935.07	408.444
1937.11	401.111
1939.15	412.222
1941.19	398.222
1943.22	398.444
1945.26	409.778
1947.3	404.444
1949.33	399.778
1951.37	394.222
1953.4	401.333
1955.44	413.556
1957.47	390.444
1959.51	396.222
1961.54	383.111
1963.57	404
1965.6	391.333
1967.63	396.667
1969.66	395.778
1971.69	402.889
1973.72	390.667
1975.75	386.444
1977.78	391.778
1979.8	387.333
1981.83	391.556
1983.86	395.333
1985.88	390.889
1987.91	388.889
1989.93	392.222
1991.95	383.333
1993.98	388
1996	392.889
1998.02	388.444
2000.04	388.889
2002.06	395.556
2004.08	392.222
2006.1	380
2008.12	379.778
2010.14	373.333
2012.15	388.222
2014.17	383.333
2016.19	392.667
2018.2	386.667
2020.22	388.222
2022.23	383.111
2024.25	389.333
2026.26	385.778
2028.27	380.222
2030.28	374.222
2032.29	379.111
2034.3	371.778
2036.32	388.889
2038.32	386
2040.33	381.111
2042.34	384
2044.35	376.222
2046.36	394.222
2048.36	378.444
2050.37	384.444
2052.37	376.667
2054.38	378.444
2056.38	375.778
2058.39	369.778
2060.39	379.333
2062.39	364.667
2064.39	378
2066.39	367.333
2068.39	377.333
2070.39	378.667
2072.39	375.778
2074.39	383.778
2076.39	369.111
2078.39	374.444
2080.39	372.889
2082.38	368.444
2084.38	366.667
2086.37	373.111
2088.37	366.444
2090.36	368.444
2092.35	366.222
2094.35	364
2096.34	370
2098.33	365.333
2100.32	366
2102.31	370.222
2104.3	355.333
2106.29	368.222
2108.28	353.778
2110.27	359.778
2112.25	357.778
2114.24	366.222
2116.23	370.667
2118.21	366.444
2120.2	359.333
2122.18	365.556
2124.17	356.889
2126.15	360.889
2128.13	367.111
2130.11	366
2132.09	363.111
2134.08	364.444
2136.06	356.889
2138.04	352.667
2140.02	359.333
2141.99	358.889
2143.97	359.333
2145.95	356.889
2147.93	348.444
2149.9	364
2151.88	349.778
2153.85	359.778
2155.83	358
2157.8	355.111
2159.77	350.222
2161.75	354.444
2163.72	346.222
2165.69	346.222
2167.66	354.667
2169.63	341.333
2171.6	344.889
2173.57	340.889
2175.54	357.778
2177.51	346.889
2179.47	348.222
2181.44	337.778
2183.41	346.444
2185.37	345.556
2187.34	341.556
2189.3	344.667
2191.27	339.556
2193.23	350.444
2195.19	338.667
2197.15	343.778
2199.11	344
2201.08	340.222
2203.04	340.444
2205	338
2206.96	342.444
2208.91	343.556
2210.87	337.556
2212.83	340.667
2214.79	342.222
2216.74	333.778
2218.7	335.778
2220.65	342.889
2222.61	339.333
2224.56	342.889
2226.52	339.111
2228.47	333.556
2230.42	335.556
2232.37	340.889
2234.32	333.556
2236.27	332
2238.22	330
2240.17	326.444
2242.12	330.889
2244.07	335.111
2246.02	338
2247.97	322.444
2249.91	324.444
2251.86	328.667
2253.8	324.444
2255.75	328.667
2257.69	324.222
2259.64	324.889
2261.58	324.444
2263.52	326.222
2265.46	324.667
2267.4	322.889
2269.35	321.778
2271.29	320.889
2273.23	331.556
2275.16	317.333
2277.1	319.111
2279.04	318.667
2280.98	316.889
2282.92	318
2284.85	313.111
2286.79	313.556
2288.72	319.111
2290.66	310.889
2292.59	312.222
2294.52	316.444
2296.46	318.889
2298.39	315.111
2300.32	312
2302.25	307.778
2304.18	310.222
2306.11	313.778
2308.04	312
2309.97	311.111
2311.9	308
2313.83	309.111
2315.75	310.444
2317.68	305.333
2319.61	303.556
2321.53	310.444
2323.46	307.111
2325.38	310.889
2327.3	303.333
2329.23	309.111
2331.15	305.333
2333.07	298.222
2334.99	306.444
2336.91	310.667
2338.83	306.667
2340.75	301.333
2342.67	304
2344.59	311.333
2346.51	302
2348.43	300.444
2350.35	308.222
2352.26	302
2354.18	294.667
2356.09	307.333
2358.01	295.556
2359.92	301.111
2361.83	298.889
2363.75	295.778
2365.66	298.667
2367.57	303.556
2369.48	300.444
2371.39	286.222
2373.31	298.667
2375.21	300
2377.12	298
2379.03	298.444
2380.94	295.111
2382.85	292.889
2384.76	290.889
2386.66	293.111
2388.57	289.778
2390.47	292.222
2392.38	296.444
2394.28	284.222
2396.18	289.111
2398.09	289.333
2399.99	292.444
2401.89	286.667
2403.79	287.778
2405.69	289.111
2407.59	286.222
2409.49	290
2411.39	284.667
2413.29	283.556
2415.19	290.889
2417.09	289.778
2418.98	289.111
2420.88	285.778
2422.78	292.444
2424.67	285.556
2426.57	277.111
2428.46	284.889
2430.35	279.333
2432.25	284.222
2434.14	278.889
2436.03	279.778
2437.92	289.556
2439.81	280.889
2441.7	288.444
2443.59	288.889
2445.48	280.667
2447.37	280.444
2449.26	281.333
2451.15	293.778
2453.03	288.889
