186.85	610.889
189.449	616.222
192.047	624.889
194.645	616
197.241	622.667
199.837	622.667
202.431	619.333
205.025	618.889
207.619	623.111
210.21	622.222
212.802	630
215.392	625.333
217.982	632.889
220.57	618
223.158	628.889
225.744	622
228.331	624.889
230.915	636.667
233.5	634.667
236.083	626.222
238.666	626.889
241.247	636.444
243.827	628.667
246.408	634.889
248.986	634.889
251.565	637.556
254.142	633.556
256.719	625.556
259.294	616.667
261.868	619.556
264.443	621.333
267.015	612.889
269.587	611.111
272.159	610
274.729	612.667
277.298	608.889
279.867	601.111
282.435	610.444
285.001	599.778
287.568	608.222
290.133	607.333
292.697	611.333
295.26	590.889
297.824	620.444
300.385	605.556
302.945	611.111
305.505	603.556
308.064	611.556
310.623	618.444
313.18	611.778
315.737	610.222
318.292	608.444
320.847	607.556
323.402	610.889
325.955	600
328.507	618.444
331.058	625.111
333.609	626.889
336.158	621.778
338.707	622.444
341.255	624.445
343.802	630
346.349	629.778
348.895	635.111
351.439	620.889
353.983	624.222
356.526	632.889
359.068	620.444
361.609	639.778
364.149	634.667
366.689	626.222
369.227	629.778
371.765	632.222
374.302	656
376.838	654.889
379.374	682.444
381.908	665.111
384.442	662
386.973	643.778
389.505	629.556
392.036	624
394.567	634.444
397.096	619.111
399.625	623.556
402.153	621.556
404.68	624
407.206	626.444
409.73	636.889
412.254	633.778
414.778	643.333
417.301	641.333
419.823	635.333
422.343	645.333
424.863	645.111
427.383	658
429.901	666.222
432.418	677.556
434.935	677.555
437.451	680.444
439.966	667.556
442.48	665.555
444.993	654.222
447.506	649.778
450.019	652
452.528	655.778
455.039	653.111
457.549	652.444
460.056	664.889
462.564	651.333
465.07	656.222
467.576	634.667
470.082	642.667
472.585	644.667
475.089	640
477.591	645.111
480.093	645.556
482.595	646
485.094	649.333
487.594	642.889
490.091	652.889
492.59	642.667
495.086	658.889
497.582	645.556
500.076	643.556
502.571	646.444
505.064	632.889
507.558	649.333
510.049	640.889
512.54	642.222
515.03	644
517.518	648.889
520.008	652
522.495	644.444
524.983	638.889
527.468	640.445
529.954	637.333
532.438	636
534.921	636.222
537.404	624.445
539.886	643.111
542.366	632
544.848	631.111
547.327	644.444
549.805	645.556
552.284	646
554.76	648.222
557.236	641.333
559.711	643.333
562.186	644
564.66	655.111
567.132	666.667
569.604	638
572.076	642
574.547	647.111
577.016	643.778
579.484	648
581.952	647.556
584.419	640.222
586.887	635.333
589.352	642
591.816	633.778
594.28	648.222
596.743	653.333
599.205	639.111
601.667	645.556
604.127	647.556
606.588	655.333
609.047	652.222
611.505	645.333
613.963	652
616.419	649.778
618.875	649.556
621.33	650.444
623.784	648.444
626.238	648.667
628.69	650.667
631.142	664.889
633.593	652
636.043	655.778
638.493	652.667
640.941	652.889
643.389	652.667
645.835	652.222
648.281	655.333
650.727	635.556
653.171	650.889
655.615	656
658.058	663.333
660.501	658.667
662.942	662.889
665.382	649.555
667.822	650.222
670.261	650
672.699	637.333
675.137	637.556
677.574	642.667
680.008	641.333
682.443	635.778
684.878	639.111
687.312	645.556
689.743	668
692.175	651.778
694.607	646.444
697.037	655.778
699.466	649.333
701.895	650.222
704.323	648.444
706.749	653.111
709.175	649.111
711.601	650.889
714.025	656.222
716.449	661.333
718.871	650.444
721.294	646
723.716	632.667
726.136	649.111
728.556	646.444
730.975	643.556
733.394	643.778
735.812	642
738.228	648.444
740.644	646.889
743.058	636
745.473	625.333
747.886	644.667
750.3	638
752.711	632.444
755.123	638.444
757.533	630.889
759.942	637.111
762.351	634
764.759	635.555
767.167	642
769.573	641.778
771.979	640.889
774.383	642.222
776.787	646.222
779.191	656.667
781.593	643.778
783.994	633.111
786.396	636.667
788.796	642.667
791.195	652.667
793.595	651.333
795.992	650.444
798.389	648.222
800.786	655.333
803.181	650.889
805.576	644.222
807.969	640.222
810.363	643.778
812.755	645.111
815.147	650
817.537	643.778
819.927	635.556
822.318	639.111
824.706	640
827.093	629.333
829.48	631.556
831.866	628.889
834.251	632.444
836.636	632.445
839.021	641.556
841.404	636.222
843.786	630.222
846.167	629.778
848.548	633.333
850.928	620.889
853.307	640
855.685	634.222
858.063	642.222
860.44	634
862.816	646.222
865.192	631.333
867.566	640.444
869.94	644.889
872.313	639.556
874.685	634.889
877.057	642.667
879.428	628.667
881.798	638.444
884.167	635.333
886.536	642.444
888.902	641.778
891.269	649.111
893.636	649.556
896.001	643.778
898.366	648.667
900.73	634
903.094	640.889
905.455	639.778
907.817	633.556
910.178	627.778
912.538	636.889
914.898	639.778
917.255	630.667
919.613	622
921.971	640.889
924.327	626
926.682	629.333
929.037	639.111
931.391	627.778
933.744	624.667
936.096	621.778
938.449	615.111
940.799	622.222
943.149	630
945.499	633.556
947.847	637.111
950.195	618.444
952.542	640.667
954.889	633.333
957.235	630
959.579	638.222
961.924	641.333
964.266	651.778
966.609	650.222
968.951	641.556
971.292	642.444
973.632	637.778
975.972	647.556
978.31	648.667
980.649	648
982.986	653.111
985.323	654
987.659	657.555
989.994	656
992.328	673.556
994.662	691.111
996.995	688
999.326	720.444
1001.66	709.778
1003.99	725.556
1006.32	729.333
1008.65	722.889
1010.98	725.556
1013.3	716.444
1015.63	698.222
1017.96	672.889
1020.28	655.556
1022.61	651.556
1024.93	644.889
1027.25	642.889
1029.58	644.889
1031.9	641.556
1034.22	661.333
1036.54	652
1038.86	656.889
1041.18	641.556
1043.49	652.444
1045.81	653.111
1048.13	664
1050.44	681.556
1052.76	670.444
1055.07	676
1057.39	670
1059.7	657.333
1062.01	662.667
1064.32	656
1066.63	660.444
1068.94	661.556
1071.25	659.778
1073.56	664.222
1075.87	667.778
1078.17	676.444
1080.48	690.667
1082.79	696
1085.09	698.889
1087.39	689.333
1089.7	706.445
1092	714.889
1094.3	728
1096.6	749.111
1098.9	722.445
1101.2	709.111
1103.5	696.889
1105.8	696.889
1108.1	692.667
1110.39	698
1112.69	704.444
1114.98	718
1117.28	729.556
1119.57	712.444
1121.86	720.444
1124.16	723.333
1126.45	717.778
1128.74	703.556
1131.03	689.556
1133.32	676.222
1135.61	674.889
1137.89	665.778
1140.18	666.222
1142.47	674.444
1144.75	667.111
1147.04	684.667
1149.32	696.222
1151.61	688
1153.89	688.444
1156.17	695.111
1158.45	689.556
1160.73	691.556
1163.01	676.667
1165.29	674.889
1167.57	668
1169.85	666.444
1172.12	674.222
1174.4	660.222
1176.68	651.111
1178.95	651.333
1181.22	653.111
1183.5	648.222
1185.77	640.667
1188.04	655.556
1190.31	651.333
1192.58	647.333
1194.85	645.556
1197.12	645.333
1199.39	635.333
1201.66	651.111
1203.92	646
1206.19	632.667
1208.45	641.111
1210.72	621.333
1212.98	627.111
1215.25	632.667
1217.51	634
1219.77	632.667
1222.03	622
1224.29	625.778
1226.55	634.222
1228.81	634.444
1231.07	644.889
1233.33	644.444
1235.58	651.778
1237.84	643.333
1240.09	645.111
1242.35	635.111
1244.6	653.778
1246.86	655.111
1249.11	655.333
1251.36	635.778
1253.61	634.667
1255.86	640.222
1258.11	638.222
1260.36	641.778
1262.61	628.667
1264.86	642
1267.1	633.333
1269.35	644.444
1271.6	649.111
1273.84	650
1276.08	648.667
1278.33	638.667
1280.57	631.556
1282.81	651.111
1285.05	644.444
1287.29	642.889
1289.53	649.778
1291.77	654.222
1294.01	658.889
1296.25	634.222
1298.48	642.889
1300.72	629.333
1302.96	646.222
1305.19	653.778
1307.42	646.222
1309.66	644.889
1311.89	642.444
1314.12	652.444
1316.35	647.778
1318.58	650.667
1320.81	649.111
1323.04	664.889
1325.27	645.333
1327.5	649.333
1329.73	642.889
1331.95	659.556
1334.18	661.333
1336.4	659.111
1338.63	654.222
1340.85	651.333
1343.08	658.667
1345.3	654.667
1347.52	644
1349.74	644.889
1351.96	639.111
1354.18	649.111
1356.4	648.222
1358.61	652.222
1360.83	664.444
1363.05	665.556
1365.27	666.222
1367.48	660.222
1369.69	681.333
1371.91	683.556
1374.12	677.778
1376.33	705.333
1378.55	709.111
1380.76	700
1382.97	694.444
1385.18	684
1387.39	686.444
1389.59	670
1391.8	666
1394.01	656.444
1396.21	654.222
1398.42	648.889
1400.63	645.111
1402.83	633.778
1405.03	644.222
1407.24	643.778
1409.44	652
1411.64	641.778
1413.84	639.111
1416.04	636
1418.24	638.222
1420.44	635.111
1422.64	654.889
1424.83	642.444
1427.03	648
1429.23	650.222
1431.42	650.889
1433.62	650.889
1435.81	652.444
1438	646
1440.19	650.889
1442.39	648
1444.58	645.111
1446.77	650
1448.96	641.333
1451.15	653.778
1453.34	645.111
1455.52	655.556
1457.71	651.778
1459.9	644.889
1462.08	640.444
1464.27	628.667
1466.45	660
1468.64	639.111
1470.82	640.889
1473	636
1475.18	640.889
1477.36	649.556
1479.54	646.222
1481.72	638.889
1483.9	623.778
1486.08	628.667
1488.26	625.333
1490.43	632.444
1492.61	637.333
1494.78	633.778
1496.96	634.444
1499.13	632.667
1501.31	631.333
1503.48	639.111
1505.65	642.889
1507.82	634.667
1509.99	642.889
1512.16	655.111
1514.33	645.111
1516.5	663.556
1518.67	670
1520.84	662.889
1523	670.222
1525.17	675.556
1527.34	671.333
1529.5	673.556
1531.66	673.778
1533.83	672
1535.99	680
1538.15	696.444
1540.31	680.444
1542.47	687.556
1544.63	702
1546.79	697.778
1548.95	701.778
1551.11	692.444
1553.27	686.667
1555.42	669.778
1557.58	660.444
1559.73	656.444
1561.89	658.889
1564.04	668.889
1566.2	662
1568.35	658.889
1570.5	670.889
1572.65	677.333
1574.8	661.778
1576.95	672.222
1579.1	662.889
1581.25	662
1583.4	648.889
1585.55	650.889
1587.69	651.333
1589.84	653.778
1591.99	645.556
1594.13	642.444
1596.27	632
1598.42	625.333
1600.56	634.667
1602.7	622.222
1604.84	612.667
1606.98	615.778
1609.12	611.556
1611.26	618.444
1613.4	624.222
1615.54	614.889
1617.68	604.667
1619.81	614.444
1621.95	605.778
1624.08	617.556
1626.22	597.333
1628.35	588
1630.49	596.667
1632.62	589.556
1634.75	590.444
1636.88	584.889
1639.01	579.555
1641.14	580.222
1643.27	584.222
1645.4	571.556
1647.53	566.667
1649.66	568.222
1651.79	566.667
1653.91	556
1656.04	568.222
1658.16	569.111
1660.29	567.556
1662.41	553.556
1664.53	561.111
1666.66	567.333
1668.78	561.111
1670.9	546.667
1673.02	560
1675.14	557.778
1677.26	564.222
1679.38	550.444
1681.49	556
1683.61	561.333
1685.73	558.889
1687.84	564.444
1689.96	548.667
1692.07	550.889
1694.19	551.556
1696.3	553.778
1698.41	550.889
1700.52	554.445
1702.64	534.667
1704.75	545.333
1706.86	548.667
1708.97	532.445
1711.07	544.444
1713.18	549.111
1715.29	551.556
1717.4	544.222
1719.5	540.667
1721.61	541.778
1723.71	540
1725.82	537.556
1727.92	535.556
1730.02	530.444
1732.12	534.667
1734.23	528.222
1736.33	534.667
1738.43	530.889
1740.53	531.778
1742.63	530
1744.72	535.778
1746.82	522.222
1748.92	533.778
1751.02	518
1753.11	533.111
1755.21	530.889
1757.3	529.111
1759.4	517.333
1761.49	532.444
1763.58	527.778
1765.67	517.556
1767.76	520
1769.86	522.889
1771.95	530.667
1774.03	515.778
1776.12	520.667
1778.21	521.333
1780.3	511.556
1782.39	526.444
1784.47	514.667
1786.56	520.889
1788.64	518.889
1790.73	519.556
1792.81	518.889
1794.89	518.889
1796.98	517.555
1799.06	515.111
1801.14	518.667
1803.22	521.111
1805.3	510.667
1807.38	513.111
1809.46	509.556
1811.54	518.444
1813.61	516.667
1815.69	512.889
1817.77	511.111
1819.84	511.556
1821.92	508.889
1823.99	499.333
1826.06	501.778
1828.14	504
1830.21	507.111
1832.28	509.556
1834.35	504
1836.42	504.444
1838.49	509.111
1840.56	498.889
1842.63	510.667
1844.7	501.778
1846.77	502.222
1848.83	492.222
1850.9	508.667
1852.96	500.667
1855.03	497.556
1857.09	498.667
1859.15	490.889
1861.22	486.444
1863.28	486
1865.34	496.222
1867.4	492.222
1869.46	497.333
1871.52	480.222
1873.58	491.111
1875.64	491.111
1877.7	499.333
1879.76	499.111
1881.81	493.778
1883.87	484.444
1885.92	488.889
1887.98	498.667
1890.03	486.667
1892.09	493.333
1894.14	496.889
1896.19	482.222
1898.24	489.778
1900.29	478.667
1902.34	486.444
1904.4	478.222
1906.44	481.333
1908.49	477.778
1910.54	490.222
1912.59	484.444
1914.63	489.333
1916.68	488.889
1918.73	487.333
1920.77	484.667
1922.81	481.333
1924.86	487.111
1926.9	495.111
1928.94	479.778
1930.99	480
1933.03	485.333
1935.07	468.444
1937.11	473.778
1939.15	467.333
1941.19	485.333
1943.22	480.667
1945.26	469.333
1947.3	476.222
1949.33	476.667
1951.37	471.556
1953.4	464.889
1955.44	472.222
1957.47	478.889
1959.51	464.667
1961.54	463.556
1963.57	464
1965.6	469.333
1967.63	464.889
1969.66	468.444
1971.69	466.667
1973.72	459.111
1975.75	461.778
1977.78	460
1979.8	468.667
1981.83	464.444
1983.86	462.444
1985.88	453.111
1987.91	458.222
1989.93	448.889
1991.95	459.333
1993.98	462
1996	467.778
1998.02	457.111
2000.04	462
2002.06	458.444
2004.08	461.778
2006.1	448
2008.12	464.222
2010.14	461.111
2012.15	465.333
2014.17	454.222
2016.19	457.556
2018.2	460.667
2020.22	463.778
2022.23	458.444
2024.25	448.444
2026.26	465.556
2028.27	452.222
2030.28	459.111
2032.29	454.667
2034.3	446
2036.32	456.889
2038.32	459.556
2040.33	449.111
2042.34	448.667
2044.35	445.778
2046.36	453.556
2048.36	454.222
2050.37	452.889
2052.37	447.111
2054.38	450.667
2056.38	454.667
2058.39	445.333
2060.39	452.889
2062.39	447.778
2064.39	443.333
2066.39	436.889
2068.39	450.667
2070.39	433.111
2072.39	448.667
2074.39	443.778
2076.39	440.222
2078.39	439.556
2080.39	440
2082.38	430
2084.38	434.444
2086.37	427.111
2088.37	433.556
2090.36	439.556
2092.35	429.556
2094.35	437.111
2096.34	435.556
2098.33	439.111
2100.32	432.222
2102.31	434
2104.3	430.889
2106.29	433.333
2108.28	422.444
2110.27	429.556
2112.25	438.667
2114.24	418
2116.23	432.889
2118.21	426
2120.2	425.778
2122.18	428.444
2124.17	434.667
2126.15	423.778
2128.13	424.667
2130.11	426.222
2132.09	435.556
2134.08	422.667
2136.06	420.222
2138.04	427.778
2140.02	430.222
2141.99	415.556
2143.97	429.778
2145.95	424.667
2147.93	420.889
2149.9	432
2151.88	420.889
2153.85	414
2155.83	417.778
2157.8	421.333
2159.77	414.889
2161.75	422.667
2163.72	412.222
2165.69	418.444
2167.66	426
2169.63	409.556
2171.6	408
2173.57	409.333
2175.54	410.444
2177.51	406.889
2179.47	404.667
2181.44	401.556
2183.41	406.444
2185.37	414.222
2187.34	415.111
2189.3	403.556
2191.27	402.444
2193.23	402.889
2195.19	409.556
2197.15	411.556
2199.11	415.333
2201.08	408
2203.04	410.889
2205	412.444
2206.96	413.333
2208.91	413.111
2210.87	408.222
2212.83	417.333
2214.79	405.111
2216.74	400.222
2218.7	398
2220.65	405.556
2222.61	403.778
2224.56	394.889
2226.52	404
2228.47	402.889
2230.42	396.444
2232.37	397.333
2234.32	387.333
2236.27	395.556
2238.22	396.889
2240.17	383.333
2242.12	392.889
2244.07	388.444
2246.02	395.556
2247.97	392.889
2249.91	384.667
2251.86	388.444
2253.8	393.111
2255.75	388.222
2257.69	385.778
2259.64	384.889
2261.58	388.444
2263.52	385.111
2265.46	374.889
2267.4	388
2269.35	382.889
2271.29	384.222
2273.23	377.556
2275.16	378.444
2277.1	389.778
2279.04	386
2280.98	374
2282.92	381.333
2284.85	379.333
2286.79	377.333
2288.72	372.444
2290.66	374.667
2292.59	382.889
2294.52	382.444
2296.46	369.111
2298.39	376.667
2300.32	370.889
2302.25	372.889
2304.18	373.556
2306.11	370.667
2308.04	366.889
2309.97	377.111
2311.9	364.444
2313.83	362.667
2315.75	366
2317.68	366
2319.61	370.889
2321.53	362.444
2323.46	360.222
2325.38	371.556
2327.3	367.778
2329.23	369.556
2331.15	358.222
2333.07	370.667
2334.99	364.889
2336.91	369.333
2338.83	356.889
2340.75	359.778
2342.67	365.111
2344.59	358
2346.51	362.222
2348.43	360.667
2350.35	367.778
2352.26	366.667
2354.18	364
2356.09	350.889
2358.01	360.444
2359.92	356.444
2361.83	359.556
2363.75	348.444
2365.66	359.333
2367.57	357.778
2369.48	355.556
2371.39	346.889
2373.31	347.111
2375.21	352.222
2377.12	348.667
2379.03	358.222
2380.94	354.889
2382.85	357.778
2384.76	351.556
2386.66	355.111
2388.57	356.667
2390.47	356.222
2392.38	358
2394.28	345.333
2396.18	347.778
2398.09	341.333
2399.99	345.333
2401.89	336
2403.79	342.889
2405.69	341.778
2407.59	341.778
2409.49	338.889
2411.39	348.444
2413.29	344.667
2415.19	341.333
2417.09	334.667
2418.98	339.333
2420.88	326.889
2422.78	332
2424.67	341.333
2426.57	332.444
2428.46	339.556
2430.35	335.111
2432.25	331.556
2434.14	330
2436.03	341.111
2437.92	332
2439.81	345.111
2441.7	338.444
2443.59	332.222
2445.48	333.333
2447.37	331.111
2449.26	337.556
2451.15	323.778
2453.03	329.111
