186.85	376.222
189.449	370.889
192.047	371.556
194.645	380.444
197.241	379.333
199.837	385.778
202.431	382
205.025	381.556
207.619	381.778
210.21	387.556
212.802	378.444
215.392	381.556
217.982	382.667
220.57	372.889
223.158	381.111
225.744	375.111
228.331	386.444
230.915	390.667
233.5	387.778
236.083	382.222
238.666	378.889
241.247	383.333
243.827	402.667
246.408	388.222
248.986	396.444
251.565	391.778
254.142	392.444
256.719	385.333
259.294	387.111
261.868	390.667
264.443	392.889
267.015	387.556
269.587	385.556
272.159	379.111
274.729	385.333
277.298	377.556
279.867	380.444
282.435	376
285.001	376.667
287.568	381.111
290.133	377.556
292.697	381.778
295.26	380.667
297.824	378.667
300.385	382.667
302.945	383.556
305.505	375.556
308.064	371.111
310.623	371.333
313.18	372
315.737	366.889
318.292	370.667
320.847	376
323.402	379.111
325.955	378
328.507	375.778
331.058	391.111
333.609	386.667
336.158	377.778
338.707	379.333
341.255	397.111
343.802	396.889
346.349	394.444
348.895	394.889
351.439	396.222
353.983	390
356.526	394.889
359.068	393.111
361.609	390.889
364.149	384.889
366.689	387.778
369.227	392.222
371.765	394.222
374.302	400.667
376.838	418.667
379.374	427.111
381.908	432
384.442	416.667
386.973	404.222
389.505	393.556
392.036	391.778
394.567	391.111
397.096	379.333
399.625	392.222
402.153	396
404.68	390.667
407.206	397.778
409.73	391.333
412.254	395.333
414.778	392.889
417.301	390.889
419.823	396
422.343	395.333
424.863	395.778
427.383	394
429.901	397.333
432.418	415.111
434.935	427.333
437.451	425.778
439.966	421.333
442.48	408.667
444.993	400.222
447.506	401.778
450.019	408.667
452.528	398.889
455.039	405.111
457.549	403.778
460.056	414.222
462.564	406.889
465.07	388.222
467.576	402
470.082	393.111
472.585	388.222
475.089	394.667
477.591	392.444
480.093	399.333
482.595	388
485.094	396.222
487.594	400.889
490.091	389.778
492.59	403.556
495.086	397.333
497.582	405.556
500.076	393.333
502.571	395.111
505.064	404.667
507.558	394.889
510.049	398.444
512.54	395.333
515.03	397.111
517.518	412.222
520.008	405.778
522.495	399.333
524.983	404.222
527.468	400.889
529.954	390.889
532.438	394
534.921	381.556
537.404	392.667
539.886	388.222
542.366	394.222
544.848	390.667
547.327	393.556
549.805	388.889
552.284	392
554.76	391.556
557.236	399.778
559.711	392.222
562.186	399.556
564.66	398.444
567.132	404.222
569.604	400
572.076	402.444
574.547	395.556
577.016	394.667
579.484	400.222
581.952	395.333
584.419	398.222
586.887	395.111
589.352	399.778
591.816	395.778
594.28	391.111
596.743	399.333
599.205	391.556
601.667	401.556
604.127	398.222
606.588	392.667
609.047	394.667
611.505	395.111
613.963	400.444
616.419	390
618.875	395.111
621.33	405.556
623.784	396.222
626.238	399.333
628.69	400.444
631.142	405.111
633.593	397.778
636.043	402.444
638.493	403.111
640.941	394.889
643.389	400.444
645.835	392.667
648.281	405.556
650.727	392.667
653.171	397.556
655.615	407.778
658.058	406
660.501	402.222
662.942	408
665.382	400.667
667.822	403.111
670.261	401.556
672.699	403.111
675.137	389.778
677.574	393.333
680.008	397.556
682.443	392.667
684.878	393.111
687.312	389.111
689.743	396.444
692.175	402.889
694.607	398.667
697.037	400.889
699.466	398.889
701.895	400.889
704.323	400.444
706.749	393.111
709.175	397.333
711.601	392.222
714.025	393.778
716.449	402.889
718.871	403.111
721.294	388.889
723.716	397.556
726.136	396
728.556	406.667
730.975	392.222
733.394	396.889
735.812	395.778
738.228	396.222
740.644	393.556
743.058	385.333
745.473	393.111
747.886	397.333
750.3	392.889
752.711	380.222
755.123	385.778
757.533	396.222
759.942	386.222
762.351	392.222
764.759	389.778
767.167	390
769.573	391.556
771.979	393.333
774.383	391.111
776.787	390.889
779.191	395.556
781.593	394
783.994	399.333
786.396	399.778
788.796	396.667
791.195	403.556
793.595	400.444
795.992	392.222
798.389	397.111
800.786	391.556
803.181	393.778
805.576	402.889
807.969	393.778
810.363	402.444
812.755	386.889
815.147	400.667
817.537	403.333
819.927	408.222
822.318	390.222
824.706	400
827.093	392.444
829.48	386.667
831.866	389.111
834.251	399.556
836.636	388.222
839.021	392.222
841.404	399.111
843.786	390.889
846.167	390.444
848.548	386.444
850.928	394.444
853.307	392.889
855.685	375.333
858.063	394.222
860.44	393.556
862.816	388.222
865.192	392
867.566	385.778
869.94	396.222
872.313	387.778
874.685	380.667
877.057	393.111
879.428	392
881.798	385.333
884.167	394
886.536	394
888.902	393.333
891.269	397.111
893.636	394.444
896.001	390.444
898.366	388.667
900.73	391.778
903.094	393.111
905.455	395.333
907.817	392.222
910.178	391.111
912.538	394.222
914.898	387.778
917.255	384.444
919.613	386.667
921.971	386.222
924.327	370.889
926.682	388
929.037	380.889
931.391	380.222
933.744	377.333
936.096	394
938.449	384.222
940.799	386.444
943.149	387.333
945.499	388.667
947.847	383.111
950.195	380.444
952.542	384.667
954.889	386
957.235	386
959.579	392.667
961.924	392.444
964.266	386.222
966.609	382
968.951	391.778
971.292	391.333
973.632	392.444
975.972	387.333
978.31	391.778
980.649	390.889
982.986	391.111
985.323	392.889
987.659	398
989.994	406.889
992.328	409.333
994.662	406.889
996.995	421.111
999.326	433.111
1001.66	438.667
1003.99	437.111
1006.32	446.667
1008.65	451.556
1010.98	464.222
1013.3	455.333
1015.63	449.556
1017.96	430
1020.28	409.111
1022.61	399.333
1024.93	392.889
1027.25	393.111
1029.58	394.667
1031.9	399.333
1034.22	396.667
1036.54	400.889
1038.86	398.667
1041.18	392.444
1043.49	399.333
1045.81	395.333
1048.13	402.222
1050.44	401.333
1052.76	397.778
1055.07	398.889
1057.39	400.667
1059.7	409.111
1062.01	398.889
1064.32	393.111
1066.63	400.889
1068.94	399.556
1071.25	408.667
1073.56	392.222
1075.87	409.333
1078.17	406
1080.48	420.667
1082.79	411.556
1085.09	422.667
1087.39	425.778
1089.7	430
1092	448.889
1094.3	446.444
1096.6	471.111
1098.9	452
1101.2	445.556
1103.5	432.222
1105.8	417.111
1108.1	425.111
1110.39	424.667
1112.69	420.222
1114.98	436.667
1117.28	436
1119.57	441.778
1121.86	446.667
1124.16	451.556
1126.45	432.889
1128.74	443.111
1131.03	425.111
1133.32	426.444
1135.61	422.667
1137.89	414
1140.18	410.222
1142.47	406.444
1144.75	409.333
1147.04	414
1149.32	418.889
1151.61	415.778
1153.89	419.778
1156.17	423.111
1158.45	407.778
1160.73	401.778
1163.01	403.111
1165.29	407.556
1167.57	400.889
1169.85	401.333
1172.12	400.667
1174.4	396.667
1176.68	404.444
1178.95	408.667
1181.22	399.111
1183.5	394.667
1185.77	398.667
1188.04	394.222
1190.31	395.111
1192.58	385.333
1194.85	390.444
1197.12	391.556
1199.39	376.889
1201.66	381.778
1203.92	388.222
1206.19	385.111
1208.45	386.444
1210.72	386.667
1212.98	375.333
1215.25	378
1217.51	386
1219.77	377.111
1222.03	390.667
1224.29	386.222
1226.55	389.111
1228.81	393.111
1231.07	390.444
1233.33	390.667
1235.58	397.778
1237.84	390.222
1240.09	390.889
1242.35	393.778
1244.6	394.889
1246.86	385.333
1249.11	384.222
1251.36	385.556
1253.61	390.889
1255.86	390
1258.11	390.667
1260.36	395.333
1262.61	384.889
1264.86	391.111
1267.1	382
1269.35	397.333
1271.6	399.111
1273.84	401.556
1276.08	397.333
1278.33	385.333
1280.57	384.889
1282.81	401.333
1285.05	386.667
1287.29	397.111
1289.53	391.333
1291.77	400.889
1294.01	393.111
1296.25	400.667
1298.48	389.778
1300.72	390.444
1302.96	388.889
1305.19	390
1307.42	392
1309.66	382.222
1311.89	392.889
1314.12	401.111
1316.35	377.333
1318.58	393.111
1320.81	402.667
1323.04	396.222
1325.27	392.889
1327.5	389.556
1329.73	396.667
1331.95	399.778
1334.18	408.444
1336.4	401.333
1338.63	406
1340.85	395.556
1343.08	397.333
1345.3	402.222
1347.52	398.667
1349.74	390.889
1351.96	396.444
1354.18	396.889
1356.4	392.444
1358.61	403.556
1360.83	395.778
1363.05	415.333
1365.27	414
1367.48	418.667
1369.69	425.556
1371.91	421.333
1374.12	427.778
1376.33	427.333
1378.55	430.667
1380.76	442
1382.97	437.556
1385.18	439.778
1387.39	422.222
1389.59	420
1391.8	416.889
1394.01	411.556
1396.21	398.889
1398.42	397.778
1400.63	388.222
1402.83	381.556
1405.03	394.444
1407.24	385.778
1409.44	395.111
1411.64	385.556
1413.84	389.556
1416.04	386
1418.24	393.111
1420.44	388.222
1422.64	395.556
1424.83	394.444
1427.03	395.111
1429.23	392.222
1431.42	394.222
1433.62	387.556
1435.81	396.667
1438	382.667
1440.19	390.889
1442.39	387.333
1444.58	384.667
1446.77	384.889
1448.96	384.889
1451.15	392.444
1453.34	392.667
1455.52	388.889
1457.71	385.556
1459.9	389.556
1462.08	391.556
1464.27	397.111
1466.45	379.111
1468.64	391.556
1470.82	386.222
1473	395.333
1475.18	394.222
1477.36	392.667
1479.54	379.333
1481.72	387.111
1483.9	392
1486.08	388.222
1488.26	377.778
1490.43	384.222
1492.61	379.111
1494.78	370.222
1496.96	381.333
1499.13	384
1501.31	385.556
1503.48	393.333
1505.65	392
1507.82	395.111
1509.99	388.667
1512.16	397.556
1514.33	414.667
1516.5	406.889
1518.67	412.444
1520.84	408.222
1523	404.444
1525.17	410
1527.34	402.444
1529.5	396.222
1531.66	414.222
1533.83	410.222
1535.99	394.667
1538.15	409.556
1540.31	413.556
1542.47	403.778
1544.63	408.889
1546.79	404.889
1548.95	394.444
1551.11	402.444
1553.27	403.111
1555.42	396.444
1557.58	405.111
1559.73	401.556
1561.89	397.333
1564.04	410
1566.2	401.111
1568.35	414
1570.5	410.444
1572.65	415.111
1574.8	412.667
1576.95	418.444
1579.1	401.778
1581.25	416.667
1583.4	403.333
1585.55	405.111
1587.69	398.222
1589.84	396.889
1591.99	409.333
1594.13	398.444
1596.27	404.667
1598.42	406.889
1600.56	417.333
1602.7	397.556
1604.84	394.667
1606.98	396
1609.12	386.444
1611.26	386.889
1613.4	388.889
1615.54	379.556
1617.68	378.444
1619.81	368.889
1621.95	368.667
1624.08	372.667
1626.22	367.111
1628.35	368.667
1630.49	368.222
1632.62	360.667
1634.75	357.556
1636.88	354.889
1639.01	355.111
1641.14	347.556
1643.27	350
1645.4	356.444
1647.53	354.444
1649.66	344.444
1651.79	347.556
1653.91	345.556
1656.04	350.667
1658.16	354.444
1660.29	342.667
1662.41	336
1664.53	342.222
1666.66	336.889
1668.78	342.889
1670.9	341.333
1673.02	338.444
1675.14	342.222
1677.26	345.333
1679.38	350
1681.49	346.667
1683.61	343.556
1685.73	348.222
1687.84	343.778
1689.96	343.111
1692.07	334.667
1694.19	340.667
1696.3	342.222
1698.41	340.667
1700.52	337.111
1702.64	342
1704.75	334.444
1706.86	337.556
1708.97	339.778
1711.07	330.667
1713.18	333.556
1715.29	325.556
1717.4	338.222
1719.5	341.111
1721.61	340
1723.71	329.778
1725.82	333.333
1727.92	339.111
1730.02	334.889
1732.12	330.222
1734.23	327.778
1736.33	334
1738.43	333.556
1740.53	328
1742.63	328.667
1744.72	335.111
1746.82	329.333
1748.92	322.667
1751.02	326.889
1753.11	329.333
1755.21	325.556
1757.3	329.778
1759.4	324
1761.49	325.333
1763.58	325.778
1765.67	316.889
1767.76	322.222
1769.86	318.667
1771.95	330
1774.03	320.444
1776.12	325.556
1778.21	322.222
1780.3	324.444
1782.39	320.444
1784.47	323.778
1786.56	315.333
1788.64	320.889
1790.73	330
1792.81	317.778
1794.89	319.333
1796.98	327.778
1799.06	320
1801.14	326.444
1803.22	316
1805.3	318.889
1807.38	321.333
1809.46	316.222
1811.54	324
1813.61	324.667
1815.69	317.556
1817.77	318.889
1819.84	320.667
1821.92	316
1823.99	312.889
1826.06	318.222
1828.14	314.222
1830.21	312.444
1832.28	326.444
1834.35	319.111
1836.42	316.667
1838.49	318.889
1840.56	307.111
1842.63	316.889
1844.7	307.556
1846.77	315.778
1848.83	310.444
1850.9	310
1852.96	303.333
1855.03	311.778
1857.09	311.778
1859.15	310
1861.22	308.667
1863.28	312.444
1865.34	303.111
1867.4	314
1869.46	302.444
1871.52	304
1873.58	305.778
1875.64	304
1877.7	306.667
1879.76	309.778
1881.81	297.111
1883.87	304.444
1885.92	306.889
1887.98	306.667
1890.03	298.222
1892.09	299.778
1894.14	300
1896.19	296.222
1898.24	306.889
1900.29	298.889
1902.34	308
1904.4	302.667
1906.44	294.889
1908.49	304.889
1910.54	300
1912.59	307.556
1914.63	300.222
1916.68	301.111
1918.73	300.667
1920.77	299.778
1922.81	300
1924.86	296
1926.9	295.111
1928.94	295.111
1930.99	293.556
1933.03	312
1935.07	295.333
1937.11	296.444
1939.15	291.333
1941.19	301.333
1943.22	295.333
1945.26	293.111
1947.3	295.333
1949.33	297.778
1951.37	286.667
1953.4	294.222
1955.44	290.889
1957.47	288.667
1959.51	294.444
1961.54	292
1963.57	288.444
1965.6	292.222
1967.63	295.556
1969.66	286.222
1971.69	290.222
1973.72	290.889
1975.75	287.778
1977.78	282.889
1979.8	291.556
1981.83	284
1983.86	290.222
1985.88	290.222
1987.91	294
1989.93	288.222
1991.95	288.667
1993.98	288.444
1996	291.556
1998.02	288.444
2000.04	286.889
2002.06	290
2004.08	288
2006.1	285.333
2008.12	292
2010.14	272.444
2012.15	288.222
2014.17	279.111
2016.19	286.222
2018.2	285.333
2020.22	288.667
2022.23	282.444
2024.25	284.667
2026.26	279.111
2028.27	280.444
2030.28	286.667
2032.29	280
2034.3	284.222
2036.32	289.111
2038.32	283.111
2040.33	283.333
2042.34	288.222
2044.35	276.667
2046.36	277.556
2048.36	282.667
2050.37	284
2052.37	284
2054.38	275.556
2056.38	284.889
2058.39	279.556
2060.39	275.778
2062.39	279.333
2064.39	283.111
2066.39	275.111
2068.39	285.333
2070.39	282
2072.39	277.333
2074.39	273.111
2076.39	278.222
2078.39	280
2080.39	278.222
2082.38	276.889
2084.38	275.778
2086.37	278.444
2088.37	276.667
2090.36	274.444
2092.35	272
2094.35	271.778
2096.34	277.333
2098.33	271.556
2100.32	268
2102.31	267.111
2104.3	273.333
2106.29	272.667
2108.28	272.667
2110.27	267.333
2112.25	274.444
2114.24	270
2116.23	272.667
2118.21	277.778
2120.2	270
2122.18	262.667
2124.17	268
2126.15	270
2128.13	269.556
2130.11	269.556
2132.09	266
2134.08	274.222
2136.06	263.111
2138.04	273.333
2140.02	270.222
2141.99	270.667
2143.97	270.222
2145.95	267.778
2147.93	268
2149.9	272.889
2151.88	272.889
2153.85	270.444
2155.83	280.889
2157.8	263.111
2159.77	261.556
2161.75	268.667
2163.72	264.444
2165.69	264.889
2167.66	266.444
2169.63	259.333
2171.6	261.111
2173.57	261.333
2175.54	254.889
2177.51	263.111
2179.47	268.444
2181.44	258
2183.41	257.111
2185.37	255.556
2187.34	258
2189.3	252.222
2191.27	260.222
2193.23	258.222
2195.19	252.222
2197.15	254.667
2199.11	250.667
2201.08	253.556
2203.04	255.556
2205	252
2206.96	250.667
2208.91	255.333
2210.87	257.111
2212.83	250.667
2214.79	250.222
2216.74	249.556
2218.7	251.333
2220.65	253.111
2222.61	258.222
2224.56	258.222
2226.52	252.667
2228.47	255.111
2230.42	253.111
2232.37	247.333
2234.32	246.444
2236.27	240.889
2238.22	248.889
2240.17	250.222
2242.12	248.222
2244.07	246.222
2246.02	248.444
2247.97	250.444
2249.91	249.111
2251.86	248.667
2253.8	241.778
2255.75	256.889
2257.69	245.111
2259.64	249.333
2261.58	241.556
2263.52	244.222
2265.46	245.333
2267.4	240.889
2269.35	242
2271.29	243.778
2273.23	239.778
2275.16	252.222
2277.1	241.111
2279.04	232.444
2280.98	242.667
2282.92	249.778
2284.85	244.889
2286.79	239.556
2288.72	234.444
2290.66	240.444
2292.59	240.667
2294.52	235.556
2296.46	238.222
2298.39	234.889
2300.32	241.778
2302.25	238.889
2304.18	233.111
2306.11	236.222
2308.04	238
2309.97	235.556
2311.9	239.556
2313.83	237.778
2315.75	237.111
2317.68	236
2319.61	237.333
2321.53	233.111
2323.46	235.111
2325.38	227.333
2327.3	238.222
2329.23	232.222
2331.15	241.556
2333.07	230.889
2334.99	228
2336.91	227.778
2338.83	232.889
2340.75	228
2342.67	222.889
2344.59	232
2346.51	229.556
2348.43	235.111
2350.35	236.444
2352.26	228.444
2354.18	233.778
2356.09	226
2358.01	218.222
2359.92	229.333
2361.83	224.889
2363.75	229.333
2365.66	228
2367.57	232
2369.48	225.111
2371.39	228.222
2373.31	223.111
2375.21	230.444
2377.12	225.333
2379.03	223.111
2380.94	228.889
2382.85	230.667
2384.76	221.556
2386.66	219.778
2388.57	228
2390.47	221.333
2392.38	218.222
2394.28	230
2396.18	219.556
2398.09	223.778
2399.99	213.778
2401.89	221.556
2403.79	220.889
2405.69	214.889
2407.59	216.222
2409.49	220.667
2411.39	220.444
2413.29	217.111
2415.19	226
2417.09	213.333
2418.98	216.444
2420.88	222.667
2422.78	216.444
2424.67	221.556
2426.57	216.667
2428.46	222.222
2430.35	217.556
2432.25	220.222
2434.14	214.444
2436.03	210
2437.92	219.333
2439.81	211.556
2441.7	218
2443.59	214.889
2445.48	216
2447.37	218
2449.26	215.778
2451.15	214.889
2453.03	204
