186.85	536.444
189.449	538.889
192.047	539.333
194.645	539.778
197.241	538
199.837	543.556
202.431	542
205.025	540.889
207.619	540
210.21	542
212.802	545.111
215.392	548.222
217.982	551.111
220.57	549.111
223.158	548
225.744	539.111
228.331	551.333
230.915	545.556
233.5	551.111
236.083	558.889
238.666	544.444
241.247	552.444
243.827	560.444
246.408	560.667
248.986	554.444
251.565	554.222
254.142	552.889
256.719	543.778
259.294	552.667
261.868	545.556
264.443	543.778
267.015	544.889
269.587	541.333
272.159	535.556
274.729	537.333
277.298	543.333
279.867	532
282.435	526.222
285.001	535.556
287.568	538.445
290.133	541.111
292.697	544.444
295.26	532.444
297.824	533.556
300.385	531.555
302.945	538.889
305.505	536.667
308.064	553.333
310.623	548
313.18	538.667
315.737	520.222
318.292	538.222
320.847	539.333
323.402	535.778
325.955	542.444
328.507	543.111
331.058	545.333
333.609	553.778
336.158	537.333
338.707	550.889
341.255	553.333
343.802	552.667
346.349	555.333
348.895	563.556
351.439	573.111
353.983	554
356.526	562.444
359.068	559.556
361.609	554
364.149	558
366.689	559.556
369.227	556.222
371.765	572.444
374.302	571.333
376.838	599.111
379.374	602.889
381.908	602.222
384.442	596
386.973	574.889
389.505	563.556
392.036	552.667
394.567	557.556
397.096	545.111
399.625	556.667
402.153	559.556
404.68	554.667
407.206	560
409.73	559.778
412.254	571.333
414.778	562.222
417.301	566
419.823	566.444
422.343	569.778
424.863	582.889
427.383	580.667
429.901	590.889
432.418	600
434.935	596.444
437.451	605.778
439.966	591.333
442.48	590.667
444.993	589.778
447.506	578.444
450.019	581.556
452.528	575.778
455.039	572.444
457.549	589.333
460.056	582.444
462.564	578.889
465.07	566.889
467.576	560.444
470.082	575.778
472.585	572.222
475.089	568.889
477.591	573.333
480.093	571.333
482.595	573.556
485.094	573.111
487.594	579.556
490.091	570.222
492.59	579.333
495.086	580.222
497.582	578.444
500.076	577.556
502.571	566.889
505.064	572.444
507.558	570.222
510.049	565.555
512.54	572.889
515.03	575.333
517.518	588.444
520.008	593.556
522.495	588.889
524.983	576.444
527.468	564.889
529.954	569.556
532.438	562.667
534.921	570.222
537.404	574
539.886	560.889
542.366	559.556
544.848	573.778
547.327	580.667
549.805	568
552.284	585.556
554.76	565.111
557.236	572
559.711	568.889
562.186	578.222
564.66	578.222
567.132	582
569.604	575.555
572.076	579.556
574.547	582.667
577.016	573.333
579.484	572.667
581.952	573.556
584.419	579.333
586.887	569.778
589.352	566.222
591.816	568.444
594.28	562.667
596.743	578.222
599.205	571.556
601.667	577.111
604.127	580.444
606.588	572.222
609.047	576.444
611.505	574.889
613.963	584.889
616.419	573.333
618.875	581.333
621.33	574
623.784	587.111
626.238	577.333
628.69	578.222
631.142	581.333
633.593	584.889
636.043	596.445
638.493	582.222
640.941	582
643.389	579.778
645.835	581.556
648.281	585.778
650.727	581.556
653.171	586.444
655.615	588
658.058	594.889
660.501	595.778
662.942	590
665.382	585.333
667.822	580.667
670.261	577.333
672.699	568
675.137	581.333
677.574	581.333
680.008	586.889
682.443	574.222
684.878	575.333
687.312	575.556
689.743	582.222
692.175	578.889
694.607	580
697.037	574.889
699.466	579.333
701.895	577.556
704.323	577.333
706.749	584.889
709.175	574.445
711.601	583.778
714.025	578
716.449	580.444
718.871	578.444
721.294	569.111
723.716	579.111
726.136	582.889
728.556	580.667
730.975	572
733.394	573.778
735.812	587.778
738.228	572.222
740.644	573.555
743.058	570.889
745.473	568.889
747.886	574.222
750.3	576.444
752.711	576.889
755.123	568.667
757.533	582.222
759.942	568.222
762.351	570.222
764.759	567.333
767.167	577.778
769.573	583.333
771.979	574.667
774.383	577.333
776.787	573.333
779.191	587.111
781.593	566.889
783.994	572.444
786.396	580
788.796	576.444
791.195	577.111
793.595	574.444
795.992	583.556
798.389	580.889
800.786	589.778
803.181	575.111
805.576	596.667
807.969	574.222
810.363	576.889
812.755	581.111
815.147	584.444
817.537	576.667
819.927	581.556
822.318	575.778
824.706	569.778
827.093	574.889
829.48	566
831.866	577.111
834.251	565.333
836.636	569.555
839.021	573.778
841.404	572.222
843.786	573.333
846.167	573.111
848.548	565.778
850.928	557.333
853.307	567.778
855.685	572.444
858.063	568.889
860.44	560.667
862.816	570.889
865.192	572.444
867.566	566.222
869.94	567.556
872.313	573.111
874.685	568.444
877.057	570.667
879.428	571.778
881.798	568.889
884.167	568.222
886.536	569.333
888.902	570.444
891.269	569.111
893.636	574.667
896.001	574.222
898.366	568.444
900.73	564.889
903.094	578.444
905.455	576.222
907.817	562.444
910.178	569.778
912.538	573.111
914.898	559.333
917.255	565.333
919.613	568.889
921.971	558.667
924.327	553.778
926.682	558.222
929.037	556
931.391	561.555
933.744	555.333
936.096	557.111
938.449	552.667
940.799	548.889
943.149	556.889
945.499	553.556
947.847	555.111
950.195	567.556
952.542	562
954.889	555.333
957.235	564.445
959.579	566.444
961.924	562
964.266	568.222
966.609	569.778
968.951	581.111
971.292	571.556
973.632	561.556
975.972	570.222
978.31	575.556
980.649	561.333
982.986	569.111
985.323	580.667
987.659	586.667
989.994	585.556
992.328	586.444
994.662	612.667
996.995	622.889
999.326	637.556
1001.66	651.556
1003.99	655.333
1006.32	650.667
1008.65	671.111
1010.98	687.333
1013.3	663.778
1015.63	655.556
1017.96	627.111
1020.28	602.222
1022.61	583.778
1024.93	581.556
1027.25	574.667
1029.58	586.889
1031.9	597.556
1034.22	582.222
1036.54	581.111
1038.86	589.778
1041.18	587.111
1043.49	574
1045.81	582.667
1048.13	592.667
1050.44	584.444
1052.76	602.444
1055.07	597.333
1057.39	594
1059.7	580.889
1062.01	588.889
1064.32	597.778
1066.63	583.333
1068.94	591.556
1071.25	589.333
1073.56	588.444
1075.87	583.333
1078.17	607.556
1080.48	595.778
1082.79	618.444
1085.09	613.111
1087.39	606.667
1089.7	622
1092	646.444
1094.3	666.444
1096.6	674
1098.9	652.222
1101.2	642
1103.5	624.667
1105.8	623.333
1108.1	618.222
1110.39	602.444
1112.69	618.444
1114.98	633.111
1117.28	634.444
1119.57	651.333
1121.86	643.778
1124.16	630
1126.45	639.556
1128.74	627.111
1131.03	613.333
1133.32	604.444
1135.61	592
1137.89	585.778
1140.18	591.111
1142.47	586
1144.75	601.778
1147.04	589.556
1149.32	586.222
1151.61	600.222
1153.89	596
1156.17	582.444
1158.45	581.556
1160.73	591.111
1163.01	584.222
1165.29	574
1167.57	572.667
1169.85	563.333
1172.12	573.556
1174.4	561.778
1176.68	561.556
1178.95	580.667
1181.22	557.111
1183.5	562.889
1185.77	552.889
1188.04	561.333
1190.31	561.555
1192.58	557.333
1194.85	551.111
1197.12	560.889
1199.39	549.111
1201.66	556.889
1203.92	540.667
1206.19	546
1208.45	538.889
1210.72	556
1212.98	537.111
1215.25	547.556
1217.51	537.778
1219.77	552.444
1222.03	552.444
1224.29	543.556
1226.55	548.222
1228.81	542.445
1231.07	548.889
1233.33	552.889
1235.58	550
1237.84	565.111
1240.09	548
1242.35	560.222
1244.6	558.222
1246.86	547.333
1249.11	558.889
1251.36	560.667
1253.61	552.667
1255.86	543.778
1258.11	566.222
1260.36	557.111
1262.61	562.222
1264.86	550.667
1267.1	546
1269.35	559.111
1271.6	566.667
1273.84	555.778
1276.08	552.667
1278.33	572.444
1280.57	553.778
1282.81	559.111
1285.05	559.778
1287.29	566
1289.53	561.778
1291.77	564.444
1294.01	559.778
1296.25	574.889
1298.48	571.333
1300.72	570.444
1302.96	560.667
1305.19	558.667
1307.42	562.444
1309.66	565.333
1311.89	559.333
1314.12	580
1316.35	568.667
1318.58	574.444
1320.81	587.111
1323.04	590
1325.27	593.778
1327.5	572
1329.73	577.333
1331.95	585.778
1334.18	586.222
1336.4	588.889
1338.63	587.111
1340.85	590.667
1343.08	570.889
1345.3	576
1347.52	578.222
1349.74	565.556
1351.96	573.111
1354.18	573.333
1356.4	568.222
1358.61	584.667
1360.83	572
1363.05	577.556
1365.27	592.444
1367.48	583.778
1369.69	594.444
1371.91	608
1374.12	601.333
1376.33	623.333
1378.55	632.444
1380.76	634.444
1382.97	641.111
1385.18	620.222
1387.39	624.444
1389.59	609.778
1391.8	595.778
1394.01	585.333
1396.21	574.444
1398.42	559.333
1400.63	549.333
1402.83	566.222
1405.03	560
1407.24	557.556
1409.44	566
1411.64	555.111
1413.84	564.889
1416.04	567.556
1418.24	556.222
1420.44	565.778
1422.64	563.333
1424.83	559.333
1427.03	552.444
1429.23	569.333
1431.42	559.333
1433.62	565.111
1435.81	558.667
1438	557.111
1440.19	549.111
1442.39	568.444
1444.58	549.333
1446.77	554.667
1448.96	557.556
1451.15	547.333
1453.34	553.555
1455.52	558.667
1457.71	548.444
1459.9	544.889
1462.08	549.778
1464.27	546.444
1466.45	554
1468.64	550.889
1470.82	554.445
1473	554
1475.18	553.111
1477.36	543.778
1479.54	549.778
1481.72	545.556
1483.9	548.889
1486.08	544.667
1488.26	538.445
1490.43	538.889
1492.61	536.889
1494.78	536.222
1496.96	527.333
1499.13	536.667
1501.31	526.667
1503.48	533.556
1505.65	524.889
1507.82	534.889
1509.99	528
1512.16	521.111
1514.33	514.667
1516.5	538.222
1518.67	534.889
1520.84	533.556
1523	540.222
1525.17	530.889
1527.34	538
1529.5	540.444
1531.66	525.333
1533.83	534.667
1535.99	530
1538.15	533.333
1540.31	536.667
1542.47	528.222
1544.63	526.889
1546.79	517.778
1548.95	524.444
1551.11	542.222
1553.27	531.333
1555.42	520.222
1557.58	524
1559.73	537.111
1561.89	542.222
1564.04	531.778
1566.2	529.778
1568.35	556.667
1570.5	554.444
1572.65	547.556
1574.8	558
1576.95	556.222
1579.1	544.444
1581.25	549.111
1583.4	554.444
1585.55	546.889
1587.69	534.889
1589.84	533.111
1591.99	539.333
1594.13	543.111
1596.27	534.444
1598.42	528.444
1600.56	537.556
1602.7	520.667
1604.84	524
1606.98	512.444
1609.12	532.889
1611.26	522.222
1613.4	517.111
1615.54	505.778
1617.68	507.111
1619.81	508
1621.95	508.444
1624.08	492.222
1626.22	497.556
1628.35	488.889
1630.49	496.889
1632.62	506.444
1634.75	495.778
1636.88	496.444
1639.01	489.111
1641.14	494.444
1643.27	487.778
1645.4	490.889
1647.53	492.889
1649.66	490
1651.79	491.778
1653.91	482.222
1656.04	493.111
1658.16	482
1660.29	491.111
1662.41	483.111
1664.53	487.556
1666.66	489.111
1668.78	492.667
1670.9	485.778
1673.02	479.556
1675.14	472.222
1677.26	476.667
1679.38	472.667
1681.49	473.333
1683.61	474.222
1685.73	474.667
1687.84	485.778
1689.96	476
1692.07	488.667
1694.19	481.333
1696.3	480.222
1698.41	477.556
1700.52	471.111
1702.64	467.111
1704.75	473.333
1706.86	485.111
1708.97	481.333
1711.07	474.222
1713.18	469.556
1715.29	472.889
1717.4	478.667
1719.5	467.778
1721.61	465.111
1723.71	471.333
1725.82	472.222
1727.92	462.889
1730.02	465.778
1732.12	459.111
1734.23	458.222
1736.33	466.222
1738.43	457.778
1740.53	451.556
1742.63	461.778
1744.72	458.222
1746.82	460.667
1748.92	452.889
1751.02	459.556
1753.11	453.778
1755.21	459.778
1757.3	450.222
1759.4	451.111
1761.49	447.111
1763.58	452.444
1765.67	448
1767.76	452.222
1769.86	448.667
1771.95	452.444
1774.03	451.333
1776.12	447.778
1778.21	454.444
1780.3	451.111
1782.39	450.889
1784.47	451.556
1786.56	448.444
1788.64	442.667
1790.73	442
1792.81	449.111
1794.89	441.333
1796.98	438
1799.06	445.111
1801.14	449.111
1803.22	445.111
1805.3	448.444
1807.38	441.778
1809.46	446.667
1811.54	453.333
1813.61	432
1815.69	445.111
1817.77	444.667
1819.84	440.667
1821.92	436.222
1823.99	434.222
1826.06	446.444
1828.14	435.333
1830.21	433.556
1832.28	440.667
1834.35	434
1836.42	433.333
1838.49	437.333
1840.56	429.778
1842.63	443.333
1844.7	432.667
1846.77	432.222
1848.83	435.556
1850.9	440
1852.96	420.222
1855.03	414.667
1857.09	442.444
1859.15	428.444
1861.22	428.444
1863.28	430
1865.34	429.111
1867.4	423.111
1869.46	422.889
1871.52	424.444
1873.58	425.111
1875.64	428.444
1877.7	426.667
1879.76	418
1881.81	421.556
1883.87	423.333
1885.92	413.556
1887.98	426.444
1890.03	417.333
1892.09	425.111
1894.14	423.111
1896.19	416.667
1898.24	416
1900.29	424.444
1902.34	416.667
1904.4	426.444
1906.44	418.222
1908.49	419.333
1910.54	424.889
1912.59	420.444
1914.63	423.111
1916.68	426.889
1918.73	412.222
1920.77	416.444
1922.81	412.889
1924.86	411.778
1926.9	413.556
1928.94	417.111
1930.99	424
1933.03	412.667
1935.07	405.111
1937.11	413.778
1939.15	415.778
1941.19	419.111
1943.22	400.444
1945.26	411.778
1947.3	402.667
1949.33	403.111
1951.37	406.889
1953.4	409.556
1955.44	398.667
1957.47	413.333
1959.51	399.111
1961.54	403.111
1963.57	400.667
1965.6	398.889
1967.63	399.778
1969.66	412.444
1971.69	408.889
1973.72	400
1975.75	396.667
1977.78	402.667
1979.8	391.111
1981.83	402.444
1983.86	402.444
1985.88	402.222
1987.91	394.444
1989.93	400
1991.95	385.778
1993.98	399.778
1996	402.222
1998.02	392
2000.04	394.667
2002.06	382.444
2004.08	406.889
2006.1	389.111
2008.12	395.333
2010.14	394.222
2012.15	399.333
2014.17	385.333
2016.19	393.556
2018.2	389.333
2020.22	389.778
2022.23	389.778
2024.25	393.333
2026.26	382.889
2028.27	389.556
2030.28	394
2032.29	392
2034.3	387.778
2036.32	385.778
2038.32	388.222
2040.33	391.556
2042.34	390.222
2044.35	392.222
2046.36	389.111
2048.36	388.667
2050.37	391.111
2052.37	382.667
2054.38	383.556
2056.38	378
2058.39	381.778
2060.39	377.556
2062.39	393.333
2064.39	382.444
2066.39	381.778
2068.39	382
2070.39	382.444
2072.39	375.333
2074.39	382.444
2076.39	373.556
2078.39	381.778
2080.39	375.111
2082.38	371.556
2084.38	375.778
2086.37	369.333
2088.37	386.222
2090.36	372.444
2092.35	367.333
2094.35	370.667
2096.34	371.556
2098.33	374.444
2100.32	371.333
2102.31	369.333
2104.3	371.333
2106.29	373.111
2108.28	366.222
2110.27	365.778
2112.25	372.444
2114.24	371.556
2116.23	373.778
2118.21	365.778
2120.2	365.111
2122.18	363.111
2124.17	370.444
2126.15	358.667
2128.13	357.778
2130.11	364
2132.09	356.667
2134.08	356.667
2136.06	355.111
2138.04	364.667
2140.02	357.111
2141.99	364.222
2143.97	366.889
2145.95	359.556
2147.93	362
2149.9	353.111
2151.88	357.111
2153.85	357.333
2155.83	352.889
2157.8	360.444
2159.77	354.444
2161.75	348.222
2163.72	357.778
2165.69	351.556
2167.66	349.111
2169.63	342
2171.6	353.333
2173.57	354.222
2175.54	351.111
2177.51	350.667
2179.47	360.889
2181.44	347.333
2183.41	352.667
2185.37	350.667
2187.34	350.222
2189.3	343.778
2191.27	346.222
2193.23	347.556
2195.19	352.889
2197.15	339.111
2199.11	342.444
2201.08	349.556
2203.04	351.778
2205	344.444
2206.96	345.778
2208.91	338
2210.87	341.333
2212.83	336.667
2214.79	343.556
2216.74	342
2218.7	347.556
2220.65	347.333
2222.61	341.778
2224.56	337.111
2226.52	341.778
2228.47	340
2230.42	343.333
2232.37	344.444
2234.32	334
2236.27	343.111
2238.22	334.667
2240.17	335.333
2242.12	337.778
2244.07	330
2246.02	332
2247.97	331.111
2249.91	337.556
2251.86	332.222
2253.8	338.667
2255.75	332.444
2257.69	336.667
2259.64	326.667
2261.58	333.333
2263.52	331.333
2265.46	327.556
2267.4	333.778
2269.35	331.111
2271.29	323.111
2273.23	340.222
2275.16	329.556
2277.1	327.333
2279.04	327.111
2280.98	322.444
2282.92	320.444
2284.85	322.667
2286.79	318.222
2288.72	319.778
2290.66	320.889
2292.59	310.222
2294.52	324
2296.46	323.111
2298.39	320.444
2300.32	314.222
2302.25	311.556
2304.18	323.111
2306.11	316.444
2308.04	315.556
2309.97	318.444
2311.9	314.222
2313.83	318.889
2315.75	325.333
2317.68	312.667
2319.61	313.333
2321.53	314.444
2323.46	305.333
2325.38	310
2327.3	310.889
2329.23	311.333
2331.15	299.111
2333.07	304.444
2334.99	311.111
2336.91	308.889
2338.83	307.333
2340.75	307.333
2342.67	305.778
2344.59	312.889
2346.51	311.333
2348.43	310
2350.35	308
2352.26	304.444
2354.18	307.333
2356.09	304.222
2358.01	300.667
2359.92	309.778
2361.83	300.889
2363.75	302.889
2365.66	298.889
2367.57	307.333
2369.48	299.333
2371.39	292
2373.31	306.667
2375.21	294.667
2377.12	299.111
2379.03	307.333
2380.94	293.111
2382.85	297.556
2384.76	295.333
2386.66	292.444
2388.57	293.778
2390.47	297.333
2392.38	294.444
2394.28	304.222
2396.18	292.889
2398.09	292.444
2399.99	293.778
2401.89	283.556
2403.79	292.667
2405.69	286.889
2407.59	292
2409.49	291.778
2411.39	291.556
2413.29	281.556
2415.19	287.556
2417.09	286.444
2418.98	286.222
2420.88	283.111
2422.78	285.333
2424.67	285.556
2426.57	291.111
2428.46	284.667
2430.35	290.444
2432.25	283.111
2434.14	282.222
2436.03	286.667
2437.92	288.889
2439.81	278.667
2441.7	289.333
2443.59	289.111
2445.48	292.222
2447.37	279.333
2449.26	278.667
2451.15	282.222
2453.03	284
