186.85	426.444
189.449	428.889
192.047	417.778
194.645	415.333
197.241	429.333
199.837	424
202.431	426.667
205.025	421.333
207.619	432.889
210.21	426.889
212.802	432
215.392	430.889
217.982	434
220.57	434
223.158	430.222
225.744	429.778
228.331	433.778
230.915	425.778
233.5	433.778
236.083	434.889
238.666	436.889
241.247	442.444
243.827	448.222
246.408	435.111
248.986	435.556
251.565	437.778
254.142	440
256.719	435.778
259.294	434.889
261.868	442.889
264.443	434.222
267.015	437.111
269.587	421.333
272.159	433.556
274.729	423.333
277.298	420.667
279.867	421.556
282.435	426.444
285.001	415.778
287.568	418.222
290.133	423.556
292.697	410.444
295.26	421.111
297.824	421.556
300.385	424.889
302.945	412
305.505	418.667
308.064	413.556
310.623	414.444
313.18	418.222
315.737	417.556
318.292	410.667
320.847	411.778
323.402	411.111
325.955	418.444
328.507	425.333
331.058	412.444
333.609	418.667
336.158	418.444
338.707	422.667
341.255	419.778
343.802	429.556
346.349	428
348.895	429.778
351.439	433.556
353.983	428
356.526	424.667
359.068	428
361.609	430
364.149	422.222
366.689	429.778
369.227	434.667
371.765	435.778
374.302	431.111
376.838	444.222
379.374	456.222
381.908	461.111
384.442	448.222
386.973	433.111
389.505	430
392.036	421.333
394.567	420.889
397.096	426.889
399.625	417.778
402.153	428
404.68	422.667
407.206	432.667
409.73	424.889
412.254	428.889
414.778	428.667
417.301	433.111
419.823	433.333
422.343	438
424.863	431.556
427.383	435.333
429.901	440.444
432.418	452.444
434.935	444
437.451	454.222
439.966	446.222
442.48	440.889
444.993	431.778
447.506	440
450.019	436
452.528	446.222
455.039	439.333
457.549	444.222
460.056	451.556
462.564	450.667
465.07	432.889
467.576	427.333
470.082	422.889
472.585	437.778
475.089	426.222
477.591	428.222
480.093	431.111
482.595	431.556
485.094	436.667
487.594	436.222
490.091	430.222
492.59	436
495.086	440.444
497.582	430.667
500.076	439.556
502.571	431.778
505.064	434
507.558	418
510.049	430.667
512.54	431.778
515.03	432.667
517.518	446
520.008	439.778
522.495	439.778
524.983	422.889
527.468	436.222
529.954	432.444
532.438	426.889
534.921	435.778
537.404	425.778
539.886	427.778
542.366	423.333
544.848	426
547.327	429.556
549.805	429.556
552.284	435.111
554.76	423.111
557.236	438
559.711	437.778
562.186	437.778
564.66	432
567.132	440.444
569.604	433.556
572.076	436.667
574.547	434.222
577.016	424.444
579.484	442.667
581.952	429.556
584.419	437.556
586.887	436
589.352	432.222
591.816	426.667
594.28	432
596.743	422.889
599.205	431.556
601.667	429.333
604.127	425.778
606.588	433.778
609.047	434.444
611.505	430
613.963	437.111
616.419	436.222
618.875	429.778
621.33	443.778
623.784	429.333
626.238	434.444
628.69	432.889
631.142	430.444
633.593	440.444
636.043	439.333
638.493	437.778
640.941	447.333
643.389	432
645.835	437.333
648.281	434
650.727	437.556
653.171	433.556
655.615	442.444
658.058	446.667
660.501	445.111
662.942	444.444
665.382	434
667.822	433.778
670.261	423.111
672.699	438
675.137	427.333
677.574	419.556
680.008	428
682.443	426.444
684.878	432
687.312	435.333
689.743	431.778
692.175	430
694.607	425.111
697.037	434.667
699.466	432.222
701.895	438.889
704.323	439.556
706.749	432.667
709.175	443.333
711.601	439.556
714.025	431.778
716.449	435.778
718.871	436.222
721.294	434.889
723.716	441.111
726.136	439.111
728.556	438.667
730.975	421.333
733.394	429.111
735.812	427.111
738.228	427.778
740.644	432.444
743.058	435.778
745.473	425.333
747.886	432.889
750.3	426.667
752.711	413.333
755.123	429.556
757.533	424.444
759.942	430.444
762.351	422.889
764.759	427.333
767.167	427.333
769.573	430.222
771.979	424
774.383	424.444
776.787	418.889
779.191	424
781.593	441.778
783.994	422.444
786.396	420.667
788.796	438
791.195	420.889
793.595	441.111
795.992	436.667
798.389	445.556
800.786	444.889
803.181	420
805.576	433.556
807.969	432.889
810.363	432.222
812.755	435.111
815.147	431.778
817.537	442.444
819.927	435.556
822.318	425.556
824.706	437.778
827.093	424.667
829.48	428
831.866	417.333
834.251	424.444
836.636	426.222
839.021	424.222
841.404	425.111
843.786	424.222
846.167	418.222
848.548	427.333
850.928	423.556
853.307	432.222
855.685	423.556
858.063	424
860.44	417.111
862.816	425.778
865.192	419.778
867.566	418.889
869.94	426
872.313	423.333
874.685	428.444
877.057	416.667
879.428	420.444
881.798	430.222
884.167	424.222
886.536	429.556
888.902	428.222
891.269	428
893.636	433.778
896.001	434
898.366	421.333
900.73	417.556
903.094	425.778
905.455	424.889
907.817	426.889
910.178	424.667
912.538	429.111
914.898	420.444
917.255	422.667
919.613	422
921.971	413.556
924.327	417.333
926.682	404
929.037	416
931.391	412.444
933.744	411.778
936.096	409.556
938.449	423.556
940.799	413.333
943.149	419.111
945.499	411.556
947.847	411.333
950.195	419.111
952.542	417.778
954.889	411.556
957.235	411.778
959.579	419.111
961.924	419.556
964.266	419.778
966.609	423.111
968.951	413.778
971.292	422
973.632	428.667
975.972	423.111
978.31	419.556
980.649	421.111
982.986	427.111
985.323	429.778
987.659	433.778
989.994	426.222
992.328	438.667
994.662	441.111
996.995	449.556
999.326	466.667
1001.66	462
1003.99	476.222
1006.32	486.222
1008.65	494.222
1010.98	517.333
1013.3	520.444
1015.63	488
1017.96	471.778
1020.28	448
1022.61	432
1024.93	424.444
1027.25	436.889
1029.58	425.556
1031.9	429.111
1034.22	430.667
1036.54	424.667
1038.86	429.333
1041.18	428.222
1043.49	427.778
1045.81	434.889
1048.13	437.778
1050.44	438.444
1052.76	431.556
1055.07	431.333
1057.39	435.778
1059.7	433.778
1062.01	440.444
1064.32	431.111
1066.63	431.778
1068.94	432
1071.25	432.889
1073.56	447.778
1075.87	436.667
1078.17	448.222
1080.48	439.333
1082.79	443.556
1085.09	455.111
1087.39	464
1089.7	461.111
1092	471.556
1094.3	486.667
1096.6	497.778
1098.9	503.111
1101.2	465.778
1103.5	477.111
1105.8	459.333
1108.1	447.111
1110.39	457.556
1112.69	452.222
1114.98	460.222
1117.28	468.889
1119.57	477.111
1121.86	474
1124.16	478.444
1126.45	462.222
1128.74	455.556
1131.03	457.778
1133.32	438.444
1135.61	443.556
1137.89	436.889
1140.18	434.667
1142.47	434
1144.75	444
1147.04	432.889
1149.32	428
1151.61	445.778
1153.89	452.222
1156.17	451.111
1158.45	441.778
1160.73	443.111
1163.01	438.889
1165.29	430.889
1167.57	423.778
1169.85	423.778
1172.12	428.667
1174.4	417.333
1176.68	422.444
1178.95	410.667
1181.22	426.889
1183.5	419.778
1185.77	419.556
1188.04	415.556
1190.31	410
1192.58	410.889
1194.85	406.889
1197.12	411.556
1199.39	416.222
1201.66	414
1203.92	400.444
1206.19	413.778
1208.45	405.778
1210.72	411.778
1212.98	404
1215.25	408.667
1217.51	400.667
1219.77	411.778
1222.03	414.667
1224.29	419.333
1226.55	415.778
1228.81	412.889
1231.07	410
1233.33	411.111
1235.58	412.444
1237.84	420.222
1240.09	420.667
1242.35	417.333
1244.6	422.889
1246.86	420.444
1249.11	418.889
1251.36	419.778
1253.61	420.222
1255.86	412.444
1258.11	411.333
1260.36	418.444
1262.61	426.222
1264.86	417.333
1267.1	418.667
1269.35	422
1271.6	415.778
1273.84	432.667
1276.08	421.778
1278.33	426
1280.57	420.889
1282.81	417.333
1285.05	411.111
1287.29	429.111
1289.53	425.333
1291.77	433.333
1294.01	427.556
1296.25	422.444
1298.48	412
1300.72	416.444
1302.96	417.333
1305.19	430
1307.42	427.333
1309.66	421.778
1311.89	419.778
1314.12	423.778
1316.35	430
1318.58	419.333
1320.81	422
1323.04	425.556
1325.27	426
1327.5	434
1329.73	438.889
1331.95	431.556
1334.18	434.444
1336.4	430
1338.63	436
1340.85	430.667
1343.08	429.556
1345.3	430.444
1347.52	425.556
1349.74	426.667
1351.96	423.556
1354.18	422.889
1356.4	430
1358.61	431.111
1360.83	436.444
1363.05	432.667
1365.27	443.778
1367.48	443.556
1369.69	453.333
1371.91	441.778
1374.12	467.333
1376.33	462
1378.55	468
1380.76	481.778
1382.97	470.222
1385.18	467.333
1387.39	474.444
1389.59	466
1391.8	449.778
1394.01	432.889
1396.21	433.778
1398.42	431.333
1400.63	420.222
1402.83	421.111
1405.03	416.889
1407.24	412.889
1409.44	421.778
1411.64	419.111
1413.84	416.222
1416.04	422
1418.24	416.889
1420.44	414
1422.64	414.889
1424.83	421.333
1427.03	415.778
1429.23	424.222
1431.42	426.444
1433.62	418.444
1435.81	411.111
1438	422.444
1440.19	402.444
1442.39	413.333
1444.58	407.778
1446.77	407.111
1448.96	406.667
1451.15	409.111
1453.34	416
1455.52	408
1457.71	403.111
1459.9	410.889
1462.08	404.889
1464.27	402.667
1466.45	402.222
1468.64	416.889
1470.82	405.556
1473	406.222
1475.18	413.111
1477.36	411.556
1479.54	420.222
1481.72	418.222
1483.9	407.778
1486.08	399.333
1488.26	406
1490.43	392
1492.61	402.667
1494.78	395.556
1496.96	396.222
1499.13	388.889
1501.31	398
1503.48	394.667
1505.65	390
1507.82	387.556
1509.99	399.556
1512.16	394
1514.33	390
1516.5	385.333
1518.67	394
1520.84	397.778
1523	391.333
1525.17	392.889
1527.34	394.889
1529.5	388.222
1531.66	392.667
1533.83	378.444
1535.99	397.778
1538.15	396.667
1540.31	396.889
1542.47	403.111
1544.63	386.889
1546.79	407.111
1548.95	405.778
1551.11	400.889
1553.27	405.333
1555.42	407.556
1557.58	397.778
1559.73	407.111
1561.89	412
1564.04	414.667
1566.2	410
1568.35	412.667
1570.5	415.778
1572.65	416.444
1574.8	414.889
1576.95	419.778
1579.1	412
1581.25	425.333
1583.4	410.222
1585.55	416.667
1587.69	410.667
1589.84	405.556
1591.99	403.111
1594.13	405.111
1596.27	405.111
1598.42	406.667
1600.56	396.222
1602.7	388.222
1604.84	395.778
1606.98	392
1609.12	394
1611.26	383.778
1613.4	382.222
1615.54	380.667
1617.68	381.111
1619.81	377.556
1621.95	378.222
1624.08	384
1626.22	377.556
1628.35	376.222
1630.49	379.778
1632.62	369.556
1634.75	371.556
1636.88	374.222
1639.01	372.222
1641.14	367.556
1643.27	369.111
1645.4	361.333
1647.53	366.667
1649.66	371.111
1651.79	359.778
1653.91	369.556
1656.04	365.111
1658.16	360.889
1660.29	370
1662.41	358.667
1664.53	364.222
1666.66	367.111
1668.78	362.444
1670.9	367.778
1673.02	368.444
1675.14	366.667
1677.26	361.333
1679.38	354
1681.49	372
1683.61	368.889
1685.73	358.222
1687.84	366
1689.96	374.222
1692.07	356.889
1694.19	364.444
1696.3	356.222
1698.41	356.222
1700.52	365.556
1702.64	366
1704.75	372
1706.86	354.889
1708.97	358
1711.07	353.333
1713.18	365.333
1715.29	353.778
1717.4	359.111
1719.5	359.333
1721.61	362.444
1723.71	359.111
1725.82	358.667
1727.92	358.222
1730.02	358.889
1732.12	357.556
1734.23	354
1736.33	349.556
1738.43	346.667
1740.53	347.778
1742.63	345.111
1744.72	352.222
1746.82	340
1748.92	347.111
1751.02	349.556
1753.11	354
1755.21	353.556
1757.3	342
1759.4	350.444
1761.49	335.778
1763.58	346.889
1765.67	354
1767.76	348.889
1769.86	345.333
1771.95	338
1774.03	345.556
1776.12	347.556
1778.21	349.556
1780.3	344
1782.39	346.444
1784.47	351.111
1786.56	342.222
1788.64	356.444
1790.73	346.667
1792.81	342.667
1794.89	341.556
1796.98	345.778
1799.06	344.667
1801.14	348
1803.22	347.556
1805.3	341.556
1807.38	338.444
1809.46	344.222
1811.54	341.556
1813.61	341.111
1815.69	340
1817.77	343.111
1819.84	347.111
1821.92	341.556
1823.99	342.222
1826.06	337.556
1828.14	343.778
1830.21	340.444
1832.28	326.889
1834.35	330
1836.42	333.333
1838.49	338.667
1840.56	334
1842.63	335.778
1844.7	335.111
1846.77	339.556
1848.83	324.444
1850.9	331.333
1852.96	326
1855.03	328.889
1857.09	331.333
1859.15	334.222
1861.22	331.556
1863.28	322.889
1865.34	324.889
1867.4	331.778
1869.46	322.444
1871.52	321.111
1873.58	324.222
1875.64	329.111
1877.7	326.444
1879.76	332.222
1881.81	333.778
1883.87	324.889
1885.92	333.333
1887.98	320.889
1890.03	329.333
1892.09	328.889
1894.14	334.444
1896.19	329.556
1898.24	322.667
1900.29	321.111
1902.34	323.778
1904.4	313.556
1906.44	323.333
1908.49	325.333
1910.54	321.778
1912.59	317.778
1914.63	329.333
1916.68	327.333
1918.73	322.444
1920.77	328.222
1922.81	314.444
1924.86	320.889
1926.9	320.444
1928.94	327.111
1930.99	323.333
1933.03	320
1935.07	323.111
1937.11	320.222
1939.15	314.889
1941.19	318.444
1943.22	311.333
1945.26	317.333
1947.3	319.111
1949.33	318.222
1951.37	315.333
1953.4	313.333
1955.44	318.667
1957.47	318.889
1959.51	310.444
1961.54	307.111
1963.57	308.444
1965.6	316.889
1967.63	304.444
1969.66	310
1971.69	306.444
1973.72	309.556
1975.75	310
1977.78	313.778
1979.8	306.222
1981.83	307.556
1983.86	304
1985.88	315.556
1987.91	308.667
1989.93	310.889
1991.95	306.667
1993.98	308.444
1996	301.556
1998.02	309.778
2000.04	305.556
2002.06	310.444
2004.08	308.889
2006.1	304
2008.12	310
2010.14	299.111
2012.15	304.444
2014.17	305.778
2016.19	305.111
2018.2	302.222
2020.22	302
2022.23	305.333
2024.25	306.889
2026.26	306.667
2028.27	307.778
2030.28	300.222
2032.29	301.333
2034.3	309.778
2036.32	292.667
2038.32	300.222
2040.33	292.667
2042.34	293.556
2044.35	295.556
2046.36	296.889
2048.36	307.778
2050.37	293.556
2052.37	296.444
2054.38	299.111
2056.38	294.667
2058.39	297.556
2060.39	302
2062.39	297.778
2064.39	295.778
2066.39	304.889
2068.39	297.778
2070.39	288.667
2072.39	296.222
2074.39	296
2076.39	294.444
2078.39	283.778
2080.39	298.889
2082.38	297.778
2084.38	288.667
2086.37	293.778
2088.37	290.889
2090.36	296.667
2092.35	289.333
2094.35	294.444
2096.34	291.778
2098.33	292.667
2100.32	296
2102.31	287.778
2104.3	284
2106.29	284.667
2108.28	290.444
2110.27	285.556
2112.25	295.778
2114.24	288
2116.23	285.333
2118.21	290
2120.2	289.111
2122.18	287.778
2124.17	283.778
2126.15	281.778
2128.13	283.111
2130.11	286.444
2132.09	285.111
2134.08	289.556
2136.06	279.778
2138.04	281.556
2140.02	290.889
2141.99	274
2143.97	283.556
2145.95	277.556
2147.93	282.667
2149.9	285.778
2151.88	280.889
2153.85	284.444
2155.83	281.778
2157.8	269.333
2159.77	278.889
2161.75	282.222
2163.72	275.778
2165.69	284.667
2167.66	275.111
2169.63	281.333
2171.6	273.333
2173.57	273.556
2175.54	280.222
2177.51	263.556
2179.47	277.556
2181.44	271.333
2183.41	270
2185.37	277.556
2187.34	275.111
2189.3	277.778
2191.27	278
2193.23	266.889
2195.19	267.778
2197.15	269.778
2199.11	263.778
2201.08	270.444
2203.04	264.222
2205	268.667
2206.96	259.333
2208.91	268.667
2210.87	268.222
2212.83	268.889
2214.79	266.444
2216.74	271.333
2218.7	265.111
2220.65	268.222
2222.61	266.889
2224.56	268.667
2226.52	272.444
2228.47	266.889
2230.42	260.667
2232.37	265.778
2234.32	269.556
2236.27	266.444
2238.22	266.667
2240.17	263.556
2242.12	265.111
2244.07	267.333
2246.02	268.889
2247.97	257.111
2249.91	254.889
2251.86	267.556
2253.8	269.111
2255.75	261.556
2257.69	256.889
2259.64	263.778
2261.58	263.111
2263.52	257.333
2265.46	258.889
2267.4	256.667
2269.35	256.444
2271.29	253.778
2273.23	261.778
2275.16	255.778
2277.1	260
2279.04	258.444
2280.98	259.333
2282.92	255.111
2284.85	254.444
2286.79	260
2288.72	254.667
2290.66	260
2292.59	261.556
2294.52	249.111
2296.46	255.111
2298.39	252.667
2300.32	256.667
2302.25	253.333
2304.18	246.667
2306.11	254.444
2308.04	259.333
2309.97	251.556
2311.9	250.667
2313.83	252.444
2315.75	244.667
2317.68	246.222
2319.61	244.222
2321.53	251.111
2323.46	249.333
2325.38	249.111
2327.3	252.444
2329.23	240.889
2331.15	245.111
2333.07	244.222
2334.99	249.778
2336.91	246.222
2338.83	248
2340.75	240.889
2342.67	242
2344.59	250.667
2346.51	240.667
2348.43	241.778
2350.35	244.222
2352.26	236
2354.18	244
2356.09	237.111
2358.01	238.889
2359.92	239.111
2361.83	237.778
2363.75	238.667
2365.66	233.111
2367.57	240
2369.48	241.333
2371.39	242.444
2373.31	243.111
2375.21	237.111
2377.12	239.556
2379.03	236
2380.94	235.111
2382.85	230.444
2384.76	233.556
2386.66	237.111
2388.57	236
2390.47	235.778
2392.38	225.778
2394.28	236.444
2396.18	235.333
2398.09	230
2399.99	232.222
2401.89	232.667
2403.79	233.778
2405.69	232.444
2407.59	230.444
2409.49	226.889
2411.39	231.111
2413.29	225.556
2415.19	236.444
2417.09	232.889
2418.98	230.222
2420.88	228.667
2422.78	232.889
2424.67	225.333
2426.57	232.889
2428.46	234.222
2430.35	228
2432.25	226.889
2434.14	231.333
2436.03	230
2437.92	229.111
2439.81	222.889
2441.7	227.556
2443.59	230.889
2445.48	230.222
2447.37	222.889
2449.26	229.556
2451.15	230.444
2453.03	226
