186.85	560.222
189.449	573.556
192.047	564.889
194.645	566.444
197.241	574.667
199.837	566.889
202.431	561.333
205.025	558.889
207.619	566.222
210.21	562
212.802	570.222
215.392	559.333
217.982	566.889
220.57	568.222
223.158	578.667
225.744	578.667
228.331	578.222
230.915	584.222
233.5	580.667
236.083	588.222
238.666	589.556
241.247	578.889
243.827	592
246.408	584.222
248.986	579.111
251.565	568.444
254.142	584.444
256.719	578
259.294	575.556
261.868	568.444
264.443	568.889
267.015	559.556
269.587	559.333
272.159	557.111
274.729	554.667
277.298	554.889
279.867	536.889
282.435	544.667
285.001	537.778
287.568	544.222
290.133	544.667
292.697	548.444
295.26	531.778
297.824	536.889
300.385	535.111
302.945	530.889
305.505	536.667
308.064	536
310.623	538.222
313.18	541.778
315.737	533.556
318.292	528.444
320.847	527.333
323.402	524.889
325.955	536.667
328.507	543.556
331.058	542
333.609	541.333
336.158	536.667
338.707	537.778
341.255	536.444
343.802	540.444
346.349	544.667
348.895	548.444
351.439	541.111
353.983	538.444
356.526	540.667
359.068	536.889
361.609	546.444
364.149	534.445
366.689	543.111
369.227	547.111
371.765	547.111
374.302	556.444
376.838	567.556
379.374	588.222
381.908	584.444
384.442	571.778
386.973	555.111
389.505	543.778
392.036	540.667
394.567	537.333
397.096	552.444
399.625	540
402.153	554.222
404.68	546.444
407.206	548.444
409.73	547.778
412.254	546.889
414.778	555.333
417.301	550.667
419.823	552.222
422.343	564.222
424.863	553.778
427.383	568
429.901	557.556
432.418	589.778
434.935	590.222
437.451	584.444
439.966	582.444
442.48	586.222
444.993	569.111
447.506	564.889
450.019	561.556
452.528	555.333
455.039	573.778
457.549	564
460.056	575.111
462.564	556.444
465.07	542.667
467.576	556
470.082	552.667
472.585	545.333
475.089	537.778
477.591	551.111
480.093	549.111
482.595	544.889
485.094	551.111
487.594	555.111
490.091	552.444
492.59	560.889
495.086	556.889
497.582	555.333
500.076	554.889
502.571	546
505.064	549.778
507.558	546
510.049	557.111
512.54	554
515.03	556.889
517.518	553.111
520.008	569.333
522.495	574.222
524.983	558.444
527.468	559.111
529.954	558.667
532.438	552.667
534.921	551.778
537.404	537.111
539.886	548.889
542.366	552.222
544.848	555.778
547.327	548
549.805	557.778
552.284	545.333
554.76	558.444
557.236	557.111
559.711	559.333
562.186	559.333
564.66	549.778
567.132	568.667
569.604	550
572.076	554.445
574.547	558.444
577.016	558.222
579.484	559.556
581.952	573.556
584.419	564.889
586.887	562.444
589.352	556.222
591.816	547.556
594.28	552.222
596.743	558.889
599.205	553.333
601.667	551.111
604.127	559.556
606.588	564.667
609.047	554
611.505	557.556
613.963	562.444
616.419	573.111
618.875	564
621.33	559.111
623.784	558.444
626.238	556.222
628.69	560.667
631.142	562.222
633.593	573.333
636.043	576.667
638.493	560.222
640.941	565.111
643.389	565.333
645.835	570.445
648.281	562.444
650.727	567.778
653.171	570.889
655.615	578.444
658.058	580.889
660.501	583.111
662.942	566.444
665.382	573.556
667.822	566.667
670.261	556.222
672.699	558.444
675.137	570.889
677.574	559.778
680.008	554.222
682.443	554
684.878	564.667
687.312	563.333
689.743	552.667
692.175	555.333
694.607	557.333
697.037	561.333
699.466	561.778
701.895	560.444
704.323	560
706.749	563.111
709.175	561.333
711.601	550.667
714.025	556.667
716.449	570.667
718.871	568.667
721.294	564.222
723.716	571.555
726.136	562.889
728.556	562.667
730.975	557.333
733.394	566.444
735.812	550
738.228	552.222
740.644	560.444
743.058	551.556
745.473	554.889
747.886	554.222
750.3	556.222
752.711	552
755.123	545.778
757.533	548.667
759.942	548.667
762.351	551.111
764.759	557.111
767.167	545.778
769.573	562.222
771.979	543.333
774.383	549.333
776.787	560.444
779.191	558
781.593	552.222
783.994	560.222
786.396	549.778
788.796	554.444
791.195	559.333
793.595	567.556
795.992	569.556
798.389	561.778
800.786	578.667
803.181	567.333
805.576	566.667
807.969	553.556
810.363	558.667
812.755	568.667
815.147	566
817.537	572.222
819.927	565.778
822.318	559.778
824.706	564.889
827.093	548.222
829.48	553.333
831.866	544.445
834.251	544.667
836.636	548.222
839.021	552.889
841.404	557.333
843.786	539.556
846.167	559.111
848.548	550.667
850.928	540.889
853.307	551.556
855.685	550.667
858.063	550.444
860.44	545.556
862.816	539.333
865.192	555.556
867.566	544.444
869.94	541.111
872.313	540.889
874.685	553.111
877.057	545.111
879.428	550
881.798	539.556
884.167	548.889
886.536	554.222
888.902	551.111
891.269	551.556
893.636	549.333
896.001	551.111
898.366	554.444
900.73	550.222
903.094	542.889
905.455	550.222
907.817	540.444
910.178	544.889
912.538	546
914.898	532.667
917.255	532.667
919.613	545.111
921.971	537.111
924.327	535.778
926.682	542.222
929.037	535.111
931.391	541.333
933.744	538.889
936.096	539.778
938.449	545.333
940.799	534
943.149	537.778
945.499	535.333
947.847	540.222
950.195	536.444
952.542	546.445
954.889	532
957.235	538.444
959.579	545.778
961.924	544
964.266	550.445
966.609	546.667
968.951	552.445
971.292	542.444
973.632	555.778
975.972	548.222
978.31	539.778
980.649	560.222
982.986	558.444
985.323	562.444
987.659	568.444
989.994	586.889
992.328	591.778
994.662	617.556
996.995	623.778
999.326	652
1001.66	656.667
1003.99	676
1006.32	687.778
1008.65	706.222
1010.98	721.111
1013.3	709.778
1015.63	674
1017.96	644.889
1020.28	598
1022.61	577.111
1024.93	563.778
1027.25	557.111
1029.58	547.111
1031.9	543.778
1034.22	560.444
1036.54	563.778
1038.86	559.111
1041.18	548.444
1043.49	548
1045.81	562.222
1048.13	568
1050.44	576.444
1052.76	583.778
1055.07	579.333
1057.39	573.333
1059.7	576
1062.01	563.111
1064.32	558.667
1066.63	568.444
1068.94	573.556
1071.25	570.222
1073.56	568.667
1075.87	567.778
1078.17	575.778
1080.48	583.333
1082.79	591.111
1085.09	596.889
1087.39	598.889
1089.7	601.778
1092	622
1094.3	655.111
1096.6	660.444
1098.9	635.333
1101.2	613.333
1103.5	604.667
1105.8	595.111
1108.1	594.222
1110.39	589.556
1112.69	604.222
1114.98	606.222
1117.28	617.333
1119.57	627.556
1121.86	613.778
1124.16	628.667
1126.45	590.667
1128.74	597.333
1131.03	585.778
1133.32	563.111
1135.61	558.444
1137.89	575.333
1140.18	553.556
1142.47	565.778
1144.75	558
1147.04	563.111
1149.32	570
1151.61	572.889
1153.89	582.444
1156.17	580.222
1158.45	561.333
1160.73	551.556
1163.01	556
1165.29	555.556
1167.57	560.444
1169.85	556
1172.12	554.222
1174.4	550.889
1176.68	553.556
1178.95	548.889
1181.22	550.444
1183.5	546.444
1185.77	540.889
1188.04	545.556
1190.31	536
1192.58	537.111
1194.85	532.222
1197.12	533.778
1199.39	530.444
1201.66	534.667
1203.92	531.778
1206.19	530.667
1208.45	524.444
1210.72	536
1212.98	527.778
1215.25	527.333
1217.51	523.333
1219.77	515.556
1222.03	529.333
1224.29	529.778
1226.55	532.444
1228.81	526.889
1231.07	530.444
1233.33	539.778
1235.58	531.556
1237.84	518.889
1240.09	540.444
1242.35	534.889
1244.6	543.111
1246.86	536.667
1249.11	538
1251.36	525.111
1253.61	537.556
1255.86	528.889
1258.11	537.556
1260.36	536.222
1262.61	540.889
1264.86	541.778
1267.1	540.444
1269.35	545.556
1271.6	546.444
1273.84	532.889
1276.08	543.333
1278.33	552.889
1280.57	541.333
1282.81	543.778
1285.05	544.667
1287.29	535.111
1289.53	550
1291.77	555.111
1294.01	552.444
1296.25	550.667
1298.48	545.333
1300.72	539.111
1302.96	542.889
1305.19	529.333
1307.42	538
1309.66	543.333
1311.89	532
1314.12	543.556
1316.35	549.778
1318.58	549.111
1320.81	544.667
1323.04	541.111
1325.27	547.778
1327.5	547.778
1329.73	553.556
1331.95	562
1334.18	562
1336.4	557.556
1338.63	563.556
1340.85	568
1343.08	573.778
1345.3	564.222
1347.52	560.444
1349.74	568.444
1351.96	553.556
1354.18	567.333
1356.4	564.444
1358.61	568
1360.83	584.889
1363.05	574
1365.27	582.445
1367.48	582
1369.69	607.333
1371.91	611.111
1374.12	613.333
1376.33	610.889
1378.55	636.444
1380.76	643.556
1382.97	636.667
1385.18	639.556
1387.39	624.667
1389.59	610
1391.8	589.556
1394.01	583.778
1396.21	568.667
1398.42	560
1400.63	563.111
1402.83	541.333
1405.03	543.778
1407.24	552.444
1409.44	552.444
1411.64	550.667
1413.84	560.445
1416.04	555.778
1418.24	554.444
1420.44	549.333
1422.64	558
1424.83	556.222
1427.03	567.778
1429.23	563.111
1431.42	558.222
1433.62	564.889
1435.81	558.667
1438	562
1440.19	553.556
1442.39	554
1444.58	550.667
1446.77	552.222
1448.96	533.556
1451.15	545.111
1453.34	544.222
1455.52	551.333
1457.71	538.889
1459.9	548
1462.08	540.444
1464.27	528.889
1466.45	533.778
1468.64	534.222
1470.82	528.889
1473	535.778
1475.18	542.444
1477.36	528.889
1479.54	526.667
1481.72	529.556
1483.9	521.556
1486.08	520
1488.26	512
1490.43	507.556
1492.61	500.889
1494.78	499.778
1496.96	497.111
1499.13	507.556
1501.31	508
1503.48	514.444
1505.65	502.667
1507.82	506.667
1509.99	502.889
1512.16	497.556
1514.33	512.667
1516.5	506.222
1518.67	510
1520.84	509.778
1523	496.444
1525.17	509.778
1527.34	511.333
1529.5	513.556
1531.66	503.778
1533.83	508.222
1535.99	501.778
1538.15	506.889
1540.31	510.667
1542.47	505.556
1544.63	516.889
1546.79	524.445
1548.95	530
1551.11	528.889
1553.27	545.111
1555.42	547.556
1557.58	536.889
1559.73	526.667
1561.89	534.445
1564.04	520.667
1566.2	532.889
1568.35	534.222
1570.5	526.667
1572.65	555.111
1574.8	547.778
1576.95	552.889
1579.1	548.667
1581.25	545.778
1583.4	533.111
1585.55	525.333
1587.69	518.222
1589.84	528.444
1591.99	519.333
1594.13	527.111
1596.27	528
1598.42	510.667
1600.56	511.111
1602.7	515.556
1604.84	509.556
1606.98	506
1609.12	503.778
1611.26	500.889
1613.4	491.556
1615.54	486.444
1617.68	483.556
1619.81	491.333
1621.95	482.222
1624.08	486.889
1626.22	490.889
1628.35	483.556
1630.49	474
1632.62	480
1634.75	475.333
1636.88	472.444
1639.01	470.889
1641.14	472
1643.27	465.556
1645.4	471.556
1647.53	457.333
1649.66	468.444
1651.79	468
1653.91	462.222
1656.04	476.667
1658.16	471.778
1660.29	469.556
1662.41	459.111
1664.53	460.889
1666.66	462.667
1668.78	458
1670.9	457.556
1673.02	460.444
1675.14	472.444
1677.26	462.889
1679.38	456.889
1681.49	462.222
1683.61	462
1685.73	454.667
1687.84	458.889
1689.96	463.556
1692.07	461.333
1694.19	454.889
1696.3	460.889
1698.41	455.333
1700.52	450.889
1702.64	462.222
1704.75	463.778
1706.86	461.111
1708.97	452.889
1711.07	454.889
1713.18	454.667
1715.29	452.889
1717.4	454.444
1719.5	471.333
1721.61	444.222
1723.71	462.889
1725.82	450.222
1727.92	446.444
1730.02	449.333
1732.12	450.222
1734.23	457.333
1736.33	440.667
1738.43	446.889
1740.53	438.667
1742.63	440.667
1744.72	441.778
1746.82	436
1748.92	443.333
1751.02	440
1753.11	440.222
1755.21	447.778
1757.3	443.556
1759.4	438
1761.49	440.889
1763.58	441.556
1765.67	433.556
1767.76	426.222
1769.86	436
1771.95	434.667
1774.03	425.556
1776.12	444.667
1778.21	432.667
1780.3	431.111
1782.39	433.778
1784.47	432.889
1786.56	438.444
1788.64	434.222
1790.73	432.444
1792.81	438
1794.89	440.889
1796.98	438.222
1799.06	430.667
1801.14	427.111
1803.22	431.778
1805.3	436.444
1807.38	428.444
1809.46	435.778
1811.54	428.667
1813.61	428.444
1815.69	431.333
1817.77	440.889
1819.84	427.333
1821.92	428.444
1823.99	422.889
1826.06	419.111
1828.14	434.222
1830.21	426.444
1832.28	423.778
1834.35	416.667
1836.42	424.667
1838.49	424
1840.56	413.333
1842.63	420.889
1844.7	412.444
1846.77	414.889
1848.83	423.111
1850.9	416.444
1852.96	405.333
1855.03	416
1857.09	415.333
1859.15	416.222
1861.22	414.444
1863.28	402
1865.34	417.556
1867.4	408.444
1869.46	420
1871.52	413.333
1873.58	410.222
1875.64	415.556
1877.7	402
1879.76	415.556
1881.81	412.222
1883.87	407.111
1885.92	405.556
1887.98	412.222
1890.03	412.222
1892.09	404
1894.14	410.889
1896.19	414.222
1898.24	410.222
1900.29	414.889
1902.34	408.444
1904.4	400.222
1906.44	413.111
1908.49	411.556
1910.54	405.556
1912.59	408.222
1914.63	407.333
1916.68	401.778
1918.73	419.778
1920.77	402.667
1922.81	399.333
1924.86	406.889
1926.9	403.778
1928.94	408.889
1930.99	404.667
1933.03	397.556
1935.07	405.111
1937.11	392
1939.15	400.444
1941.19	399.333
1943.22	387.111
1945.26	388.667
1947.3	394
1949.33	383.778
1951.37	393.556
1953.4	393.333
1955.44	396
1957.47	393.556
1959.51	394.222
1961.54	393.556
1963.57	388.667
1965.6	393.778
1967.63	387.111
1969.66	383.556
1971.69	386.222
1973.72	385.333
1975.75	388.444
1977.78	390
1979.8	385.333
1981.83	386
1983.86	388
1985.88	378.889
1987.91	384
1989.93	374.667
1991.95	379.333
1993.98	381.556
1996	380.222
1998.02	371.111
2000.04	390.889
2002.06	373.556
2004.08	385.556
2006.1	378
2008.12	374.222
2010.14	381.333
2012.15	375.333
2014.17	380.222
2016.19	375.556
2018.2	384.444
2020.22	385.333
2022.23	370
2024.25	374
2026.26	375.778
2028.27	379.111
2030.28	383.778
2032.29	374.667
2034.3	374.667
2036.32	378.667
2038.32	388
2040.33	379.333
2042.34	371.778
2044.35	377.333
2046.36	384.444
2048.36	376.444
2050.37	378.444
2052.37	366.444
2054.38	368.444
2056.38	375.556
2058.39	364.444
2060.39	369.111
2062.39	377.556
2064.39	379.333
2066.39	371.556
2068.39	371.333
2070.39	358.444
2072.39	368.444
2074.39	367.111
2076.39	364.889
2078.39	369.333
2080.39	367.333
2082.38	371.333
2084.38	366.667
2086.37	359.778
2088.37	364.222
2090.36	358.889
2092.35	372.667
2094.35	362.667
2096.34	365.778
2098.33	363.556
2100.32	364
2102.31	357.111
2104.3	358
2106.29	364.667
2108.28	357.333
2110.27	362.444
2112.25	360.667
2114.24	346.667
2116.23	357.111
2118.21	362.667
2120.2	360
2122.18	352.889
2124.17	359.333
2126.15	353.333
2128.13	350.889
2130.11	362.667
2132.09	360.222
2134.08	346.667
2136.06	353.556
2138.04	349.778
2140.02	355.333
2141.99	348
2143.97	353.333
2145.95	350.222
2147.93	354.222
2149.9	344.222
2151.88	345.778
2153.85	351.111
2155.83	343.333
2157.8	352.444
2159.77	342
2161.75	353.556
2163.72	349.333
2165.69	348
2167.66	340.444
2169.63	342.444
2171.6	345.778
2173.57	348
2175.54	344.667
2177.51	341.111
2179.47	337.333
2181.44	332.889
2183.41	340
2185.37	339.333
2187.34	338.444
2189.3	331.111
2191.27	345.111
2193.23	330.667
2195.19	335.333
2197.15	334.444
2199.11	345.333
2201.08	342.222
2203.04	336.667
2205	339.778
2206.96	341.556
2208.91	343.111
2210.87	341.111
2212.83	340.222
2214.79	344.667
2216.74	330.667
2218.7	334
2220.65	327.333
2222.61	333.333
2224.56	328.667
2226.52	327.111
2228.47	329.556
2230.42	330.667
2232.37	334
2234.32	336
2236.27	333.333
2238.22	322.667
2240.17	324.444
2242.12	328.222
2244.07	323.333
2246.02	332
2247.97	326.667
2249.91	320.889
2251.86	320.889
2253.8	312.667
2255.75	330
2257.69	323.111
2259.64	323.333
2261.58	323.111
2263.52	323.556
2265.46	322.444
2267.4	323.556
2269.35	320.444
2271.29	318.889
2273.23	317.111
2275.16	317.778
2277.1	318.667
2279.04	318.444
2280.98	314.444
2282.92	314
2284.85	312.889
2286.79	314
2288.72	316.222
2290.66	319.556
2292.59	310.667
2294.52	307.111
2296.46	315.556
2298.39	308
2300.32	316
2302.25	315.556
2304.18	309.111
2306.11	311.556
2308.04	308
2309.97	308
2311.9	312.889
2313.83	302.889
2315.75	300.667
2317.68	301.111
2319.61	304.222
2321.53	307.111
2323.46	302.667
2325.38	305.556
2327.3	300.889
2329.23	306.667
2331.15	309.778
2333.07	305.333
2334.99	305.333
2336.91	303.111
2338.83	303.111
2340.75	296
2342.67	307.111
2344.59	293.556
2346.51	303.778
2348.43	293.556
2350.35	306
2352.26	298.889
2354.18	292.889
2356.09	296.667
2358.01	292.667
2359.92	294.667
2361.83	292.889
2363.75	303.333
2365.66	292.444
2367.57	292.222
2369.48	293.556
2371.39	295.111
2373.31	287.111
2375.21	292.444
2377.12	290
2379.03	296.444
2380.94	287.111
2382.85	289.778
2384.76	292.444
2386.66	286.222
2388.57	280.667
2390.47	292.667
2392.38	289.778
2394.28	295.333
2396.18	290.889
2398.09	281.556
2399.99	285.556
2401.89	290
2403.79	285.111
2405.69	283.111
2407.59	283.333
2409.49	282.222
2411.39	288.889
2413.29	285.778
2415.19	279.556
2417.09	280.889
2418.98	281.333
2420.88	283.778
2422.78	283.556
2424.67	284.889
2426.57	288.889
2428.46	284.222
2430.35	280.667
2432.25	282.222
2434.14	282.444
2436.03	278.667
2437.92	282
2439.81	276.889
2441.7	274
2443.59	272.667
2445.48	278
2447.37	277.333
2449.26	281.778
2451.15	278.222
2453.03	276
