epoch,beta,learning_rate,train_loss,train_reconstruction_loss,train_kl_unnormalized,train_kl_normalized,mean_unclipped_gradient_norm
1,0.0,0.001,0.08914326734935181,0.08914326734935181,0.07259807556490355,5.181875486431374e-05,0.10941716780265172
2,0.02,0.001,0.08442053123365474,0.08440770916169203,0.8983197272578373,0.0006411989487921751,0.0873865361015002
3,0.04,0.001,0.08119775524622277,0.08110238866338247,3.3401966034611568,0.0023841517512213826,0.08358828226725261
4,0.06,0.001,0.07887593053186996,0.07855463424060918,7.502288468276398,0.005354952511260813,0.08079916487137477
5,0.08,0.001,0.07664758051875271,0.0759948280793202,11.431318584876724,0.00815939941818467,0.08364762365818024
6,0.1,0.001,0.0728013751250279,0.07160535586785667,16.756211799911306,0.01196017972870186,0.10073656837145488
7,0.12,0.001,0.06665830163261559,0.06416841417173796,29.069451489026033,0.02074907315419417,0.12993364036083221
8,0.14,0.001,0.057880955736471125,0.0523151637915569,55.6976709486563,0.039755653782053035,0.1257548506061236
9,0.16,0.001,0.05301830865725686,0.042670731303058096,90.60597711876977,0.06467236054159156,0.12471859157085419
10,0.18,0.001,0.05082287328152717,0.040549270054207574,79.9628798086432,0.057075574452993,0.1735283782084783
11,0.2,0.001,0.04625323994816104,0.03948935159022295,47.3810381346111,0.033819441923348396,0.10091321915388107
12,0.22,0.001,0.0431648121227192,0.03942082982651795,23.842368282849275,0.017018107268272145,0.0806482657790184
13,0.24,0.001,0.04125706290331068,0.03895435312503501,13.442062329642381,0.009594619792749736,0.12160444756348927
14,0.25,0.001,0.03770642208902142,0.03535324500142774,13.18720791007899,0.00941271085658743,0.09322795271873474
15,0.25,0.001,0.03522068780811527,0.03189935200387919,18.612759215922296,0.013285338483884579,0.07473416874806087
16,0.25,0.001,0.03478703077269506,0.03141337908993039,18.90594743173334,0.013494609158981683,0.06177353300154209
17,0.25,0.001,0.034587538412100154,0.03201778101015695,14.400925406926795,0.01027903312414475,0.1023699442545573
18,0.25,0.001,0.03375798444959182,0.03117840072210831,14.455979733527462,0.010318329574252293,0.0393055435270071
19,0.25,0.001,0.03346635071159918,0.030900993820609925,14.376264886011052,0.010261431039265561,0.08183334271113078
20,0.25,0.001,0.032526034626025185,0.03052887480847443,11.192083781278587,0.007988639387065373,0.035169780254364014
21,0.25,0.001,0.0325986033281948,0.030915838960982576,9.430209425431263,0.006731055978180773,0.03761333723862966
22,0.25,0.001,0.032342387103958974,0.030530157793737665,10.155734388134148,0.007248918192815238,0.053551128755013146
23,0.25,0.001,0.03197166446266295,0.03025975021757657,9.593563381629654,0.006847654091098968,0.07090061406294505
24,0.25,0.001,0.03171112327070176,0.02978591809544382,10.788851387893097,0.00770082183290014,0.06833297138412793
25,0.25,0.001,0.0315863113095866,0.02955353238820275,11.391687393188477,0.008131111629684851,0.04251226969063282
26,0.0,0.001,0.0290541099502316,0.0290541099502316,11.234680767300762,0.00801904408800911,0.06969844239453475
27,0.02,0.001,0.02901498834260657,0.028806115913240216,14.631542012661319,0.010443641693548408,0.0684484913945198
28,0.04,0.001,0.02843967386627499,0.02795408399704891,17.007767061643964,0.012139733805598832,0.10167937477429707
29,0.06,0.001,0.027693903474490855,0.02672551310609413,22.61191413975969,0.016139838786409486,0.08406090550124645
30,0.08,0.001,0.02721059706675101,0.02572897543446927,25.946906681302227,0.018520276003784603,0.08559828624129295
31,0.1,0.001,0.026364110928924777,0.024283372596660746,29.151144196715535,0.020807383438055344,0.07084124286969502
32,0.12,0.001,0.02591676243781289,0.023369954616019997,29.733987180492544,0.021223402698424373,0.07922026763359706
33,0.14,0.001,0.025125109791001188,0.022249371119880977,28.77792590177512,0.020540989223251333,0.04605834558606148
34,0.16,0.001,0.024563594285068633,0.021723569076083884,24.86797608001323,0.017750161370459122,0.0351340596874555
35,0.18,0.001,0.024450555278719227,0.02159983813291109,22.18808128260359,0.015837317118203846,0.02745246111104886
36,0.2,0.001,0.024821366478182092,0.02162487969934186,22.391389629508875,0.015982433711283994,0.04039475508034229
37,0.22,0.001,0.024631096309498897,0.021148526239432867,22.177636351766466,0.015829861778562788,0.05342866045733293
38,0.24,0.001,0.024447015522024298,0.020919698349471334,20.590714321860784,0.014697155119101201,0.08534619708855946
39,0.25,0.001,0.02463826824781261,0.021352915847791903,18.41111014160929,0.013141406239549814,0.10403097483019035
40,0.25,0.001,0.023750605603939372,0.02035583025198194,19.024324006672146,0.013579103502264201,0.07372794797023137
41,0.25,0.001,0.023723867309244372,0.02029818834006032,19.197502594959886,0.013702714200542388,0.0502083549896876
42,0.25,0.001,0.023491009433246866,0.0200450948050505,19.31090386306183,0.013783657289837138,0.09838443497816722
43,0.25,0.001,0.02340445818403099,0.020617063428404966,15.620559487161756,0.011149578506182553,0.11589227120081584
44,0.25,0.001,0.023117045058479793,0.020164807668969602,16.54433656040626,0.01180894829436564,0.11023169755935669
45,0.25,0.001,0.022506515908090375,0.019412632182806352,17.338123418107816,0.012375534202789305,0.07334320930143197
46,0.25,0.001,0.022496002290067794,0.01904132874989057,19.359991387475894,0.013818694780496712,0.05633793771266937
47,0.25,0.001,0.02198745027373109,0.01854196808572057,19.308479550518566,0.01378192687403181,0.03094562329351902
48,0.25,0.001,0.02190056674276726,0.018804708354269402,17.349191279350958,0.012383434175125595,0.032922367875774704
49,0.25,0.001,0.021671520805434337,0.01853399990197224,17.582670211791992,0.01255008580427694,0.04000092794497808
50,0.25,0.001,0.02145557270585736,0.018059232060007657,19.03309737579732,0.01358536572148274,0.041735884423057236
51,0.0,0.001,0.017626475424894802,0.017626475424894802,19.276401085189626,0.013759030039393024,0.0326456551750501
52,0.02,0.001,0.017283773214756687,0.016962160226664965,22.528968690316887,0.016080634325707985,0.05167625782390436
53,0.04,0.001,0.017226391813800306,0.016445415471739406,27.35371208190918,0.01952441975867893,0.03372961593170961
54,0.06,0.001,0.017254858808238294,0.015814259884100925,33.637979338440715,0.024009978114518712,0.03719753585755825
55,0.08,0.001,0.017708467814741256,0.015428386935139005,39.9299147883548,0.028501009841795003,0.06822819014390309
56,0.1,0.001,0.01809054679131206,0.015251248178980019,39.7785779252837,0.02839298924003119,0.08081729710102081
57,0.12,0.001,0.01815695320314999,0.014849868320117268,38.61021611660342,0.027559040768453547,0.05954799676934878
58,0.14,0.001,0.01848753360159035,0.015211372883825363,32.785010277470455,0.02340114937720946,0.061434654518961906
59,0.16,0.001,0.018679017271799377,0.015319301628896708,29.41851712480376,0.02099822778358584,0.03804251582672199
60,0.18,0.001,0.01863278630130653,0.015389975726227217,25.23987490014185,0.018015613775975624,0.05072423194845518
61,0.2,0.001,0.01871290647342235,0.01562634895591042,21.621329681782782,0.015432783498774291,0.06961875408887863
62,0.22,0.001,0.018919675457703917,0.015530508046946194,21.582831756978095,0.015405304608835185,0.05523355429371198
63,0.24,0.001,0.01898457989379575,0.015509022847761083,20.288565261454522,0.014481488409318004,0.022914343513548374
64,0.25,0.001,0.018957754125512098,0.01549693465798716,19.394435737706438,0.013843280326699813,0.024117316429813702
65,0.25,0.001,0.019076890536124193,0.015623133782816084,19.354853835286974,0.013815027719690917,0.07086015244325002
66,0.25,0.001,0.01874027547391155,0.015471638734393481,18.317438946494573,0.013074546000353014,0.11636892209450404
67,0.25,0.001,0.018589078767012945,0.014966910940748228,20.298626718641838,0.01448867003471937,0.10369969407717387
68,0.25,0.001,0.018426090195963654,0.014919586196730408,19.65045023568069,0.014026017298844175,0.05445644383629163
69,0.25,0.001,0.01818718060945408,0.014693560491351388,19.5782463942902,0.013974479938822414,0.08365156749884288
70,0.25,0.001,0.018044273451536516,0.014722907137644441,18.612934571278245,0.013285463648307098,0.06390560170014699
71,0.25,0.001,0.017936991928498958,0.014608371649173241,18.653589055507997,0.013314481838335472,0.05792917311191559
72,0.25,0.001,0.017792661167398284,0.014307772634621662,19.529313292684435,0.013939552671437856,0.08106682822108269
73,0.25,0.001,0.01790889461017862,0.014674656187431722,18.12467398824571,0.012936955023729987,0.07199070354302724
74,0.25,0.001,0.017524054344696335,0.014113958076208452,19.110180601289002,0.013640385868157747,0.0560317593626678
75,0.25,0.001,0.017823767836523962,0.014424528360744066,19.049338908135137,0.013596958535428364,0.06770164643724759
76,0.0,0.001,0.014207042895163162,0.014207042895163162,19.46397185023827,0.013892913526222891,0.09925239160656929
77,0.02,0.001,0.013935828746496877,0.013588426658247091,24.33553391468676,0.017370116998348867,0.07411843165755272
78,0.04,0.001,0.014018049534363083,0.013202919695479206,28.549922725822352,0.020378246056975267,0.0746211688965559
79,0.06,0.001,0.013888473587134216,0.012351470009152647,35.889039389694794,0.02561673047087423,0.04969670126835505
80,0.08,0.001,0.014457018527237676,0.012170148365010944,40.048818177814724,0.028585880212572964,0.07318001613020897
81,0.1,0.001,0.014892741896306412,0.011848608680258069,42.648308379740655,0.03044133360438305,0.03962650801986456
82,0.12,0.001,0.01540611268174422,0.011857866474627695,41.42577477950084,0.029568718614918516,0.04391594293216864
83,0.14,0.001,0.015520251084920725,0.011691792054644113,38.311937018285825,0.027346136344243988,0.02718290127813816
84,0.16,0.001,0.015917676559920553,0.012086708853139153,33.544907944111884,0.023943545998652307,0.04075087793171406
85,0.18,0.001,0.01619655608282059,0.012571371926725665,28.216016117530533,0.020139911575682037,0.06299133971333504
86,0.2,0.001,0.016021749299443975,0.012411966306876533,25.28652843040756,0.018048913940333734,0.025388204182187717
87,0.22,0.001,0.016786413031476963,0.013255032911142217,22.488470922542525,0.016051727996104586,0.030771605670452118
88,0.24,0.001,0.017177001867867723,0.013626883325131633,20.723820674268506,0.01479216322217595,0.03841658619542917
89,0.25,0.001,0.016687108368813236,0.013029942006061349,20.494765028168885,0.014628668828100561,0.030432947911322117
90,0.25,0.001,0.016478057691379437,0.012948454734928247,19.779898341697983,0.014118414233902914,0.032850440902014576
91,0.25,0.001,0.016517404042467286,0.012947887583058091,20.003573791890204,0.01427806837394019,0.0395788736641407
92,0.25,0.001,0.016649366839777066,0.012960637954971458,20.67163409462458,0.014754913700659943,0.025982836882273357
93,0.25,0.001,0.016232079531573042,0.012542978282782096,20.673725442041324,0.014756406453990952,0.035520526890953384
94,0.25,0.001,0.016463807583609713,0.013038791999032226,19.193789904630638,0.013700064171756343,0.07931870470444362
95,0.25,0.001,0.0166350535199612,0.013256521565438826,18.93329444112657,0.01351412879452289,0.032149982949097954
96,0.25,0.001,0.0164474864737897,0.013113215353481377,18.685255823256096,0.013337084813173515,0.044222522216538586
97,0.25,0.001,0.016343831332235395,0.012767847544879099,20.039812281161925,0.014303934533306157,0.047200863560040794
98,0.25,0.001,0.016239287685367126,0.012698125848664513,19.844667048393926,0.014164644574156978,0.030740903690457344
99,0.25,0.001,0.016298773851764353,0.012850780700203738,19.322554431384123,0.013791973184428354,0.0710601918399334
100,0.25,0.001,0.016406534546161,0.012783795595169067,20.30183053318458,0.014490956840245954,0.08248002827167511
101,0.25,0.001,0.01632610715548449,0.012707408871265907,20.27918431728701,0.01447479251769237,0.03973173132787148
102,0.25,0.001,0.016195391811713387,0.01260266662870027,20.13363367394556,0.014370901979975419,0.07050009816884995
103,0.25,0.001,0.016094667106112348,0.012708467537466484,18.97626492946963,0.013544800092412298,0.05369583641489347
104,0.25,0.001,0.016299649318562277,0.01294735912233591,18.786235881757133,0.013409161942724577,0.03396879695355892
105,0.25,0.001,0.015839972804430166,0.01230255707721167,19.823675879949256,0.014149661584546221,0.045973822784920536
106,0.25,0.001,0.015851511136640475,0.012271808071321324,20.06065653547456,0.014318812659153862,0.046490591329832874
107,0.25,0.001,0.015826495953753024,0.012249680294926409,20.044472271883034,0.014307260722257697,0.044061570117870964
108,0.25,0.001,0.016032410314000104,0.012547835047486463,19.527557711058027,0.013938299579627427,0.06296764500439167
109,0.25,0.001,0.015648143436712555,0.01209378084521505,19.918647935118855,0.014217450346266135,0.07887079815069835
110,0.25,0.001,0.015444408159089994,0.012064179759236831,18.942801101298272,0.013520914419199339,0.0740875992923975
111,0.25,0.001,0.015393190875743763,0.01203792302904627,18.80292259892331,0.01342107251886032,0.05890062296142181
112,0.25,0.001,0.015488453445178045,0.01218036773225552,18.538511662543574,0.013232342371551443,0.02819553886850675
113,0.25,0.001,0.015621485447959054,0.012263268951468075,18.81944446322284,0.01343286542699703,0.038769143323103585
114,0.25,0.001,0.015482221859731252,0.012105772872985919,18.921620091305503,0.013505795925271593,0.05189624118308226
115,0.25,0.001,0.015263700162213815,0.011959397705578351,18.517312351661392,0.013217210814890358,0.050883094469706215
116,0.25,0.001,0.015170359088084366,0.011907590258442149,18.284557994407944,0.013051076370027084,0.03579770214855671
117,0.25,0.001,0.015346477256168294,0.012114935719608507,18.1095570914353,0.01292616494749129,0.05968419648706913
118,0.25,0.001,0.015235045193871366,0.011799127452924281,19.254882160621353,0.013743670350193686,0.0530887208878994
119,0.25,0.001,0.015123631887703756,0.011556241944243636,19.99165336995185,0.014269559864348217,0.04472321427116791
120,0.25,0.001,0.015282335066342656,0.011799231796419318,19.51931212220011,0.013932414077230627,0.024427302181720734
121,0.25,0.001,0.015189347812269308,0.011844157936829554,18.74644511259055,0.013380760251670627,0.04334685889383157
122,0.25,0.001,0.015000582637288902,0.011788959249476844,17.99793740767467,0.012846493510117537,0.029399439692497253
123,0.25,0.001,0.01499009382309793,0.011799965407463569,17.877477670017676,0.012760512255544379,0.03161118241647879
124,0.25,0.001,0.015111361524160904,0.011865663047455535,18.188894006270395,0.012982793723247963,0.02475735607246558
125,0.25,0.001,0.014862206905985935,0.011512696082833448,18.770658034312575,0.013398042851043951,0.04260424462457498
126,0.25,0.001,0.014989115910816796,0.011589964557014689,19.048843721800214,0.013596605083369176,0.05777375027537346
127,0.25,0.001,0.015110809756796571,0.01160430169039512,19.65047068535527,0.01402603189532853,0.05562830778459708
128,0.25,0.001,0.014822784740524956,0.011439358190739457,18.96072276634506,0.013533706471338372,0.06690242917587359
129,0.25,0.001,0.0152870603377306,0.011855126217101948,19.232561063162887,0.013727738089338248,0.05260869053502878
130,0.25,0.001,0.01496231810578817,0.011496671322214453,19.421485828447945,0.013862588028870767,0.06902799072364967
131,0.25,0.001,0.014821786174102675,0.011334972892286656,19.540104322795628,0.013947255048390884,0.048642740274469055
132,0.25,0.001,0.014752191090602664,0.011361203592600701,19.003095506112786,0.013563951110715764,0.029485853078464668
133,0.25,0.001,0.015062918132053146,0.011782096970024743,18.385721592963495,0.01312328450604104,0.06371642649173737
134,0.25,0.001,0.014588032813766335,0.011191554402908947,19.033865506135964,0.01358591399438684,0.04945967718958855
135,0.25,0.001,0.014906235298589815,0.011447528176764143,19.38259486910663,0.01383482860036162,0.03947032677630583
136,0.25,0.001,0.014987799209318583,0.011528938018445727,19.38345730455616,0.0138354441859787,0.06130566323796908
137,0.25,0.001,0.014769971347119234,0.011305362186571466,19.415670105173618,0.013858436905905509,0.0595167875289917
138,0.25,0.001,0.014572117076833037,0.011281350438919249,18.4414555030533,0.013163066026447753,0.029901014640927315
139,0.25,0.001,0.014734082654873026,0.011527678870324846,17.968686912633196,0.012825615212443395,0.04871464893221855
140,0.25,0.001,0.01438811769166702,0.011158141048177134,18.1007872714272,0.012919905261546896,0.044729297359784446
141,0.25,0.001,0.014421224075404904,0.011213874479732181,17.973988689953767,0.012829399493186129,0.03606670039395491
142,0.25,0.001,0.014211615382493296,0.011014093656705904,17.91891286342959,0.012790087696951884,0.029350971803069115
143,0.25,0.001,0.014608748752293708,0.011506802048769933,17.3833085313628,0.012407786246511635,0.030847841252883274
144,0.25,0.001,0.014354071261573441,0.01113273748019828,18.052353533008432,0.012885334427557767,0.033322794983784355
145,0.25,0.001,0.014078279143741613,0.010736294621248034,18.728481679023066,0.013367938386169212,0.022921501969297726
146,0.25,0.001,0.013986394669907757,0.010748562061145335,18.144812378702284,0.012951329320986641,0.02544381593664487
147,0.25,0.001,0.014191494099324263,0.011111016066957123,17.262999112092995,0.012321912285576728,0.032450794552763305
148,0.25,0.001,0.014039695168597788,0.010968536527568027,17.210773781885074,0.012284635104843022,0.024486187224586804
149,0.25,0.001,0.014157116165549695,0.01097209601887042,17.84885280947142,0.012740080520679101,0.03727578309675058
150,0.25,0.001,0.014133357926260066,0.011012403789577605,17.4898276992991,0.01248381705874311,0.029991639778017998
151,0.25,0.001,0.013915774070575267,0.01077222719175529,17.61643578734579,0.012574186857491641,0.020268360773722332
152,0.25,0.001,0.013838495823401438,0.010649847361860396,17.86918579777585,0.01275459371718476,0.02903770220776399
153,0.25,0.001,0.014005192107509208,0.01078849197424288,18.026387613030927,0.012866800580321861,0.023063514847308397
154,0.25,0.001,0.013833710593701918,0.010599047959416727,18.12704996519451,0.01293865093875411,0.02242232207208872
155,0.25,0.001,0.013970189303442647,0.010803742015946515,17.744771257231506,0.012665789619722702,0.033592406660318375
156,0.25,0.001,0.013825833691354794,0.010626732513214214,17.92776390268833,0.012796405355237923,0.028262168789903324
157,0.25,0.001,0.0138427676232178,0.010625166158321538,18.031439455249643,0.012870406463418731,0.017400175022582214
158,0.25,0.001,0.013847128759267965,0.010624270685771597,18.060897754717477,0.012891433086878998,0.04006471857428551
159,0.25,0.001,0.0140446376503457,0.010750298765546914,18.461474623861193,0.013177355191906633,0.03944725729525089
160,0.25,0.001,0.013539501241868056,0.01024835897444547,18.443562133402764,0.013164569688367427,0.018335705002148945
161,0.25,0.001,0.014006821768759172,0.01082715952085166,17.81882764116118,0.01271864927991519,0.0364769771695137
162,0.25,0.001,0.0137935872366534,0.010618662874249719,17.792275923716872,0.012699697304580208,0.024243566518028576
163,0.25,0.001,0.013622706991773618,0.010380482560471643,18.169426809383346,0.01296889850776827,0.02111288874099652
164,0.25,0.001,0.01372536976786354,0.010485149978931192,18.1581913187534,0.012960878885619842,0.027724032600720722
165,0.25,0.001,0.013772729654572432,0.010570650153993806,17.94445288935794,0.012808317551290464,0.017300831464429695
166,0.25,0.001,0.013648771598369261,0.010518405940147895,17.54256861722922,0.012521462253554048,0.016980842997630436
167,0.25,0.001,0.013556296571711951,0.010398167598096631,17.698154280457317,0.012632515546364966,0.03458979477485021
168,0.25,0.001,0.013570827856376956,0.01022972523741707,18.723539448991605,0.013364410741607142,0.014528520250072082
169,0.25,0.001,0.013753808127079584,0.010405867325165604,18.761860690539397,0.01339176351930007,0.027303297072649002
170,0.25,0.001,0.013496672911451587,0.010360238531345054,17.576577657385716,0.01254573708592842,0.024391844558219116
171,0.25,0.001,0.013845860922732685,0.010757455507977099,17.30742341053637,0.012353621278041663,0.02747824415564537
172,0.25,0.001,0.01332903871477782,0.01015480844704788,17.788388022893592,0.012696922214770586,0.026881299912929535
173,0.25,0.001,0.01336369248507898,0.01031919050065777,17.061389078067826,0.01217800790725755,0.03931034325311581
174,0.25,0.001,0.01354738789362998,0.010565017503273638,16.713202899015403,0.011929481012858961,0.044100621715188026
175,0.25,0.001,0.013500478460535974,0.010385527829580668,17.4561845079253,0.012459803360403497,0.024698485620319843
176,0.25,0.001,0.013421239036642298,0.010204226415179953,18.028138607363157,0.012868050397832375,0.03999671277900537
177,0.25,0.001,0.013194700137157983,0.009992330335080624,17.946080026747307,0.012809478962703288,0.029532968377073605
178,0.25,0.001,0.013375599503139907,0.010260035731841493,17.459618966790693,0.01246225479428315,0.035051651298999786
179,0.25,0.001,0.013188428304429296,0.009917476862857613,18.330412152447277,0.013083805961775358,0.03737200237810612
180,0.25,0.001,0.013357640974978102,0.009995141679633267,18.843446079688736,0.0134499972017764,0.03783640141288439
181,0.25,0.001,0.013140877473014819,0.010032682832849176,17.41832390314416,0.012432779374121456,0.019838396459817886
182,0.25,0.001,0.013244423237216623,0.010296202417981775,16.5218290015112,0.01179288294183526,0.02785458229482174
183,0.25,0.001,0.013101093364950222,0.010135735691631143,16.61786470533926,0.011861430910306397,0.015428092641135057
184,0.25,0.001,0.013318669439965411,0.010256461304011224,17.16061343422419,0.012248831858832398,0.02256182146569093
185,0.25,0.001,0.013097457422674456,0.010017395467509198,17.260668259632737,0.012320248579323867,0.01618432595084111
186,0.25,0.001,0.013050063725419437,0.009930182413398466,17.48381409464003,0.012479524692819438,0.013508506740132967
187,0.25,0.001,0.01306658603628225,0.009895653841144677,17.76990231381187,0.01268372756160733,0.029627833515405655
188,0.25,0.001,0.012950353135791006,0.009775517437654205,17.791780375227145,0.012699343594023658,0.029683324197928112
189,0.25,0.001,0.012841347793612299,0.009724080645113806,17.46916469139389,0.012469068302208343,0.027673502763112385
190,0.25,0.001,0.012883196148691298,0.00980714741575567,17.23817670798,0.012304194652376874,0.02032060983280341
191,0.25,0.001,0.012717394488333146,0.009653182617754122,17.171843661537654,0.012256847724152501,0.020880183825890224
192,0.25,0.001,0.012814452447280099,0.009805215039302278,16.86376535439793,0.012036948861097737,0.0235891987880071
193,0.25,0.001,0.01297078142532065,0.00993705315727599,17.001013816157474,0.01213491350189684,0.037630551805098854
194,0.25,0.001,0.013143653403731841,0.010063556577020053,17.260862978198862,0.012320387564738659,0.04847422863046328
195,0.25,0.001,0.012788180839506131,0.009534996073645882,18.230847829504857,0.013012739350110533,0.037206955874959625
196,0.25,0.001,0.0127637427936815,0.009495706038101565,18.314078053341635,0.013072147075904093,0.021991773198048275
197,0.25,0.001,0.012555562643499314,0.009340813855015779,18.015451986578448,0.012858994993988898,0.0171308519008259
198,0.25,0.001,0.012690052083587344,0.009602779817260518,17.301074305667154,0.012349089440162136,0.018342040789624054
199,0.25,0.001,0.012871465681097176,0.00988242657312864,16.750574956966354,0.01195615628620011,0.015583417688806852
200,0.25,0.001,0.012853573583349397,0.00985800749563341,16.787151747112034,0.01198226391656819,0.023399001297851402
201,0.25,0.001,0.012685162604703933,0.00966951668356793,16.899678604512275,0.012062582872599767,0.016051388966540497
202,0.25,0.001,0.01267980488276557,0.009668528903983061,16.87519153160385,0.012045104590723662,0.03558077352742354
203,0.25,0.001,0.012893930537319636,0.009843201152508772,17.09628670125068,0.012202916988758515,0.021768462223311264
204,0.25,0.001,0.012471913136070288,0.009388537841695773,17.279235332827025,0.012333501308227713,0.01634817911932866
205,0.25,0.001,0.012608447300765333,0.009557161928166318,17.099404443668412,0.01220514235807881,0.01596037329485019
206,0.25,0.001,0.012540602655727652,0.009516086841968797,16.949388866183124,0.01209806485808931,0.012134190648794174
207,0.25,0.001,0.012514768804930434,0.009487568730889242,16.96442898617515,0.01210880013288733,0.02032913515965144
208,0.25,0.001,0.012406905122761484,0.009362720082737978,17.059612901904917,0.012176740115563823,0.029124239459633827
209,0.25,0.001,0.012383971952750712,0.009331849061801463,17.104097197327434,0.012208491932425007,0.020717859889070194
210,0.25,0.001,0.01244950900443747,0.00947660129941717,16.660175009618833,0.011891630984738638,0.016122812405228615
211,0.25,0.001,0.012281544966316676,0.009300205373217034,16.707426433321796,0.011925357911007706,0.013914872271319231
212,0.25,0.001,0.012096608859262888,0.009060416417785837,17.01482063003733,0.012144768472546275,0.017305164597928524
213,0.25,0.001,0.012254535479919065,0.009256124873704549,16.803092328807974,0.011993641919206263,0.020684359905620415
214,0.25,0.001,0.01226485324905643,0.009400345208241215,16.052702493305446,0.011458031758248,0.019408172617355984
215,0.25,0.001,0.012300274759248088,0.009416788061962852,16.159059596967094,0.011533946892910131,0.02458236397554477
216,0.25,0.001,0.012302834693861158,0.009253366296238538,17.089219588267653,0.012197872654009746,0.020256827895840008
217,0.25,0.001,0.012408108497627928,0.009319117693584176,17.310706126539014,0.012355964401526776,0.021216478819648426
218,0.25,0.001,0.012285012079850782,0.009191041458633881,17.338611964938007,0.012375882915730198,0.02384605382879575
219,0.25,0.001,0.012087915210595613,0.008932768037141879,17.681444650963893,0.012620588615962807,0.015137062408030033
220,0.25,0.001,0.012212227664510661,0.009177013400564843,17.00934330421158,0.01214085888951576,0.018106365265945595
221,0.25,0.001,0.012036260971917382,0.009110805095185208,16.394256060636497,0.011701824454415772,0.02157339205344518
222,0.25,0.001,0.012051634431545492,0.009103404593807233,16.521879679040065,0.011792919114232737,0.014053024972478548
223,0.25,0.001,0.012100253631419774,0.009103358228089688,16.794601367998727,0.011987581276230355,0.023637990467250347
224,0.25,0.001,0.01223400684332923,0.009285310454242215,16.524493905562387,0.011794785086054523,0.030001919716596603
225,0.25,0.001,0.012016799819620349,0.009055926771009271,16.59273241743257,0.011843492089530741,0.03013515720764796
226,0.25,0.001,0.011966051333407057,0.009024710689164415,16.48327467713175,0.011765363795240364,0.039349315067132316
227,0.25,0.001,0.012050330002285257,0.009183692734075499,16.064635313009912,0.011466549117066318,0.03808466655512651
228,0.25,0.001,0.012209332170837287,0.009225250646189044,16.72279369981983,0.011936326695089101,0.036521307503183685
229,0.25,0.001,0.012202403284137762,0.009252979243292084,16.52857292754741,0.011797696593538479,0.02929905305306117
230,0.25,0.001,0.01216479489886308,0.009239178704970244,16.395152683499493,0.011702464442183792,0.04280933365225792
231,0.25,0.001,0.011893545489616787,0.00887180686798654,16.93382284912882,0.012086954210655832,0.02075487592568
232,0.25,0.001,0.011979719470667689,0.008967223459312433,16.882027106949046,0.012049983659492539,0.024791367662449677
233,0.25,0.001,0.012159890341985075,0.009256873055820979,16.268510154530972,0.011612070060336169,0.0420407863954703
234,0.25,0.001,0.011900302376362342,0.008963190254908575,16.459576836115197,0.011748448848047963,0.03477180625001589
235,0.25,0.001,0.011974148464070845,0.0090197901937026,16.55622431598132,0.01181743348749559,0.015687413203219574
236,0.25,0.001,0.01193869250673282,0.009072462132177021,16.06235465520545,0.011464921238547787,0.014909457415342331
237,0.25,0.001,0.01178198409137092,0.008889355531693259,16.21029077602338,0.011570514472536318,0.015844897056619327
238,0.25,0.001,0.012035449601332598,0.009034996663656416,16.81453782093676,0.012001811435358145,0.02035493527849515
239,0.25,0.001,0.011843327267826357,0.008883118405466593,16.589010673233226,0.011840835598310654,0.017221766213576
240,0.25,0.001,0.011893899415772928,0.00895678257876182,16.45960233181338,0.011748467046262227,0.011243351735174656
241,0.25,0.001,0.012058863227691832,0.009076938758120883,16.710704320593724,0.01192769758786133,0.02182716379563014
242,0.25,0.001,0.011586897758932053,0.008648313511210152,16.46782601030567,0.011754336909568645,0.017843203619122505
243,0.25,0.001,0.011826147042403493,0.00887411374221497,16.54319524161423,0.011808133648546918,0.014447696506977081
244,0.25,0.001,0.011785125996493086,0.008787249993014185,16.800095787531212,0.01199150306033634,0.01584170510371526
245,0.25,0.001,0.011765549654919135,0.008848181619202788,16.34893200065516,0.011669473233872348,0.012237740059693655
246,0.25,0.001,0.011747901528319227,0.0088407029692508,16.291941292678253,0.011628794641454856,0.01344920260210832
247,0.25,0.001,0.011626054957226108,0.008690378357526621,16.451529949526243,0.011742705174536933,0.013543241346875826
248,0.25,0.001,0.011846545588555215,0.008901576841650884,16.50360585466216,0.011779875699259213,0.013084342082341513
249,0.25,0.001,0.011785245724493944,0.008808871695795391,16.679600800139994,0.011905496645353314,0.01874365285038948
250,0.25,0.001,0.011431675203899039,0.008460759026104514,16.649015825006025,0.011883665827984315,0.020508833850423496
251,0.25,0.001,0.011628394958244848,0.008733995506374896,16.220215568059608,0.01157759854964997,0.014257152875264486
252,0.25,0.001,0.011470508184048194,0.008636927880535397,15.879383425169353,0.011334320788843222,0.009530975017696619
253,0.25,0.001,0.011747273699015001,0.008899354576310026,15.959737463842464,0.01139167556305672,0.01814385534574588
254,0.25,0.001,0.011492764223602753,0.008577845825613299,16.335202579256855,0.011659673504109104,0.014166810239354769
255,0.25,0.001,0.011445142163694659,0.008484979667052438,16.588752070559732,0.011840651013961265,0.011770886369049549
256,0.25,0.001,0.011450371881829033,0.008515186784671077,16.448776003680653,0.011740739474433014,0.012337871206303438
257,0.25,0.001,0.011456141448756563,0.00858924257910893,16.066100543058372,0.011467594962925319,0.01202839178343614
258,0.25,0.001,0.011569982111642632,0.008732275365368474,15.902508796015873,0.011350827120639452,0.01600141078233719
259,0.25,0.001,0.011544200839309753,0.008653718058632898,16.19826640358454,0.011561931765584968,0.013046233293910822
260,0.25,0.001,0.011261663128492198,0.008334281017320066,16.405049589615835,0.011709528615000596,0.011822973843663931
261,0.25,0.001,0.011443263627117194,0.008556500843525687,16.17741780341426,0.011547050537768923,0.01762601888428132
262,0.25,0.001,0.011456217239551906,0.008593425767708428,16.043084253238725,0.01145116649053442,0.01582296844571829
263,0.25,0.001,0.011386592601296267,0.008478394296916224,16.29754160627534,0.011632792010189394,0.018171449502309162
264,0.25,0.001,0.011441046442789368,0.0085649834827909,16.117455687703966,0.011504251026198406,0.01722479642679294
265,0.25,0.001,0.011502572182047217,0.008686392945296403,15.781866025321092,0.011264715221499709,0.016374271052579086
266,0.25,0.001,0.011400778966519651,0.008518177768380581,16.154097895079023,0.011530405349806584,0.02271367112795512
267,0.25,0.001,0.011457316777845727,0.008572532695164031,16.16633111012133,0.01153913712356983,0.025349135200182598
268,0.25,0.001,0.011410178380865084,0.008573356225992305,15.897551838355728,0.011347288963851341,0.020972132061918575
269,0.25,0.001,0.01151549901011624,0.008690654146897642,15.830431177646298,0.01129937985556481,0.017168249934911728
270,0.25,0.001,0.011500445324220235,0.008667863422085214,15.873790571961221,0.011330328745154333,0.02173831593245268
271,0.25,0.001,0.011476879255681098,0.00856431765788341,16.321995892102205,0.011650246889437691,0.0192087705557545
272,0.25,0.001,0.011269694972264616,0.00829109916156983,16.692051513285577,0.0119143836640154,0.015495720009009043
273,0.25,0.001,0.011371591812164723,0.008483242974439753,16.18630829340295,0.011553396355034225,0.012036329135298729
274,0.25,0.001,0.01121036004558017,0.008354013921292145,16.00696380228936,0.011425384584075203,0.015320482663810253
275,0.25,0.001,0.011152165788638441,0.008334396041552478,15.790782035151615,0.01127107925421243,0.019651366863399744
276,0.25,0.001,0.011328517188188395,0.008605694339339491,15.258699211893202,0.010891291371801,0.015578318697710833
277,0.25,0.001,0.0110807085904894,0.00828122891061291,15.68828544133826,0.0111979196583428,0.01231020906319221
278,0.25,0.001,0.011169585623318636,0.008328658776192726,15.920556297785119,0.011363708991995089,0.016478402850528557
279,0.25,0.001,0.011149313583781448,0.008367283234396313,15.59049938298479,0.011128122329039822,0.022005786808828514
280,0.25,0.001,0.011253403487933588,0.008447378213647046,15.724966145768951,0.011224101460220522,0.022270386728147667
281,0.25,0.001,0.011202315257602855,0.008360855988686598,15.923538884030112,0.011365837890100008,0.013730605753759543
282,0.25,0.001,0.011085323588568953,0.008238394956894313,15.954187924348854,0.011387714435652287,0.017764213184515636
283,0.25,0.001,0.011174472107823137,0.00836737089660726,15.730996168112453,0.011228405544691258,0.027910557265082996
284,0.25,0.001,0.011196160217440581,0.008365945701923552,15.86052199255062,0.011320857953283811,0.017580148453513782
285,0.25,0.001,0.01141169088409294,0.008507363321377507,16.275851841214337,0.011617310379167977,0.040831406911214195
286,0.25,0.001,0.01131681694731682,0.00835988281554059,16.570659106290794,0.01182773669257016,0.021827662984530132
287,0.25,0.001,0.011069147057736976,0.008126494574914628,16.49062506760223,0.011770610326625432,0.014019773652156195
288,0.25,0.001,0.011136345989719222,0.008244059838448899,16.208370257027543,0.011569143652410808,0.012176349759101868
289,0.25,0.001,0.011365294963404347,0.008462690642174286,16.266195695611493,0.011610418055397212,0.019749528417984646
290,0.25,0.001,0.011086898737976069,0.008259116129690333,15.84689287596111,0.011311129818673169,0.014845496664444605
291,0.25,0.001,0.011105876781423635,0.008394549129224277,15.194281602207619,0.010845311636122498,0.021492065240939457
292,0.25,0.001,0.011091502418718006,0.008359094975586933,15.31241083748733,0.010929629434323575,0.018023818110426266
293,0.25,0.001,0.011292694867411746,0.008382941460637729,16.30625802052172,0.011639013576389523,0.027342700709899265
294,0.25,0.001,0.01123012285208023,0.008372964567351567,16.011513818668412,0.011428632275994584,0.029970134298006695
295,0.25,0.001,0.01118744747076608,0.008368032064901876,15.800003196619734,0.011277661096802094,0.029827217881878216
296,0.25,0.001,0.011031949303195447,0.008107906236914517,16.386337787290163,0.01169617258193445,0.03892811760306358
297,0.25,0.001,0.011125206546504287,0.008253744768002365,16.09167149700696,0.011485846892938587,0.027154357482989628
298,0.25,0.001,0.011141020439187937,0.008351424484973467,15.632895626599275,0.011158383744895984,0.03451474538693825
299,0.25,0.001,0.011266554257820678,0.008514183538058136,15.4242863956886,0.011009483508699928,0.018099513836205006
300,0.25,0.001,0.01105343288730217,0.00823057134034513,15.819316839870018,0.011291446709400441,0.017108455610771973
301,0.25,0.001,0.011098284580850904,0.008243847261124019,15.99626553209522,0.011417748416913077,0.021794822067022324
302,0.25,0.001,0.011109830740886398,0.0082608587049608,15.965641287308705,0.011395889569813494,0.016744721059997875
303,0.25,0.001,0.010975680160748808,0.008075949205439302,16.250091287154184,0.011598923117169296,0.012467541731894016
304,0.25,0.001,0.01099626355674825,0.008139877992717526,16.00718488572519,0.011425542388097924,0.017367200925946236
305,0.25,0.001,0.011150356582542764,0.00836244946982287,15.623432219782963,0.0111516289934211,0.019254004582762718
306,0.25,0.001,0.01096549259993849,0.008135344585568844,15.860149552550498,0.011320592114597072,0.024632863700389862
307,0.25,0.001,0.011004548095449616,0.008165962658115204,15.90743309938455,0.01135434196958212,0.019427499112983544
308,0.25,0.001,0.010926265021951138,0.008092996499300757,15.877637138849572,0.01133307433179841,0.012099072647591433
309,0.25,0.001,0.010879323617378367,0.008026450512860018,15.987500420099572,0.011411492091434383,0.019193298493822415
310,0.25,0.001,0.010900946404737762,0.00804598418453449,15.999209416063525,0.011419849690266614,0.022278642281889915
311,0.25,0.001,0.010842299607547023,0.007972892786411546,16.080154660381847,0.011477626452806458,0.01561403072749575
312,0.25,0.001,0.010904995818869978,0.008078564441751075,15.839320822607112,0.011305725069669603,0.02200324150423209
313,0.25,0.001,0.010853692959946922,0.008049383794865276,15.715347700481173,0.011217236046025106,0.011820094039042791
314,0.25,0.001,0.010860503073545951,0.008005054213719654,16.001934667176837,0.01142179490876291,0.017920523571471374
315,0.25,0.001,0.01082715181091541,0.00794428210894141,16.15560200848157,0.011531478949665646,0.022149243702491123
316,0.25,0.001,0.010891427061980284,0.008055305768606028,15.893623001967804,0.011344484655223272,0.017213587338725727
317,0.25,0.001,0.010810707236015344,0.008013619404710546,15.674879725975327,0.011188350982137992,0.017858481345077355
318,0.25,0.001,0.010772162069908426,0.0079753436442889,15.673371013206772,0.011187274099362435,0.02357584424316883
319,0.25,0.001,0.010761077551147606,0.008005988006067426,15.439521161815788,0.011020357717213268,0.017831696818272274
320,0.25,0.001,0.010752517364541941,0.008017139603631407,15.32905684845357,0.010941510955355867,0.015553236318131288
321,0.25,0.001,0.010742829971109764,0.007971892369133008,15.528334738333013,0.01108375070544826,0.012464917885760466
322,0.25,0.001,0.01084342521108404,0.008106170410785494,15.339577336854573,0.01094902022616315,0.011881742471208176
323,0.25,0.001,0.010728006663767598,0.007968839564466779,15.462371089790441,0.01103666744453279,0.013875442246596018
324,0.25,0.001,0.010774068416485304,0.007966792977214613,15.731971861440924,0.01122910197104991,0.01881328597664833
325,0.25,0.001,0.010646310469866553,0.00784086295745418,15.72172801102264,0.011221790157760628,0.02061736211180687
326,0.25,0.001,0.010831911965638777,0.0080528339500763,15.57395403898215,0.011116312661657494,0.02328250991801421
327,0.25,0.001,0.010725464848683605,0.007951057362782805,15.547779228113875,0.011097629713143379,0.0104966318855683
328,0.25,0.001,0.010651073147413096,0.00784328576365981,15.734841213950627,0.011231150045646414,0.016876296140253544
329,0.25,0.001,0.01061639605868089,0.007817393510684938,15.685609624355655,0.01119600972473637,0.009413695894181728
330,0.25,0.001,0.010637364432781557,0.007865696780006343,15.532427329051343,0.011086671897966697,0.012104770789543787
331,0.25,0.001,0.010569218982341168,0.007846087712464454,15.260429503042486,0.010892526411879004,0.010577366997798284
332,0.25,0.001,0.010664130596420433,0.007943002884335157,15.249200386337087,0.010884511339284145,0.013970794311414162
333,0.25,0.001,0.01062692972961106,0.00787725639116915,15.409169728242897,0.01099869359617623,0.020955974857012432
334,0.25,0.001,0.010649977346198469,0.007927515614730648,15.256675816789459,0.010889847121191619,0.026986395319302876
335,0.25,0.001,0.01083627067317691,0.00800992902721974,15.83881916577303,0.011305366999124218,0.028100597982605297
336,0.25,0.001,0.010669622027987167,0.007766475181885158,16.269237071652956,0.01161258891624051,0.022574002544085186
337,0.25,0.001,0.01065678757768643,0.007840193077167379,15.784196708775774,0.011266378807120466,0.022675981745123863
338,0.25,0.001,0.010656708992923362,0.007947456657509261,15.182648972619939,0.010837008545767265,0.01775749648610751
339,0.25,0.001,0.0106027960965905,0.007914520240141243,15.06509679480444,0.01075310263726227,0.017607629920045536
340,0.25,0.001,0.01062555874025897,0.007897140175292763,15.29005790662162,0.010913674451550049,0.022331060220797855
341,0.25,0.001,0.010671152638955206,0.007852112662188614,15.797899535939663,0.011276159554560787,0.01618950969229142
342,0.25,0.001,0.010670268978876404,0.007810548678794994,16.025872411607185,0.011438881093224258,0.01529222602645556
343,0.25,0.001,0.010610350608071195,0.007792222290005111,15.792790424974658,0.01127251279441446,0.027644371303419273
344,0.25,0.001,0.010649418458342552,0.007812040333364961,15.900668458093572,0.011349513531829815,0.014638912243147692
345,0.25,0.001,0.010626548476800134,0.007819478771401734,15.730817649937883,0.011228278122725113,0.010673709834615389
346,0.25,0.001,0.010581376526174666,0.0077779419260406045,15.710446261152436,0.011213737516882538,0.014018379151821136
347,0.25,0.001,0.010597788622673554,0.00774101714921903,16.009349219406708,0.011427087237263888,0.0216773080949982
348,0.25,0.001,0.010481239485118208,0.0076824754028569295,15.684273417991928,0.011195055972870755,0.027239641174674034
349,0.25,0.001,0.0105677501098076,0.00789637982114395,14.970359584953211,0.010685481502464818,0.020672274753451347
350,0.25,0.001,0.010542353120031236,0.007866156688313695,14.997405438483517,0.010704786180216643,0.02005345979705453
351,0.25,0.001,0.01056220593473202,0.00782598374717975,15.333787700797938,0.01094488772362451,0.014162719870607058
352,0.25,0.001,0.010676750936840155,0.007940221707560594,15.335510374624517,0.01094611732664134,0.014039418660104275
353,0.25,0.001,0.010462092365362222,0.007665075786128829,15.674481633343275,0.011188066833221467,0.01967178750783205
354,0.25,0.001,0.010472074316083631,0.007638108386080476,15.881544620175905,0.01133586339769872,0.0178048275411129
355,0.25,0.001,0.010481523998270306,0.007705224170997928,15.55838454524173,0.011105199532649343,0.020855293919642765
356,0.25,0.001,0.01071373993365825,0.007927670827300488,15.613130533242527,0.01114427589810316,0.031846197322010994
357,0.25,0.001,0.010579848331929763,0.007724367594935849,16.00211546692667,0.011421923959262436,0.03202783316373825
358,0.25,0.001,0.010471538039325158,0.007644101435059234,15.844954164722298,0.011309746013363525,0.02198357880115509
359,0.25,0.001,0.010445986119912395,0.007731261279999833,15.213318221176728,0.010858899515472325,0.015747233293950558
360,0.25,0.001,0.010531075298786163,0.007832014001905918,15.125539067425306,0.010796244873251468,0.01985641134281953
361,0.25,0.001,0.010375752078392838,0.007636545756478099,15.350513047809843,0.010956825872812164,0.012935376726090908
362,0.25,0.001,0.010321901639616942,0.007526144355865596,15.66742311550092,0.011183028633476746,0.015073142480105162
363,0.25,0.001,0.01047577798555169,0.007694933846404281,15.583852816231643,0.011123378170044,0.01987312827259302
364,0.25,0.001,0.010404184602106674,0.007673448299446815,15.303045997136756,0.01092294503721396,0.029930048001309235
365,0.25,0.001,0.010388555806837504,0.007676406115104881,15.198886943768851,0.010848598817822163,0.024141866713762283
366,0.25,0.001,0.010565219175872168,0.00783487666940576,15.300840426094924,0.010921370753815078,0.031130177900195122
367,0.25,0.001,0.010415584815642502,0.0076339998860147935,15.588002385972421,0.011126340032814005,0.02189898770302534
368,0.25,0.001,0.010428156208577035,0.007598048111400272,15.859923592096642,0.011320430829476548,0.015874589482943218
369,0.25,0.001,0.010400758065943476,0.007572826210267936,15.847729574275922,0.011311727033744412,0.011372821871191263
370,0.25,0.001,0.010589964475624169,0.0077681405045375036,15.813502685933173,0.011287296706590417,0.021832052618265152
371,0.25,0.001,0.010431478436611876,0.007544307321121421,16.17970574053028,0.011548683612084425,0.015524909210701784
372,0.25,0.001,0.010310009675972823,0.007463476585247849,15.951971404160126,0.011386132337016507,0.011882856488227844
373,0.25,0.001,0.010473115664399877,0.007715672755590345,15.452709801589386,0.01102977145009949,0.015566961218913397
374,0.25,0.001,0.010234510785416711,0.007491740427581193,15.37048554722267,0.010971081761044018,0.02066749582688014
375,0.25,0.001,0.010370994729426089,0.007701465294142312,14.960043436364282,0.01067811808448557,0.02010414842516184
376,0.25,0.001,0.010349479515718508,0.007713757956376936,14.770582899262633,0.010542885723956197,0.01496837567538023
377,0.25,0.001,0.010228629907758175,0.0075263961960997765,15.14331874364539,0.01080893557719157,0.01270862358311812
378,0.25,0.001,0.010301162877792045,0.00757663738265445,15.268240868290768,0.010898101975939163,0.017621864875157673
379,0.25,0.001,0.01036926393126008,0.007654576821700681,15.213106614124927,0.010858748475463902,0.01598379760980606
380,0.25,0.001,0.010255531631881677,0.00750485222338687,15.414806703977947,0.011002717133460347,0.020053688747187454
381,0.25,0.001,0.010273462420777429,0.007521785271082875,15.420397191108028,0.011006707488299806,0.01504004467278719
382,0.25,0.001,0.010286965867197967,0.007563221910850534,15.263861776907232,0.01089497628615791,0.01891482962916295
383,0.25,0.001,0.01038236627237329,0.007620354218384888,15.478315618973744,0.011048048264792108,0.013932616139451662
384,0.25,0.001,0.010394592003165922,0.007640555689606486,15.433620259731631,0.011016145795668545,0.021971976074079674
385,0.25,0.001,0.010231295506222338,0.007443590231145485,15.622299797927276,0.011150820698020897,0.012467168581982454
386,0.25,0.001,0.010379065158246438,0.007575879545434367,15.70905326891549,0.011212743232630613,0.019477883353829384
387,0.25,0.001,0.010484042966478988,0.007707386536971677,15.560383543183532,0.011106626369153128,0.01983054665227731
388,0.25,0.001,0.010412099759412718,0.00757803681860619,15.882089276857014,0.011336252160497513,0.01856049771110217
389,0.25,0.001,0.010299623366209525,0.007403831003540301,16.228022140792653,0.011583170692928375,0.0181224358578523
390,0.25,0.001,0.010349475554650343,0.007541705594881426,15.734741693810571,0.011231079010571429,0.017259480742116768
391,0.25,0.001,0.010252926368973677,0.007543949587152729,15.181106265587143,0.010835907398706027,0.010241750006874403
392,0.25,0.001,0.010300123003087466,0.007571665098584151,15.29027936428408,0.01091383252268671,0.009379581237832705
393,0.25,0.001,0.010329489112843442,0.007586796997893083,15.37004832979999,0.010970769685795854,0.010533316992223263
394,0.25,0.001,0.010212265497332887,0.0074937449756396724,15.234588767908797,0.010874081918564451,0.009731253453840813
395,0.25,0.001,0.010265944136565999,0.007523990743145158,15.365905339204811,0.010967812519061251,0.009636584824572006
396,0.25,0.001,0.010369948323674594,0.007617075803772181,15.427097851717019,0.011011490258184882,0.012505831196904182
397,0.25,0.001,0.010198814782632303,0.0074323526925489875,15.503254636933532,0.01106584913414242,0.014143066325535377
398,0.25,0.001,0.010264102416702463,0.007444630176583423,15.80032305174236,0.01127788940167192,0.017853315609196823
399,0.25,0.001,0.010147145501326156,0.007388385572718291,15.460089430024352,0.011035038850838225,0.020146708004176617
400,0.25,0.001,0.010172174229652067,0.00745547812172695,15.224365089513078,0.010866784503578215,0.0266486257314682
401,0.25,0.001,0.010287082813019995,0.007593471391857425,15.09499781644797,0.0107744452651306,0.03377334773540497
402,0.25,0.001,0.010315065531508077,0.007563984504889084,15.417059258569646,0.011004324952583616,0.03815630388756593
403,0.25,0.001,0.01029420094682446,0.0075127459543792505,15.587272813048545,0.011125819281262344,0.027729588871200878
404,0.25,0.001,0.010260313725735567,0.007528886800231059,15.30691616444648,0.010925707469269437,0.02928121325870355
405,0.25,0.001,0.010326090964335429,0.007634275993685933,15.084930564783797,0.010767259503771446,0.03060221920410792
406,0.25,0.001,0.010125571072007282,0.007400167233581784,15.273162962515142,0.010901615248047924,0.021359320419530075
407,0.25,0.001,0.010152028908929493,0.007421306794202781,15.302966721450225,0.010922888452141488,0.017940195898214977
408,0.25,0.001,0.010280716386211069,0.007562690697421756,15.231815905510624,0.010872102716281673,0.019397528221209843
409,0.25,0.001,0.0102111364750168,0.007413649866711112,15.677116683766812,0.01118994766864155,0.016058507064978283
410,0.25,0.001,0.010173281053481977,0.007344734536696084,15.851174414912357,0.011314185877881768,0.010672641141961018
411,0.25,0.001,0.010114781534935854,0.007330272853657414,15.604385412192043,0.011138033841678831,0.02008360003431638
412,0.25,0.001,0.01019694621945861,0.007506762088948413,15.075792710992355,0.010760737124191545,0.01656937537093957
413,0.25,0.001,0.010145577413466158,0.007457421379328906,15.064426917064038,0.01075262449469239,0.011767941527068615
414,0.25,0.001,0.010271193011652064,0.007552096042546291,15.23782049251508,0.010876388645621042,0.024450805659095447
415,0.25,0.001,0.010125532439803775,0.007443268087845814,15.031408985958823,0.010729057092047696,0.023989859347542126
416,0.25,0.001,0.010182118762425984,0.007495106056426899,15.058019867426232,0.010748051297234999,0.01839972784121831
417,0.25,0.001,0.010251425324550157,0.007488016274910939,15.486143848564051,0.011053635866212741,0.014350207212070623
418,0.25,0.001,0.010098647043297562,0.00732851655611509,15.523810133149352,0.011080521151427089,0.010894634760916233
419,0.25,0.001,0.010120120347489285,0.007343820296227932,15.558385233335857,0.01110520002379433,0.011514882246653238
420,0.25,0.001,0.010160522747643386,0.007333114790388301,15.844793681856952,0.01130963146456599,0.013999095807472864
421,0.25,0.001,0.010105346683177013,0.007329847545752042,15.553896203825746,0.011101995862830654,0.012101325206458569
422,0.25,0.001,0.01011953851844691,0.007413786835968494,15.163032664528377,0.010823006898307192,0.011658743023872375
423,0.25,0.001,0.010193200805519201,0.007486246390669029,15.16977137553541,0.010827816827648402,0.016394035890698433
424,0.25,0.001,0.010122060716812369,0.007374135252748487,15.399374322046208,0.010991701871553326,0.01616021975254019
425,0.25,0.001,0.010174338458270966,0.007354844461749249,15.800444011446796,0.011277975739790717,0.011722275676826635
426,0.25,0.001,0.010172034861354888,0.007297266050701654,16.110203634334518,0.01149907468546361,0.016546777449548244
427,0.25,0.001,0.010238306054586097,0.007438629158312762,15.689389071887053,0.01119870740320275,0.012852948469420275
428,0.25,0.001,0.010112528123338765,0.007397844037630513,15.213088035583496,0.010858735214549248,0.012098272641499838
429,0.25,0.001,0.010042954047646704,0.007383461440382879,14.903797789465022,0.010637971298690237,0.01349070823440949
430,0.25,0.001,0.009976370330852798,0.007344798750798159,14.74732697160938,0.010526286203861085,0.009928641530374685
431,0.25,0.001,0.010061828148421607,0.0073812539229476,15.021937201294717,0.01072229636066718,0.013979814325769743
432,0.25,0.001,0.01008944613033835,0.007341450581303503,15.399766692632362,0.010991981936211535,0.021769864795108635
433,0.25,0.001,0.010099339039548289,0.007270799802404039,15.8511355919174,0.011314158166964596,0.014882174941400686
434,0.25,0.001,0.010088472002291982,0.007244149759364656,15.939582631557803,0.011377289530019844,0.017972058306137722
435,0.25,0.001,0.009959597340961801,0.0072009862412380264,15.459257089639012,0.0110344447463519,0.01906566011408965
436,0.25,0.001,0.009945579816268969,0.007291870521782319,14.871387397186666,0.010614837542602902,0.018376778190334637
437,0.25,0.001,0.010101168805473968,0.007457858423077607,14.813112922861606,0.010573242628737763,0.023496244102716446
438,0.25,0.001,0.010087970903591264,0.007428763664174306,14.902198405205448,0.010636829696791897,0.020310526713728905
439,0.25,0.001,0.010033281248864493,0.007281717543690642,15.419762430311758,0.011006254411357429,0.019434433119992416
440,0.25,0.001,0.010082231575175177,0.007294825637783808,15.620622936683365,0.011149623794920318,0.01162304263561964
441,0.25,0.001,0.0100915216357459,0.007298083527933193,15.65442646606059,0.011173751938658523,0.019903364901741345
442,0.25,0.001,0.010035049877589262,0.007184515176694604,15.974397369577915,0.011402139450091303,0.022731928154826164
443,0.25,0.001,0.010096490607137167,0.0072945136565102054,15.70227923574327,0.011207908091180064,0.020878272751967113
444,0.25,0.001,0.01008051736398211,0.0073728231901798065,15.17391977430899,0.010830777854610271,0.014389032498002052
445,0.25,0.001,0.009991799233646332,0.007278618803601476,15.204664399352255,0.010852722626232873,0.01801039728646477
446,0.25,0.001,0.00990463707218819,0.007167060116801081,15.341382449186302,0.010950308671796076,0.015439875423908234
447,0.25,0.001,0.009981478210774403,0.007242793193723582,15.347590784483318,0.010954740031751118,0.011972929971913496
448,0.25,0.001,0.009878295933521247,0.0071407710850427426,15.341089031364344,0.01095009923723365,0.013145875806609789
449,0.25,0.001,0.010033962870889071,0.007312353199371431,15.251901964598064,0.010886439660669567,0.013033897305528322
450,0.25,0.001,0.010053435741346093,0.0073592498061494736,15.098217686520346,0.010776743530706885,0.012310083334644636
451,0.25,0.001,0.009878665515327756,0.0071509169956928565,15.286304425589647,0.010910995307344502,0.023049948116143543
452,0.25,0.001,0.009966609704815135,0.00727736220188156,15.070543337471877,0.010756990248017042,0.012243492528796196
453,0.25,0.001,0.010188610587693468,0.00747218672657692,15.222839777982689,0.010865695773006915,0.02072734882434209
454,0.25,0.001,0.010024334952423844,0.0072304321146464045,15.657032640674446,0.011175612163222303,0.014189915421108404
455,0.25,0.001,0.009972710964045946,0.007156920265642148,15.779691563376897,0.011263163143024195,0.01694974893083175
456,0.25,0.001,0.009919935412987878,0.0072060352415317976,15.208698997014686,0.010855602424707128,0.011256172632177671
457,0.25,0.001,0.009930249185690397,0.007277548584285416,14.865733231170267,0.010610801735310683,0.012389369308948517
458,0.25,0.001,0.009887740157450302,0.007220986104700007,14.94448974464513,0.010667016234578965,0.014935078720251719
459,0.25,0.001,0.009857399224103251,0.007163435922157538,15.096970352945448,0.010775853214093824,0.010981936939060688
460,0.25,0.001,0.009839078305359883,0.007088008937956412,15.416994553578052,0.011004278767721665,0.011052838216225306
461,0.25,0.001,0.009957894895084297,0.007206935859933684,15.416374906708922,0.011003836478735847,0.0128827264222006
462,0.25,0.001,0.009938559377023691,0.007173556138914597,15.495077543620821,0.011060012522213291,0.01660138585915168
463,0.25,0.001,0.00982078292135951,0.0070410398353787165,15.577681324149989,0.011118973107887216,0.012720154287914434
464,0.25,0.001,0.009858518709204619,0.007117734384970574,15.359355866154537,0.010963137663208092,0.018727438524365425
465,0.25,0.001,0.00993896598774421,0.007242102270262151,15.11322570752494,0.010787455894022083,0.014069240229825178
466,0.25,0.001,0.009813031110959717,0.007092709187418222,15.244683881349202,0.010881287566987296,0.012483893738438686
467,0.25,0.001,0.009850363730441165,0.007131471746612953,15.236670385433149,0.010875567726933011,0.01665052802612384
468,0.25,0.001,0.009934269445889357,0.007291228651906116,14.811600274677518,0.010572162936957544,0.013169892442723116
469,0.25,0.001,0.009818517284680016,0.007098292961386563,15.244137715689744,0.010880897727116163,0.0176461994027098
470,0.25,0.001,0.0099033898190607,0.007128458198961578,15.55071690716321,0.011099726557575454,0.020971031859517097
471,0.25,0.001,0.00978405323303953,0.0070707759690247,15.205203949650631,0.010853107744218866,0.015571775225301584
472,0.25,0.001,0.00989854018663681,0.007222882112417417,14.994386516039885,0.010702631346209768,0.010773614359398683
473,0.25,0.001,0.009978404716600347,0.00735259853020499,14.715016630631458,0.0105032238619782,0.011393365760644278
474,0.25,0.001,0.00982751959015297,0.0071422107093319104,15.04847021947933,0.010741234988921721,0.008548833740254244
475,0.25,0.001,0.009891681432063822,0.007144664042876868,15.394284912302524,0.010988069173663472,0.024828772991895676
476,0.25,0.001,0.010038454403888576,0.007271509546833702,15.505960367902924,0.011067780419630923,0.020382129897673924
477,0.25,0.001,0.009812591903949086,0.006971512255082025,15.921410307099547,0.01136431856324022,0.013688210397958755
478,0.25,0.001,0.010066259039353721,0.007348547017649759,15.230057571507707,0.010870847659891297,0.02580588993926843
479,0.25,0.001,0.009840653549078145,0.007189174176818585,14.85888961598843,0.010605916927900378,0.019649644382297993
480,0.25,0.001,0.009844562522123885,0.007208752133470925,14.77108168300194,0.010543241743755845,0.018254095688462257
481,0.25,0.001,0.009829773933072633,0.007200046206671226,14.736994719203514,0.01051891129136582,0.014435181394219398
482,0.25,0.001,0.009812536342894728,0.007184429730795607,14.72790918470938,0.010512426256038102,0.018899789080023766
483,0.25,0.001,0.00974586011865471,0.007057364381661144,15.066329219673253,0.01075398231240061,0.010157948670287928
484,0.25,0.001,0.009824470911599412,0.007093925724584091,15.301975008807604,0.010922180591582873,0.013835740586121878
485,0.25,0.001,0.009851254652478273,0.007098228835701188,15.427957160563409,0.011012103612108071,0.01228204183280468
486,0.25,0.001,0.009923891435506978,0.0071646420615194715,15.462832414651219,0.011036996727088664,0.01439054993291696
487,0.25,0.001,0.009732876055508474,0.00695862533241699,15.54690128036692,0.011097003055222642,0.015478874246279398
488,0.25,0.001,0.009839187706290166,0.007113900265503156,15.27250929723812,0.01090114867754327,0.018175669014453888
489,0.25,0.001,0.009722395599642886,0.007082214502358361,14.795574152016941,0.010560723877242642,0.022233719006180763
490,0.25,0.001,0.009893432389237459,0.0072768698741174954,14.663215673422512,0.0104662495884529,0.03632122464478016
491,0.25,0.001,0.009889951836364933,0.007192046175227512,15.119064777712278,0.01079162368145059,0.038035123298565544
492,0.25,0.001,0.009907196323045446,0.007178098346472163,15.293864141536664,0.010916391250204613,0.02692785890152057
493,0.25,0.001,0.009756626313717305,0.007021937778667558,15.325195433218267,0.010938754770319963,0.02627442715068658
494,0.25,0.001,0.009743418674208696,0.007047499406233996,15.107931306090537,0.01078367687800895,0.025338795656959217
495,0.25,0.001,0.00990604111759723,0.007184872085440762,15.249432044693187,0.010884676691429826,0.019917938237388928
496,0.25,0.001,0.00975791603043864,0.006999672042748219,15.457198625878442,0.011032975464581329,0.01906031711647908
497,0.25,0.001,0.009759060189693788,0.0070838338129599636,14.991968299769148,0.010700905281776694,0.01223150392373403
498,0.25,0.001,0.009743515578912029,0.007089269760100147,14.874395539488974,0.010616984682004978,0.013894207154711088
499,0.25,0.001,0.00984423585188917,0.0071591485610019556,15.04722981513301,0.010740349618224846,0.018889553534487884
500,0.25,0.001,0.009730767977388598,0.006998617927060474,15.310968869849097,0.010928600192611776,0.019611384719610214
