epoch,beta,learning_rate,train_loss,train_reconstruction_loss,train_kl_unnormalized,train_kl_normalized,mean_unclipped_gradient_norm
1,0.0,0.001,0.10537119382203407,0.10537119382203407,43.70256383137932,0.031193835711191522,0.1390768038108945
2,0.02,0.001,0.0837608025649229,0.07635660889237209,518.6637125473355,0.37020964493028946,0.3119059130549431
3,0.04,0.001,0.05868469831009099,0.04377680400378319,522.1490344584769,0.3726973836248943,0.15966728702187538
4,0.06,0.001,0.04199977773831401,0.03634294872395857,132.08696203773198,0.0942804868220785,0.10982616757974029
5,0.08,0.001,0.03842479224808872,0.034612529858231024,66.76224596115179,0.04765328048618971,0.07023004000075161
6,0.1,0.001,0.03613507653297816,0.03332531348879421,39.36478274982569,0.028097632226856312,0.06306727160699666
7,0.12,0.001,0.03466300689106945,0.0322912701580462,27.69003146808741,0.019764476422617708,0.045382773503661156
8,0.14,0.001,0.03227526684775623,0.02979545224474247,24.815854793032184,0.01771295845327065,0.02958404109813273
9,0.16,0.001,0.029066324478023438,0.026172464583313102,25.339359949769932,0.018086623804261192,0.0373125160112977
10,0.18,0.001,0.026715186631965846,0.02271096861421021,31.16616199943176,0.022245654532071207,0.02395021659322083
11,0.2,0.001,0.02563332179032559,0.021546973452362433,28.62486862615727,0.02043174063251768,0.030983067117631435
12,0.22,0.001,0.024579131813093565,0.020626390466718693,25.17177458517416,0.017967005414114317,0.03968420915771276
13,0.24,0.001,0.023840244973330517,0.01967536916704157,24.312463160685578,0.01735364965073917,0.04903955431655049
14,0.25,0.001,0.023118599655521488,0.01897654175660756,23.212093628129583,0.016568232425502913,0.061978968093171716
15,0.25,0.001,0.022826621073041942,0.018366233758856116,24.99601105935709,0.017841549649790928,0.06170210358686745
16,0.25,0.001,0.02160483743491131,0.017479500468966742,23.11838940449677,0.016501348611346733,0.032800624845549464
17,0.25,0.001,0.02112546297985914,0.016870292798335376,23.84597249426696,0.017020679867428237,0.026828623842447996
18,0.25,0.001,0.02070561028594013,0.016640104060610308,22.78309670494113,0.0162620247715497,0.04325507674366236
19,0.25,0.001,0.019900677131903743,0.01597341802377888,22.00836174144495,0.015709037645570984,0.039370666490867734
20,0.25,0.001,0.01945982993820349,0.01563381933196403,21.44096275396222,0.015304041937160758,0.039182204636745155
21,0.25,0.001,0.01905412213901245,0.01502307468626697,22.589990957335093,0.016124190547705277,0.023726393817923963
22,0.25,0.001,0.018894401334193595,0.014721505116167027,23.384911416399426,0.016691585593432853,0.021016844431869686
23,0.25,0.001,0.018725581491553105,0.014796142958462499,22.02057576908295,0.015717755723827945,0.0488749464857392
24,0.25,0.001,0.01870734560177316,0.014730523848767885,22.28611061562617,0.015907288091096483,0.04105445393361151
25,0.25,0.001,0.01833470962844041,0.014284688654034419,22.696315657103426,0.016200082553250127,0.02800393709912896
26,0.0,0.001,0.01372123015109108,0.01372123015109108,27.267142133421252,0.01946262821800232,0.030892635695636272
27,0.02,0.001,0.012828838503126494,0.012157825866966268,47.004433744338925,0.03355063079538824,0.017605143366381526
28,0.04,0.001,0.013102582928330097,0.011266646711521795,64.30367074158515,0.04589840880912573,0.014119222934823483
29,0.06,0.001,0.013858272592378495,0.011104017471707544,64.31185638227838,0.045904251521968864,0.018541716737672687
30,0.08,0.001,0.014118139359563199,0.01111939427845473,52.51552323587076,0.03748431351596771,0.02031656977487728
31,0.1,0.001,0.014558640150068629,0.01177860404401367,38.94830591293402,0.027800361108446837,0.02528814843390137
32,0.12,0.001,0.014919870057220543,0.011992066496714754,34.18210783379567,0.02439836390706329,0.01881260157097131
33,0.14,0.001,0.015145967450139304,0.011869991852954747,32.783158281484546,0.023399827467155278,0.023481119540520012
34,0.16,0.001,0.015569424516964688,0.011932763966475511,31.843510790162732,0.022729129757432357,0.025380187784321606
35,0.18,0.001,0.015881160469359706,0.012253854525434139,28.232530235723637,0.02015169895483486,0.02238179964479059
36,0.2,0.001,0.016111772515562943,0.012248641628300258,27.061232595985114,0.0193156549578766,0.02044352691154927
37,0.22,0.001,0.01637161301863766,0.01230305647599515,25.909306746903464,0.018493438077732665,0.017726940684951842
38,0.24,0.001,0.016376108545240617,0.012269476375758127,23.972466681201386,0.017110968366310767,0.02077310357708484
39,0.25,0.001,0.016659378013105894,0.012741316793136722,21.95681348742356,0.01567224374548434,0.024317015893757343
40,0.25,0.001,0.01666213027059251,0.012677598354207377,22.329317934127875,0.015938128432639455,0.02198513166513294
41,0.25,0.001,0.016437286958423763,0.012536732032569735,21.858710434759548,0.015602220153290184,0.026506913942284882
42,0.25,0.001,0.01635788750375202,0.012514041086016264,21.540915818193593,0.01537538602297901,0.024246783112175763
43,0.25,0.001,0.016180087336416328,0.012217791755094017,22.204705534022967,0.01584918310779655,0.023844583134632558
44,0.25,0.001,0.01612289471543642,0.012290199486514367,21.478425230001257,0.01533078174875179,0.017226151190698147
45,0.25,0.001,0.015839948083017853,0.012166809815279001,20.584269236268955,0.01469255477249747,0.015606103872414678
46,0.25,0.001,0.015714338805737974,0.012025272969856012,20.67352372381885,0.014756262472390327,0.0172937122406438
47,0.25,0.001,0.015693959588892595,0.011950240230521261,20.979804184759548,0.01497487807620239,0.018649134668521583
48,0.25,0.001,0.015734834181689798,0.01203602071298392,20.728151029894967,0.014795254125549584,0.018910950981080532
49,0.25,0.001,0.01564063904522288,0.011982669085914912,20.4992643797762,0.014631880356728194,0.01944658043794334
50,0.25,0.001,0.015592359380560672,0.011933612840567353,20.503617415782145,0.014634987448809525,0.024695719708688557
51,0.0,0.001,0.01125362787525857,0.01125362787525857,25.329921389250774,0.018079886787473787,0.029079104075208306
52,0.02,0.001,0.010626598676121651,0.009949340509437838,47.441943955733784,0.03386291502907479,0.017163892975077033
53,0.04,0.001,0.01112861567335488,0.009303084310290595,63.939233505049124,0.045638282301962256,0.009045793442055583
54,0.06,0.001,0.011712569971141857,0.009185274597257376,59.01234910790056,0.0421215910834408,0.013256503618322313
55,0.08,0.001,0.01194357759355848,0.009524167413664696,42.36992048904885,0.030242627044288973,0.014106117945630103
56,0.1,0.001,0.012267019502070273,0.009975356619203195,32.106194900112904,0.022916627337696577,0.014093624311499298
57,0.12,0.001,0.012682829503636953,0.010127588854411283,29.83243572451662,0.021293672894016145,0.018412604928016663
58,0.14,0.001,0.013184976593213051,0.010250048232000467,29.370248469723364,0.020963774782100902,0.022964856936596334
59,0.16,0.001,0.013423829428916675,0.0102447304126347,27.836987283032013,0.019869369937924347,0.022715816739946604
60,0.18,0.001,0.013861544088635382,0.010695465653321369,24.642643682821348,0.01758932454162837,0.01842350943479687
61,0.2,0.001,0.014226348724980803,0.01059293311788786,25.452076133161654,0.018167077896617884,0.026026255916804075
62,0.22,0.001,0.014493439346551895,0.010785387064366882,23.613550627595995,0.016854782746321195,0.03178892284631729
63,0.24,0.001,0.014609309271238257,0.011074510179297373,20.6343906186033,0.014728330205998074,0.02325565612409264
64,0.25,0.001,0.014519895260185654,0.010805968675095442,20.812845380025138,0.014855706909368407,0.015811472723726183
65,0.25,0.001,0.014582973290804171,0.010885774674439014,20.71910141024527,0.014788794725371356,0.01282833085861057
66,0.25,0.001,0.014468350224034235,0.010886390953768029,20.073300948830152,0.014327837936352714,0.017105206614360213
67,0.25,0.001,0.014391791449623858,0.010693440502550144,20.725558926444908,0.014793403944643046,0.014845929748844355
68,0.25,0.001,0.014470234513282776,0.01095248378943408,19.713475081597874,0.01407100291334609,0.024763600900769234
69,0.25,0.001,0.014526043746083584,0.010919414696539854,20.211548942665868,0.014426516019033452,0.03639227990061045
70,0.25,0.001,0.014199054104532217,0.010793179607092033,19.086521065391306,0.013623498262235051,0.0239351176423952
71,0.25,0.001,0.014174315895413467,0.01069926187054429,19.47420290984441,0.013900216209739052,0.015366196865215898
72,0.25,0.001,0.014103256971229633,0.010692241886329702,19.11532825986371,0.013644060142657894,0.016101368120871484
73,0.25,0.001,0.014068112663892159,0.01063011394301226,19.26654508332498,0.013751995063044241,0.01144913665484637
74,0.25,0.001,0.01396328445084751,0.010477017863413653,19.53703821173922,0.013945066532290664,0.016848131199367344
75,0.25,0.001,0.014002743937628239,0.010652770463165758,18.773252079059983,0.0133998944176017,0.018393231905065477
76,0.0,0.001,0.009987115892520639,0.009987115892520639,24.177705589860807,0.017257462947795007,0.019610188086517155
77,0.02,0.001,0.00952578126554536,0.008892408433862388,44.36776483527438,0.03166864013938214,0.011715845728758723
78,0.04,0.001,0.01003698777716493,0.008391521313923156,57.63245999865136,0.0411366595279453,0.010659077379386872
79,0.06,0.001,0.010650126893870435,0.008448636061694945,51.40481420791826,0.03669151620836421,0.017962147830985487
80,0.08,0.001,0.010810331522800256,0.008684988251549708,37.22007812266787,0.02656679380632967,0.012603361217770725
81,0.1,0.001,0.011184667151697858,0.009122635115865276,28.889067145934792,0.02062031916198058,0.012171604146715254
82,0.12,0.001,0.01143482954578889,0.009056363783483942,27.76858914471089,0.01982054899693854,0.012887802498880774
83,0.14,0.001,0.011826417974184173,0.009062538496889662,27.658537285817243,0.01974199663513008,0.017028160858899355
84,0.16,0.001,0.012138772247497431,0.009381243123319082,24.14561517373964,0.01723455758296905,0.019913394935429096
85,0.18,0.001,0.012404998117756895,0.00943912185452,23.084403033860387,0.016477089959928897,0.014805940329097211
86,0.2,0.001,0.012714981739958301,0.00958329227683846,21.93748429977217,0.0156584470376675,0.01564586686436087
87,0.22,0.001,0.012993558143228943,0.00972793996334076,20.796052441326292,0.014843720514865304,0.015455947839654982
88,0.24,0.001,0.013285688246604397,0.009799412187335273,20.351138094106616,0.0145261513876564,0.011119885952211916
89,0.25,0.001,0.013229032901144184,0.009730211243553973,19.607397162758108,0.01399528705407431,0.014868739410303533
90,0.25,0.001,0.013213825530035006,0.009870850037799653,18.73403496721426,0.01337190218930354,0.012901402136776596
91,0.25,0.001,0.01333980910951784,0.009939575584109173,19.05490801115744,0.013600933626807594,0.017813038546591997
92,0.25,0.001,0.013220069206047267,0.009793332720980635,19.203431133620082,0.013706945848408338,0.013215074373874813
93,0.25,0.001,0.01330048017057399,0.00988970727834639,19.113971377043743,0.013643091632436648,0.012869766971562058
94,0.25,0.001,0.013267313321344718,0.009832135767688138,19.250736169939998,0.01374071104206995,0.017336565419100225
95,0.25,0.001,0.013142666364633621,0.00978149303263582,18.836015842887512,0.01344469367800679,0.01599076797720045
96,0.25,0.001,0.01313279364990095,0.009879227695116309,18.23298500094351,0.013014264811522848,0.015474377665668726
97,0.25,0.001,0.013170962356128546,0.009833223650061148,18.704687068556073,0.01335095436727771,0.017336747143417597
98,0.25,0.001,0.01315598628243765,0.009709724042092869,19.31285390895527,0.0137850491855498,0.015233305166475475
99,0.25,0.001,0.012976305746355431,0.009786714299472138,17.874471018928627,0.012758366180534352,0.013421287294477224
100,0.25,0.001,0.013049018512353888,0.009723271865511566,18.637483888317924,0.013302986358542416,0.013362001220230013
101,0.25,0.001,0.012972906854117542,0.009667101478830436,18.525733489657075,0.013223221620026463,0.014711888041347265
102,0.25,0.001,0.013313874268831124,0.009973963380966124,18.716860767014683,0.01335964365953939,0.028969011968001723
103,0.25,0.001,0.0131843739624367,0.009730813825527393,19.353751769753003,0.013814241091900787,0.018475019140169024
104,0.25,0.001,0.013000246328525408,0.009896914730881499,17.391070261792844,0.012413326382436005,0.014048439799807966
105,0.25,0.001,0.012880598756130866,0.009620803005700548,18.26789555278928,0.013039183121191492,0.0144908296642825
106,0.25,0.001,0.01279980418837617,0.009586438788792452,18.007700574450098,0.012853462223019342,0.020519299781881273
107,0.25,0.001,0.012875124596579886,0.009680450137493132,17.902955983924034,0.012778698061330503,0.021000004548113793
108,0.25,0.001,0.012869122499136425,0.00972272310706921,17.63242223481424,0.01258559759801159,0.01697142980992794
109,0.25,0.001,0.012713570452771073,0.009576796558095898,17.578481874091135,0.01254709626987233,0.012018597684800625
110,0.25,0.001,0.0126707691081096,0.00943914697582805,18.11001028035926,0.012926488422811747,0.011756891559343785
111,0.25,0.001,0.012788429661088636,0.009533174335956573,18.24245211338893,0.013021022207986387,0.012130974209867418
112,0.25,0.001,0.012761320146085393,0.009522431428385613,18.150732660918255,0.012955555075601895,0.017609647940844297
113,0.25,0.001,0.012578269702638601,0.009497678090358666,17.263635552085642,0.012322366561088966,0.013613468268886209
114,0.25,0.001,0.012474758001491754,0.009248897193333208,18.077723548922478,0.012903442932849734,0.014072842197492719
115,0.25,0.001,0.012625048120046547,0.009521096611322274,17.394543243808,0.012415805313210562,0.018537400872446597
116,0.25,0.001,0.012583548593534132,0.009411300158364022,17.777280116185352,0.012688993658947432,0.015787089825607836
117,0.25,0.001,0.012585455946233856,0.009367197414445305,18.035120485130875,0.01287303389374081,0.012051382625941187
118,0.25,0.001,0.012471537658838986,0.009251360059614135,18.045875074561508,0.012880710260215209,0.013357970106881112
119,0.25,0.001,0.012585453168533775,0.009430455401800085,17.6806084370509,0.012619991746645895,0.016044744406826794
120,0.25,0.001,0.012430630445350206,0.009285688009845118,17.62425909916907,0.012579770948728815,0.017007954884320498
121,0.25,0.001,0.012509799700669587,0.009383185756470049,17.52154436069805,0.012506455646465419,0.012027633842080832
122,0.25,0.001,0.012518843241426362,0.009329790859503516,17.87144904573932,0.012756209168978815,0.013305957952979952
123,0.25,0.001,0.01240619640049065,0.009247353707143312,17.70215549219123,0.012635371514768902,0.014417107333429158
124,0.25,0.001,0.012492945454364,0.009222924619848031,18.325196803396967,0.0130800833714468,0.012194613052997738
125,0.25,0.001,0.012464306951707887,0.00938916149423112,17.23311634147011,0.012300582684846618,0.01282399077899754
126,0.25,0.001,0.012438925463039282,0.009285149664727882,17.673758252739386,0.012615102250349312,0.010909661767072976
127,0.25,0.001,0.0124682624372918,0.009346309789013133,17.495423446055582,0.012487811167777004,0.011981623596511781
128,0.25,0.001,0.012270858657737487,0.009152499861266936,17.475282452512516,0.012473435012500011,0.016502995626069605
129,0.25,0.001,0.012353004391536963,0.00926500693061206,17.30513739273538,0.012351989573686923,0.013700482086278498
130,0.25,0.001,0.0123515766455617,0.009262854180514292,17.309199770465167,0.012354889200903045,0.016480294289067388
131,0.25,0.001,0.01230803949506262,0.009166141056890832,17.607199656390726,0.012567594330043345,0.013868107344023883
132,0.25,0.001,0.012345672548467936,0.00921139320130887,17.564501166864254,0.012537117178347077,0.014319772482849658
133,0.25,0.001,0.01237817925673515,0.009340301668474767,17.024266334600323,0.012151510588579818,0.012460258789360523
134,0.25,0.001,0.012391043916409713,0.00917242220948617,18.03715610920602,0.012874486873094946,0.0157369168009609
135,0.25,0.001,0.012217941096125732,0.00914905246705077,17.198052293869086,0.012275554813611053,0.01227815740276128
136,0.25,0.001,0.012312925014010424,0.009090002630247559,18.06125690010437,0.012891689436191556,0.01800475246272981
137,0.25,0.001,0.012247232089884676,0.009155116588950938,17.328214703688975,0.012368461601491059,0.015041998645756394
138,0.25,0.001,0.012271422534920763,0.009094889206592172,17.80129333562726,0.012706133715651149,0.01779764296952635
139,0.25,0.001,0.012223300068561947,0.009159357197517651,17.170335886259785,0.012255771510535179,0.015700951567851007
140,0.25,0.001,0.012257328167492646,0.00911005051993647,17.637343569093396,0.01258911032768979,0.017530810611788183
141,0.25,0.001,0.012166633709907271,0.009126918349724148,17.034564855317363,0.012158861424209395,0.014378159074112773
142,0.25,0.001,0.012180511225584292,0.008937707252182294,18.172673679335148,0.012971216045207101,0.01329004269791767
143,0.25,0.001,0.012321210588332607,0.009151652390259323,17.762204799069067,0.012678233261291269,0.014030343387275934
144,0.25,0.001,0.012179302116733971,0.00907256363537244,17.41016308397185,0.01242695437828112,0.015072899754159153
145,0.25,0.001,0.012132004692369674,0.009102144880488711,16.97933416075061,0.01211943908690265,0.012570462306030095
146,0.25,0.001,0.012180223324901412,0.009068052443029058,17.440606604496985,0.012448684228763015,0.014610735059250146
147,0.25,0.001,0.012113057056596446,0.009018386921572894,17.34253195800115,0.012378680912206388,0.011363893281668425
148,0.25,0.001,0.012130311999356122,0.009064659045187667,17.179918992987886,0.012262611700919262,0.012665692484006286
149,0.25,0.001,0.012095355937119134,0.009030767504988019,17.173953735151667,0.01225835384379134,0.016424491710495204
150,0.25,0.001,0.012043406263677054,0.008969233855279772,17.227663473270866,0.012296690559079847,0.016750393086113036
151,0.25,0.001,0.012195574026148131,0.009081304258378182,17.452367857554073,0.01245707912744759,0.013930733315646648
152,0.25,0.001,0.012124478385893539,0.009060860595230712,17.168514260038016,0.01225447127768595,0.014307475241366774
153,0.25,0.001,0.011996130662356141,0.008990120964214272,16.845678129570974,0.01202403863638185,0.012903680210001767
154,0.25,0.001,0.011963720685562453,0.008893252153144784,17.206905989667735,0.012281874368071188,0.010212913621217012
155,0.25,0.001,0.01201641806055625,0.008895583361322183,17.489156881274095,0.012483338245020768,0.013931298279203475
156,0.25,0.001,0.012050120460935034,0.009095642069053701,16.55689722585886,0.011817913794331806,0.01853747700806707
157,0.25,0.001,0.012066774562359116,0.008870098247766234,17.914173176194904,0.01278670462255168,0.019129435415379703
158,0.25,0.001,0.012128953602343928,0.0091966983280653,16.43235864597637,0.011729021160582706,0.017384315142408013
159,0.25,0.001,0.011985625217640244,0.008864691464726581,17.48971237365856,0.012483734742083197,0.01535093504935503
160,0.25,0.001,0.012043035678630572,0.008994656423814432,17.083116614662405,0.01219351649868837,0.012624586932361126
161,0.25,0.001,0.011913500148721657,0.008845442336654559,17.193396963927423,0.012272231951411437,0.012058758991770446
162,0.25,0.001,0.011972573561406812,0.008877331582121714,17.34573655773979,0.01238096827818686,0.014030631515197456
163,0.25,0.001,0.011953768076366993,0.008841101389264435,17.443384686932294,0.012450667156982365,0.01281111896969378
164,0.25,0.001,0.012006608655424097,0.008927085186765575,17.25764935089511,0.012318093755100007,0.016951250727288425
165,0.25,0.001,0.011887968115215738,0.008840346310336518,17.07887274313181,0.012190487325575882,0.014873891486786306
166,0.25,0.001,0.011974858713852787,0.00888730863751803,17.30263155308353,0.01235020096579838,0.018130304757505655
167,0.25,0.001,0.011912907103654079,0.008827256778962747,17.291984058363468,0.012342601040944659,0.014617353328503668
168,0.25,0.001,0.011884265445075181,0.008811025888410979,17.222434497816593,0.012292958242552885,0.012099029147066176
169,0.25,0.001,0.011882133944586376,0.008812395802914576,17.202812911121086,0.012278952827352667,0.011758522770833224
170,0.25,0.001,0.011848475710858945,0.008762584462371456,17.293335202479465,0.012343565455017462,0.012862260220572352
171,0.25,0.001,0.01172208497666766,0.008686472844804219,17.01156955619046,0.012142447934468564,0.012548391299787909
172,0.25,0.001,0.011881614648879355,0.00885926350528236,16.937255634491102,0.012089404450029338,0.014872224070131779
173,0.25,0.001,0.011902090975420965,0.00891297626386368,16.750997759889827,0.0119564580727265,0.020512477378360927
174,0.25,0.001,0.011782067441523856,0.008704796980448294,17.24502285286849,0.012309081265430757,0.019144824240356684
175,0.25,0.001,0.011892718637126242,0.008880545706467858,16.880217843701224,0.01204869225103585,0.015584904584102333
176,0.25,0.001,0.011668496297501581,0.008588440752868829,17.260632435827798,0.012320223009156172,0.016948227770626545
177,0.25,0.001,0.011764495779951327,0.008679233048127469,17.28981262107083,0.012341051121392456,0.013048285618424416
178,0.25,0.001,0.011751542384349884,0.008763114557760122,16.747148984384328,0.011953710909624788,0.01369710173457861
179,0.25,0.001,0.01168662201466779,0.008632468962513204,17.115473626482434,0.012216612153092386,0.012828339240513742
180,0.25,0.001,0.01168213327573897,0.008658091631193349,16.946728877105045,0.012096166222059276,0.015492155507672578
181,0.25,0.001,0.011636965505485972,0.008578013823932956,17.142365651359725,0.012235807031662901,0.011734629108104855
182,0.25,0.001,0.011820846802542823,0.008772735512412791,17.081616314217513,0.01219244562042649,0.0165272552985698
183,0.25,0.001,0.011811573147838813,0.008714004881338392,17.358773085748265,0.01239027343736493,0.012888340977951884
184,0.25,0.001,0.011734517262719865,0.008762124250744628,16.65729039621145,0.011889572017281549,0.011832805234007537
185,0.25,0.001,0.011710669731469133,0.008626095617116799,17.285953584196264,0.012338296633973065,0.01780055253766477
186,0.25,0.001,0.011664156895537564,0.008754327100209534,16.306686276431687,0.011639319255126115,0.016899186419323087
187,0.25,0.001,0.011706775761978075,0.008563492565078245,17.614959275358107,0.012573132958856608,0.016041387803852558
188,0.25,0.001,0.01162073358600577,0.008664902356579313,16.564477312512793,0.011823324277311057,0.016207248554565012
189,0.25,0.001,0.011595776764163544,0.008626759784320556,16.63837184656135,0.011876068412963132,0.017557126644533128
190,0.25,0.001,0.011793550400787306,0.008824769484782063,16.637049121107076,0.01187512428344545,0.021183866425417364
191,0.25,0.001,0.011727840232959742,0.008678342356025262,17.08938537830869,0.01219799099094125,0.017090974492020905
192,0.25,0.001,0.011757369181669955,0.008708483724566136,17.085953699969828,0.012195541541734353,0.02041502925567329
193,0.25,0.001,0.01176699377010743,0.008670496847887227,17.35276930196837,0.012385988081347872,0.0216278366278857
194,0.25,0.001,0.011814561123475759,0.008856840456091681,16.575067045386703,0.011830882973152537,0.020145419286563993
195,0.25,0.001,0.011695041675039253,0.008603895140006552,17.32278541498309,0.012364586306197781,0.01761010242626071
196,0.25,0.001,0.011662183841893766,0.00863554189591689,16.961302703124467,0.012106568667469285,0.015617853961884975
197,0.25,0.001,0.01168080829246596,0.008756967180095386,16.385205739450246,0.011695364553497678,0.01416541647631675
198,0.25,0.001,0.01159569875268046,0.008465193313705089,17.543351818900963,0.012522021284012107,0.011016256350558251
199,0.25,0.001,0.011534478129030055,0.008593776604917112,16.479691951035413,0.011762806531788303,0.01139292394509539
200,0.25,0.001,0.011599341159336692,0.008632625497910133,16.625474713254704,0.011866862750360245,0.010803740529809147
201,0.25,0.001,0.011681113164367634,0.008640515160498791,17.03951145155461,0.01216239218526382,0.014856517664156854
202,0.25,0.001,0.011675429388099883,0.008614571608489127,17.15304741172291,0.012243431414506002,0.021638375823386014
203,0.25,0.001,0.011616446667525706,0.008609866032043398,16.8488771530218,0.012026322022142611,0.014851707150228322
204,0.25,0.001,0.01158637395657306,0.00863251873336765,16.553405328609017,0.01181542136231907,0.017674862639978528
205,0.25,0.001,0.01162061766278015,0.008584488337802575,17.0144687677575,0.012144517321739828,0.015362300211563706
206,0.25,0.001,0.01150799045688981,0.008536385970116963,16.652871656626072,0.011886418027570358,0.012719668447971344
207,0.25,0.001,0.011603551038325353,0.008647258281626425,16.567065717872055,0.011825171818609604,0.011712823994457722
208,0.25,0.001,0.011482732480302387,0.008477769316251361,16.839814856583374,0.012019853573578425,0.010999721300322562
209,0.25,0.001,0.01143679242808876,0.008405920522751116,16.985006440674894,0.012123487823465307,0.01305740897078067
210,0.25,0.001,0.01151081415373165,0.008491046620963963,16.922777534051754,0.012079070331228946,0.013359707547351718
211,0.25,0.001,0.01148354912412609,0.0084941243533224,16.752736462255754,0.011957699116528019,0.012506070546805859
212,0.25,0.001,0.011494789662970205,0.008409401552353103,17.290515558167836,0.012341552860933502,0.013493341393768787
213,0.25,0.001,0.011572342390381614,0.008673891258389408,16.24292163349135,0.011593805591357137,0.01751374499872327
214,0.25,0.001,0.011586951079684835,0.00848005794387262,17.411029482512493,0.012427572792657026,0.0155157734407112
215,0.25,0.001,0.011526999283403028,0.008475924496372194,17.098222761695563,0.012204298901995406,0.011924798658583313
216,0.25,0.001,0.01153088851900991,0.008545088923361364,16.732421092070865,0.011943198495411039,0.011141185066662729
217,0.25,0.001,0.011528408760814948,0.008519266402617293,16.86323309152928,0.01203656894470327,0.010241137002594769
218,0.25,0.001,0.011546186744906496,0.008511828104091002,17.00454587811466,0.012137434602508679,0.011126271449029446
219,0.25,0.001,0.01145244333242355,0.008443731708883198,16.860819579211906,0.01203484623783862,0.012237185495905578
220,0.25,0.001,0.011488709684184806,0.008449498702279866,17.031738972559765,0.01215684437727321,0.012541309464722872
221,0.25,0.001,0.011512459812921727,0.00848788585245414,16.949712378489398,0.012098295773368592,0.011523173248860985
222,0.25,0.001,0.011491673742319299,0.00849480266524194,16.79446538150571,0.011987484212352397,0.012452061055228114
223,0.25,0.001,0.011402111362226665,0.008386425263203648,16.899904434337365,0.012062744064480631,0.011022327351383865
224,0.25,0.001,0.011481769602566827,0.008465468401585474,16.90335157136209,0.012065204547724548,0.013638428878039122
225,0.25,0.001,0.011539965501974243,0.008434364002799883,17.403791369309072,0.012422406402076426,0.01756442605983466
226,0.25,0.001,0.011510806324928348,0.008634511865350096,16.118755636256854,0.011505178898113385,0.01754684338811785
227,0.25,0.001,0.011369696976901662,0.008377839532562869,16.76636889928293,0.01196742962118696,0.013026267057284713
228,0.25,0.001,0.011383153172819896,0.008364504418746614,16.9165073794569,0.012074594846150534,0.016762154875323176
229,0.25,0.001,0.01144046049695218,0.008518389755591554,16.375284053352722,0.01168828269332814,0.015186225529760122
230,0.25,0.001,0.011363714884592455,0.008359547968807439,16.835351606643876,0.012016667813450304,0.014992076728958637
231,0.25,0.001,0.011453767567384972,0.008527532673347335,16.398621096881715,0.011704940111978384,0.014247293467633426
232,0.25,0.001,0.011366895021764993,0.008397518876761068,16.640384124356064,0.011877504728305541,0.012336141779087484
233,0.25,0.001,0.0113574690653182,0.008265991815199108,17.324638066854018,0.012365908684406865,0.013485121773555875
234,0.25,0.001,0.011384637867747176,0.008508977374493035,16.11520274133141,0.011502642927431412,0.013640360964927822
235,0.25,0.001,0.011393314504011749,0.008364576559643948,16.973048205979527,0.012114952324039634,0.009893054608255625
236,0.25,0.001,0.011360097017676029,0.008397784726653557,16.600797936385376,0.011849249062373574,0.012382181535940617
237,0.25,0.001,0.011258948984755178,0.008304901872497198,16.55448025282814,0.011816188617293461,0.01131830015219748
238,0.25,0.001,0.011405825635263753,0.00842149628277494,16.724181737441683,0.011937317442856305,0.012427355744875968
239,0.25,0.001,0.011422821698816062,0.008407126888470099,16.89995530807295,0.012062780376925732,0.016047481913119555
240,0.25,0.001,0.011444582209381474,0.00843233719272905,16.880621160482214,0.01204898012882385,0.01730235933791846
241,0.25,0.001,0.011351366995073301,0.008378383241935457,16.660601411844446,0.011891935340360062,0.010812841006554663
242,0.25,0.001,0.011364775412923384,0.008405770276831748,16.582265229204335,0.011836020863100882,0.010837445443030447
243,0.25,0.001,0.011310664497673772,0.008343887974926998,16.625815183314693,0.011867105769675012,0.01400435803225264
244,0.25,0.001,0.011321569056815455,0.00832265949356634,16.80588927123224,0.01199563830923072,0.01337703363969922
245,0.25,0.001,0.011320906353699589,0.00840166919787443,16.359405134442593,0.011676948704098924,0.010530469880905002
246,0.25,0.001,0.011288151356460746,0.00832734041233185,16.592385387837105,0.011843244388177805,0.012025655654724687
247,0.25,0.001,0.011378325257596751,0.00832948173644371,17.085718804571826,0.012195373879066256,0.011302572500426322
248,0.25,0.001,0.011326332222751655,0.008395392163026281,16.424988859085015,0.011723760784500367,0.013968458166345954
249,0.25,0.001,0.011418275433433888,0.008336794493500322,17.268619587327716,0.012325924045201796,0.015343812294304371
250,0.25,0.001,0.011322145366545067,0.008394996822693722,16.40374095367032,0.011708594542234345,0.012501307239290327
251,0.25,0.001,0.01137877245917591,0.00843204467813586,16.513462882895656,0.011786911408205323,0.01543067756574601
252,0.25,0.001,0.011423549163419608,0.008409973209536752,16.88807946001078,0.012054303683091206,0.017167655925732106
253,0.25,0.001,0.011371470235418284,0.008384973613960123,16.736327583612834,0.011945986854827147,0.0191391208791174
254,0.25,0.001,0.011410540937726674,0.008436699544270747,16.6654076971862,0.01189536595088237,0.017416180460713804
255,0.25,0.001,0.011367945960320239,0.00841621182631197,16.541518973471295,0.011806937168787505,0.016681277891620994
256,0.25,0.001,0.01137644758114518,0.008304024227044859,17.217860359291844,0.012289693332827869,0.015311471943277866
257,0.25,0.001,0.01129912921353589,0.00824380377266865,17.12204393445144,0.01222130188040788,0.010771433764602989
258,0.25,0.001,0.011366905172774364,0.00843072370687036,16.45436156576898,0.01174472631389649,0.010730674723163247
259,0.25,0.001,0.011334832066336573,0.0082650267555659,17.203188825382416,0.012279221145883238,0.012090961681678891
260,0.25,0.001,0.011281184835855617,0.008387130205255148,16.218281870846145,0.011576218323230653,0.010608204640448093
261,0.25,0.001,0.011284197749789626,0.008241420839486164,17.051722047630875,0.0121711078141548,0.01146872027311474
262,0.25,0.001,0.011387364621636129,0.008371243204547327,16.902345145113085,0.012064486184948668,0.014377066399902105
263,0.25,0.001,0.011450822302445313,0.008331325324048903,17.48166017657284,0.012477987278067695,0.01674925535917282
264,0.25,0.001,0.011535378644755314,0.008522999023522482,16.88137533362776,0.012049518439420242,0.015544970869086683
265,0.25,0.001,0.011442468001397416,0.008352789621165747,17.314558345678073,0.012358714022611045,0.014566847064998
266,0.25,0.001,0.011383026728496021,0.008391262920711628,16.765844078563706,0.011967055016819205,0.012959220330230892
267,0.25,0.001,0.01131374990835981,0.008325868595277638,16.744088218722283,0.011951526208938103,0.013948550913482904
268,0.25,0.001,0.011325723987772214,0.00842344615096023,16.264365308669976,0.011609111569357585,0.0167309723328799
269,0.25,0.001,0.011241169316962557,0.008114844625693741,17.519924130502226,0.012505299165240704,0.015185369295068085
270,0.25,0.001,0.01125538528909069,0.00839611556478593,16.02334722577224,0.01143707867649696,0.015579909551888704
271,0.25,0.001,0.01126874037753937,0.008238955624564245,16.97891468564496,0.012119139675692333,0.01690260472241789
272,0.25,0.001,0.011352539334983024,0.008317204428161596,17.010016424687148,0.012141339346671769,0.016080249566584826
273,0.25,0.001,0.011271359773116862,0.00827571508112693,16.7875943829399,0.011982579859343255,0.013962631695903838
274,0.25,0.001,0.011337846851049552,0.008331204494095395,16.849222924511505,0.012026568825490011,0.01022704690694809
275,0.25,0.001,0.0112321751607037,0.008136001163402238,17.350958545135097,0.012384695606805923,0.010679094644729048
276,0.25,0.001,0.011319041182998747,0.008468122803097729,15.976546916378638,0.0114036737447385,0.0141031495295465
277,0.25,0.001,0.011213934667180719,0.008147855037131944,17.18231016267335,0.012264318460152284,0.011429283709730953
278,0.25,0.001,0.011278380399903356,0.008333428262623116,16.503511761994343,0.011779808538182971,0.014594423002563417
279,0.25,0.001,0.0112209053848378,0.008155102540604673,17.180758859392856,0.012263211177296828,0.011947736609727144
280,0.25,0.001,0.011277129674354755,0.00834778624314278,16.416041120171027,0.011717374104333352,0.012783879064954817
281,0.25,0.001,0.011293654118595425,0.008223198445749725,17.20683376029069,0.012281822812484432,0.01215102814603597
282,0.25,0.001,0.011198327441467988,0.00826740405201001,16.424894332885742,0.01172369331397983,0.011125806951895356
283,0.25,0.001,0.011261624763984087,0.008200687319691004,17.153493239890018,0.012243749635895801,0.013141780975274742
284,0.25,0.001,0.011259737477422281,0.008328589704294393,16.4261530580479,0.011724591761633046,0.01182766747660935
285,0.25,0.001,0.01123066296939246,0.00821445019321931,16.902857218246794,0.012064851690397426,0.010957214166410267
286,0.25,0.001,0.011152692501103774,0.008197605788837874,16.56030624506255,0.011820347069994682,0.011161639005877078
287,0.25,0.001,0.011178121470956042,0.008225166234777485,16.548362032294794,0.01181182157908265,0.012641290668398142
288,0.25,0.001,0.011215465765560298,0.008162664066528389,17.107899769945437,0.012211206117020298,0.01376651000464335
289,0.25,0.001,0.011217028959999958,0.008214746032512084,16.82479399468701,0.012009132044744476,0.014253826695494354
290,0.25,0.001,0.011193508261969257,0.008205309156409778,16.74586866620326,0.011952797049395619,0.012708953290712088
291,0.25,0.001,0.011269359121416333,0.008305982552371171,16.60676337746033,0.011853507050292882,0.012535807094536722
292,0.25,0.001,0.011168857873722455,0.008235503573735209,16.438518382576355,0.011733417831960281,0.010999443882610649
293,0.25,0.001,0.011189682937865694,0.008244238895522716,16.50626877197532,0.011781776425392807,0.012840261799283326
294,0.25,0.001,0.011187310790130665,0.00816150540770662,16.956613490675213,0.012103221620753186,0.011150955338962376
295,0.25,0.001,0.011197190390143332,0.008148263977214238,17.086183947767232,0.012195705887057267,0.012073761085048318
296,0.25,0.001,0.011148298443925432,0.008254406323013868,16.217372311254778,0.011575569101538029,0.01408033916959539
297,0.25,0.001,0.011185519324054365,0.008137153402605301,17.083042119788292,0.012193463326044462,0.017190171871334314
298,0.25,0.001,0.0110948199780422,0.008198144414571956,16.232969942051252,0.011586702314097967,0.01347442390397191
299,0.25,0.001,0.011154283679956693,0.008181428927196165,16.659877593860877,0.01189141869654595,0.013858046499080956
300,0.25,0.001,0.011172800979629876,0.008147556078518583,16.953473320173906,0.012100980242807927,0.011468153214082122
301,0.25,0.001,0.011164513510127256,0.008159415011485332,16.840571969877683,0.012020393982782072,0.011400283605325967
302,0.25,0.001,0.011220100628594383,0.008305321134399118,16.334424839269648,0.0116591183720697,0.016883148928172886
303,0.25,0.001,0.011271222181390466,0.008200551425899871,17.208039221284693,0.012282683241459452,0.018018523696810007
304,0.25,0.001,0.011262321991105788,0.00826100338917372,16.819389534829487,0.012005274471684145,0.014107385301031172
305,0.25,0.001,0.011147644077976719,0.008124578317147415,16.941260504410256,0.012092263029557642,0.01396137138362974
306,0.25,0.001,0.011212211598410356,0.008168834835030626,17.055083503889726,0.012173507140535136,0.013047329033724964
307,0.25,0.001,0.011288426194226117,0.008332074465287043,16.567395772475862,0.011825407403623029,0.01407914434093982
308,0.25,0.001,0.01122147538272184,0.00823658626266312,16.72731910105876,0.011939556817315318,0.014796912262681872
309,0.25,0.001,0.011225537677584257,0.008249121124339676,16.67983894681306,0.011905666628703113,0.013787045958451927
310,0.25,0.001,0.011204907137851787,0.008037503666394923,17.750129345723114,0.01266961409402078,0.013377618277445436
311,0.25,0.001,0.011177489155797719,0.008224598762445055,16.54799854495119,0.011811562130586147,0.013528801151551306
312,0.25,0.001,0.011107365653634592,0.008074786249694606,16.99457462593978,0.012130317363268937,0.011423156247474253
313,0.25,0.001,0.011222419983760239,0.008236124318532288,16.735201073525776,0.011945182779104765,0.011918006755877286
314,0.25,0.001,0.011154511618106646,0.008234351480940934,16.364576906095945,0.011680640189932865,0.01342665997799486
315,0.25,0.001,0.011153260937294065,0.008182979758226976,16.64545570606748,0.011881124700976074,0.015379744349047542
316,0.25,0.001,0.011017158509569658,0.008022096142270419,16.784329968248393,0.011980249798892501,0.011212498298846185
317,0.25,0.001,0.011152127749534673,0.008165823279444828,16.735251805667794,0.011945218990483793,0.01308393431827426
318,0.25,0.001,0.01121872165301351,0.008223114661286751,16.78738259228036,0.011982428688280056,0.01281951554119587
319,0.25,0.001,0.011186904700952847,0.008194855536338284,16.767443860982702,0.011968196902914134,0.013440402981359512
320,0.25,0.001,0.011124433034534798,0.008141536688570372,16.716151349929742,0.011931585545988395,0.013369096792303026
321,0.25,0.001,0.011174200102686882,0.008143663050517374,16.98313031758804,0.01212214869206855,0.010927795083262026
322,0.25,0.001,0.011204067304502668,0.008234949621847754,16.638934964175828,0.011876470352730784,0.012294133426621556
323,0.25,0.001,0.011212073315309126,0.008250567311721989,16.596279252564543,0.011846023734878332,0.012902191723696887
324,0.25,0.001,0.011175061905488176,0.008246477498107602,16.411787670252103,0.01171433809439836,0.012887134798802435
325,0.25,0.001,0.011170076466608777,0.00815541771805833,16.89414861420877,0.012058635698935597,0.01941055222414434
326,0.25,0.001,0.011131010607991156,0.008111134175552811,16.923388643556287,0.012079506526449884,0.01743782323319465
327,0.25,0.001,0.01124030674958203,0.008240550345696476,16.81063616223731,0.011999026525508428,0.012679522740654647
328,0.25,0.001,0.011162211183116947,0.008137296785612685,16.951619885373844,0.012099657305762915,0.011914423434063792
329,0.25,0.001,0.011112306185684871,0.008205766476463022,16.288247629024056,0.011626158193450432,0.012444182182662189
330,0.25,0.001,0.011053608807706677,0.008055649160948383,16.800565053281826,0.011991838010907798,0.014384465699549764
331,0.25,0.001,0.011155675445972051,0.008110735817572436,17.0638416989922,0.012179758528902355,0.011848351801745594
332,0.25,0.001,0.011099686317438642,0.00803871328564255,17.153692645276998,0.012243891966650247,0.009826450783293694
333,0.25,0.001,0.011018978671768606,0.008086293592121794,16.434767685602846,0.011730740674948498,0.011223194538615644
334,0.25,0.001,0.011039135107306934,0.008131701279610526,16.293258583701853,0.011629734892007033,0.0139083651592955
335,0.25,0.001,0.011120073529830667,0.00814685753778469,16.661902348547525,0.011892863917592809,0.015913200215436518
336,0.25,0.001,0.011126588741276722,0.008158855247982334,16.63117867682178,0.01187093410194274,0.020346913835965097
337,0.25,0.001,0.011119450023601148,0.008154741053237664,16.614229035689842,0.011858835857023442,0.016322758106980473
338,0.25,0.001,0.011005449242987487,0.008063334835424823,16.487609638397352,0.011768457986008103,0.012726451852358878
339,0.25,0.001,0.011091593238138736,0.008126976594784374,16.613711386268317,0.011858466371354973,0.012318075692746788
340,0.25,0.001,0.011136038651828162,0.008110256316587655,16.95648509029738,0.012103129971661228,0.015022221370600164
341,0.25,0.001,0.01118674414744804,0.008172295979472227,16.892967782166327,0.01205779284951201,0.015584135428071022
342,0.25,0.001,0.011213832388440854,0.008241586867052916,16.656464081143707,0.011888982213521561,0.014050670899450779
343,0.25,0.001,0.011140778888521236,0.008149158966007711,16.76503862772446,0.011966480105442157,0.014953727717511356
344,0.25,0.001,0.011066766683516544,0.008074431472730428,16.769046466943998,0.011969340804385437,0.010202205274254084
345,0.25,0.001,0.011039942039347632,0.008099624079827008,16.477541278022866,0.011761271433278276,0.011074471520259976
346,0.25,0.001,0.011031837613366577,0.008035432238245635,16.791855737111455,0.01198562151114308,0.011363738332875073
347,0.25,0.001,0.01104753272502183,0.008072443702969879,16.672399071106224,0.011900356224915221,0.012511757551692426
348,0.25,0.001,0.011088887493911008,0.00809856864733532,16.757745984339817,0.011961274792533774,0.017211256432347
349,0.25,0.001,0.011120721644937472,0.008182987208807573,16.463064285344952,0.011750938105171272,0.016903720796108246
350,0.25,0.001,0.0110924927778054,0.00817686030600529,16.33920497144674,0.011662530315094033,0.018857380375266075
351,0.25,0.001,0.011063517665075684,0.008112644725865542,16.53669264847535,0.011803492254443503,0.017649498011451215
352,0.25,0.001,0.010973212528794874,0.008041670456463593,16.428361642829195,0.01172616819616645,0.014846540871076286
353,0.25,0.001,0.011018375557029872,0.008084065762783633,16.44387158556276,0.011737238819102613,0.012348321848548949
354,0.25,0.001,0.010976182231801567,0.00807492939275425,16.25862028296858,0.011605010908614261,0.012548963073641062
355,0.25,0.001,0.011072728677152546,0.008116580623173558,16.566254386735274,0.01182459271001804,0.010921359993517399
356,0.25,0.001,0.011075511973302437,0.00802287266601902,17.10699204690592,0.012210558206214075,0.011987349018454552
357,0.25,0.001,0.01103631526996345,0.008015868876243263,16.926582111541883,0.012081785946853593,0.011986590921878815
358,0.25,0.001,0.011111872665193664,0.008161741255998091,16.532537693540082,0.011800526547851593,0.012487739906646311
359,0.25,0.001,0.011088674944951544,0.008080783584785513,16.856222960626194,0.012031565282388433,0.013267448346596211
360,0.25,0.001,0.011049052741069461,0.00804039066470346,16.860542397311683,0.012034648392085427,0.012060857145115733
361,0.25,0.001,0.011008920408297315,0.008125294809225605,16.159838405759054,0.011534502787836583,0.011357868323102593
362,0.25,0.001,0.011010974161652238,0.008044742289767906,16.622763887763544,0.011864927828525013,0.013146701385267079
363,0.25,0.001,0.011131938969854704,0.007968444572395633,17.728224042201145,0.012653978616845928,0.0152371262665838
364,0.25,0.001,0.011088477236149613,0.008178739686492489,16.30617048022008,0.011638951092234175,0.012854480533860624
365,0.25,0.001,0.011075423481390206,0.00806385811873789,16.87681340546587,0.012046262245157653,0.013010651164222509
366,0.25,0.001,0.011038988966934025,0.008067456834571331,16.652465836970567,0.011886128363290912,0.011966262594796717
367,0.25,0.001,0.010949585208563565,0.007970418158804745,16.6952527017052,0.011916668595078658,0.012223598139826208
368,0.25,0.001,0.011022049282966222,0.008092760088076759,16.415736631535026,0.011717156767690954,0.013129579252563417
369,0.25,0.001,0.011005568383139553,0.00802002596672966,16.73098025259493,0.011942170058954267,0.013578600250184536
370,0.25,0.001,0.010966848045197116,0.007991311193228288,16.674909229361855,0.011902147915318954,0.011876798002049327
371,0.25,0.001,0.01098982816130964,0.008091565258150277,16.241865795252103,0.01159305195949472,0.015097051276825368
372,0.25,0.001,0.011021875617740977,0.007917839913795738,17.395016566114133,0.012416143159253486,0.0121415063040331
373,0.25,0.001,0.010997692123055458,0.008081844605212649,16.34040966616968,0.011663390197123254,0.012523393495939672
374,0.25,0.001,0.010991909968215306,0.007992707483681919,16.807531431772823,0.01199681044380644,0.011665308382362127
375,0.25,0.001,0.01100313315761792,0.00801248556027376,16.75958964918378,0.011962590756019829,0.011222838656976819
376,0.25,0.001,0.011008400421215456,0.008063909323178395,16.500927246293646,0.011777963773228869,0.012440804624930024
377,0.25,0.001,0.010987360331364073,0.007924558712763296,17.16393956763255,0.01225120597261424,0.012543382472358644
378,0.25,0.001,0.010997420441212873,0.008092562190163475,16.278826342920027,0.011619433506723788,0.013436337001621723
379,0.25,0.001,0.010942130369911027,0.007991283188480478,16.53654641147264,0.011803387873999028,0.012261562165804207
380,0.25,0.001,0.010998286176716917,0.00795481078464977,17.05563661000614,0.012173901934337003,0.012766631552949548
381,0.25,0.001,0.011046799249524113,0.008081690404222523,16.61646921665908,0.01186043484415352,0.01470528298523277
382,0.25,0.001,0.010959396220125485,0.007926574336795958,16.995933682637443,0.012131287425151637,0.013072570785880089
383,0.25,0.001,0.010993957503263607,0.008016966807952875,16.683056102569445,0.011907962956866127,0.0168187489034608
384,0.25,0.001,0.010923006677569,0.007918569015330883,16.836868994100644,0.012017750888009025,0.010488140862435102
385,0.25,0.001,0.011014673342383324,0.008081273944422146,16.438771951667086,0.011733598823459732,0.011956761591136456
386,0.25,0.001,0.010925114386629589,0.007991878378843506,16.437855674710335,0.011732944807073757,0.012387646595016122
387,0.25,0.001,0.01091215757888998,0.00805758018713591,15.997052105233138,0.011418309853842354,0.010530303290579468
388,0.25,0.001,0.010934036961191346,0.007979148838213568,16.559193719422453,0.011819552976033158,0.011372589156962931
389,0.25,0.001,0.010905799679620817,0.007910566628141954,16.785285591558598,0.011980931899756315,0.010249500744976103
390,0.25,0.001,0.010919074023622353,0.007942672835166798,16.679751745998598,0.011905604386865522,0.012166644388344139
391,0.25,0.001,0.010945676195569434,0.008061625889002236,16.162217377575203,0.01153620084052477,0.012772115296684206
392,0.25,0.001,0.01094172363409439,0.007963762834147596,16.688492970695663,0.011911843662166783,0.012021313654258847
393,0.25,0.001,0.010953960476613981,0.008009884250248624,16.49860304620068,0.01177630481527529,0.012435356853529811
394,0.25,0.001,0.010920512632316377,0.008014388968070002,16.285917940098127,0.011624495317700304,0.01397672004532069
395,0.25,0.001,0.01105654920862101,0.008101608953947063,16.559485581243923,0.011819761299959973,0.016760001541115344
396,0.25,0.001,0.011006210141664769,0.008018349647099014,16.743971050045896,0.011951442576763666,0.015283799031749368
397,0.25,0.001,0.010994488845160435,0.008083526085753108,16.313035356946386,0.011643851075621974,0.016772346920333803
398,0.25,0.001,0.010950391233683153,0.008006665550627822,16.49663961818645,0.011774903367727659,0.011501617555040866
399,0.25,0.001,0.010963302435084981,0.007945463663235503,16.911968976649653,0.012071355443718524,0.015065516869071871
400,0.25,0.001,0.011083538574878305,0.008166164422090528,16.348964657845976,0.011669496543787277,0.01403984846547246
401,0.25,0.001,0.011083234138136087,0.008015635177314151,17.19082495010576,0.012270396109996974,0.01813323108945042
402,0.25,0.001,0.01104736040594406,0.008164372630661361,16.15626366377918,0.011531951223254231,0.013699048664420843
403,0.25,0.001,0.011007677881640898,0.007984922720957141,16.939520248679614,0.012091020877001866,0.011699516093358397
404,0.25,0.001,0.010961922023884595,0.007984137056826504,16.687506138497564,0.011911139285151723,0.015134829562157393
405,0.25,0.001,0.010888146887244616,0.007971153090256531,16.34683411610699,0.011667975814494639,0.012591676786541939
406,0.25,0.001,0.010901765832799492,0.007893138776602443,16.86034607783155,0.012034508263976838,0.01296982984058559
407,0.25,0.001,0.01090211527397669,0.007942002396786578,16.588471258571573,0.011840450577138882,0.012059831526130438
408,0.25,0.001,0.010952466200044843,0.007928513563909124,16.946230492737616,0.012095810487321638,0.01244389486964792
409,0.25,0.001,0.011003211758803071,0.008157706361947232,15.946213459864454,0.011382022455292259,0.0164567754836753
410,0.25,0.001,0.01096947295143875,0.007881384521852934,17.305648378930236,0.012352354303304952,0.014588290709070861
411,0.25,0.001,0.011015409197023863,0.008139349349396198,16.117440660968096,0.011504240300476871,0.013861997053027153
412,0.25,0.001,0.010898090142545221,0.007871043217657175,16.963572048203915,0.012108188471237626,0.011806622031144798
413,0.25,0.001,0.010885468179839928,0.007929241512475056,16.566693584991857,0.011824906199137656,0.013159162015654147
414,0.25,0.001,0.010887033981169416,0.008005915779018507,16.14578601054229,0.01152447252715367,0.010450505593325943
415,0.25,0.001,0.010949895863612407,0.007878503223319892,17.21208458279939,0.01228557072291177,0.013165640295483172
416,0.25,0.001,0.01087343939641027,0.008018786412985044,15.997477344029855,0.0114186133790363,0.012002943200059235
417,0.25,0.001,0.01085048704509782,0.007938893192638867,16.316572239305255,0.01164637561692024,0.014481431746389717
418,0.25,0.001,0.010870529802345293,0.007949076700695347,16.371822632035833,0.011685812014301095,0.012057521205861121
419,0.25,0.001,0.010835069687182987,0.007815439101536332,16.92200998031416,0.012078522469888766,0.010027041309513152
420,0.25,0.001,0.010864283511309384,0.007999204699047658,16.05590254771137,0.011460315879879635,0.012932236073538661
421,0.25,0.001,0.010817570758243316,0.00790829813986301,16.303563347029375,0.011637090183461367,0.011019244906492531
422,0.25,0.001,0.010837322227071206,0.007878036217918563,16.583838516968306,0.011837143837950254,0.011404881137423217
423,0.25,0.001,0.010955902666471671,0.008010182598825365,16.507814640561566,0.011782879829094622,0.015515093575231731
424,0.25,0.001,0.010946834939796332,0.00799885640270585,16.520471714469544,0.011791914143090323,0.01139746478293091
425,0.25,0.001,0.010930805397931665,0.007922443004089152,16.858863022650173,0.012033449694968003,0.011383427656255662
426,0.25,0.001,0.01091626397940009,0.007890217585741302,16.957963710268512,0.012104185374923991,0.011770387296564877
427,0.25,0.001,0.010816360205639659,0.007872670990573528,16.49643483224394,0.011774757196462484,0.011380423442460597
428,0.25,0.001,0.010895371786827084,0.00798083838547161,16.333046059421058,0.0116581342322777,0.013917416101321578
429,0.25,0.001,0.010864966768592466,0.007946052854905091,16.357593611338253,0.011675655682611173,0.012559338007122278
430,0.25,0.001,0.010883682675854869,0.007992003495321004,16.204970663811963,0.011566717104790838,0.01234741712687537
431,0.25,0.001,0.010967134510260481,0.00798084549849861,16.73516358454675,0.011945156020375982,0.014032558188773692
432,0.25,0.001,0.010886792605946157,0.007850703114326474,17.01424582035781,0.012144358187264675,0.010950013296678662
433,0.25,0.001,0.01092139586773762,0.007966514961493067,16.55915361929148,0.011819524353527108,0.012167841487098485
434,0.25,0.001,0.010764255733371562,0.007792505862671215,16.653687506263434,0.011887000361358625,0.01147778588347137
435,0.25,0.001,0.010963672967261622,0.00797516299110703,16.74761050028572,0.011954040328540843,0.013651073561049998
436,0.25,0.001,0.010910574537925585,0.007967794153383856,16.491341349339383,0.011771121591248667,0.01297135022468865
437,0.25,0.001,0.010844138613597015,0.007926595263085512,16.349914496642533,0.011670174515804805,0.011858075042255223
438,0.25,0.001,0.010845034741125513,0.007869777228992318,16.673343521018214,0.011901030350476955,0.012306854361668229
439,0.25,0.001,0.010920387676481857,0.007927132900560267,16.77419944829816,0.011973018878157144,0.013856309931725264
440,0.25,0.001,0.01096844212782435,0.007936541418093522,16.99077123117239,0.012127602591843246,0.01240466209128499
441,0.25,0.001,0.010935546407337793,0.00793025314433736,16.841663635453802,0.012021173187333192,0.013742048060521483
442,0.25,0.001,0.010977200114505781,0.007972641856161528,16.837545215823244,0.012018233558760345,0.014610163518227637
443,0.25,0.001,0.010867661768041844,0.007881541701855227,16.73421647350861,0.011944479995366603,0.010887636861298233
444,0.25,0.001,0.010868765055872988,0.007895620145294083,16.661503837618767,0.011892579470106187,0.01012130209710449
445,0.25,0.001,0.010860824087171055,0.007941587075721228,16.359405142771624,0.011676948710043987,0.010982557490933686
446,0.25,0.001,0.010804081575611532,0.007883408444417095,16.367451438737227,0.011682691961982317,0.011068643885664642
447,0.25,0.001,0.01086411172093002,0.007921152634294012,16.492343648552374,0.011771837008245805,0.011858366546221077
448,0.25,0.001,0.010888325078941588,0.007855058617190373,16.99842493815193,0.012133065623234783,0.012393166427500546
449,0.25,0.001,0.010811531021540342,0.007900645092178511,16.312604887516738,0.011643543816928436,0.012233199318870902
450,0.25,0.001,0.010934595547323664,0.007920421814489053,16.891430388371496,0.012056695494911847,0.01291126845171675
451,0.25,0.001,0.010882759145481357,0.007913317336135556,16.64075195112603,0.011877767274179893,0.01383323804475367
452,0.25,0.001,0.010833812295967575,0.007928394700306993,16.281960358265707,0.011621670491267456,0.015298187150619924
453,0.25,0.001,0.010963449026884991,0.007919221856188045,17.059848760413292,0.012176908465676869,0.017196145956404507
454,0.25,0.001,0.011005079922750266,0.008038864361211723,16.62267223091625,0.011864862406078695,0.014119985979050398
455,0.25,0.001,0.010919857054428243,0.008017012688807135,16.267540952524243,0.01161137826732637,0.01323623361531645
456,0.25,0.001,0.010929379990430118,0.007928637332205689,16.8161619094782,0.012002970670576874,0.010236167348921299
457,0.25,0.001,0.0108776897208269,0.007956350671623601,16.371185036205308,0.011685356913779662,0.011510636075399816
458,0.25,0.001,0.010797038572681782,0.007760723337010525,17.01551018427553,0.012145260659725576,0.012637659208849072
459,0.25,0.001,0.010864661128044649,0.007971346719946924,16.214134224637625,0.011573257833431567,0.01322067272849381
460,0.25,0.001,0.010847192924616118,0.007919099785826743,16.409035332858824,0.011712373542368896,0.011865995184052736
461,0.25,0.001,0.010913124552004723,0.007826195879306596,17.29914747679598,0.012347714116199842,0.013734625303186476
462,0.25,0.001,0.010846276950562886,0.007887455923523445,16.581232803877786,0.011835283942810696,0.014711100375279784
463,0.25,0.001,0.01084985939061928,0.007872420521737707,16.685566989615495,0.01190975516746288,0.012593817664310336
464,0.25,0.001,0.01090546912111049,0.007873396791810552,16.991733009638224,0.012128289086108654,0.010864074458368123
465,0.25,0.001,0.010836952841763413,0.00782006179027292,16.90665701487179,0.012067563893555882,0.01154008717276156
466,0.25,0.001,0.010875042861400733,0.00793120784351529,16.49725224357505,0.011775340644950073,0.013322509592399001
467,0.25,0.001,0.010857636076459197,0.007923677437593063,16.441902968560765,0.011735833667780703,0.01337480719666928
468,0.25,0.001,0.010902616532934284,0.00799168577198118,16.312856890749202,0.011643723690756034,0.011509534786455333
469,0.25,0.001,0.010968207105115773,0.00805552716989184,16.322659346734593,0.011650720447348032,0.0131290836725384
470,0.25,0.001,0.010840283840992304,0.007832331798450136,16.856562860147402,0.012031807894466383,0.013570838840678334
471,0.25,0.001,0.010842925848593879,0.00797186231476511,16.08944015836091,0.011484254217245476,0.012394829420372844
472,0.25,0.001,0.01083986939837969,0.007801891023935709,17.02483065576012,0.012151913387409079,0.012982893968001008
473,0.25,0.001,0.010790332492977771,0.007864703631687373,16.39522413395378,0.011702515441794275,0.012404642882756889
474,0.25,0.001,0.01084329976850722,0.007878949269896381,16.612220605908522,0.01185740228830016,0.01065203413600102
475,0.25,0.001,0.0108272205655947,0.007908106051531812,16.358718047496012,0.011676458278012856,0.011181221168953925
476,0.25,0.001,0.010836608634700422,0.007870725449581334,16.62081022970541,0.011863533354536337,0.011966544087044895
477,0.25,0.001,0.010809731299635104,0.007885043216486946,16.389952280635917,0.011698752520082739,0.013435693748760968
478,0.25,0.001,0.010799647264150032,0.0079022698494805,16.236902736680477,0.01158950944802318,0.011552694370038807
479,0.25,0.001,0.010836030226444833,0.007832427143107074,16.83219305813052,0.012014413317723427,0.012627959484234452
480,0.25,0.001,0.010838605951534089,0.007882367081403342,16.566763873704137,0.011824956369524723,0.013281798455864191
481,0.25,0.001,0.010887347056030186,0.007856298681332294,16.98599592150559,0.012124194091010414,0.0170471923192963
482,0.25,0.001,0.010934611359472879,0.008039432655060135,16.224582455564274,0.011580715528596913,0.01643061579670757
483,0.25,0.001,0.010779479307053391,0.007733331722772668,17.070611741345,0.012184590821802285,0.012607351527549326
484,0.25,0.001,0.010771278881642756,0.007904742811867503,16.064067873892306,0.011466144092713994,0.011017918295692652
485,0.25,0.001,0.010811350292091026,0.007799565259318425,16.878043786927602,0.012047140461761315,0.014571526495274156
486,0.25,0.001,0.01090894473562074,0.007956617031913396,16.54484433169969,0.01180931072926459,0.016305795637890697
487,0.25,0.001,0.01086948034007867,0.00784263264705065,16.962454608434154,0.012107390869688903,0.010823652206454426
488,0.25,0.001,0.010872939459198688,0.007990917272247601,16.150852536530476,0.011528088891170933,0.014149041613563895
489,0.25,0.001,0.01099160747138954,0.007909146009427881,17.27411388413875,0.01232984574171217,0.012086775037460029
490,0.25,0.001,0.0109276483201434,0.00793379275778951,16.777566526654507,0.011975422217455038,0.012147796573117375
491,0.25,0.001,0.010973501543811316,0.007954612069287414,16.917856966043665,0.012075558148496549,0.012727272231131792
492,0.25,0.001,0.01084580232173725,0.007975570751785191,16.084777090747284,0.011480925832082288,0.012778189731761813
493,0.25,0.001,0.010849533118632943,0.007777011745881826,17.218410308704627,0.01229008587345084,0.012808574247173965
494,0.25,0.001,0.010786298137792593,0.007933048153190373,15.989612137906937,0.01141299938465877,0.011549161281436682
495,0.25,0.001,0.010799964426256163,0.007847128061813558,16.54769453523461,0.011811345135784874,0.011638491530902684
496,0.25,0.001,0.010807487304326489,0.007815432862895155,16.767473574809113,0.011968218111926561,0.012088276911526918
497,0.25,0.001,0.010825810779097559,0.007874932384126572,16.536722907853438,0.011803513852857557,0.014201551675796509
498,0.25,0.001,0.010718871587196031,0.007745680622919158,16.661762129271395,0.011892763832456384,0.012667523347772658
499,0.25,0.001,0.010879330125568215,0.007959660720161476,16.36182678422553,0.011678677219290173,0.01268172962591052
500,0.25,0.001,0.010771816677727033,0.0077468270403394015,16.95204222566696,0.012099958762074918,0.010948241339065135
