epoch,beta,learning_rate,train_loss,train_reconstruction_loss,train_kl_unnormalized,train_kl_normalized,mean_unclipped_gradient_norm
1,0.0,0.001,0.09369701062072844,0.09369701062072844,2.2796839867662264,0.001627183430953766,0.09989393254121144
2,0.02,0.001,0.08550133346111183,0.08488990731487338,42.83040818592046,0.03057131205276264,0.14415900905927023
3,0.04,0.001,0.07388497288995141,0.06836917656380058,193.19087352368655,0.13789498467072558,0.144965926806132
4,0.06,0.001,0.06366525660425225,0.051689446322469905,279.63515620903684,0.19959682812921972,0.14325947562853494
5,0.08,0.001,0.05288136942974673,0.04270196496040229,178.26679757137427,0.1272425393086183,0.13267920662959418
6,0.1,0.001,0.04324103511819904,0.0369300528510705,88.41685634331415,0.06310981894597727,0.12447627633810043
7,0.12,0.001,0.03989562167217268,0.03248256106154631,86.5474894990857,0.06177550999220963,0.08989452322324117
8,0.14,0.001,0.039653643715701646,0.030495963840676633,91.64220653764353,0.06541199610110174,0.09912539770205815
9,0.16,0.001,0.038115392545325644,0.03118024186399959,60.72590816420997,0.04334468819715201,0.08627767240007718
10,0.18,0.001,0.03594039213037331,0.03023434077833323,44.41210310251121,0.031700287724847405,0.09315602978070577
11,0.2,0.001,0.03430875408269415,0.029646112152294023,32.66180867956789,0.023313211048942108,0.06367798025409381
12,0.22,0.001,0.03353345411635885,0.030498317049053692,19.32830815667274,0.013796080054727152,0.0697071651617686
13,0.24,0.001,0.0325530188895712,0.029495260896998762,17.849665225752247,0.012740660403820304,0.0813537488381068
14,0.25,0.001,0.03231987942185178,0.02958600361825236,15.320642695330934,0.010935505135853629,0.0874253132690986
15,0.25,0.001,0.031239940366088945,0.027858802373677292,18.947893757148076,0.013524549434081426,0.07848771723608176
16,0.25,0.001,0.03017452621719981,0.02701216896108333,17.72184939032433,0.012649428544128715,0.05148805367449919
17,0.25,0.001,0.029882593692949155,0.026674706788871114,17.97699670983641,0.012831546545208001,0.06865326315164566
18,0.25,0.001,0.027734439094994692,0.024845003419174443,16.19240037546862,0.011557744736237415,0.03638534185787042
19,0.25,0.001,0.026456863738146406,0.023520408085728653,16.455898169703133,0.011745823104713157,0.039879320189356804
20,0.25,0.001,0.026072163747361043,0.02293867580342613,17.56006825850314,0.012533953075305596,0.14557759712139764
21,0.25,0.001,0.025432990551394904,0.021565415152667352,21.673891361927826,0.015470300757978462,0.11572003364562988
22,0.25,0.001,0.025023002552506106,0.021248815281179126,21.15054729640884,0.015096750390013446,0.09697764863570531
23,0.25,0.001,0.024344010778621538,0.020687420858732805,20.491530872831408,0.014626360366046687,0.12914729863405228
24,0.25,0.001,0.024194570420772436,0.020594547058911932,20.174530298117823,0.014400093003652978,0.09936222185691197
25,0.25,0.001,0.023994536595356546,0.02067668142184715,18.59326374130761,0.013271423084445117,0.07029025256633759
26,0.0,0.001,0.0199407762504064,0.0199407762504064,20.005415910042373,0.014279383233434955,0.0517430417239666
27,0.02,0.001,0.01948087741214557,0.019132928310224673,24.373822705057645,0.017397446613174623,0.06217650634547075
28,0.04,0.001,0.01899971865467577,0.018118948181903603,30.848980871622995,0.022019258295234115,0.022027896096309025
29,0.06,0.001,0.019239681629126502,0.017627481021137044,37.644894670320035,0.026870017609079255,0.059040721505880356
30,0.08,0.001,0.019685897026086013,0.01726746570393943,42.352767688315986,0.030230383788947886,0.06467395337919395
31,0.1,0.001,0.020049800671287032,0.016754227596641386,46.17098760924883,0.03295573705156948,0.035227786749601364
32,0.12,0.001,0.02069644314930743,0.016758352986868195,45.977206518186016,0.032817420783858686,0.07616984099149704
33,0.14,0.001,0.020714764114494293,0.016553459126477273,41.64277856301941,0.029723610680242263,0.03087242196003596
34,0.16,0.001,0.02073349241142305,0.0168238379086224,34.23390895408272,0.02443533829698981,0.02930696743230025
35,0.18,0.001,0.021036553827908214,0.017530902757640653,27.285647936315346,0.019475837213644074,0.04260419557491938
36,0.2,0.001,0.02067338525248854,0.017264867263952356,23.876670875805335,0.017042591631552702,0.0441312442223231
37,0.22,0.001,0.021079451095737868,0.017790828725235575,20.942542133715328,0.01494828132313728,0.03665607050061226
38,0.24,0.001,0.02118521792526613,0.01780116999359339,19.754380360545728,0.014100200114593666,0.042410229643185936
39,0.25,0.001,0.02077948968332486,0.01725492145141099,19.751681475031297,0.014098273715225765,0.019905294602115948
40,0.25,0.001,0.02095167278843438,0.017305143102503463,20.435155190077403,0.014586120763795434,0.029511614392201107
41,0.25,0.001,0.02046630319032893,0.016845985196980853,20.288260773524343,0.014481271073179402,0.024206942568222683
42,0.25,0.001,0.02012477313862151,0.01646195722106319,20.526421399724562,0.014651264382387268,0.029452245061596233
43,0.25,0.001,0.01974405538315741,0.01618273568108378,19.95763838851212,0.014245280791229208,0.08162868767976761
44,0.25,0.001,0.01924470139529881,0.015869926967526843,18.912238690677107,0.013499099707835194,0.10068026247123878
45,0.25,0.001,0.018764552704039837,0.015331472351447047,19.23898280866994,0.013732321776352564,0.08281985546151797
46,0.25,0.001,0.018640612245806112,0.014910036085436009,20.90615084347309,0.014922306098124975,0.11550827945272128
47,0.25,0.001,0.018558059212745438,0.014984401074181867,20.026782707880006,0.014294634338244116,0.11064365630348523
48,0.25,0.001,0.018767473919179614,0.01526816114283248,19.610150202808764,0.013997252107643658,0.14470247427622476
49,0.25,0.001,0.01866373819792831,0.015338757106621793,18.633194046532548,0.013299924372971126,0.15176151444514593
50,0.25,0.001,0.01761984797632134,0.013951141580989297,20.559430768825862,0.01467482567368013,0.08820151289304097
51,0.0,0.001,0.014170806717452586,0.014170806717452586,20.070212114577327,0.014325633200983102,0.09653144950668018
52,0.02,0.001,0.013610025205268156,0.013261270346807554,24.43027495057791,0.017437740864081307,0.06019940475622813
53,0.04,0.001,0.013531233184039593,0.012705670800935102,28.915314079131058,0.02063905358967242,0.07441222916046779
54,0.06,0.001,0.013793938636979801,0.012266398976313188,35.66805218690194,0.025458995136974975,0.07010769657790661
55,0.08,0.001,0.01419789568464828,0.012000567142245353,38.480712327381106,0.027466604088066456,0.06856602647652228
56,0.1,0.001,0.014605870920439695,0.01152922380590599,43.10382630521019,0.03076647130992876,0.07061313341061275
57,0.12,0.001,0.015112206352337095,0.011470724916048098,42.514295590803926,0.030345678508782246,0.04414434110124906
58,0.14,0.001,0.015435263414510944,0.011455031018079128,39.830754273689834,0.028430231458736497,0.052694923554857574
59,0.16,0.001,0.01559769487220969,0.011820368743782875,33.07521436038434,0.02360829005023864,0.08377772569656372
60,0.18,0.001,0.015618921876353706,0.011925298726848707,28.748697767321694,0.02052012688602548,0.03309047346313795
61,0.2,0.001,0.016056486786711937,0.012418241015066637,25.485910710072357,0.018191228201336444,0.05514576348165671
62,0.22,0.001,0.016263576649479417,0.012733828557667717,22.478072684883273,0.016044305984927388,0.05735903357466062
63,0.24,0.001,0.016630143964750654,0.012908848277574417,21.723066368359046,0.015505400691191324,0.08799941837787628
64,0.25,0.001,0.015933179252799724,0.012454874351020627,19.49241979970228,0.013913218986225752,0.04368061199784279
65,0.25,0.001,0.01618700258233803,0.012695124391591388,19.56848778180628,0.01396751447666401,0.05123676794270674
66,0.25,0.001,0.016623379337607613,0.013149713672347517,19.46642655494229,0.013894665635219338,0.05579554941505194
67,0.25,0.001,0.015873074144024977,0.012187287336427894,20.655150970356576,0.014743148444223109,0.031797198578715324
68,0.25,0.001,0.016193595733618577,0.012604900098237014,20.111049588094623,0.014354782004350196,0.04626755012820164
69,0.25,0.001,0.01588444384877514,0.012370952723810337,19.68960683937841,0.014053966337886088,0.036096168061097465
70,0.25,0.001,0.01553536591513845,0.012088895594113625,19.314020246467333,0.01378588168912729,0.03346991787354151
71,0.25,0.001,0.016090325548644833,0.012771977230456451,18.59602449404313,0.01327339364314285,0.02787037566304207
72,0.25,0.001,0.015819304791472904,0.012500812805839033,18.596828537499345,0.013273967549963843,0.05675192301472028
73,0.25,0.001,0.01542592291163918,0.011997876951358462,19.21077054939014,0.013712184546317016,0.05718840813885132
74,0.25,0.001,0.01584721802915103,0.012315314825649229,19.792786719815044,0.0141276136472627,0.05781269446015358
75,0.25,0.001,0.015835434035866854,0.012340829507666547,19.583765913176055,0.013978419638241295,0.052594805136322975
76,0.0,0.001,0.01188125915750361,0.01188125915750361,19.60919392988986,0.013996569543104824,0.0534932812054952
77,0.02,0.001,0.011483920438077626,0.011149787525302612,23.405997666736578,0.01670663645020455,0.04107214758793513
78,0.04,0.001,0.011868757258275612,0.01103240855963238,29.293107000773386,0.020908713062650526,0.0456123078862826
79,0.06,0.001,0.012107762583100156,0.010596184122482403,35.29536212690724,0.025192977963531222,0.07178548102577527
80,0.08,0.001,0.012525837993461814,0.010164647319372869,41.35035021993138,0.02951488238396244,0.05188006597260634
81,0.1,0.001,0.01324098701620062,0.010176959272549056,42.927025993398374,0.030640275512775428,0.09119668106238048
82,0.12,0.001,0.013373396853172539,0.009652793232426547,43.43805044289403,0.03100503243604142,0.04875807588299116
83,0.14,0.001,0.013833710986295803,0.009930132456973896,39.06367249456828,0.02788270699112654,0.03816068638116121
84,0.16,0.001,0.013763962669810594,0.009876289423680145,34.04144011887928,0.02429795868585245,0.024386063838998478
85,0.18,0.001,0.013842548499971428,0.010238440013521869,28.051975967100002,0.020022823673875804,0.01344328373670578
86,0.2,0.001,0.014110750662500426,0.010760048554347666,23.471667500950346,0.016753509993540576,0.037057001143693924
87,0.22,0.001,0.014348301342719753,0.010989985003717393,21.386368450702438,0.015265073840615588,0.04110593845446905
88,0.24,0.001,0.014717278627041202,0.011240380772408224,20.29639091747719,0.014487074173788144,0.026761374125878017
89,0.25,0.001,0.014835677378429663,0.011316758355488314,19.720023187214895,0.014075676793158383,0.024666291972001392
90,0.25,0.001,0.014872503235636141,0.011244991981743165,20.328575339093305,0.014510046637468455,0.018549776791284483
91,0.25,0.001,0.014725271718664057,0.01106872576470143,20.49128350635503,0.014626183801823718,0.04156166252990564
92,0.25,0.001,0.01468772954313747,0.011072926717066525,20.257353430626377,0.014459210157477786,0.039686860516667366
93,0.25,0.001,0.01487191747123963,0.011271190529551682,20.17847438786654,0.014402908199761984,0.05885526475807031
94,0.25,0.001,0.014756242325841981,0.011267756424444234,19.54947343608677,0.013953942495422391,0.06431970496972401
95,0.25,0.001,0.014830609383499062,0.01158498086335275,18.188500948400307,0.01298251316802306,0.04471595771610737
96,0.25,0.001,0.014465317905149204,0.011157396080709944,18.53759334231383,0.013231686896726503,0.044299595057964325
97,0.25,0.001,0.014822379123394522,0.0113871486595013,19.25103324531709,0.013740923087306987,0.04593234943846861
98,0.25,0.001,0.014690166114260687,0.011388861605485013,18.500511988697436,0.013205219121125936,0.036651636784275375
99,0.25,0.001,0.01419273827650003,0.01086988036314513,18.621296376989992,0.01329143210349036,0.046432359144091606
100,0.25,0.001,0.014385440755610499,0.011014241506439327,18.8922004955727,0.013484796927603638,0.05133736878633499
101,0.25,0.001,0.014300343636798378,0.01085268792965068,19.320664540233228,0.01379062422571965,0.03066301190604766
102,0.25,0.001,0.01463092345394344,0.011162448143148982,19.43733663366945,0.013873901951227301,0.02641830158730348
103,0.25,0.001,0.01445737028581984,0.010928936215155076,19.773344539155897,0.014113736287762952,0.05413553367058436
104,0.25,0.001,0.014101022166893786,0.010639489765885293,19.39842757922691,0.013846129606871458,0.044453464448451996
105,0.25,0.001,0.014342259021863441,0.01116337830938349,17.81445021917356,0.012715524781708464,0.0615204938997825
106,0.25,0.001,0.014235679747774297,0.010955106379501771,18.384332324034414,0.013122292879396442,0.06286308169364929
107,0.25,0.001,0.014227751604962669,0.010876863738584439,18.778376444874194,0.013403552066291359,0.07390219531953335
108,0.25,0.001,0.014190685685298987,0.010880251558835074,18.55167319790629,0.01324173675796309,0.04330109370251497
109,0.25,0.001,0.014149708598352118,0.010979231065701719,17.76735574607081,0.012681909882991298,0.05239857609073321
110,0.25,0.001,0.013705192283795985,0.010453489759074362,18.222540810604222,0.013006810000431279,0.03283190727233887
111,0.25,0.001,0.013956615963838244,0.010599672738087658,18.812310673246447,0.01342777349981902,0.051131622244914375
112,0.25,0.001,0.013935150841138506,0.010706717392192191,18.09214173387361,0.012913734285420137,0.021598670010765392
113,0.25,0.001,0.013627036843423876,0.01044343242534255,17.840919072195987,0.012734417610418264,0.026112413654724758
114,0.25,0.001,0.0136930266982757,0.010433510458409387,18.266329310884412,0.013038065175506361,0.036559851840138435
115,0.25,0.001,0.013427382397571666,0.01012262935756437,18.51983627216928,0.01321901232845773,0.024141830081741016
116,0.25,0.001,0.013772571946950567,0.010577392508119544,17.905787935192954,0.012780719439823665,0.021978653346498806
117,0.25,0.001,0.013530837878234834,0.010379523145122416,17.659967716908294,0.012605258898578369,0.020665868495901425
118,0.25,0.001,0.01370045031427137,0.010411633247347086,18.430529396005927,0.013155267234836492,0.026179053510228794
119,0.25,0.001,0.013669190747075833,0.010407739637682102,18.27717253665796,0.013045804808463927,0.03170835444082817
120,0.25,0.001,0.01361296709701919,0.01046547325540509,17.638555027494494,0.012589975037469303,0.03160073235630989
121,0.25,0.001,0.01311723482888817,0.009934865988340954,17.833995460663864,0.012729475703543087,0.013489752697447935
122,0.25,0.001,0.013382450333677682,0.01012814683752172,18.237117242493085,0.013017214305848027,0.04646008927375078
123,0.25,0.001,0.01315435010239782,0.010072065186030512,17.273125846913995,0.012329140504578156,0.026456241495907307
124,0.25,0.001,0.013704029324420747,0.01077551920992016,16.41137202474095,0.011714041416660206,0.04516683518886566
125,0.25,0.001,0.013235068048706791,0.010125045202072434,17.4285686032084,0.012440091793867524,0.030232807000478108
126,0.25,0.001,0.013296206594263548,0.009956046451358187,18.718258774520567,0.013360641523569285,0.03432594798505306
127,0.25,0.001,0.01335900002502955,0.009987550493854804,18.893603766524553,0.013485798548554286,0.027811584683756035
128,0.25,0.001,0.013207536340759905,0.009889921029692128,18.591916321108005,0.013270461328413995,0.036264773458242416
129,0.25,0.001,0.013325079487974211,0.010059030720301523,18.302937654840868,0.013064195328223317,0.0369238822410504
130,0.25,0.001,0.012992265140450241,0.009709416038587989,18.39708704596398,0.013131396892194131,0.034516875011225544
131,0.25,0.001,0.012925080886273177,0.009733771067737733,17.88410010113812,0.012765239187107867,0.040849429865678154
132,0.25,0.001,0.01313281018011922,0.010064247926859648,17.1962230925592,0.012274249173846681,0.035011861473321915
133,0.25,0.001,0.013388049457497244,0.01031339776095928,17.230347127722414,0.012298606086882522,0.034773837154110275
134,0.25,0.001,0.012796501322780679,0.009634423869718241,17.720282535424968,0.012648310160902903,0.025845177471637726
135,0.25,0.001,0.012641895306140384,0.009427054891450293,18.01596715786313,0.012859362710823077,0.015377663696805636
136,0.25,0.001,0.01277907187706672,0.009599222782874268,17.819874718685277,0.01271939665859049,0.020376148633658886
137,0.25,0.001,0.012664649023005627,0.009597410247879941,17.18880522811173,0.012268954481164688,0.020276105652252834
138,0.25,0.001,0.012879845792515165,0.009869249237563786,16.87138225888246,0.012042385623756216,0.018298009410500526
139,0.25,0.001,0.012813890390348115,0.009704918419354714,17.42267988832205,0.012435888571250572,0.022836359838644665
140,0.25,0.001,0.012774662858487777,0.009622826534729676,17.662890197446682,0.012607344894680001,0.013145052827894688
141,0.25,0.001,0.01276297786666843,0.009682060975656413,17.265457959783156,0.012323667351736728,0.015209151121477285
142,0.25,0.001,0.012543606928130925,0.009515388649982094,16.970133480609665,0.012112871863390197,0.01939199212938547
143,0.25,0.001,0.012480158858851299,0.009502093613947799,16.689077678142777,0.0119122610122361,0.02641226661701997
144,0.25,0.001,0.012851237663186637,0.009825534962317688,16.956038699054076,0.012102811348361225,0.0440476859609286
145,0.25,0.001,0.01276801959080184,0.009630987326920833,17.579929838244546,0.012548129791751995,0.04650519974529743
146,0.25,0.001,0.012701195233420238,0.009541097378370746,17.709188499706702,0.012640391505857745,0.044727498665452003
147,0.25,0.001,0.012415408019301475,0.00934046309991371,17.23199131344789,0.012299779666986359,0.015791488500932854
148,0.25,0.001,0.012468113301434373,0.00944221454153725,16.95713701184164,0.012103595297531505,0.02622006523112456
149,0.25,0.001,0.012542429067594493,0.009500716894164981,17.045754682297673,0.012166848452746376,0.025226156848172348
150,0.25,0.001,0.01227888794953391,0.009268623882992155,16.869519265706106,0.01204105586417281,0.020069189680119354
151,0.25,0.001,0.012245108804746762,0.009221389308421804,16.944923733704844,0.012094877754250423,0.016049252822995186
152,0.25,0.001,0.012349931966988432,0.009330148939918351,16.922865105955392,0.012079132837941037,0.022311771909395855
153,0.25,0.001,0.012413956624949539,0.009403996007054443,16.867820406920156,0.012039843259757427,0.026082377259929974
154,0.25,0.001,0.012271668805722022,0.00916060855949685,17.434384070786855,0.012444242734323237,0.026578137340644997
155,0.25,0.001,0.01219028325738923,0.009029745399301884,17.711653280578204,0.012642150806979446,0.025619664539893467
156,0.25,0.001,0.012309921736635218,0.009169816308273565,17.59715118664223,0.012560421974762476,0.018926375545561314
157,0.25,0.001,0.01230733092224238,0.009259938612430288,17.077585693973823,0.012189568660937775,0.01873416422555844
158,0.25,0.001,0.012110080726244705,0.00910463971054594,16.842490983489377,0.012021763728400697,0.009647768611709276
159,0.25,0.001,0.012190446445105859,0.009229716026042932,16.59193301360879,0.011842921494367446,0.02532031076649825
160,0.25,0.001,0.012105638836354217,0.009171993227913075,16.440151560226543,0.011734583554765554,0.01285036870588859
161,0.25,0.001,0.01205624632487361,0.009061151827941805,16.78450912757208,0.011980377678495416,0.027160414805014927
162,0.25,0.001,0.012091258953281697,0.00915718246126335,16.44256280732635,0.011736304644772556,0.02107327866057555
163,0.25,0.001,0.011947978469199382,0.009073887889167206,16.106403734860002,0.01149636240889365,0.031926875934004784
164,0.25,0.001,0.01213215061482167,0.009224114026999313,16.296638219948584,0.011632147194824114,0.02055205466846625
165,0.25,0.001,0.012151573440872582,0.00919087817454898,16.591736697510584,0.011842781368672794,0.013304887960354487
166,0.25,0.001,0.011849726025240133,0.008866761161026939,16.71653428173705,0.011931858873473984,0.016902077943086624
167,0.25,0.001,0.011899550676645849,0.008933212045555148,16.62336134430546,0.011865354278590623,0.023264589719474316
168,0.25,0.001,0.012092694102617717,0.009120278923003466,16.65741605566652,0.011889661709968965,0.029631680498520534
169,0.25,0.001,0.012047117338484566,0.00898881759119514,17.138711724505328,0.0122331989468275,0.01745103703190883
170,0.25,0.001,0.011879475262241075,0.008844512321004932,17.007932982988805,0.012139852236251823,0.013256328801314035
171,0.25,0.001,0.01202452987832511,0.009068627641755063,16.564875199490746,0.01182360827943665,0.02536548487842083
172,0.25,0.001,0.01187210357529205,0.008906239374922026,16.620701284216555,0.011863455591874772,0.02930392511188984
173,0.25,0.001,0.011927232352529196,0.008960220018939284,16.627137446563516,0.011868049569281596,0.021614084175477426
174,0.25,0.001,0.011579053838981078,0.008599498321696016,16.697428703308105,0.011918221772525415,0.01748953852802515
175,0.25,0.001,0.011827815761602165,0.008880659250305003,16.51586576116165,0.011788626524740648,0.016112561337649822
176,0.25,0.001,0.012034801803779282,0.009060186583973817,16.66974478600009,0.011898461660242748,0.04015714426835378
177,0.25,0.001,0.01197624768461757,0.009059346312244466,16.346313873393424,0.011667604477796877,0.044318586587905884
178,0.25,0.001,0.012014313325935963,0.009203574401420235,15.75138058758422,0.011242955451523356,0.03897768879930178
179,0.25,0.001,0.011791780878533453,0.00883353509683937,16.57800921497729,0.011832983022824617,0.03226559981703758
180,0.25,0.001,0.011974724322157418,0.008903094948638205,17.213410703927877,0.012286517276179784,0.03839717370768388
181,0.25,0.001,0.011742071429855071,0.00882676826327439,16.33735865394541,0.011661212458205148,0.023857562492291134
182,0.25,0.001,0.011645550545830054,0.00874660502269164,16.245692041896334,0.011595783042038782,0.01692505149791638
183,0.25,0.001,0.01160331471079348,0.00856256081828935,17.04038548309531,0.012163016047891013,0.018039856106042862
184,0.25,0.001,0.011614064460982813,0.008611825676072363,16.824546186715963,0.012008955165393265,0.018573610422511894
185,0.25,0.001,0.011477913238708205,0.008567842198598305,16.308039620418675,0.011640285239413758,0.014181819123526415
186,0.25,0.001,0.011572113154368513,0.008706151839070673,16.060847352815156,0.011463845362466207,0.011386540873597065
187,0.25,0.001,0.011493553913779707,0.008594520546295899,16.246182723333373,0.011596133278610544,0.013259856961667538
188,0.25,0.001,0.01145595040847391,0.008493716422243407,16.600360217510453,0.011848936629200894,0.011109567557772001
189,0.25,0.001,0.011594767919772823,0.00857552150951936,16.91985793401731,0.012076986391161533,0.00927514179299275
190,0.25,0.001,0.011727572387496898,0.008756268869510433,16.651185656553945,0.011885214601394679,0.01652774742494027
191,0.25,0.001,0.011483999494238189,0.008537818408952463,16.51039878153961,0.011784724326580735,0.022433035696546238
192,0.25,0.001,0.011600345710679989,0.008665361772947664,16.44764902767719,0.011739935066150743,0.044469970588882766
193,0.25,0.001,0.011541443058108324,0.00856916548921758,16.656645378010385,0.011889111618851096,0.05109156295657158
194,0.25,0.001,0.01139370258897543,0.008526762453651669,16.066333066697087,0.011467760932688855,0.030136243750651676
195,0.25,0.001,0.011373557237870742,0.008577383254598451,15.66975965435873,0.011184696398542991,0.032367780804634094
196,0.25,0.001,0.011405525166516337,0.008611597589548402,15.657171671822567,0.011175711400301618,0.029775104175011318
197,0.25,0.001,0.011575897530521323,0.008759712484733971,15.781902729264841,0.011264741419889252,0.03383009942869345
198,0.25,0.001,0.011470107399177231,0.008599592410278,16.08636885521396,0.011482061995156287,0.029778229693571728
199,0.25,0.001,0.011414743522369621,0.008468360815122224,16.51152873199258,0.011785530857953305,0.02770110033452511
200,0.25,0.001,0.01133683758894069,0.008305176498755912,16.989428065767225,0.012126643872781746,0.01497227077682813
201,0.25,0.001,0.011357027043482201,0.008347016246676844,16.86810178564699,0.012040044101104203,0.02330100101729234
202,0.25,0.001,0.011523073276617384,0.008651097330120986,16.09455156006269,0.011487902612464447,0.01959056593477726
203,0.25,0.001,0.011443968718533948,0.008628995045269495,15.775111716865693,0.011259894159076154,0.014549169999857744
204,0.25,0.001,0.011226104609918275,0.008362651152548774,16.04679350884969,0.011453814067701419,0.023363760362068813
205,0.25,0.001,0.011266337757642637,0.008390967806038641,16.113571282201164,0.011501478431264214,0.028237455834945042
206,0.25,0.001,0.011158719608847727,0.008358951242353092,15.689902939252406,0.011199074189330768,0.023598029278218746
207,0.25,0.001,0.011408985961203608,0.008679920051171876,15.293686508332323,0.010916264459908868,0.02025685707728068
208,0.25,0.001,0.011298687866070127,0.008499944001286222,15.684159874116014,0.011194974927991446,0.030453926573197048
209,0.25,0.001,0.011269693094111929,0.008224776770994566,17.063711383998793,0.012179665513203992,0.026467890789111454
210,0.25,0.001,0.01131315805617995,0.008181446038136546,17.55011412601343,0.012526848055684103,0.016403143915037315
211,0.25,0.001,0.011267955739976175,0.008165165750722358,17.38803419330776,0.012411159309998402,0.015360929071903229
212,0.25,0.001,0.011215020689938293,0.008240464787255198,16.669412785728507,0.011898224686458606,0.016699941207965214
213,0.25,0.001,0.011107838387607328,0.00822550229628214,16.152612724560218,0.011529345270920926,0.01485537380600969
214,0.25,0.001,0.011053669466418307,0.008276999052989002,15.56046069228409,0.011106681436319836,0.024676079551378887
215,0.25,0.001,0.011158548864292218,0.008421186470245355,15.34017718398331,0.010949448382571956,0.027176061645150185
216,0.25,0.001,0.01100158980178753,0.00819105401185135,15.750243551779114,0.01124214386279737,0.02696701604872942
217,0.25,0.001,0.011027009157626421,0.008192621515251247,15.883908419001022,0.011337550620271964,0.01870252223064502
218,0.25,0.001,0.011034876264431732,0.008205679857840873,15.854815937528674,0.011316785108871288,0.015190258311728636
219,0.25,0.001,0.010932419499094854,0.008085586505648274,15.95365099298874,0.011387331187001241,0.01156452763825655
220,0.25,0.001,0.010997711174540072,0.008136651609968019,16.033379714761004,0.011444239625097077,0.014783057849854231
221,0.25,0.001,0.010989221950505404,0.00814123326074957,15.960130365102883,0.011391956006497417,0.01543374297519525
222,0.25,0.001,0.010873346989536846,0.008034690276988402,15.907832427312863,0.011354627000223314,0.011121532103667656
223,0.25,0.001,0.010900089492233807,0.008119916218339197,15.580090260345663,0.011120692548426597,0.013787440955638885
224,0.25,0.001,0.010958274651393794,0.008203964436664277,15.435154882853464,0.011017241172629168,0.01823160828401645
225,0.25,0.001,0.011096476658478679,0.00822971759351508,16.065316686694253,0.011467035465163635,0.017084280649820965
226,0.25,0.001,0.011080572781646812,0.008135468845924474,16.50436346322898,0.011780416461976431,0.03234773874282837
227,0.25,0.001,0.010914231744288598,0.007996573034773937,16.350559381830614,0.0116706348192938,0.024047311395406723
228,0.25,0.001,0.010983077802964106,0.008087525241101947,16.226676070450136,0.011582209900392673,0.015114642990132173
229,0.25,0.001,0.011055752003702941,0.008254952778752218,15.695680285460197,0.011203197919671804,0.022442944658299286
230,0.25,0.001,0.011286572634473743,0.008505423509534574,15.585559921776689,0.011124596660797065,0.03957152490814527
231,0.25,0.001,0.011127547648479074,0.00823722176578821,16.197386466416738,0.011561303687663624,0.03754343278706074
232,0.25,0.001,0.01104710958648048,0.008090639158758342,16.56805798831402,0.011825880077311935,0.03493347205221653
233,0.25,0.001,0.010948043366606604,0.008035010226920948,16.324638699525156,0.011652133261616814,0.020959708529214065
234,0.25,0.001,0.011000089078591574,0.008176959050981791,15.820820488385706,0.01129251997743448,0.027533468169470627
235,0.25,0.001,0.010714741229960982,0.00795621348657464,15.458787726075858,0.01103410972596421,0.02205596895267566
236,0.25,0.001,0.011006894483912311,0.00822272816760428,15.60246950827989,0.011136666315688715,0.02549658715724945
237,0.25,0.001,0.010791695132951609,0.007934568071700383,16.011341581408608,0.011428509337193868,0.01589449339856704
238,0.25,0.001,0.011093545998852926,0.008208084126446871,16.1701280862693,0.011541847313539829,0.013852241138617197
239,0.25,0.001,0.010859091153630875,0.007886915602064972,16.656073000607073,0.011888703069669574,0.01802226745833953
240,0.25,0.001,0.010949991005879121,0.007981574181592304,16.635008120696817,0.011873667466593017,0.019381241252024967
241,0.25,0.001,0.01076275880304759,0.007832382299356013,16.421830721349526,0.01172150658197682,0.013782840843002
242,0.25,0.001,0.01057314631472898,0.00770829389834364,16.05463310856147,0.011459409784840452,0.012932113061348597
243,0.25,0.001,0.01069611102192594,0.0079560169275075,15.3554884955387,0.010960377227365238,0.01846806425601244
244,0.25,0.001,0.010838395572148713,0.00820941949300718,14.732780750965912,0.010515903462502436,0.022912454791367054
245,0.25,0.001,0.010659413362209429,0.007978516255799156,15.023745933635123,0.010723587390174963,0.01669925358146429
246,0.25,0.001,0.010740966479850296,0.007887221304012225,15.992389314126648,0.01141498166604329,0.02288903420170148
247,0.25,0.001,0.010728248282516962,0.007820166303657445,16.296891660498293,0.011632328094574085,0.02880667243152857
248,0.25,0.001,0.010567553885181078,0.007660548608975123,16.290859145606124,0.011628022230982244,0.023773649396995705
249,0.25,0.001,0.010660424928537152,0.007814325092222867,15.94954351130748,0.01138439936567272,0.018674243707209826
250,0.25,0.001,0.010684735447968413,0.007904127149548907,15.582528171923336,0.0111224326708946,0.01608454156666994
251,0.25,0.001,0.010772554153864015,0.008094256087487576,15.009180337790674,0.010713190819265292,0.01653479877859354
252,0.25,0.001,0.010856492851154515,0.008129597991554929,15.281518584129794,0.010907579289171873,0.021306775510311127
253,0.25,0.001,0.010734522002655388,0.00795737654595767,15.563122333296194,0.011108581251460524,0.021211470787723858
254,0.25,0.001,0.01068877515026787,0.007902642111950273,15.613489151000977,0.011144531870807264,0.017652769573032856
255,0.25,0.001,0.010615561357480567,0.007781860331110906,15.880062320888442,0.011334805368228723,0.014180395752191544
256,0.25,0.001,0.010508523328892336,0.0076114109423536585,16.235417366027832,0.011588449226286818,0.017639306373894215
257,0.25,0.001,0.010767593867326742,0.007863483379201201,16.274636140605747,0.011616442641403102,0.020792449514071148
258,0.25,0.001,0.01051052177837431,0.00759483836966273,16.339490493672006,0.011662734113970025,0.018756816784540813
259,0.25,0.001,0.010679110803410111,0.007801282422729586,16.127349815112634,0.011511313215640709,0.020616332069039345
260,0.25,0.001,0.010686941869906931,0.00790634970086933,15.582436977616892,0.011122367578598781,0.030448227810362976
261,0.25,0.001,0.01049126468398827,0.007741331085312686,15.410628069167169,0.010999734524744589,0.016540212867160637
262,0.25,0.001,0.01057909884108793,0.007824354054993831,15.437590829478014,0.011018979892561037,0.02698751911520958
263,0.25,0.001,0.010691172499584671,0.007978854769678323,15.199828263097162,0.010849270708848795,0.02948826054732005
264,0.25,0.001,0.010707935512115891,0.008011606503153008,15.11022788566231,0.010785316121100863,0.0195359302063783
265,0.25,0.001,0.010642651112237632,0.00781431580399907,15.849989782243767,0.011313340315662931,0.016346607357263565
266,0.25,0.001,0.010378748434752026,0.007493038249245826,16.171520911607168,0.011542841478663218,0.017125985274712246
267,0.25,0.001,0.01047756340379683,0.007666407340524981,15.753719867475882,0.011244625173073435,0.014818216053148111
268,0.25,0.001,0.010613565933234339,0.007901874874037184,15.19631841518735,0.010846765464088044,0.016491145516435306
269,0.25,0.001,0.010503541784448511,0.0077474589815875825,15.44508814971719,0.011024331298870229,0.01770865482588609
270,0.25,0.001,0.010539260349117669,0.007722126191869478,15.787219975618708,0.011268536742054752,0.02087372913956642
271,0.25,0.001,0.010491750840622706,0.007682994223706074,15.74027255397515,0.011235026805121449,0.015278330072760582
272,0.25,0.001,0.010411454245898148,0.007619599130429678,15.645556238673677,0.01116742058434952,0.014187053622057041
273,0.25,0.001,0.01045882854385664,0.007675699298988853,15.596655576821142,0.011132516471678188,0.013725809132059416
274,0.25,0.001,0.010328072448254831,0.007573187926271618,15.438373322454876,0.01101953841716979,0.014975021282831827
275,0.25,0.001,0.01035157534225075,0.007587998811680599,15.487083063829665,0.011054306255410182,0.013475609632829825
276,0.25,0.001,0.01046615241457952,0.007697008662675851,15.518283459964215,0.01107657634544198,0.017571492431064446
277,0.25,0.001,0.010368370038500968,0.007552694585549352,15.77904458013957,0.011262701341998265,0.017877638650437195
278,0.25,0.001,0.010494969041405507,0.007686092518270016,15.740944945572206,0.01123550674202156,0.023877699859440327
279,0.25,0.001,0.010321537664022622,0.0075814156986823015,15.355644098064243,0.010960488292693964,0.027377360810836155
280,0.25,0.001,0.010396708584321825,0.007722117775588628,14.988407903069618,0.010698363956509364,0.021891607902944088
281,0.25,0.001,0.010480273239964607,0.007793825376003781,15.054854905045273,0.010745792223444163,0.01576028981556495
282,0.25,0.001,0.010392248793036346,0.007620258306796919,15.534232952450745,0.011087960708387398,0.02539750064412753
283,0.25,0.001,0.010763601631226156,0.00796019481870052,15.710290793604498,0.011213626547897572,0.03558769325415293
284,0.25,0.001,0.010714046532075677,0.007770759341050714,16.49418354034424,0.0117731502786183,0.03372493882973989
285,0.25,0.001,0.010694984559144749,0.007679560668641489,16.898435823069324,0.012061695805188668,0.024750581632057827
286,0.25,0.001,0.0104825437168947,0.007634549864236541,15.960159775394722,0.011391976998854192,0.018285007526477177
287,0.25,0.001,0.010469823263135532,0.0077701147783222615,15.129166782302345,0.010798834248609812,0.02323417489727338
288,0.25,0.001,0.010418322974903471,0.0077578301397746045,14.909402316048642,0.01064197167455292,0.018320328866442043
289,0.25,0.001,0.010333180552561012,0.0076692096839015116,14.928894471802167,0.010655884705069354,0.012207997341950735
290,0.25,0.001,0.01044054563163511,0.007760929884451547,15.016565137261512,0.010718461910964677,0.013891138757268587
291,0.25,0.001,0.01051045296676207,0.0077602400650714064,15.412194245613662,0.011000852423707111,0.017104389766852062
292,0.25,0.001,0.010382090263918743,0.007603267707780703,15.572523283478398,0.011115291422896786,0.014702768375476202
293,0.25,0.001,0.01039458985671701,0.007573172146916989,15.811225763103305,0.011285671494006642,0.0130731255436937
294,0.25,0.001,0.01046140153811082,0.0076125339861184155,15.965055100869812,0.011395471164075527,0.021032089988390606
295,0.25,0.001,0.010467355670844948,0.0075783372462895895,16.190060941964987,0.011556074905042818,0.02558067161589861
296,0.25,0.001,0.010459998497526917,0.007630514787297521,15.856427800735371,0.011317935617941022,0.01783183931062619
297,0.25,0.001,0.010254363854409464,0.007409739061164976,15.941278643256066,0.011378500102252723,0.01379296618203322
298,0.25,0.001,0.010148352137047973,0.007306485518113079,15.925820971495353,0.011367466789075912,0.012057287308077017
299,0.25,0.001,0.010273754302937312,0.007519746618032856,15.433457918615149,0.011016029920496181,0.010180785631140074
300,0.25,0.001,0.010284334608672448,0.0076003806234256135,15.040878705530359,0.01073581634941496,0.014968868345022202
301,0.25,0.001,0.010093649630528568,0.007386568496191261,15.17048225146812,0.010828324233738845,0.015847334327797096
302,0.25,0.001,0.010179270002615932,0.007419634904187397,15.464995723442744,0.011038540844712879,0.011036091484129429
303,0.25,0.001,0.010312169721512587,0.007532611173646362,15.576645684722285,0.011118233893449169,0.01520609762519598
304,0.25,0.001,0.010322210678968253,0.007545078442050707,15.563049143592783,0.011108529010415976,0.013068916741758585
305,0.25,0.001,0.010234891311984334,0.007418980328178646,15.780363946953075,0.011263643074199197,0.01818439768006404
306,0.25,0.001,0.010087049766224902,0.00731525223877206,15.533154020373454,0.011087190592700538,0.023354432235161465
307,0.25,0.001,0.010163530232322296,0.007501444285547974,14.918330070956442,0.010648344090618446,0.020249071220556896
308,0.25,0.001,0.01012899055326945,0.007432777525219541,15.10957789581094,0.010784852174026367,0.02521448799719413
309,0.25,0.001,0.01038532902880403,0.007479098069187779,16.286518045719838,0.01162492365861516,0.022646435536444187
310,0.25,0.001,0.01038134133680755,0.0073979787478510965,16.71876382507734,0.011933450267721156,0.017071078531444073
311,0.25,0.001,0.010165112986910663,0.007265228443722797,16.25095412235132,0.011599538988116574,0.024572047715385754
312,0.25,0.001,0.010139160283259898,0.007355942309602795,15.59715368283675,0.01113287200773501,0.013790232439835867
313,0.25,0.001,0.01025210957249139,0.007547014792943561,15.159353454641048,0.010820380767052853,0.008874445067097744
314,0.25,0.001,0.010224078431875514,0.007558975112468204,14.935240745544434,0.010660414522158768,0.02071682767321666
315,0.25,0.001,0.010223012136282936,0.007525708957656518,15.115688541591567,0.010789213805561432,0.019885862556596596
316,0.25,0.001,0.010172749013208703,0.007380846875325945,15.645820873695731,0.011167609474443776,0.01302961197992166
317,0.25,0.001,0.01018645263108231,0.007282283157110214,16.274964851020968,0.011616677266967143,0.015373068861663342
318,0.25,0.001,0.010155304147543124,0.00725278449588574,16.265721493919425,0.011610079581669826,0.01018202118575573
319,0.25,0.001,0.010164522815920762,0.007302276890149852,16.040025467840618,0.011448983203312361,0.013577120068172613
320,0.25,0.001,0.010245428339346944,0.007402686539712368,15.930725731305628,0.011370967688298093,0.0146328778937459
321,0.25,0.001,0.010083953606202298,0.007332363865969565,15.41990800511917,0.011006358319142876,0.02218908816576004
322,0.25,0.001,0.010202701134769709,0.007578608951837625,14.705412845483563,0.010496368911836947,0.035347286611795425
323,0.25,0.001,0.010249163674178139,0.0075883473200886046,14.911213958023378,0.010643264780887493,0.033563654559353985
324,0.25,0.001,0.01023781260212996,0.007448888971351537,15.629128321705249,0.011155694733551212,0.023845056382318337
325,0.25,0.001,0.010261007790897517,0.007413238296347776,15.958900144436216,0.011391077904665392,0.012727354963620504
326,0.25,0.001,0.010207388993827688,0.00734638253339385,16.03308074106306,0.011444026224884411,0.014991365683575472
327,0.25,0.001,0.010324161862266944,0.0074658450114246985,16.0180071888354,0.01143326708696317,0.018552005601425964
328,0.25,0.001,0.01004433626896583,0.007278095099499961,15.502015574666478,0.01106496472138935,0.021461842581629753
329,0.25,0.001,0.010075882389741456,0.007358999263445203,15.225414276123047,0.010867533387668127,0.020823734812438488
330,0.25,0.001,0.010248041067947477,0.007503066605719544,15.382839606112281,0.010979899790230037,0.02214610731850068
331,0.25,0.001,0.010091127258969233,0.0073830462373393095,15.17608544010444,0.010832323654607024,0.030257151151696842
332,0.25,0.001,0.010124998817207829,0.007476957383621859,14.839624808138648,0.010592166172832726,0.02042136713862419
333,0.25,0.001,0.010014481617500319,0.007334481037203098,15.018724198309368,0.010720002996651939,0.025757542811334133
334,0.25,0.001,0.010086761550015252,0.007411930675699607,14.989750170867715,0.010699322034880596,0.016581127420067787
335,0.25,0.001,0.009881573829224846,0.0072315375526879454,14.850802677589774,0.010600144666373858,0.012331324008603891
336,0.25,0.001,0.010033506625050667,0.007340007608493903,15.094370253134095,0.010773997325577512,0.012153708065549532
337,0.25,0.001,0.00993733164923103,0.00717235419074161,15.494934075630752,0.011059910118223234,0.010129268591602644
338,0.25,0.001,0.010058844980827514,0.007296873219061218,15.478090497471342,0.01104788757849489,0.012916036415845156
339,0.25,0.001,0.009800112406229413,0.007040630651000362,15.464136290070195,0.011037927401905921,0.010521371227999529
340,0.25,0.001,0.010051323219683746,0.007309056199687039,15.367664381961694,0.010969068081343108,0.01697311146805684
341,0.25,0.001,0.010022051194870232,0.007330899533109377,15.081213298259966,0.010764606208608113,0.014543228161831697
342,0.25,0.001,0.009986918369595636,0.007247290945918168,15.352872899714733,0.010958510278168973,0.01882992809017499
343,0.25,0.001,0.0098359219904914,0.007091607432812452,15.379139368966122,0.01097725865022564,0.012688270459572474
344,0.25,0.001,0.009948496613026466,0.007260321833243306,15.064533073630109,0.010752700266688158,0.011867088576157888
345,0.25,0.001,0.009928010210344855,0.007223878783992673,15.153952412957313,0.010816525633802507,0.019623370841145515
346,0.25,0.001,0.010028802227203879,0.007255976244607228,15.538916472620611,0.011091303692091799,0.01993223528067271
347,0.25,0.001,0.009829974883304747,0.007073717851241763,15.446064577806716,0.011025028249683594,0.014391756926973661
348,0.25,0.001,0.009952264650406054,0.007222779954614855,15.296031004630478,0.010917937904804054,0.018467838565508526
349,0.25,0.001,0.009611849954364284,0.006898826881993137,15.203782241616473,0.010852092963323678,0.020805023921032745
350,0.25,0.001,0.009871185757219791,0.007241060219755109,14.739223454622614,0.01052050210893834,0.015963165399928887
351,0.25,0.001,0.009862633497022943,0.007253186833488461,14.62333974262212,0.010437787111079315,0.01964219380170107
352,0.25,0.001,0.009888750225955608,0.007193037711908953,15.106773472472325,0.010782850444305728,0.014118626713752747
353,0.25,0.001,0.01001693854020946,0.007204182980419606,15.762681052188745,0.011251021450527298,0.027114997307459515
354,0.25,0.001,0.009915044031187191,0.00709813793233577,15.785941994430235,0.011267624549914515,0.014803731193145117
355,0.25,0.001,0.010000264672124946,0.007263831569244397,15.334970979882566,0.01094573231968777,0.01860676519572735
356,0.25,0.001,0.010003658011555672,0.007274154033011838,15.296140978000308,0.010918016401142261,0.0198492215325435
357,0.25,0.001,0.010045805970994418,0.007326644601537877,15.238179744490042,0.010876645071013592,0.015203615029652914
358,0.25,0.001,0.009974732795017678,0.007289286280963445,15.049240656347083,0.010741784908170652,0.025165563449263573
359,0.25,0.001,0.010047902209346727,0.007331430055701093,15.223109334907276,0.010865888176236457,0.017607803146044414
360,0.25,0.001,0.009765338802697674,0.007082424167193622,15.035054968507499,0.010731659506429335,0.01192478152612845
361,0.25,0.001,0.009768398116098954,0.007105397623057333,14.923454137456497,0.010652001525664881,0.017728943688174088
362,0.25,0.001,0.00992809764840859,0.007182112454292958,15.388502729019063,0.010983941990734521,0.0230578292782108
363,0.25,0.001,0.009884603877845627,0.007169363698328301,15.21620413761011,0.010860959412997936,0.018207157962024212
364,0.25,0.001,0.009965874792245411,0.007265260936879871,15.134240540882084,0.010802455775076434,0.025159983585278194
365,0.25,0.001,0.010012557717577723,0.007285323087751065,15.283422924528185,0.010908938561404843,0.03282984904944897
366,0.25,0.001,0.00990830973765794,0.007197538778285852,15.191161354116145,0.010843084478312738,0.02250920794904232
367,0.25,0.001,0.009837577019461849,0.007121864600019567,15.218851979146867,0.010862849378406043,0.01437028373281161
368,0.25,0.001,0.00993609340273894,0.007086377025225619,15.969810063406925,0.011398865141618076,0.013984196508924166
369,0.25,0.001,0.00987666659682189,0.006983585293160989,16.212828770579907,0.011572326031820063,0.01994913661231597
370,0.25,0.001,0.009948005518507238,0.007186172073769489,15.477314571406216,0.011047333741189306,0.022577486311395962
371,0.25,0.001,0.009884731131512047,0.007214112338553739,14.96614766600948,0.010682475136337959,0.018137049085150164
372,0.25,0.001,0.009851084434546081,0.0071269163624352256,15.266237617339064,0.010896672103739517,0.02119360336412986
373,0.25,0.001,0.009764835263458675,0.007064354987252479,15.133491496911786,0.010801921125561588,0.01302804114917914
374,0.25,0.001,0.009817296714090661,0.00717016265746331,14.834539067825215,0.010588536094093659,0.015261096258958181
375,0.25,0.001,0.00979316395226141,0.007141645791496606,14.859109123281184,0.010606073606910196,0.021844903317590553
376,0.25,0.001,0.009917271154738913,0.00718769079836823,15.296568985753412,0.010918321902750473,0.019241450044016045
377,0.25,0.001,0.00967588783210556,0.006967103190020027,15.180027520096543,0.010835137416200244,0.015117338858544827
378,0.25,0.001,0.009690138255089721,0.007007233873509721,15.034996538354246,0.010731617800395608,0.012808775839706263
379,0.25,0.001,0.00990595328527809,0.007187972357809143,15.231563344097777,0.010871922444038385,0.014526586358745893
380,0.25,0.001,0.009755975510550026,0.007045123788634403,15.191612922105213,0.010843406796648974,0.0118980105035007
381,0.25,0.001,0.009831554256379604,0.00711209543249351,15.239846645585642,0.0108778348648006,0.015258821348349253
382,0.25,0.001,0.009719685270082231,0.006910997646041964,15.739884933369272,0.011234750130884562,0.016039330201844375
383,0.25,0.001,0.00982851550708081,0.007054972262340504,15.542936312272245,0.011094172956653993,0.014469810761511326
384,0.25,0.001,0.009734759250993296,0.006976424563276087,15.457705536144692,0.011033337284899851,0.012060788770516714
385,0.25,0.001,0.00981388299807206,0.007041925133124694,15.534052330375518,0.011087831784707722,0.021949227899312973
386,0.25,0.001,0.009695438368108449,0.006920241732025306,15.552202007114488,0.011100786586091711,0.014725205798943838
387,0.25,0.001,0.0098318781003656,0.007062052364067343,15.52210277838995,0.011079302482790827,0.01900031107167403
388,0.25,0.001,0.009846895095585976,0.007131416234969093,15.217542654715928,0.010861914814215508,0.028454748913645744
389,0.25,0.001,0.00970301154575892,0.007055815153023941,14.834890109580636,0.010588786659229577,0.027384093031287193
390,0.25,0.001,0.009858482929834184,0.007161786523491344,15.112285998043598,0.010786785152065381,0.013877250875035921
391,0.25,0.001,0.009712688774870547,0.006952604347677439,15.467512917998652,0.011040337557457995,0.018367410637438297
392,0.25,0.001,0.009643579301918113,0.00694106247638596,15.144904034249734,0.010810067119378826,0.009941273679335913
393,0.25,0.001,0.009709138410703448,0.007086465416488631,14.697458657642338,0.01049069140445563,0.013702403753995895
394,0.25,0.001,0.009640721672983377,0.0070131971069530355,14.724646920325773,0.010510097730425248,0.017308594038089115
395,0.25,0.001,0.009681471385961812,0.007034304554905467,14.834723338184741,0.01058866762183065,0.01973458131154378
396,0.25,0.001,0.009634122527485725,0.006976522114627914,14.89319300171513,0.010630401857041491,0.013792609795928001
397,0.25,0.001,0.009686402763996349,0.007032353237221305,14.87329267335418,0.010616197482765297,0.01537809365739425
398,0.25,0.001,0.009698639067527432,0.006983143136830338,15.217641427212914,0.01086198531564091,0.013816915452480316
399,0.25,0.001,0.009656493270757214,0.006879440474405185,15.562604692958345,0.011108211772275764,0.014546822135647139
400,0.25,0.001,0.009794662587794682,0.007030041947735836,15.492933023695977,0.01105848181562882,0.014218023046851158
401,0.25,0.001,0.009577507546934105,0.006864709067064644,15.20252374354625,0.010851194677763205,0.009023114573210478
402,0.25,0.001,0.009764196076149109,0.0071369314209976855,14.72319081965709,0.01050905840089728,0.011657384845117727
403,0.25,0.001,0.009660802806583827,0.007019900551203313,14.799615943191835,0.010563608810272544,0.013439901483555635
404,0.25,0.001,0.009664744951280972,0.006920264365039016,15.380069687862525,0.010977922689409367,0.018707225409646828
405,0.25,0.001,0.009838118942941995,0.007140907737107685,15.115172194154471,0.010788845249218039,0.02162099877993266
406,0.25,0.001,0.009601272961387299,0.006841122013385464,15.46788433894215,0.011040602668766704,0.016097336386640865
407,0.25,0.001,0.009669509741333907,0.00689791337018145,15.532026553314005,0.01108638583391435,0.013889469827214876
408,0.25,0.001,0.009484706784054737,0.006765522690952424,15.238309098570138,0.010876737400835217,0.010025459962586561
409,0.25,0.001,0.00949123529279792,0.006789302878431826,15.141630057520514,0.010807730233776241,0.013397910632193089
410,0.25,0.001,0.009603657615964845,0.00693396464202728,14.960960413785589,0.010678772600846246,0.014060478657484055
411,0.25,0.001,0.009600195633685029,0.00698491192779085,14.656049382766621,0.010461134463073963,0.0148197157929341
412,0.25,0.001,0.009628838940754832,0.007028680501018195,14.57128536941221,0.010400631955326346,0.022610827038685482
413,0.25,0.001,0.009654860249751766,0.006931611118000626,15.261089145737206,0.010892997248920204,0.015717141951123875
414,0.25,0.001,0.009759556252084323,0.006911703835447763,15.959365799923072,0.01139141027831768,0.0293308620651563
415,0.25,0.001,0.009574054252831327,0.006750279312465815,15.824433889965084,0.01129509913630627,0.02225455641746521
416,0.25,0.001,0.009656522248015307,0.007009410305611239,14.834416357462839,0.010588448506397459,0.018033539255460102
417,0.25,0.001,0.009570437202217594,0.006934936414629021,14.769347427675388,0.010542003874143746,0.014087206063171228
418,0.25,0.001,0.00979815166593598,0.007167719054542132,14.740946212870963,0.010521731772213392,0.017726753527919453
419,0.25,0.001,0.009765172852265755,0.007182226522556887,14.474833334852384,0.010331786820023114,0.021093794455130894
420,0.25,0.001,0.009795763498584697,0.0071630003618313965,14.754003403170797,0.010531051679636543,0.027291052043437958
421,0.25,0.001,0.009647429195676474,0.006877793977349596,15.521036583305206,0.01107854145846196,0.019246771931648254
422,0.25,0.001,0.00955586312276205,0.006756009446494531,15.690380710883428,0.011199415211194453,0.02261318949361642
423,0.25,0.001,0.009721662599168368,0.007029189321918775,15.088621427548812,0.010769893952568745,0.02640897035598755
424,0.25,0.001,0.009634031326628772,0.006979157573124706,14.877913782260562,0.010619495918815534,0.02079763635993004
425,0.25,0.001,0.009560159476311414,0.006869838563662848,15.07655927798892,0.010761284281219786,0.012816713812450567
426,0.25,0.001,0.009507398271070631,0.0067993590964516935,15.175850977033576,0.010832156300523609,0.013855942524969578
427,0.25,0.001,0.009727356211601087,0.0070280737318598584,15.126778058557703,0.010797129235230338,0.017950089027484257
428,0.25,0.001,0.00953536886946867,0.006793582052517458,15.3649736186802,0.010967147479429121,0.01816319612165292
429,0.25,0.001,0.009506986889013108,0.006802580197460499,15.155495957240163,0.010817627378472637,0.020033152773976326
430,0.25,0.001,0.009565989986912117,0.006952474696949224,14.646139317710928,0.010454060897723718,0.017589521128684282
431,0.25,0.001,0.009634695140857425,0.006947858415344017,15.057034959729085,0.010747348293882289,0.014390225832660994
432,0.25,0.001,0.009611349402858106,0.006903045635745429,15.17733461264796,0.01083321528383152,0.020529276380936306
433,0.25,0.001,0.00971735581355607,0.0070365194681306815,15.023406163158032,0.01072334487020559,0.01852985844016075
434,0.25,0.001,0.009737829734014984,0.007032496885915331,15.160685692857577,0.010821331686550733,0.01487594780822595
435,0.25,0.001,0.009640661493293791,0.00693092021728622,15.18539062602408,0.010838965471823041,0.030789720515410107
436,0.25,0.001,0.009641120035276316,0.0069472593436605175,15.096396318218051,0.010775443481954356,0.022631913423538208
437,0.25,0.001,0.009584204512554527,0.0068819346250153625,15.143521123284462,0.010809080030895405,0.013778497775395712
438,0.25,0.001,0.009545406939199306,0.006845669173979319,15.12933022543888,0.0107989509103775,0.016934966047604878
439,0.25,0.001,0.009553184764047196,0.006877586914338921,14.99405049957685,0.01070239150576506,0.01704047465076049
440,0.25,0.001,0.009422685494708935,0.006768407722022509,14.874573438759619,0.010617111662212433,0.014418470362822214
441,0.25,0.001,0.009375910987239956,0.006760740474541515,14.655414370082369,0.010460681206340021,0.013403290572265783
442,0.25,0.001,0.009456356224797716,0.00690560213496421,14.29442538191008,0.010203015975667439,0.013313201566537222
443,0.25,0.001,0.009448982900221076,0.006895258338284372,14.311072528762306,0.010214898307467742,0.011534960785259804
444,0.25,0.001,0.009500819789683259,0.006908847919146486,14.525411375417006,0.010367888205151325,0.012291178728143374
445,0.25,0.001,0.009563468027884927,0.006878810953473885,15.044819102191285,0.010738628909486998,0.01324570489426454
446,0.25,0.001,0.009509041742890472,0.0067348111414619345,15.546788618868629,0.01109692264016319,0.016599684332807858
447,0.25,0.001,0.009469320810081176,0.006756327064995397,15.20361675672083,0.010851974844197594,0.013058128766715527
448,0.25,0.001,0.009616214700743256,0.006963617321503843,14.865156007293086,0.010610389726833038,0.016608581878244877
449,0.25,0.001,0.009609887888967591,0.006923736141832083,15.053195012495822,0.01074460743218831,0.02263396419584751
450,0.25,0.001,0.009453510378031122,0.00684508197197078,14.617631720216483,0.010433712862395778,0.017644362524151802
451,0.25,0.001,0.009458423298377318,0.006866476882949171,14.525267741824157,0.010367785682958,0.018157513191302616
452,0.25,0.001,0.00957953358606604,0.006960551904501931,14.676773832948417,0.010475927075623424,0.018568229551116627
453,0.25,0.001,0.009572906700906738,0.00694540904634851,14.724498447955854,0.01050999175442959,0.02303207665681839
454,0.25,0.001,0.009475294300573785,0.006917327742448589,14.334845798927665,0.010231867094166784,0.022451822956403095
455,0.25,0.001,0.009601594080160928,0.007036397993039564,14.375360565697587,0.010260785557243102,0.018720850038031738
456,0.25,0.001,0.00961535946534784,0.006969977704645604,14.824718584150276,0.010581526469771788,0.03136016552646955
457,0.25,0.001,0.00949170959225837,0.006838501849830551,14.868577797140851,0.010612832117873556,0.016121883876621723
458,0.25,0.001,0.009740325209728423,0.0071024561907171,14.78261735135277,0.010551475625519464,0.016259211115539074
459,0.25,0.001,0.009404986202966847,0.0066941936450366606,15.191281440274027,0.01084317019291508,0.01842396551122268
460,0.25,0.001,0.009513854192907378,0.006824217239807316,15.072725872065396,0.010758548088554887,0.011987612582743168
461,0.25,0.001,0.009370354854270516,0.006703365866044824,14.945806740114353,0.010667956274171558,0.010432360849032799
462,0.25,0.001,0.009458571072392816,0.006789028300784978,14.960117717717319,0.010678171104723282,0.01206962081293265
463,0.25,0.001,0.00959809999537948,0.006930457975015345,14.949465105197573,0.010670567526907619,0.011028137678901354
464,0.25,0.001,0.009551323156478822,0.006840740149253167,15.190107716809983,0.010842332417423257,0.014258986649413904
465,0.25,0.001,0.009435856777349575,0.006654390493320339,15.587337666709951,0.011125865572241222,0.015199589232603708
466,0.25,0.001,0.009420102768446376,0.00662903002332021,15.64117052091048,0.01116429016481833,0.00942053459584713
467,0.25,0.001,0.00934126781887256,0.006628623085358999,15.201661397946761,0.010850579156278916,0.013317701406776905
468,0.25,0.001,0.009347863045314814,0.006702566456874745,14.82424373114669,0.010581187531153955,0.016175605667134125
469,0.25,0.001,0.009512836738620828,0.006911031767450923,14.580514786227438,0.01040721969038361,0.015084446718295416
470,0.25,0.001,0.0095427936168025,0.006868911088263028,14.984437673683935,0.010695530102558127,0.020192963381608326
471,0.25,0.001,0.009353738321903967,0.00658958213366318,15.490331099337379,0.011056624624794703,0.014661158745487532
472,0.25,0.001,0.009377534244984588,0.006588819911765972,15.627955097480108,0.011154857314404075,0.014884345854322115
473,0.25,0.001,0.009377447269456898,0.006603852783223526,15.543224251510313,0.011094378480735414,0.01431850902736187
474,0.25,0.001,0.009440057479695186,0.006771240711537184,14.95604860702617,0.010675266671681777,0.016205996895829838
475,0.25,0.001,0.009353297243782338,0.006762576333228374,14.518398048093655,0.010362882261308819,0.01958191953599453
476,0.25,0.001,0.00942951082033199,0.006875897388930289,14.310450662702522,0.010214454434477174,0.013417556571463743
477,0.25,0.001,0.009426146120633055,0.006822586819004492,14.590345619508884,0.010414236702004915,0.018681446711222332
478,0.25,0.001,0.009412840546277546,0.0068082890579564456,14.595907505726654,0.010418206642203179,0.016016944622000057
479,0.25,0.001,0.009348323774967818,0.006755541700669783,14.529951857240409,0.01037112909153491,0.012251182148853937
480,0.25,0.001,0.009478209227723564,0.006792664693530974,15.04979164968401,0.010742178193921492,0.013683230305711428
481,0.25,0.001,0.009472245425485925,0.006667618627266196,15.71712999535887,0.011218508205109829,0.01343174216647943
482,0.25,0.001,0.009463476585911824,0.006639648772676119,15.824732326021131,0.01129531215276312,0.011764755782981714
483,0.25,0.001,0.009401815449631454,0.006678045061635691,15.264007958789799,0.010895080627258958,0.01682397226492564
484,0.25,0.001,0.009284357946591089,0.0065458853379041955,15.346399800089381,0.01095388993582397,0.011254631138096252
485,0.25,0.001,0.00947404112791855,0.006733097301658568,15.360250882654382,0.01096377650439285,0.013607437411944071
486,0.25,0.001,0.009482124214054354,0.006763713009305448,15.23397897553924,0.010873646663482683,0.021030116205414135
487,0.25,0.001,0.009405733542454322,0.0067504719337260965,14.880088089296482,0.010621047886721257,0.017424054133395355
488,0.25,0.001,0.009334238008564751,0.00667693459072569,14.89152848160507,0.010629213762744519,0.014326114828387896
489,0.25,0.001,0.009423994865493486,0.006798231827357671,14.714775335068671,0.010503051631026888,0.018294987579186756
490,0.25,0.001,0.009373213495784159,0.006759306862825315,14.648330189237658,0.010455624688963354,0.013653830314675966
491,0.25,0.001,0.009440549718053548,0.0068200837551997415,14.6850908010598,0.01048186352680928,0.012186480686068535
492,0.25,0.001,0.00929722676191154,0.006699439694467407,14.557999476490405,0.010391148805489225,0.015801018103957176
493,0.25,0.001,0.009201631706282996,0.006633037498108293,14.394400999850074,0.010274376159778782,0.021872101196398337
494,0.25,0.001,0.009446615221966433,0.006855434806854933,14.520975394536984,0.010364721909019974,0.018374846627314884
495,0.25,0.001,0.00923007319137554,0.006563596058661906,14.942937486123718,0.010665908269895587,0.01161914567152659
496,0.25,0.001,0.009488921981279883,0.006801866048059407,15.058260719248112,0.010748223211454756,0.02298525410393874
497,0.25,0.001,0.009571864025904828,0.006941529787801856,14.74039290895398,0.010521336837226253,0.030576817070444424
498,0.25,0.001,0.009569601893374984,0.0069242676863784354,14.82445229139904,0.010581336396430436,0.03127264169355234
499,0.25,0.001,0.009224529046840315,0.006547159230924093,15.003981071830596,0.010709479708658527,0.025394177064299583
500,0.25,0.001,0.009259248277384963,0.006606862092728183,14.863973918377154,0.010609545980283479,0.02220653649419546
