epoch,beta,learning_rate,train_loss,train_reconstruction_loss,train_kl_unnormalized,train_kl_normalized,mean_unclipped_gradient_norm
1,0.0,0.001,0.0774002523458266,0.0774002523458266,53.30757684393244,0.03804966227261416,0.1404590681195259
2,0.02,0.001,0.052907641182888994,0.044428993925288485,593.9292359739869,0.4239323597244732,0.14662869460880756
3,0.04,0.001,0.04055889869456763,0.03625932758326059,150.59245910644532,0.10748926417305162,0.12624105159193277
4,0.06,0.001,0.03724299236149578,0.03234226366320809,114.43202479435847,0.08167881855414595,0.07901484263129532
5,0.08,0.001,0.03488384500800908,0.03233273749413726,44.67628349052681,0.03188885331229608,0.05193218681961298
6,0.1,0.001,0.033526047474735386,0.03128904980290067,31.340324133569066,0.022369967261648156,0.045833437936380506
7,0.12,0.001,0.031944661120792014,0.02954446548943991,28.02229073493035,0.020001635071327874,0.030507258139550686
8,0.14,0.001,0.02984828167073019,0.027159442163103228,26.907603140191718,0.01920599795873784,0.03794592618942261
9,0.16,0.001,0.027612192670886333,0.024557784232464467,26.745162771036338,0.01909005194221009,0.04373713838867843
10,0.18,0.001,0.025963099296767635,0.022278369582452617,28.679477985088642,0.020470719475438003,0.0365957454778254
11,0.2,0.001,0.025137875413337906,0.021621766170630087,24.630344286069764,0.017580545528957717,0.060165667440742254
12,0.22,0.001,0.02387091488792346,0.020191923275098694,23.428486813555708,0.016722688660639334,0.056200492195785046
13,0.24,0.001,0.022175713497531283,0.01849613509417235,21.47954012273432,0.015331577532287166,0.042601357330568135
14,0.25,0.001,0.020911949750158813,0.01710378997191623,21.340929010412196,0.015232640264391289,0.04842838773038238
15,0.25,0.001,0.02010104154738096,0.016542387596116617,19.94269796518179,0.014234616677503061,0.023318119114264846
16,0.25,0.001,0.01974828907257908,0.015909262410886995,21.513904554765304,0.015356106034807497,0.02960387256462127
17,0.25,0.001,0.019306539375703414,0.015702730773405716,20.195743485335466,0.014415234464907542,0.03646917699370533
18,0.25,0.001,0.01915074079655684,0.015532372621717035,20.277336699098022,0.014473473732404013,0.03159968415275216
19,0.25,0.001,0.018964634741564373,0.01537354543272938,20.124465812431588,0.01436435818160713,0.05602218525018543
20,0.25,0.001,0.01848905929006063,0.015012795639807706,19.480982499594216,0.013905055317340625,0.024992380407638848
21,0.25,0.001,0.0185415855721458,0.014860210584087687,20.630423950362992,0.01472549889390649,0.04136824456509203
22,0.25,0.001,0.01867279179066747,0.014819034352734848,21.59645768050309,0.015415030464313412,0.07687998202163726
23,0.25,0.001,0.019073727415813195,0.015316977597527452,21.052826971536156,0.015026999979683195,0.07236315216869116
24,0.25,0.001,0.018796242814470124,0.015256550390232396,19.836435753958565,0.014158769274774136,0.06613215245306492
25,0.25,0.001,0.018246669629281693,0.014417535529195608,21.45846739968101,0.015316536330964317,0.03777448344044387
26,0.0,0.001,0.014080718751218947,0.014080718751218947,24.289608169387986,0.017337336309341887,0.04953880421817303
27,0.02,0.001,0.013291222145678579,0.012673869495699694,43.24553902594598,0.03086762243108207,0.043344832374714315
28,0.04,0.001,0.013879069452593614,0.012133129155979706,61.1515618125161,0.04364850950215282,0.07151750032790005
29,0.06,0.001,0.014230061383856522,0.01174476767102113,58.03160427219265,0.04142155908079419,0.04897061386145651
30,0.08,0.001,0.01442850648865595,0.011933491612364958,43.6939450442136,0.031187683828846253,0.04423846839927137
31,0.1,0.001,0.014937728647511084,0.01250965182188448,34.01735604254754,0.024280768053210236,0.048948897048830986
32,0.12,0.001,0.01514935982055389,0.012609261395102675,29.655648694719588,0.021167486577244533,0.03516154666431248
33,0.14,0.001,0.015496640517325192,0.012617260749850954,28.81436153453785,0.020566996098884974,0.02202176593709737
34,0.16,0.001,0.01576284823304677,0.012579305357412323,27.87589924990476,0.01989714436110261,0.025763257290236652
35,0.18,0.001,0.016149466083599972,0.012876831719672287,25.472002494728173,0.018181300852768145,0.02624862513039261
36,0.2,0.001,0.01645531698979519,0.012939841635934599,24.62590656909314,0.017577377993642496,0.026946069148834795
37,0.22,0.001,0.01654783520069751,0.012799555075528858,23.86973048199664,0.01703763774589339,0.01874720281921327
38,0.24,0.001,0.016811741208964653,0.013166781252884603,21.277453990559003,0.015187333326594577,0.03138451720587909
39,0.25,0.001,0.016823487065650605,0.01317566013434431,20.442422707526237,0.014591308142417015,0.03572956519201398
40,0.25,0.001,0.01675496976208556,0.013265142436292801,19.556994142637148,0.013959310594316309,0.04800842818804085
41,0.25,0.001,0.016649443169052786,0.01313080268574285,19.718462166419396,0.014074562574175158,0.03713018097914755
42,0.25,0.001,0.016680554280078017,0.013217469877921618,19.407124483716355,0.01385233724747777,0.03109939757268876
43,0.25,0.001,0.01650179644207378,0.013052582939329383,19.329391160902087,0.013796853077017907,0.02663931471761316
44,0.25,0.001,0.016267489031939718,0.012719069433572528,19.885341791006233,0.014193677224130074,0.024841172737069428
45,0.25,0.001,0.01629975716491322,0.012852134799154905,19.320475961873818,0.013790489623036273,0.020100769645068794
46,0.25,0.001,0.01628516721692714,0.012826808984135534,19.380637841696267,0.013833431721410612,0.018486462417058647
47,0.25,0.001,0.0163123954517337,0.01299248806477248,18.604762989086108,0.013279630970082876,0.021845910232514143
48,0.25,0.001,0.016146546389375415,0.01277613819546097,18.88776749411782,0.013481632758114075,0.02697945910040289
49,0.25,0.001,0.016000721329352357,0.012749428351174343,18.220246983622456,0.013005172722071703,0.026779541396535933
50,0.25,0.001,0.016189710059008756,0.012847947689530613,18.727237265450615,0.013367050153783451,0.024427652009762824
51,0.0,0.001,0.012018169768686806,0.012018169768686806,23.673320753495773,0.01689744522019684,0.034406310645863414
52,0.02,0.001,0.011468589574016712,0.010835167237526767,44.371224422245234,0.03167110950909724,0.026457329862751067
53,0.04,0.001,0.011881688255612012,0.0101517566756069,60.590850712702824,0.04324828744661158,0.024912221473641694
54,0.06,0.001,0.012559160493969263,0.01030105304505144,52.7268079988249,0.03763512348238751,0.031513042747974396
55,0.08,0.001,0.012749115981489093,0.010623205874811161,37.230005134331,0.026573879467759458,0.01653586537577212
56,0.1,0.001,0.012929087549775512,0.010833309903986506,29.361846856756525,0.020957777913459333,0.020722986664623022
57,0.12,0.001,0.013441562529776123,0.011015221206368981,28.32753680721744,0.020219512353474262,0.021934850374236703
58,0.14,0.001,0.013879626575898339,0.011073455398718079,28.081756398966025,0.020044080227670253,0.03155495738610625
59,0.16,0.001,0.014123662667615073,0.011184536935863914,25.735719684978108,0.018369535820826628,0.030917315860278904
60,0.18,0.001,0.014366973121906376,0.01138868729614622,23.18099086887234,0.016546032026318585,0.025505790952593088
61,0.2,0.001,0.01470480149427613,0.011436584761755152,22.89385734809624,0.016341083046464127,0.039972693542949855
62,0.22,0.001,0.014843506202265457,0.011582741493379676,20.7651428264576,0.014821657977485794,0.025986463762819767
63,0.24,0.001,0.015318261793108431,0.01192321858399517,19.818566856803475,0.014146014887083136,0.019539684522897005
64,0.25,0.001,0.015066132870513005,0.011559602196563731,19.65059792654855,0.01402612271702252,0.024275041418150067
65,0.25,0.001,0.015181268759808698,0.011861325100391775,18.604964392525808,0.01327977472699915,0.03656408214010298
66,0.25,0.001,0.015064026421488642,0.01166610409106527,19.04195758274623,0.013591689923444847,0.028280193801037967
67,0.25,0.001,0.014959733276167413,0.011708397475572733,18.220484999771955,0.013005342612256927,0.039032798958942294
68,0.25,0.001,0.01482594812309349,0.011646116795120658,17.819775067842922,0.012719325530223357,0.025486393133178353
69,0.25,0.001,0.014879054555689896,0.011590734930647599,18.42774419260549,0.013153279223844034,0.020213650772348046
70,0.25,0.001,0.014745773923593563,0.011531303092264212,18.013894338922185,0.012857883182671082,0.03366102243307978
71,0.25,0.001,0.014869408632864008,0.011647922152673806,18.053210765712866,0.012885946299580918,0.03136786783579737
72,0.25,0.001,0.01471225024497771,0.01154567796000085,17.745471828586453,0.012666289670654142,0.02295338740805164
73,0.25,0.001,0.014690110828359049,0.011461383624227493,18.093788163740555,0.012914909467338012,0.0386801331769675
74,0.25,0.001,0.014811878049602876,0.011560114006419759,18.22288449884771,0.013007055316807787,0.048904369585216045
75,0.25,0.001,0.014592658609643087,0.01149081492817009,17.382732154510833,0.012407374842620153,0.04225393501110375
76,0.0,0.001,0.011057461677426165,0.011057461677426165,20.99071518615052,0.014982666085760543,0.035046949284151196
77,0.02,0.001,0.010497705967953573,0.009956308374447482,37.924896860646676,0.027069876417306692,0.02349208015948534
78,0.04,0.001,0.010950693166763573,0.009437441113558445,53.00166029877715,0.03783130642311003,0.02622665697708726
79,0.06,0.001,0.011448636411556176,0.00938437383130684,48.20052984049032,0.03440437533225576,0.01850339979864657
80,0.08,0.001,0.011578182530190264,0.009618356541454137,34.321458669809196,0.024497829171883794,0.017785870062652975
81,0.1,0.001,0.011883096855420333,0.009968025010120082,26.83015628018222,0.01915071825851693,0.014515325659886003
82,0.12,0.001,0.012235427651922781,0.010099543309719353,24.93644854367434,0.017799035363079474,0.018571350956335664
83,0.14,0.001,0.012533063703513408,0.010128888252426634,24.05892719226879,0.01717268179319685,0.01454199873842299
84,0.16,0.001,0.012826589277976162,0.010210066323506309,22.910931019206622,0.016353269820989738,0.02367488865274936
85,0.18,0.001,0.01304904897339069,0.010191697199511658,22.239722689953478,0.015874177508888993,0.025109141948632896
86,0.2,0.001,0.013407011958514596,0.010422480049041602,20.906645001421918,0.01492265881614698,0.02787333179730922
87,0.22,0.001,0.01364077941033539,0.010483845968085987,20.10392511807955,0.014349696729535726,0.0160194537602365
88,0.24,0.001,0.013853250675230891,0.010649404785299039,18.702451060368464,0.01334935835857849,0.01855930150486529
89,0.25,0.001,0.014011407594431887,0.010665756126272154,18.749031004014906,0.013382605998583088,0.015056465636007488
90,0.25,0.001,0.013992650667717169,0.010706290956791285,18.416760794671028,0.01314543953937975,0.02096018462907523
91,0.25,0.001,0.013956063031986519,0.010812102880451705,17.61875253195291,0.012575840493899294,0.022108322707936168
92,0.25,0.001,0.013946456367989163,0.010811663973708073,17.5673761849875,0.01253916929692184,0.01864007511176169
93,0.25,0.001,0.013870775527679003,0.010616713424550964,18.235765136467233,0.013016249205187175,0.01836712786462158
94,0.25,0.001,0.013831437731182183,0.01059615554922557,18.130521267063013,0.012941128670280523,0.013360490556806326
95,0.25,0.001,0.013824202474411372,0.010821771648313319,16.825623849722056,0.012009724375247721,0.015836047823540866
96,0.25,0.001,0.013747411755496984,0.01064735693795668,17.372707643613712,0.012400219588589374,0.021160117350518703
97,0.25,0.001,0.013697444700769015,0.01067368381421317,16.945156143523835,0.012095043642772188,0.031008457124698907
98,0.25,0.001,0.013769169434250056,0.010809598498783268,16.585434989090803,0.011838283361235406,0.042191309679765254
99,0.25,0.001,0.013753768721861499,0.010641194726493988,17.442866174467316,0.012450297055294301,0.03315721603576094
100,0.25,0.001,0.013699104333971883,0.010532451335054177,17.74592394566798,0.012666612380919328,0.013959325733594596
101,0.25,0.001,0.013665402297872109,0.010491683743484727,17.785519639738315,0.012694874832075884,0.013623428181745112
102,0.25,0.001,0.013640887478550712,0.010596476585327924,17.060879361498486,0.012177644083867584,0.022943950374610722
103,0.25,0.001,0.01369864350532765,0.010598108841740823,17.37539592365642,0.012402138418027423,0.023268590215593576
104,0.25,0.001,0.013623655268124172,0.010536458893873535,17.300648921924633,0.012348785811509375,0.024669068749062717
105,0.25,0.001,0.01361037562754783,0.010552059953193088,17.13880228315081,0.012233263585403862,0.026114864042028785
106,0.25,0.001,0.013658678433397313,0.010600996676545876,17.135248003949176,0.01223072662665894,0.03061658621300012
107,0.25,0.001,0.013612331810233358,0.010354271786962892,18.258169329297413,0.013032240777514213,0.018655210500583053
108,0.25,0.001,0.013497595736695515,0.010480540358348863,16.907580201704423,0.012068222842044556,0.01940342935267836
109,0.25,0.001,0.01360717462273417,0.010582152563710133,16.95222464341384,0.012100088967461698,0.02869925368577242
110,0.25,0.001,0.01357670876883216,0.010416779220922963,17.708245715466173,0.012639718569212114,0.026470058131963015
111,0.25,0.001,0.013468113201823863,0.010472962763774527,16.784823350591974,0.011980601963306192,0.02830241189803928
112,0.25,0.001,0.013349930671872673,0.010426591709256172,16.38239206796164,0.011693356222670691,0.03535189339891076
113,0.25,0.001,0.013315444607492332,0.010271358704910829,17.059056871015947,0.01217634323412987,0.016061276546679437
114,0.25,0.001,0.013282253208396199,0.010289580196879066,16.77093996320452,0.011970692336334418,0.016311605577357113
115,0.25,0.001,0.01330432078627112,0.010318815869862562,16.730769570319207,0.0119420196790287,0.025516452151350677
116,0.25,0.001,0.013364737763345897,0.010361121334954277,16.832266939603365,0.012014466052536307,0.03299719060305506
117,0.25,0.001,0.013388119926573811,0.010250404470978858,17.58375764783922,0.012550861989892378,0.021860052831470966
118,0.25,0.001,0.013178037712862203,0.010256460435934119,16.372518543620686,0.011686308739201061,0.026213834527879953
119,0.25,0.001,0.013063917034766176,0.010089938320055768,16.666178483229416,0.011895916119364323,0.02037474967073649
120,0.25,0.001,0.013231605467396778,0.010236423859720702,16.784998271229504,0.011980726817437191,0.01995140954386443
121,0.25,0.001,0.013102591617012417,0.010079523192329722,16.94127582508129,0.012092273965083005,0.016703895409591496
122,0.25,0.001,0.013084957838713468,0.010196223983970971,16.18846453991565,0.011554935431774197,0.01473909302148968
123,0.25,0.001,0.013020813246104088,0.010123457675697384,16.236781331995033,0.011589422792287675,0.010854383988771588
124,0.25,0.001,0.013048435649374029,0.010048215757482326,16.813232838976514,0.012000879970718425,0.01814242999535054
125,0.25,0.001,0.013160336472012184,0.010205489151425414,16.558963557652064,0.01181938869211425,0.02816313097719103
126,0.25,0.001,0.01310717673910843,0.010187439688041314,16.3622070480179,0.011678948642411063,0.01611046784091741
127,0.25,0.001,0.01298211554658937,0.010029788618231868,16.544841376503744,0.01180930861991702,0.0204904074780643
128,0.25,0.001,0.012955280135457332,0.010102111002901098,15.989160349080851,0.011412676908694398,0.029068911157082766
129,0.25,0.001,0.012945085933820887,0.009995585964521865,16.528998238699778,0.011798000170378143,0.017017427715472877
130,0.25,0.001,0.013086237181182746,0.010175183656942713,16.313545528872982,0.011644215224034962,0.02177200047299266
131,0.25,0.001,0.013144466630950733,0.010192766329171238,16.541328428079794,0.01180680116208408,0.028361650882288814
132,0.25,0.001,0.012976932165386913,0.010078734562701577,16.241500791612562,0.011592791428702757,0.015744206379167736
133,0.25,0.001,0.012903768681808488,0.009967956528231337,16.452290847275282,0.011743248284993063,0.013812621240504086
134,0.25,0.001,0.012981775834910817,0.010107769708630148,16.10593045412839,0.011496024592525618,0.021251036669127643
135,0.25,0.001,0.012894675974826237,0.009898607455357745,16.789968918182037,0.011984274745311947,0.019145738915540278
136,0.25,0.001,0.012921279668807984,0.010089503011696942,15.86927610544058,0.011327106427866223,0.019889055052772164
137,0.25,0.001,0.01287695325419798,0.009928600582202057,16.522569417429494,0.011793411432854742,0.01742929359897971
138,0.25,0.001,0.012852632131550338,0.009903046679120142,16.52947671492021,0.01179834169516075,0.018670028657652438
139,0.25,0.001,0.012989667170568481,0.010077430734636036,16.32017381269853,0.011648946333118151,0.03362102236133069
140,0.25,0.001,0.013025817741732022,0.010046797913018164,16.69442733303531,0.011916079466834626,0.02046248340047896
141,0.25,0.001,0.012924673062350069,0.009854845845928559,17.203311718951216,0.012279308864347763,0.021404944942332804
142,0.25,0.001,0.012879152483419403,0.009965542052964588,16.327872923966293,0.011654441772995213,0.014601255359593779
143,0.25,0.001,0.01287439232385093,0.00984045789055117,17.002169648893588,0.012135738507418692,0.01287292956840247
144,0.25,0.001,0.012779342616488646,0.009843372598617941,16.453176374749823,0.011743880353140487,0.01701486564707011
145,0.25,0.001,0.012777925949994025,0.00990610771536172,16.09366936316857,0.011487272921604974,0.012916449515614659
146,0.25,0.001,0.012697241776674003,0.009825745867667617,16.091862770751284,0.011485983419522687,0.014654361351858824
147,0.25,0.001,0.012879629490467219,0.009841794252477505,17.024029197273673,0.012151341325677141,0.02757833106443286
148,0.25,0.001,0.013047428777093415,0.010039059299934696,16.858901172679857,0.0120334769255388,0.029627755749970675
149,0.25,0.001,0.012865933788182972,0.009905474698478049,16.59041374541901,0.011841837077386874,0.02193215792067349
150,0.25,0.001,0.01278623512608337,0.009856320129564175,16.419243250836384,0.011719659707948882,0.021146855782717466
151,0.25,0.001,0.012784625303286773,0.010016813986822144,15.510814608060397,0.011071245259143752,0.01883476396324113
152,0.25,0.001,0.012714401655062869,0.009728531548651038,16.732816830310192,0.011943480963818838,0.01767199917230755
153,0.25,0.001,0.012684870507199686,0.009876833817215411,15.736236530345876,0.011232145988826464,0.018124284339137375
154,0.25,0.001,0.012704292815792691,0.00970500875878465,16.807987973978232,0.011997136312618296,0.03059209045022726
155,0.25,0.001,0.012660615895311911,0.009657531522296287,16.829284376626486,0.012012337171039604,0.014073599188122898
156,0.25,0.001,0.012671031389426398,0.009848235850478266,15.818946329053942,0.011291182247718731,0.014060305780731142
157,0.25,0.001,0.012659213659200039,0.009701608788672385,16.574417724190177,0.011830419503347735,0.016090882942080498
158,0.25,0.001,0.012583609504604732,0.0097186523520357,16.055220119769757,0.011459828779278912,0.021986784879118204
159,0.25,0.001,0.0126086741317432,0.009781300305173947,15.844602031498164,0.011309494669163572,0.030798161402344704
160,0.25,0.001,0.012602659544119469,0.009728517221634859,16.10669465955797,0.011496570063924318,0.018766092718578875
161,0.25,0.001,0.012643547419581439,0.009729550303993644,16.33004020020202,0.011655988722485383,0.019362442195415497
162,0.25,0.001,0.012703925721183583,0.009818041054429589,16.172497613089426,0.011543538624617721,0.020369046949781477
163,0.25,0.001,0.012655914020161708,0.009749025028649267,16.29020608336061,0.01162755609090693,0.019696088042110205
164,0.25,0.001,0.012649193657869167,0.009688982838294008,16.589021116822632,0.011840843052692814,0.026373331667855382
165,0.25,0.001,0.012682709597296768,0.009672454298361317,16.869470961015303,0.012041021385449895,0.017581357271410525
166,0.25,0.001,0.012485818413423968,0.009607184780659257,16.131863386552414,0.011514534894041695,0.019520919187925756
167,0.25,0.001,0.012450462133511081,0.009670532652391838,15.578724301516354,0.011119717559968847,0.016639639739878476
168,0.25,0.001,0.01246653362944886,0.009567781436451516,16.24460746010581,0.01159500889372292,0.018506307038478553
169,0.25,0.001,0.01248600209070431,0.009606045927688643,16.13927532657162,0.011519825358009722,0.018921813927590847
170,0.25,0.001,0.012468534857444057,0.009681646556562775,15.61772274185013,0.011147553705817366,0.02540811523795128
171,0.25,0.001,0.012567689065094832,0.009660082418921885,16.29422863132351,0.011630427288596366,0.018674340622965246
172,0.25,0.001,0.012471544308649314,0.009531168701065766,16.477866216806266,0.011761503366742516,0.013145666103810072
173,0.25,0.001,0.012391704026159349,0.009450258556139337,16.483859739198788,0.011765781398428828,0.011703284457325935
174,0.25,0.001,0.012422702737807573,0.009618847047562128,15.712807275960733,0.011215422752291744,0.022708309814333916
175,0.25,0.001,0.012412903507004728,0.00954798338832436,16.055011820531153,0.011459680100307746,0.019380243786145
176,0.25,0.001,0.012464858427807524,0.00958917615628177,16.115323649395954,0.011502729228690903,0.017211162019520998
177,0.25,0.001,0.012426901105177272,0.009502709069504187,16.38717302594866,0.01169676875513823,0.01888233085628599
178,0.25,0.001,0.012535951900613176,0.009688824994469082,15.955298736069228,0.011388507306259264,0.014772574766539037
179,0.25,0.001,0.012554848992398808,0.009575534904641764,16.696075787387052,0.011917256093780908,0.016395629034377635
180,0.25,0.001,0.012422482251793474,0.009542964100018963,16.13681926517696,0.011518072280640229,0.016892518382519484
181,0.25,0.001,0.012842503343555299,0.009769271262972565,17.22239266699487,0.012292928384721536,0.028875600080937147
182,0.25,0.001,0.012723323015066294,0.009667795712312499,17.123174694606234,0.012222108989726078,0.02266296010930091
183,0.25,0.001,0.01277524732708276,0.00989053826779127,16.16590934585739,0.011538836078413555,0.031138212070800364
184,0.25,0.001,0.012703679444698187,0.009745216173130077,16.579229013212434,0.01183385368537647,0.03196027979720384
185,0.25,0.001,0.012409486764898668,0.009534332186884277,16.112366242461153,0.01150061830297013,0.020787341287359595
186,0.25,0.001,0.012498003977176908,0.009637460607912514,16.030484914255666,0.011442173386335236,0.02212371479254216
187,0.25,0.001,0.012370176603096528,0.009540709204316794,15.85633653494028,0.01131787047461833,0.018813663511537015
188,0.25,0.001,0.012449701981885093,0.009605012737869562,15.941637877579574,0.011378756515046091,0.024863366852514446
189,0.25,0.001,0.01236140276254206,0.00939629561585057,16.616459945007996,0.01186042822627266,0.01689547556452453
190,0.25,0.001,0.012324239665662848,0.009454792664273754,16.080381060170602,0.011477788051513635,0.013886037864722311
191,0.25,0.001,0.012408962751646619,0.009537879361228628,16.089551787324005,0.011484333895306214,0.02110385079868138
192,0.25,0.001,0.012378112615628557,0.009510966758806626,16.06748527275337,0.01146858334957414,0.019822226255200803
193,0.25,0.001,0.012428779204140653,0.009582846218740547,15.948609016753815,0.011383732346005579,0.019786140066571534
194,0.25,0.001,0.012468659935089258,0.009481517475221184,16.73994662945087,0.011948570042434596,0.02296257088892162
195,0.25,0.001,0.012368023933863246,0.009472131262441258,16.228582076187973,0.011583570361304764,0.03410513501148671
196,0.25,0.001,0.012297075147648434,0.009430825350048778,16.062463039356274,0.01146499860053981,0.01948964491020888
197,0.25,0.001,0.012200302767802726,0.009326642692334705,16.1039916908348,0.011494640750060528,0.011796845938079059
198,0.25,0.001,0.012220365789483536,0.009459433401678945,15.472264730013334,0.011043729286233643,0.012931520584970713
199,0.25,0.001,0.012287963889948614,0.009416295268705913,16.092832162878015,0.011486675348235557,0.015432811982464045
200,0.25,0.001,0.012253599665076524,0.009341245140511911,16.320834312858164,0.011649417782197118,0.020114603801630437
201,0.25,0.001,0.012197547475551511,0.009353627405733197,15.93732786492987,0.011375680131998479,0.01851962856017053
202,0.25,0.001,0.012177152321725102,0.009414665433731708,15.480977532103822,0.01104994827416404,0.021671488182619214
203,0.25,0.001,0.012370375187678652,0.009441812678270942,16.41166532747038,0.011714250769072364,0.017361423815600574
204,0.25,0.001,0.012283681861155636,0.00935748880626736,16.398385299431098,0.011704771805446894,0.016908985911868513
205,0.25,0.001,0.012346215828598201,0.009457077526047335,16.190731266566686,0.01155655336657151,0.017789395060390234
206,0.25,0.001,0.012294526312213677,0.009322044488738527,16.657788830013065,0.011889927787304114,0.017748932470567524
207,0.25,0.001,0.012310302144960388,0.009405081279084578,16.28085820543897,0.011620883801169858,0.021687823464162648
208,0.25,0.001,0.012183412154215378,0.00930884870403743,16.10905478970035,0.011498254667880337,0.027227336773648858
209,0.25,0.001,0.012273392294134412,0.009500980362869227,15.53659663776775,0.011089647849941292,0.026937338057905436
210,0.25,0.001,0.012228457105683757,0.0093302847551448,16.24135865012368,0.011592689971537245,0.023491626139730215
211,0.25,0.001,0.012308233255868429,0.009510903359278218,15.676236641014015,0.011189319515356184,0.023461053613573313
212,0.25,0.001,0.012152331342900193,0.009249989062056437,16.264726144140894,0.011609369125011345,0.014399256615433842
213,0.25,0.001,0.012098184346661463,0.009268045562554847,15.86009889958979,0.011320555959735752,0.013103461475111544
214,0.25,0.001,0.012150873698212288,0.00927008945228798,16.14391306782817,0.011523135665830242,0.020582902478054166
215,0.25,0.001,0.012170902095161952,0.009385399235883257,15.609958705273304,0.011142011923821058,0.016951143741607666
216,0.25,0.001,0.012118621530768635,0.009226558072963258,16.207124054038918,0.011568254142782954,0.01935226342175156
217,0.25,0.001,0.012079249848458137,0.009279903353979954,15.68753771519923,0.011197385949464119,0.0155163659946993
218,0.25,0.001,0.012166155944322491,0.009273592399044352,16.20992690704681,0.011570254751639407,0.01604431599844247
219,0.25,0.001,0.012272684345697308,0.009396504946462401,16.118109386569852,0.011504717620677982,0.015642068698070943
220,0.25,0.001,0.012097926902492622,0.009196949544475301,16.25707646883451,0.011603908971330842,0.017757839639671147
221,0.25,0.001,0.012225169778525174,0.009331340905647356,16.217017490261203,0.011575315838873092,0.01878974656574428
222,0.25,0.001,0.012192274646444635,0.009324403000729425,16.07155218229189,0.011471486211486002,0.01789379771798849
223,0.25,0.001,0.012220574020930044,0.009357611096085428,16.04404494736221,0.011451852210822419,0.026612147106789052
224,0.25,0.001,0.012287295228996119,0.009420166731617607,16.067387423672518,0.011468513507260898,0.03170180332381278
225,0.25,0.001,0.012240117231568138,0.009353864892989724,16.174558446695517,0.01154500959792685,0.022456084028817713
226,0.25,0.001,0.012154234153638175,0.009218496884536612,16.451870639507586,0.011742948350826257,0.014656859799288213
227,0.25,0.001,0.012139531151278988,0.009257175105081483,16.15272282610883,0.011529423858750056,0.020820623729377985
228,0.25,0.001,0.012094214943411586,0.009182629945104593,16.316521996718187,0.011646339754973725,0.012820302858017385
229,0.25,0.001,0.012081922300078056,0.009132675824502667,16.52757728073623,0.011796985924865262,0.015233312849886715
230,0.25,0.001,0.01216839445079421,0.009303580111936554,16.054419901082802,0.01145925760248594,0.015232000674586743
231,0.25,0.001,0.01230719817577155,0.00931692581705667,16.757484721089458,0.011961088309128808,0.019695566268637776
232,0.25,0.001,0.012149201816582418,0.009265237491946299,16.161736167656198,0.011535857364494074,0.017980806180275977
233,0.25,0.001,0.012138281815818377,0.009200938884168864,16.460869436997633,0.011749371475373043,0.014057269901968539
234,0.25,0.001,0.012039932317949913,0.009147021035244177,16.211874905261364,0.011571645185768283,0.014149409718811512
235,0.25,0.001,0.012114190099412923,0.009318581033129613,15.666593593555492,0.011182436540724833,0.017689584055915475
236,0.25,0.001,0.012074869076956759,0.00916531154947294,16.30516016614306,0.011638229954420458,0.018520720419473946
237,0.25,0.001,0.01218891207251575,0.009229265886184933,16.585856867360544,0.01183858448776627,0.015562990098260343
238,0.25,0.001,0.012142256624832913,0.00923512862933861,16.291545394226745,0.011628512058691467,0.015411763219162822
239,0.25,0.001,0.012061210500670003,0.009149278456775042,16.31846735608447,0.011647728305556366,0.012023942195810378
240,0.25,0.001,0.012110067813933551,0.009245218213770416,16.054617879678915,0.011459398914831487,0.012678407365456223
241,0.25,0.001,0.011979989746360333,0.009009699204138346,16.645508061922513,0.011881162071322279,0.012365080474410206
242,0.25,0.001,0.012056449980853678,0.009284388847075976,15.534630217918982,0.01108824426689435,0.014672113757114857
243,0.25,0.001,0.012054341184077682,0.009095511016446156,16.581284751472893,0.011835321021750816,0.017890475690364838
244,0.25,0.001,0.012146673292167239,0.009276834330879724,16.08257808475704,0.011479356234658842,0.013105158577673137
245,0.25,0.001,0.012095918522758799,0.009335400444547554,15.469942543532822,0.011042071765548053,0.019419836695306003
246,0.25,0.001,0.012029447394249203,0.009064194551863513,16.617275619506835,0.011861010435051274,0.015457632252946496
247,0.25,0.001,0.012050280631980399,0.009295800801080006,15.436104784955035,0.011017919189832288,0.0171952482778579
248,0.25,0.001,0.012167741000079191,0.009176417014428548,16.76338112799676,0.01196529702212474,0.028491101576946676
249,0.25,0.001,0.012187634776909272,0.009266748105349776,16.368648453597185,0.011683546362310624,0.025643209228292108
250,0.25,0.001,0.012192656955384946,0.009207044629850886,16.731370531857667,0.01194244863087628,0.023413314600475132
251,0.25,0.001,0.012036851846746036,0.009191258192308002,15.94670531304328,0.01138237352822504,0.01631794322747737
252,0.25,0.001,0.01206561767056093,0.009196796941642578,16.076871580605978,0.011475283069668793,0.020385280600748956
253,0.25,0.001,0.011981148272752762,0.00913469339465047,15.951533533452631,0.0113858197954694,0.012763567385263741
254,0.25,0.001,0.011954126097671278,0.00904066070382084,16.327060460520315,0.011653861856188661,0.014631530619226396
255,0.25,0.001,0.012014573480892967,0.0092496756075339,15.494487921746222,0.011059591664344198,0.02159647224470973
256,0.25,0.001,0.012097774419401373,0.009200624667189933,16.23562731061663,0.011588599079669257,0.015186111442744732
257,0.25,0.001,0.012083443675886143,0.00910980884640754,16.664248640458663,0.011894538644153222,0.014807198836933821
258,0.25,0.001,0.011910926888359118,0.009076252222511468,15.885516822731102,0.011338698660050751,0.01359557086834684
259,0.25,0.001,0.01189541029897365,0.009040337524653136,15.999828254783546,0.011420291402415093,0.013499515247531235
260,0.25,0.001,0.011919907846866728,0.009185469347042043,15.323794629023626,0.010937754910081103,0.01390885841101408
261,0.25,0.001,0.01198474720611677,0.009101870391968187,16.155642109126834,0.011531507572538782,0.01586021448019892
262,0.25,0.001,0.011973272869875142,0.009057783196260641,16.338404016180352,0.01166195861254843,0.016061697737313807
263,0.25,0.001,0.0120359714071338,0.009137480816507077,16.243140553904105,0.01159396185146617,0.02366422733757645
264,0.25,0.001,0.01205544718183004,0.009284954997045652,15.525838068029383,0.01108196864241926,0.028796969214454293
265,0.25,0.001,0.012164652932967458,0.009211445949807927,16.54977236737262,0.011812828242235987,0.03005453769583255
266,0.25,0.001,0.012035388135156788,0.009234041665363443,15.698744698409195,0.011205385223703922,0.02015258523169905
267,0.25,0.001,0.01193063756103044,0.009041058482950205,16.193203347593872,0.011558317878368217,0.014764097635634243
268,0.25,0.001,0.01193138295272877,0.009089471809156648,15.92607045854841,0.011367644866915353,0.014862769632600248
269,0.25,0.001,0.011890912199249634,0.009018314819127977,16.09803644536616,0.011490390039519028,0.012135684548411518
270,0.25,0.001,0.011891721846065023,0.009114241700332898,15.564998119480007,0.011109920142384017,0.013760317291598767
271,0.25,0.001,0.011920966224356013,0.00895689627524097,16.610648496858367,0.011856280154788271,0.01854111615102738
272,0.25,0.001,0.012004724214528943,0.009144449897192337,16.028977685446268,0.011441097562773924,0.016859072144143283
273,0.25,0.001,0.011901442944021016,0.009033810159007272,16.07021475781451,0.011470531590160251,0.012362621375359595
274,0.25,0.001,0.011969855640615736,0.009130407190257376,15.912268737122252,0.011357793531136511,0.0192085572052747
275,0.25,0.001,0.011956063179033144,0.009020693972706795,16.449807911128786,0.01174147602507408,0.016487065702676773
276,0.25,0.001,0.012011697499470396,0.009120115960160127,16.20442354810107,0.011566326586795909,0.018225811596494168
277,0.25,0.001,0.012019532808399463,0.009183743184657542,15.891765812465122,0.011343159038162114,0.02012527617625892
278,0.25,0.001,0.011919708056682413,0.009028928747380174,16.199926795540275,0.011563116913304979,0.01754525408614427
279,0.25,0.001,0.011822641350247048,0.008981733773272117,15.920445058633993,0.01136362959217273,0.017657521180808544
280,0.25,0.001,0.011796725467666165,0.008979707420036034,15.786569050380162,0.011268072127323456,0.014725866029039025
281,0.25,0.001,0.011792215049921811,0.008926783038487474,16.05788155859643,0.011461728450104519,0.014333941391669214
282,0.25,0.001,0.011879398483414572,0.008949879953985686,16.41702227959266,0.011718074432257431,0.014840100426226854
283,0.25,0.001,0.011962293800744381,0.009117053041828202,15.944729987343589,0.011380963588396567,0.01156465255189687
284,0.25,0.001,0.012017816137317772,0.008984797767230443,16.99703567840241,0.012132074003142333,0.017729470040649176
285,0.25,0.001,0.011934355020031824,0.009101941081398463,15.872848699381063,0.01132965645922988,0.013727561454288661
286,0.25,0.001,0.011996939532704406,0.009091959662407964,16.27950701032366,0.011619919350694974,0.014732277370058
287,0.25,0.001,0.01184762160160712,0.008974959305231716,16.098400386349187,0.011490649811812411,0.014005605247803032
288,0.25,0.001,0.011921653000044299,0.0090432090439148,16.13079976092328,0.011513775703728251,0.012887668330222368
289,0.25,0.001,0.012021570898346849,0.009145599333467064,16.116944189386054,0.011503885931039296,0.021651923598255962
290,0.25,0.001,0.011941548440973837,0.008993063269408194,16.523311244000446,0.011793940930764059,0.022803004481829703
291,0.25,0.001,0.011893650267150375,0.009035865485586308,16.0150262434404,0.011431139360057387,0.019441653043031693
292,0.25,0.001,0.011918407291747056,0.008999684543072522,16.356522784390293,0.011674891352170088,0.015459508867934346
293,0.25,0.001,0.011883891367732168,0.008996884424525958,16.178788220751418,0.011548028708602012,0.01348054176196456
294,0.25,0.001,0.011864929024007294,0.008975368040194224,16.193099791139037,0.01155824396226912,0.0141336441738531
295,0.25,0.001,0.011907490046060348,0.009101995817580066,15.721989711300358,0.01122197695310518,0.015825515147298574
296,0.25,0.001,0.01177361344734391,0.008896273378651221,16.12461368435032,0.011509360231513433,0.015302673797123134
297,0.25,0.001,0.011767648404034284,0.008937458200687235,15.860386936481182,0.01132076155351976,0.024639560841023922
298,0.25,0.001,0.011876269282547982,0.009078241448726628,15.680147045261258,0.011192110667566922,0.02523664489854127
299,0.25,0.001,0.01201202088946497,0.009192814147816255,15.798834915999528,0.011276827206280891,0.029070850927382708
300,0.25,0.001,0.011861241199485548,0.008883924665604974,16.684881943922775,0.011909266198374572,0.022679253946989775
301,0.25,0.001,0.011921964370860504,0.009113135661643285,15.740675483955131,0.011235314406820223,0.0190926919458434
302,0.25,0.001,0.011896382464648603,0.009003835044555611,16.20983630169879,0.0115701900797279,0.02331721968948841
303,0.25,0.001,0.011867809569933913,0.009061390403044092,15.727173580966152,0.011225677074208532,0.012686822621617466
304,0.25,0.001,0.01188859391425337,0.008970950855003608,16.350471746004544,0.01167057226695542,0.01182419341057539
305,0.25,0.001,0.011875338275190238,0.00900422365783335,16.08972634116372,0.011484458487625781,0.013493625854607671
306,0.25,0.001,0.011862417343226107,0.009107485081959557,15.438641122671275,0.011019729566503407,0.013632980815600604
307,0.25,0.001,0.011783373370193518,0.008821399829217366,16.598899480798742,0.01184789399057726,0.019292139681056142
308,0.25,0.001,0.011779742176224897,0.0090217746507663,15.455650216406518,0.011031870247256615,0.02132770058233291
309,0.25,0.001,0.01184946511882347,0.008803965107302417,17.066982147719834,0.012182000105438854,0.017083593760617077
310,0.25,0.001,0.011860504265424314,0.009124906709069734,15.330288373506987,0.010942389988227686,0.018255763570778072
311,0.25,0.001,0.011904676199204975,0.008901157424590744,16.831719995854975,0.012014075657284065,0.015327778295613825
312,0.25,0.001,0.01181041346760569,0.0089661623842523,15.939183216304569,0.011377004437048229,0.014695872145239264
313,0.25,0.001,0.011789485306612084,0.009025964502163314,15.486771644340767,0.011054083971692196,0.01712438417598605
314,0.25,0.001,0.011796850936262163,0.008850728210757722,16.510071519704965,0.011784490734978562,0.021362638566643
315,0.25,0.001,0.011731550279636304,0.009032986523931499,15.122750632317512,0.010794254555544263,0.015386056271381676
316,0.25,0.001,0.011659932159051135,0.008772281506149978,16.182394136701312,0.011550602524412071,0.014451498631387949
317,0.25,0.001,0.01177485349618799,0.009001065268703215,15.544310123317844,0.011095153549834293,0.025753936264663935
318,0.25,0.001,0.011828651483897324,0.008952356041869619,16.118759796645616,0.011505181867698512,0.016237836447544396
319,0.25,0.001,0.011800864862871694,0.0088955631970868,16.28131094083681,0.011621206952774311,0.012204523372929543
320,0.25,0.001,0.011689761555293105,0.008826909810918701,16.04342185638763,0.011451407463517225,0.0140804328257218
321,0.25,0.001,0.011699793614692741,0.008890846824007375,15.74133698809278,0.011235786572514474,0.016952384845353663
322,0.25,0.001,0.011688930799181645,0.008855714403338485,15.877344512939453,0.01133286546248355,0.018817927106283605
323,0.25,0.001,0.01174566103043137,0.008898910230209866,15.95319210932805,0.011387003646915096,0.014345710631459951
324,0.25,0.001,0.011762463389435313,0.00886659898621204,16.22842436989585,0.01158345779435821,0.01168346736812964
325,0.25,0.001,0.011778667243709276,0.008913206100300119,16.05804408146785,0.011461844455009172,0.025539933936670423
326,0.25,0.001,0.011692343437327788,0.008903866046323226,15.626627427405053,0.011153909655535369,0.018111810320988297
327,0.25,0.001,0.011644820177129337,0.008844421116205363,15.693436218094039,0.011201596158525368,0.01369091763626784
328,0.25,0.001,0.011706559169669072,0.008798658268546665,16.295876140384884,0.01163160324081719,0.01676911022514105
329,0.25,0.001,0.01163733004295564,0.008854572540456122,15.594573249397698,0.011131030156600783,0.020044772303663194
330,0.25,0.001,0.01176189772457212,0.00898953605402302,15.536315565842848,0.011089447227582332,0.027982365456409752
331,0.25,0.001,0.01172739137168769,0.009069403885239429,14.8953611436781,0.01063194942446688,0.01771491061663255
332,0.25,0.001,0.011828156638440194,0.008984093163367157,15.938131860586314,0.011376254004701152,0.018591267173178494
333,0.25,0.001,0.011845346841101462,0.008856470828650745,16.749661212963062,0.011955504077775205,0.016556742950342596
334,0.25,0.001,0.011691314849879715,0.008899259020748375,15.646681691264059,0.011168223905256288,0.01677653461229056
335,0.25,0.001,0.011805235721416526,0.008997041347262624,15.737120865203522,0.01123277720571272,0.021060114726424217
336,0.25,0.001,0.011815330519207886,0.008857675602884738,16.574697511274735,0.011830619208618654,0.021086815395392478
337,0.25,0.001,0.011834850076299447,0.008974846746199406,16.027459079616673,0.011440013618570073,0.015637029893696308
338,0.25,0.001,0.011789525824261236,0.008924918030235138,16.053262746203078,0.011458431653249878,0.02059766766615212
339,0.25,0.001,0.01174955900635693,0.008887905206858785,16.03670840420566,0.011446615563315958,0.0137518341653049
340,0.25,0.001,0.011625942440478357,0.008678434262113585,16.51783625634162,0.011790033016660685,0.014209463377483189
341,0.25,0.001,0.011703208129812072,0.00891436274357877,15.628689969240964,0.011155381848137733,0.014028911013156176
342,0.25,0.001,0.011655072526044244,0.008767186201453864,16.183715296315622,0.011551545536270965,0.011822175525594503
343,0.25,0.001,0.011666709370911122,0.008922146483846418,15.380530527135829,0.010978251625364617,0.014757450320757926
344,0.25,0.001,0.01172470228112006,0.00884471684489604,16.139438792637417,0.011519942036143767,0.016998023842461407
345,0.25,0.001,0.011821801837656524,0.008979023236699484,15.930930726606768,0.011371114008998406,0.015163164120167494
346,0.25,0.001,0.01171975053519338,0.008808303960077056,16.315746875385663,0.011645786492066854,0.012593713821843266
347,0.25,0.001,0.011811031456422675,0.008884861596583665,16.39825626834408,0.011704679706169936,0.013331678346730769
348,0.25,0.001,0.011724627423253689,0.008849216361049113,16.113803649734663,0.011501644289603614,0.01581993792206049
349,0.25,0.001,0.01165156561758492,0.008799948424592124,15.980461378411933,0.011406467793299024,0.014872030587866902
350,0.25,0.001,0.011638025556701225,0.00885720178689603,15.58373776949369,0.011123296052458022,0.015178002533502877
351,0.25,0.001,0.011586758645844984,0.008763565786264756,15.82117307474325,0.011292771645070128,0.013301885453984141
352,0.25,0.001,0.011593420148550809,0.008788546942338184,15.71851059630677,0.011219493644758579,0.017661702469922602
353,0.25,0.001,0.011734461207147483,0.008935285388277127,15.686582330557016,0.011196704018955757,0.025801204959861934
354,0.25,0.001,0.011707862992617455,0.008798872949657859,16.30197918650868,0.011635959447900558,0.018573257024399936
355,0.25,0.001,0.011658737239438098,0.008869240091151588,15.632343023949927,0.011157989310456765,0.01951628999086097
356,0.25,0.001,0.011697615494767388,0.00889495315419121,15.706118933709114,0.011210648774952972,0.019450187915936112
357,0.25,0.001,0.011607518184234153,0.008778053186424486,15.856322190001771,0.011317860235547303,0.014980623149313033
358,0.25,0.001,0.01166575489627136,0.008896157922284617,15.520821875268286,0.011078388205045172,0.018015866284258664
359,0.25,0.001,0.011630913285681834,0.008745403325819707,16.170397651588523,0.011542039722761258,0.02065830898936838
360,0.25,0.001,0.011751643830275797,0.008959971361148816,15.644532863910381,0.011166690124133034,0.019175575580447912
361,0.25,0.001,0.011646509096845165,0.00875511911216673,16.20334995814732,0.011565560284187952,0.013475076877512038
362,0.25,0.001,0.011663150920399597,0.00885918187284535,15.71344234759991,0.011215876051106289,0.013849385431967676
363,0.25,0.001,0.011729300087624853,0.008824951398176151,16.27597049671215,0.01161739507259968,0.013267816277220845
364,0.25,0.001,0.011641402996994637,0.008849555387028626,15.645513201283885,0.01116738986529899,0.014313310210127383
365,0.25,0.001,0.011584862821049743,0.008761015961171834,15.824838378403213,0.01129538785039487,0.013849759649019688
366,0.25,0.001,0.011588179817484631,0.008774599660147023,15.767302114884933,0.011254319853593814,0.013560661114752293
367,0.25,0.001,0.011643541686154984,0.008794140592626818,15.968043622865782,0.01139760429897629,0.022729803808033466
368,0.25,0.001,0.011804085202351376,0.00889539865695022,16.30027939094292,0.011634746174834346,0.0131904412410222
369,0.25,0.001,0.011638588540174149,0.008744709846655745,16.217297562400063,0.011575515747608896,0.01567637303378433
370,0.25,0.001,0.011773120452250754,0.009021535519878943,15.419880758013043,0.011006338870815877,0.03362717118579894
371,0.25,0.001,0.011657688879295365,0.008757515880023384,16.2525695507343,0.011600692041923126,0.012334039434790611
372,0.25,0.001,0.01157313482938232,0.008751226736457793,15.813974204430213,0.011287633265117926,0.0143237883457914
373,0.25,0.001,0.011634169383854656,0.008738980966282416,16.224636006617285,0.0115807537520466,0.016046644537709653
374,0.25,0.001,0.011724033579230308,0.008855187082356148,16.07701490213583,0.011475385369119078,0.01312512846197933
375,0.25,0.001,0.011729874511013974,0.008870794785792356,16.02228294624077,0.011436319019443806,0.011607763532083482
376,0.25,0.001,0.011677448856797848,0.008791034282850368,16.17546766930884,0.011545658579092677,0.018280014279298484
377,0.25,0.001,0.011708715232600878,0.008852356271101878,16.007035530006494,0.011425435781589218,0.0193552648415789
378,0.25,0.001,0.011719369102310348,0.008816548964970715,16.267403619367997,0.011611280242232689,0.01681139483116567
379,0.25,0.001,0.011649290859126128,0.008767168946400448,16.151411559555555,0.011528487908319455,0.017511700745671988
380,0.25,0.001,0.011714763186135135,0.00883282724726986,16.150369748964415,0.011527744289053829,0.019655118230730295
381,0.25,0.001,0.011599600329422033,0.008689088884045135,16.310506782950934,0.011642046240507449,0.018176939571276307
382,0.25,0.001,0.011622724800810709,0.008739258860657503,16.158942687904442,0.011533863446041714,0.016006333054974675
383,0.25,0.001,0.011692399820210515,0.008893309165160734,15.686103824992756,0.011196362473228234,0.01811503170756623
384,0.25,0.001,0.011641444675214998,0.008747094062126272,16.219940124763237,0.011577401944870263,0.013833799166604877
385,0.25,0.001,0.011559913982893084,0.008718400026906978,15.923845852862348,0.011366056997046644,0.014941249275580049
386,0.25,0.001,0.011549911205912684,0.008841669737555824,15.176986400897686,0.010832966738685001,0.013703488744795322
387,0.25,0.001,0.011729931956218494,0.008950051770719525,15.57844902918889,0.01111952107722262,0.01755029719788581
388,0.25,0.001,0.01178709392609832,0.008631089058510222,17.68625154180841,0.01262401965867838,0.021977280965074897
389,0.25,0.001,0.011770636346805226,0.00896453039086127,15.72541708265032,0.01122442332808731,0.013498646556399763
390,0.25,0.001,0.011619512634454193,0.00878086395070448,15.90778600881388,0.011354593867818615,0.013991961837746203
391,0.25,0.001,0.011721070667544565,0.008811366492575341,16.305983285589534,0.01163881747722308,0.013028352113906294
392,0.25,0.001,0.011778042142044056,0.008872519763043294,16.282546095795684,0.01162208857658507,0.01612907013623044
393,0.25,0.001,0.011692520707927562,0.008849487343168521,15.932358995374743,0.011372133472787111,0.013041223282925785
394,0.25,0.001,0.011627454492826383,0.008714238593129666,16.32566267160269,0.01165286414818179,0.01501352316699922
395,0.25,0.001,0.011695649022502558,0.00888561898289801,15.747408768370912,0.011240120462791514,0.017281993408687413
396,0.25,0.001,0.011599716083607176,0.008765576110518241,15.88252048282833,0.011336559944916724,0.013614418217912316
397,0.25,0.001,0.011725087027873967,0.00881576745228453,16.303827149527415,0.011637278479320067,0.01565539138391614
398,0.25,0.001,0.011822260932607966,0.008932615332510118,16.193574871859706,0.011558583063425915,0.020154350204393268
399,0.25,0.001,0.011696771712421061,0.008839054338142766,16.014648156637673,0.011430869490819182,0.01669473829679191
400,0.25,0.001,0.011593786405993033,0.008756073820148851,15.902541466597672,0.011350850440112543,0.013077083393000066
401,0.25,0.001,0.01159522360252155,0.008710576323689996,16.16556390406011,0.011538589510392655,0.014128473587334156
402,0.25,0.001,0.011543282000655,0.008740057474882393,15.709270307519933,0.011212898149550274,0.01385796524118632
403,0.25,0.001,0.011550082597922492,0.008672539369909318,16.12575289967296,0.011510173375926453,0.011364681646227837
404,0.25,0.001,0.011496597991048635,0.008710395119019916,15.613880566188268,0.011144811253524817,0.01872497529257089
405,0.25,0.001,0.011623517530305045,0.008625336417130062,16.801807468540066,0.011992724816945086,0.018923264113254845
406,0.25,0.001,0.01162499677348923,0.008785846665665344,15.910596981677381,0.011356600272432106,0.01869198284111917
407,0.25,0.001,0.011662508528884296,0.008749405597592448,16.32502795628139,0.01165241110369835,0.019741598749533296
408,0.25,0.001,0.011744231955854447,0.008859230592273748,16.16754825089004,0.011540005889286253,0.02417150151450187
409,0.25,0.001,0.011612967000557826,0.008712407717337976,16.254734236329465,0.011602237142276563,0.020487173926085234
410,0.25,0.001,0.011675379144867043,0.008854349309599007,15.809051136394123,0.011284119297925855,0.014088512572925538
411,0.25,0.001,0.011562378168269829,0.008662337140476966,16.25182864010989,0.011600163197794352,0.013296849676407874
412,0.25,0.001,0.011554258783440014,0.00868200148854937,16.09613057230855,0.011489029673310884,0.015882653184235096
413,0.25,0.001,0.011544419677702936,0.008760529396298167,15.600920528369945,0.011135560691199104,0.013235955964773893
414,0.25,0.001,0.011651785698320184,0.008739946577902679,16.317946385813283,0.011647356449545527,0.017586427566129714
415,0.25,0.001,0.011549754045739933,0.00873247205003441,15.788048192956946,0.011269127903609526,0.01322240789886564
416,0.25,0.001,0.011457852208679849,0.008559034699267084,16.24497334616525,0.011595270054364917,0.009725305601023138
417,0.25,0.001,0.011521835203517924,0.008760306252432721,15.475608968210745,0.01104611632277712,0.011547706322744489
418,0.25,0.001,0.011462796643212602,0.008701252194305698,15.475695742093599,0.011046178259881226,0.014999281498603523
419,0.25,0.001,0.011557644306794628,0.008720566625041622,15.898984959361318,0.011348311891050192,0.018082161899656057
420,0.25,0.001,0.011485242804737537,0.008651203125879005,15.881957980564662,0.011336158444371636,0.012817450216971338
421,0.25,0.001,0.011458218273716968,0.008704595353740912,15.431303095555567,0.011014491859782703,0.014649468823336065
422,0.25,0.001,0.011405394918152264,0.008604106319310901,15.69842065664438,0.011205153930509908,0.015535146521870047
423,0.25,0.001,0.01142454018591197,0.008719692428360928,15.157967280293558,0.010819391349245937,0.016573444823734462
424,0.25,0.001,0.011536089738237333,0.00865240153743998,16.160188758766257,0.01153475286136064,0.017916998476721346
425,0.25,0.001,0.011437028318971068,0.008648620226553508,15.626240032321805,0.011153633142271096,0.014091813587583601
426,0.25,0.001,0.011542864018989789,0.008722533288688123,15.805133408766526,0.011281322918462903,0.015138321439735591
427,0.25,0.001,0.01150813153893738,0.008743147131383092,15.494973532708137,0.011059938281733146,0.013454493775498122
428,0.25,0.001,0.011570157217127936,0.008706232841935132,16.049432884467826,0.011455697990341062,0.01445253030396998
429,0.25,0.001,0.01149891804453436,0.00866755994630384,15.866931705684452,0.011325433051880409,0.013110785163007677
430,0.25,0.001,0.01158731158536214,0.00879824815399863,15.62991226531647,0.011156254293587773,0.0125182312913239
431,0.25,0.001,0.011583462639988124,0.008781785337807059,15.700600871410998,0.011206710115211276,0.019099207245744765
432,0.25,0.001,0.011562564905610058,0.008659654562003337,16.267910385131835,0.011611641959408876,0.025154360570013523
433,0.25,0.001,0.011476651673297306,0.008693787707322901,15.595170459118519,0.011131456430491448,0.015394577174447477
434,0.25,0.001,0.011601090476244361,0.008862362531842766,15.347832396790222,0.01095491248878674,0.019040392711758614
435,0.25,0.001,0.011415712760536226,0.008581399054849868,15.883494467263693,0.011337255151508704,0.015093703055754304
436,0.25,0.001,0.011625202863917246,0.008752938294476206,16.09617023258419,0.011489057981858807,0.026870135217905045
437,0.25,0.001,0.011616713721509818,0.008755054159069454,16.036740753676867,0.011446638653588056,0.018634211737662554
438,0.25,0.001,0.01147628479974938,0.008679800957523204,15.67149512741592,0.011185935137341842,0.018515219911932945
439,0.25,0.001,0.011505738473855533,0.008646076829633215,16.025544499826957,0.011438647037706607,0.016502504353411496
440,0.25,0.001,0.011500754270825413,0.008758190724548403,15.369326706771012,0.010970254608687375,0.017980551929213107
441,0.25,0.001,0.01148921417911629,0.008580307533534674,16.301512996967023,0.011635626693052837,0.015594674390740693
442,0.25,0.001,0.011552947047320041,0.008831454817574103,15.251243167919117,0.010885969427494016,0.023140211938880384
443,0.25,0.001,0.01143433063772026,0.008538344764447474,16.22910473582509,0.011583943423144246,0.014949509291909635
444,0.25,0.001,0.011505964013573887,0.008760363231975954,15.386347890162206,0.01098240391874533,0.02126285363920033
445,0.25,0.001,0.011619317234790587,0.008789691750656118,15.857220999749153,0.011318501784260637,0.02866489056032151
446,0.25,0.001,0.011668559495400596,0.00881901964708999,15.968821890275557,0.0113981598074772,0.02485722058918327
447,0.25,0.001,0.011529930050556476,0.00865585619358571,16.10631033509642,0.011496295742395732,0.018021790659986436
448,0.25,0.001,0.01153776544545378,0.008694541570986366,15.933427060305418,0.011372895831766894,0.017203230527229607
449,0.25,0.001,0.0115021917661959,0.008723698104066507,15.570678212092472,0.011113974455455013,0.01789010234642774
450,0.25,0.001,0.011584252094501977,0.00862844844686461,16.56432315281459,0.01182321424183768,0.016115163220092654
451,0.25,0.001,0.011458832903632097,0.008560023713693186,16.244925943311753,0.011595236219351716,0.0134383401600644
452,0.25,0.001,0.01145330613867922,0.008666869572230748,15.61519159589495,0.011145747034900035,0.019341727951541543
453,0.25,0.001,0.011543086171150208,0.00860409502165167,16.470105959294916,0.011755964282151974,0.01772694813553244
454,0.25,0.001,0.011600370827939485,0.008809166538764488,15.64190952175266,0.011164817645790621,0.014417829341255128
455,0.25,0.001,0.011617249856283377,0.008671210026675528,16.509608805310595,0.011784160460607134,0.016616588225588202
456,0.25,0.001,0.011582565260539343,0.008713775791309691,16.07669712946965,0.011475158550656424,0.019944876432418823
457,0.25,0.001,0.011605190383372726,0.008650356155543864,16.55889096522069,0.011819336877388073,0.02259224746376276
458,0.25,0.001,0.011604172052754151,0.008877216277459821,15.281860424922062,0.010907823286882272,0.022224897053092718
459,0.25,0.001,0.011612572930343859,0.008668600645039107,16.498021085969693,0.011775889426102564,0.01716932887211442
460,0.25,0.001,0.011537222457783563,0.008740126931077832,15.674924047700651,0.01118838261791624,0.014333054306916893
461,0.25,0.001,0.011476315959141805,0.00871439083059738,15.47782929808229,0.011047701140672583,0.014270238112658262
462,0.25,0.001,0.011382488996445478,0.008589055106698811,15.654404329991603,0.011173736138466527,0.014083600952289999
463,0.25,0.001,0.01148129784307637,0.008701589200031626,15.577487557798952,0.011118834802140579,0.016852905449923128
464,0.25,0.001,0.011381798517982383,0.00853281474088902,15.965705481728355,0.011395935390241509,0.01623440405819565
465,0.25,0.001,0.01140769315617425,0.008637584565760015,15.523688037578877,0.011080434002554516,0.0148540890077129
466,0.25,0.001,0.011407915025867604,0.008590971207716963,15.786153548104423,0.011267775551823286,0.014256586553528905
467,0.25,0.001,0.011479987552041536,0.008653011582382433,15.84237298651056,0.011307903630628523,0.01632978965062648
468,0.25,0.001,0.011372852618140833,0.008583374687849166,15.632234292501932,0.0111579117005724,0.011440956266596913
469,0.25,0.001,0.011477847143516436,0.008704522420949006,15.541711912050353,0.011093299009315027,0.015165225602686405
470,0.25,0.001,0.011445679679349228,0.008614143818248432,15.867927915971357,0.011326144122749005,0.01831010717432946
471,0.25,0.001,0.01146091807551764,0.008652463516445606,15.738579462910746,0.011233818317566556,0.016940020490437746
472,0.25,0.001,0.01156956307630945,0.008720028351296436,15.968793764219178,0.011398139731776715,0.015860573621466756
473,0.25,0.001,0.011446200532245113,0.008647991892891926,15.681160333654383,0.01119283392837572,0.015978328767232597
474,0.25,0.001,0.01150237205182458,0.008629114062085257,16.101737737131643,0.011493031932285255,0.0232248849933967
475,0.25,0.001,0.011470317920403822,0.00863300108115424,15.900323664487063,0.01134926742647185,0.014021285809576511
476,0.25,0.001,0.011512689697709712,0.008743163943290711,15.520422857934301,0.011078103396098717,0.018461090861819685
477,0.25,0.001,0.0114816619431252,0.008733614083829817,15.40005987397917,0.010992191201983704,0.02165830146986991
478,0.25,0.001,0.01146705339734371,0.008647291544456403,15.801946124401722,0.011279047911778532,0.014167702873237431
479,0.25,0.001,0.01145846891616072,0.008620539393562537,15.903756818666563,0.01135171792909819,0.014483157370705158
480,0.25,0.001,0.011465248764379994,0.008673477962940605,15.645083624452026,0.011167083243720219,0.014718982623890042
481,0.25,0.001,0.011557711922860408,0.008693826199601313,16.049215354500237,0.011455542722698242,0.02046300272922963
482,0.25,0.001,0.011400151551588552,0.008705853257369209,15.098848554590246,0.010777193829115093,0.014932648628018796
483,0.25,0.001,0.011426646104798868,0.008545398157458384,16.146513031341218,0.011524991457060114,0.015635281801223755
484,0.25,0.001,0.011426956841087603,0.008608821959613443,15.792827872391586,0.01127253952347722,0.011602268787100911
485,0.25,0.001,0.011394515733879345,0.008514386047046263,16.140246703598525,0.011520518703496449,0.014775477640796453
486,0.25,0.001,0.011687165265391162,0.008694586972450163,16.77040896153712,0.011970313320154977,0.017547923023812473
487,0.25,0.001,0.011527091618831996,0.008749640630660476,15.564835739135741,0.011109804239211808,0.015682202647440135
488,0.25,0.001,0.011538459313521673,0.008663536295049137,16.111067767719646,0.011499691483026157,0.018559802556410432
489,0.25,0.001,0.011510587358785854,0.008763505424280744,15.39464686886295,0.010988327529523875,0.01789307943545282
490,0.25,0.001,0.01163807245442173,0.008749507979622909,16.187515514499538,0.011554258040328006,0.022686375654302537
491,0.25,0.001,0.011813688470603345,0.008929490486344139,16.163046939556416,0.011536792961853259,0.03335093311034143
492,0.25,0.001,0.011630751481177388,0.008897707834430448,15.315977021102066,0.010932174890151367,0.03159949230030179
493,0.25,0.001,0.011673264588219124,0.008730942463236196,16.48877324114789,0.011769288537578793,0.025197107694111764
494,0.25,0.001,0.01164949102798006,0.008785967586132197,16.047184877081232,0.011454093416903092,0.02564797387458384
495,0.25,0.001,0.01156959106101767,0.008633800275664736,16.45217223534217,0.011743163622656797,0.026732591213658452
496,0.25,0.001,0.011448166556246989,0.008706211845216515,15.36591544518104,0.010967819732463269,0.016175315948203206
497,0.25,0.001,0.011374447552057413,0.008509333675297407,16.056098455911155,0.011460455714426235,0.015552746830508113
498,0.25,0.001,0.011419499532452651,0.008673558378039481,15.388254643534566,0.010983764913300904,0.016358088585548103
499,0.25,0.001,0.011400768287725502,0.00855949100639139,15.922518007047884,0.011365109212739389,0.012751603731885552
500,0.25,0.001,0.011394310456055861,0.008454984107187816,16.47198525942289,0.011757305681244033,0.016812118818052113
