epoch,beta,learning_rate,train_loss,train_reconstruction_loss,train_kl_unnormalized,train_kl_normalized,mean_unclipped_gradient_norm
1,0.0,0.001,0.06925565790870915,0.06925565790870915,180.57811236505924,0.12889230004643773,0.127554083449973
2,0.02,0.001,0.051025790313015816,0.044700100214585016,443.1146259075662,0.3162845295557218,0.10190673462218708
3,0.04,0.001,0.043810026483691256,0.0396877955418566,144.3811401765243,0.10305577457282249,0.0685548306339317
4,0.06,0.001,0.03685796646968178,0.03407477969060774,64.98743608557659,0.04638646401540085,0.06160523214687904
5,0.08,0.001,0.03552533776215885,0.032688094950888466,49.68722550765328,0.03546554283201519,0.06408912771277958
6,0.1,0.001,0.03439352308926375,0.03184932218297668,35.64425126117209,0.025442006610401205,0.0513629706369506
7,0.12,0.001,0.032912649952847026,0.030667838506076645,26.208172773278278,0.018706761437029464,0.027421307232644822
8,0.14,0.001,0.031118629746462987,0.02890845188304134,22.117566697493842,0.015786985508560916,0.028533680364489555
9,0.16,0.001,0.029179924593671507,0.026744438941064087,21.325720629484756,0.01522178488899697,0.04635487879729933
10,0.18,0.001,0.027432103649429652,0.02457439310848713,22.2425121539572,0.015876168560997286,0.03349525419374307
11,0.2,0.001,0.02576666410850442,0.022552048155794972,22.51838522537895,0.016073080103767987,0.024543815809819434
12,0.22,0.001,0.02488598876349304,0.021570244985430136,21.11525827822478,0.015071561940203268,0.06310908496379852
13,0.24,0.001,0.024207232983215997,0.020697206093565276,20.48978247932766,0.014625112404944796,0.06574500465972556
14,0.25,0.001,0.023140628127300222,0.01981360279671524,18.64465251425038,0.013308103150785426,0.03356133297913604
15,0.25,0.001,0.022268138518152028,0.018695867570198102,20.01900634433912,0.01428908375755826,0.04914372331566281
16,0.25,0.001,0.02188427603115206,0.018374653559016144,19.667925172888715,0.01403849048742949,0.07512206253078249
17,0.25,0.001,0.021320515984426375,0.017757017275561456,19.96984723298446,0.014253995169867566,0.038897645038863025
18,0.25,0.001,0.020986960390987602,0.017487149079856667,19.612942037167755,0.013999244851654357,0.05482133705582884
19,0.25,0.001,0.020450135796614314,0.016884143780107084,19.98381885030995,0.014263967773240509,0.017213504657977156
20,0.25,0.001,0.020243933149006056,0.016806280049292938,19.264608011660368,0.013750612428023104,0.03784126012275616
21,0.25,0.001,0.019940614872004676,0.0165657374975474,18.91281417183254,0.0134995104724001,0.04966066053344144
22,0.25,0.001,0.019930400751207184,0.016454965313491613,19.476340172809103,0.013901741736480445,0.03771559180070957
23,0.25,0.001,0.019725926599424817,0.016323490965625513,19.06724829632303,0.013609741824641705,0.060673067760136395
24,0.25,0.001,0.01970798947888872,0.01627563437042029,19.234918600994607,0.013729420842965459,0.06022590140087737
25,0.25,0.001,0.01972193269625954,0.016335141043300215,18.97958185278851,0.013547167632254468,0.07240631658997801
26,0.0,0.001,0.015183228929729566,0.015183228929729566,28.044765366264013,0.020017676920959324,0.06316584783295791
27,0.02,0.001,0.014443350473175878,0.013608569025021533,58.47644341510275,0.04173907452898126,0.026682188579191763
28,0.04,0.001,0.015104862858095895,0.01303764124441406,72.40443123195482,0.05168053621124541,0.0173554185570942
29,0.06,0.001,0.015515445085323374,0.013152567486724128,55.17319722051206,0.039381297088159926,0.0201502140197489
30,0.08,0.001,0.01578645682853201,0.013715864243390767,36.26125496242357,0.02588240896675487,0.03944304802765449
31,0.1,0.001,0.015973792400049126,0.013728270266690979,31.45976195625637,0.022455219097970283,0.023198090597159333
32,0.12,0.001,0.01642058998670267,0.013824038434287776,30.314739426322607,0.02163792964048723,0.038112680013808936
33,0.14,0.001,0.016602550136006398,0.013870107513730941,27.343946138464887,0.019517449063857877,0.026855219931652147
34,0.16,0.001,0.01698128158631532,0.013972606558514677,26.344712789784307,0.018804220406698293,0.017041833295176428
35,0.18,0.001,0.01723656194689481,0.01411119998311219,24.32573552670686,0.017363123145401043,0.025117457792576816
36,0.2,0.001,0.017612449834528178,0.014268872132119925,23.421762894340183,0.016717889289322045,0.025881808768543933
37,0.22,0.001,0.017539602446815242,0.01409787944153599,21.917517935711405,0.015644195528701933,0.024056965588695474
38,0.24,0.001,0.01797901169113491,0.014443829522832581,20.636627266925313,0.014729926671609788,0.038187079752484955
39,0.25,0.001,0.01790220118087271,0.014348303124956463,19.916041551672894,0.014215589972643036,0.029501613332993455
40,0.25,0.001,0.017739191949367523,0.014275462039462897,19.41074341483738,0.013854920353202984,0.033382477031813726
41,0.25,0.001,0.017486809453238612,0.014197344898205736,18.434160438205886,0.013157858985157663,0.02976650915419062
42,0.25,0.001,0.01757036567058252,0.014206341600612453,18.851990757817806,0.013456096186879233,0.014298530088530647
43,0.25,0.001,0.017346512007972468,0.013962432785850505,18.964378798111625,0.013536316058609298,0.01714754368488987
44,0.25,0.001,0.017322318443785543,0.014146728744001491,17.796005925717562,0.012702359690019673,0.03010387687633435
45,0.25,0.001,0.017332102568901102,0.013994297030503335,18.70506253781526,0.013351222368176487,0.04638446970946259
46,0.25,0.001,0.017129902804027434,0.01403139427466237,17.364044680388076,0.012394036174438313,0.0379666258684463
47,0.25,0.001,0.017096649307919584,0.0137769319732552,18.60369770547618,0.01327887059634274,0.030929140694853332
48,0.25,0.001,0.01696327741379323,0.013861405118975951,17.38289373314899,0.012407490173553883,0.030844127241935995
49,0.25,0.001,0.016906911435982455,0.013684504657335903,18.05836715698242,0.012889626807267966,0.02924982686009672
50,0.25,0.001,0.016801131359584952,0.013699193358745265,17.383260444972827,0.012407751923606585,0.02445174826102124
51,0.0,0.001,0.012929635917686897,0.012929635917686897,24.587561094864554,0.017550007919246647,0.02569013720171319
52,0.02,0.001,0.01256251998245716,0.011844777451909106,50.27786597210428,0.03588712774597022,0.024610395957198408
53,0.04,0.001,0.013275432165550148,0.011575542566892893,59.53863401993461,0.04249724055669851,0.02409043504546086
54,0.06,0.001,0.013531319884502369,0.01162873243994039,44.42541482013205,0.031709789307731655,0.017175843939185143
55,0.08,0.001,0.0136930633644047,0.011990361511707306,29.8185677868387,0.021283774294674304,0.011576504550046392
56,0.1,0.001,0.014051225501234117,0.012165728054292824,26.41581898233165,0.018854974291457282,0.009087841906067397
57,0.12,0.001,0.01446179841361616,0.012184107768470826,26.59203893578571,0.018980755842816353,0.018383775527278583
58,0.14,0.001,0.014641624841353168,0.012205000728692697,24.38364776279615,0.017404459502352712,0.014738145750015974
59,0.16,0.001,0.015033514765293701,0.01243729957581862,22.733110013215438,0.016226345476956058,0.012412994996541075
60,0.18,0.001,0.015227048719382805,0.012413941262208896,21.895351930701214,0.01562837396909437,0.013462032294935651
61,0.2,0.001,0.015442376420225785,0.012499151330279267,20.617290168430493,0.014716124317223763,0.012091330976949798
62,0.22,0.001,0.01574090899494679,0.012674041703019454,19.530368221117104,0.013940305653902287,0.02242740745552712
63,0.24,0.001,0.01604054716942103,0.012785220257937909,19.002970770130986,0.013563862077181289,0.03739245277312067
64,0.25,0.001,0.01609632173958032,0.012841692751516467,18.2389391293733,0.013018514724748964,0.0263762545461456
65,0.25,0.001,0.016080095567133117,0.0128964748751858,17.84101045359736,0.01273448283625793,0.02371495237780942
66,0.25,0.001,0.01590218997196011,0.012759220013799874,17.61320377183997,0.01257187992279798,0.02440382410875625
67,0.25,0.001,0.015724378610434738,0.012693029898016349,16.987678451538088,0.012125395040355523,0.020318831110166177
68,0.25,0.001,0.01576183085694261,0.012677249953798625,17.285990447998046,0.012338322946465415,0.03143407363030645
69,0.25,0.001,0.015796389563576034,0.01273711874595155,17.144154749331268,0.012237084046631883,0.032642183928853936
70,0.25,0.001,0.01569397581660229,0.012663821757811567,16.98098323987878,0.01212061615979927,0.018115699136008818
71,0.25,0.001,0.015686486829882083,0.012654734807817833,16.989937830385955,0.012127007730468205,0.026219083306690056
72,0.25,0.001,0.015681107773081116,0.01265684046337138,16.947992892058,0.012097068445437545,0.02303055115044117
73,0.25,0.001,0.01553844119867553,0.012548350844046345,16.756466459191365,0.011960361498352152,0.027667778130206797
74,0.25,0.001,0.015613914814008319,0.012605998175947562,16.85636493848718,0.012031666622760298,0.026518923540910084
75,0.25,0.001,0.015598190018664236,0.01263917842960876,16.582301692133363,0.01183604688945993,0.0389900729060173
76,0.0,0.001,0.01197536800218665,0.01197536800218665,23.88825091154679,0.017050857181689357,0.03126624599099159
77,0.02,0.001,0.011718490591839603,0.011046807166674862,47.05141990993334,0.03358416838681894,0.017202273632089298
78,0.04,0.001,0.012298344798062159,0.010751028281191122,54.194763017737344,0.038682914359555565,0.012430549237049289
79,0.06,0.001,0.01255984055283277,0.010890804608554943,38.971986511893896,0.02781726374867516,0.009602598949438997
80,0.08,0.001,0.01275452015840489,0.011212184918315514,27.010148288892662,0.01927919221191482,0.010080731939524412
81,0.1,0.001,0.013028362205495005,0.011302976844751317,24.172647652004077,0.017253852713778783,0.010173871337125698
82,0.12,0.001,0.013394548351997914,0.011316652200792147,24.259439030522884,0.017315802305869297,0.012571457773447037
83,0.14,0.001,0.013693308958216854,0.011435004806388979,22.5991721443508,0.016130743857495217,0.010079214608089792
84,0.16,0.001,0.013917265356234882,0.011478006140045498,21.358762674746306,0.015245369503744687,0.013370778773807816
85,0.18,0.001,0.014238021485507488,0.011603063921565595,20.50875300200089,0.01463865310635324,0.01862723918424712
86,0.2,0.001,0.014496578408972076,0.01171843121557132,19.46092053288999,0.013890735569514624,0.011031680636935763
87,0.22,0.001,0.014839892965619978,0.011886411963597588,18.808305402009385,0.013424914633839675,0.019693607205732003
88,0.24,0.001,0.015003946873804797,0.011885467715885329,18.204123425691023,0.012993664115411151,0.019794475183718734
89,0.25,0.001,0.015079906804730063,0.011996479167238526,17.27952819492506,0.012333710346127808,0.021850376803841855
90,0.25,0.001,0.015064372123907441,0.01200970137734776,17.1183745906664,0.012218682791339329,0.026916767470538616
91,0.25,0.001,0.015023269980497982,0.012008853115789269,16.892792839382007,0.012057667979573167,0.027461064151591726
92,0.25,0.001,0.014949881891193598,0.011992205528785353,16.574818012403405,0.011830705219417134,0.026252095070150163
93,0.25,0.001,0.014993984417422957,0.011983733413660007,16.869446789285412,0.012041004132252257,0.027574161636746593
94,0.25,0.001,0.01495620829903561,0.012008564425227434,16.518595464955204,0.01179057492145268,0.0210383597554432
95,0.25,0.001,0.014899298480671385,0.011850432909053304,17.085843469370968,0.012195462861792268,0.014969588205632236
96,0.25,0.001,0.014986067982795446,0.012015213248846324,16.648670690785284,0.011883419479504128,0.015845574645532504
97,0.25,0.001,0.01491017041808885,0.011906226802131404,16.834099456123685,0.012015774058617906,0.021245356131758954
98,0.25,0.001,0.014855133981808372,0.011895358983589255,16.586579171885614,0.011839100051310216,0.02262901918341716
99,0.25,0.001,0.014779386358416599,0.011860734444597494,16.356126022338866,0.011674608152989912,0.012268384401169088
100,0.25,0.001,0.014823796949956728,0.01185554004881693,16.634112867272417,0.011873028456297228,0.019530365553994972
101,0.25,0.001,0.014802855329345102,0.011902986635332522,16.25086380004883,0.011599474518236138,0.030488905910816457
102,0.25,0.001,0.01480482562404612,0.011827283495146295,16.686146817414656,0.011910169034557213,0.02523091569956806
103,0.25,0.001,0.014728377568333045,0.01179453816426837,16.441236399774965,0.011735357887062788,0.016561488517456584
104,0.25,0.001,0.014763830320342727,0.011898676218545954,16.056323902295983,0.01146061663261669,0.023128603792024985
105,0.25,0.001,0.014801426500729893,0.011872073525319929,16.416094357034435,0.011717412103522081,0.03395501431077719
106,0.25,0.001,0.01472192882195763,0.011800661187457002,16.37078446097996,0.011685070992847936,0.018051363734735384
107,0.25,0.001,0.014587021353452101,0.011704707618640817,16.152486217332925,0.011529254973114151,0.014943254801134268
108,0.25,0.001,0.014649987641883933,0.011740015038977498,16.30748714612878,0.011639890896594417,0.02008171317478021
109,0.25,0.001,0.014626943261727043,0.011736776404406714,16.196495802506156,0.011560667953252075,0.020365203213360574
110,0.25,0.001,0.014584534548870895,0.011686484240319418,16.2406737219769,0.011592201086350394,0.022016276088025834
111,0.25,0.001,0.014569972907395467,0.011674682517414508,16.225207031913424,0.011581161336126642,0.018747310878501997
112,0.25,0.001,0.014560243843690208,0.01164130750881589,16.357719593877377,0.011675745605908191,0.013428694879015287
113,0.25,0.001,0.01461971542271583,0.011654609331618184,16.616454545725947,0.011860424372395394,0.011878286074433062
114,0.25,0.001,0.014487480477470418,0.011620545691770056,16.066303551715354,0.011467739865606962,0.015807471548517544
115,0.25,0.001,0.014503509956209555,0.011616050795368526,16.181321799236795,0.01154983711580071,0.011469033857186636
116,0.25,0.001,0.014500892110492871,0.01158668442102878,16.33121928339419,0.011656830323621834,0.01218148424393601
117,0.25,0.001,0.014445582717333151,0.01157550306747789,16.08392666692319,0.011480318820073655,0.015187361432860294
118,0.25,0.001,0.014469641257563363,0.011556098696006382,16.32749226445737,0.011654170067421392,0.019768366331441536
119,0.25,0.001,0.014433432299157847,0.011537752055927462,16.227390912926715,0.011582720137706434,0.012313149145079983
120,0.25,0.001,0.014386732983200446,0.011477046843780123,16.305881427267323,0.01163874477321008,0.018961666100141075
121,0.25,0.001,0.014430614389155222,0.011600943591607654,15.857475410129712,0.011318683376252471,0.020710664180417854
122,0.25,0.001,0.014351392373766588,0.011458020245899325,16.21445816040039,0.011573489050963877,0.019497929451366264
123,0.25,0.001,0.014341162831886954,0.01149716440750205,15.937767800040866,0.011375994147067,0.014816818189703755
124,0.25,0.001,0.014316606014643027,0.011466512495408887,15.971924319059953,0.01140037424629547,0.01274260500859883
125,0.25,0.001,0.01433948064951793,0.0114970034668627,15.929241860431173,0.011369908537067219,0.017413763846788142
126,0.25,0.001,0.014310100943497989,0.011425820663571357,16.163507854627525,0.011537121951911153,0.01568560271213452
127,0.25,0.001,0.014372986888755922,0.011522342071908971,15.97501389544943,0.011402579511384318,0.026605739258229733
128,0.25,0.001,0.014329273308748783,0.011502832624575366,15.83937336963156,0.011305762576467922,0.028144933697250154
129,0.25,0.001,0.014290233937942463,0.011445044800639152,15.944440564694611,0.011380757005492228,0.01913541193223662
130,0.25,0.001,0.014260737050486647,0.011361587295389693,16.246835108217986,0.011596598935201988,0.013143573680685626
131,0.25,0.001,0.014282329080869322,0.01137781742150369,16.27688339896824,0.011618046680205739,0.015494700831671556
132,0.25,0.001,0.014249075288357942,0.01140105862332427,15.960285820339037,0.01139206696669453,0.025561285722586844
133,0.25,0.001,0.014192126252405022,0.011372772976756096,15.799655254198157,0.0112774127438959,0.023224383903046448
134,0.25,0.001,0.014200237386900445,0.01137480832150449,15.833705159062925,0.01130171674451315,0.012586826458573341
135,0.25,0.001,0.014217614865173464,0.01133923958339121,16.130414806863534,0.011513500932807662,0.01986049415750636
136,0.25,0.001,0.01411277037113905,0.011247416229351707,16.05744505840799,0.011461416886800848,0.009771697585367493
137,0.25,0.001,0.01408116548281649,0.01131066176392462,15.525902510933253,0.011082014640209317,0.010266128099626966
138,0.25,0.001,0.014135491932215898,0.011263231881286787,16.096144445668095,0.011489039575780225,0.011393214472466044
139,0.25,0.001,0.014129774322652298,0.011338015553420004,15.645014960247538,0.011167034232867622,0.01643003559567862
140,0.25,0.001,0.014134021692949793,0.01125850557471099,16.114392255700153,0.011502064422341295,0.012242071382287476
141,0.25,0.001,0.014149910639161649,0.011341723743016304,15.737078485903533,0.011232746956390816,0.01674484596070316
142,0.25,0.001,0.014229395629271217,0.011367864443556122,16.03602144324261,0.011446125227153898,0.0228463736259275
143,0.25,0.001,0.014117119156795999,0.011223170886869015,16.217686492256497,0.011575793356357243,0.01689866568065352
144,0.25,0.001,0.014126855732630129,0.0112583947116914,16.074855044821035,0.011473843715075685,0.015160223572618432
145,0.25,0.001,0.014080459984100383,0.011259923162667648,15.806288936449134,0.011282147706244921,0.009060655772272084
146,0.25,0.001,0.014015677870939608,0.011208152424382127,15.733372746343198,0.01123010188889593,0.01201960165053606
147,0.25,0.001,0.014013496374954347,0.011203567079551842,15.746844411103622,0.011239717638189595,0.010736781431155073
148,0.25,0.001,0.013991537528193515,0.011203949663626112,15.62164172462795,0.011150350981176267,0.01852349905918042
149,0.25,0.001,0.014067692238351573,0.011247905596442844,15.802084015556003,0.011279146335157747,0.01418035389441583
150,0.25,0.001,0.014007615505353264,0.011182619103271028,15.831279419608737,0.011299985310213232,0.01603050162601802
151,0.25,0.001,0.01410915411684824,0.011235295862931273,16.10510238315748,0.011495433535444311,0.025820602973302204
152,0.25,0.001,0.014084070018776085,0.011245125399335571,15.909445812391198,0.011355778595568307,0.021609357765151396
153,0.25,0.001,0.014111787584488807,0.011288510480004808,15.821645443128503,0.01129310881022734,0.02004593289974663
154,0.25,0.001,0.014022123196526714,0.011211747253394645,15.74934691387674,0.011241503864294605,0.012615501984126039
155,0.25,0.001,0.014001285548767319,0.011160814674652141,15.917998856254245,0.011361883551930225,0.015261085134827428
156,0.25,0.001,0.014044894352555275,0.011188038255533446,16.009821525242018,0.01142742435777446,0.01886185450065467
157,0.25,0.001,0.014014939027635948,0.011151917720942393,16.044370521877124,0.011452084598056477,0.01173388549230165
158,0.25,0.001,0.014043207795399687,0.011206133963297242,15.89896208058233,0.011348295560729714,0.016274054017331865
159,0.25,0.001,0.014012364447116852,0.01119252500164768,15.802380654708198,0.01127935806902798,0.02269912190321419
160,0.25,0.001,0.014008330633134945,0.011145426875547223,16.043712091860563,0.01145161462659569,0.0260272269240684
161,0.25,0.001,0.013955446447691191,0.01114636276403199,15.742104923414148,0.01123633470621995,0.020456096571352746
162,0.25,0.001,0.014077595671557861,0.011180279327799445,16.23656101392663,0.01158926553456576,0.01887034707599216
163,0.25,0.001,0.013990208412642065,0.01121372542951418,15.559410509855852,0.011105931841438866,0.0225889856616656
164,0.25,0.001,0.01399054081219694,0.011147883223450701,15.930253936104153,0.011370630932265634,0.022588629896442097
165,0.25,0.001,0.014025313582109369,0.011174378088958886,15.976643209042756,0.011403742476119026,0.015601689513358805
166,0.25,0.001,0.013962572557122811,0.011132399125591568,15.860291787852411,0.011320693638724063,0.021133088196317356
167,0.25,0.001,0.01402665916344394,0.01120919294493354,15.78908142587413,0.011269865400338423,0.025784710318677954
168,0.25,0.001,0.013916452658241209,0.01112358807221703,15.651212685626486,0.011171458019719119,0.01462774992816978
169,0.25,0.001,0.01396014198174943,0.011150349929280903,15.746074842370074,0.011239168338593914,0.016780908219516277
170,0.25,0.001,0.013909164054886155,0.011119369397992672,15.634009490635083,0.01115917879417208,0.014434680963555971
171,0.25,0.001,0.013887424229279808,0.01104858433422835,15.908859098683234,0.011355359813478396,0.01196193757156531
172,0.25,0.001,0.01397614973394767,0.011208702225400054,15.508774946461553,0.011069789397902608,0.019972641848855548
173,0.25,0.001,0.01392849396104398,0.01107008046268121,16.018549093163532,0.01143365388519881,0.01980465981695387
174,0.25,0.001,0.013889802428691284,0.011070179579698521,15.80116667540177,0.01127849155988706,0.012629891383565135
175,0.25,0.001,0.013858824950521407,0.011052932671230772,15.724221688975458,0.011223570084921811,0.017840298565311566
176,0.25,0.001,0.013890596049959245,0.01108226886909941,15.73786639669667,0.011233309348106117,0.013842084341579013
177,0.25,0.001,0.013879938287579495,0.011001552450268164,16.130474385800568,0.011513543458815537,0.013714105253004365
178,0.25,0.001,0.013916642455303151,0.011117203227527763,15.688057960841967,0.011197757288252654,0.02041259625305732
179,0.25,0.001,0.013969037850265917,0.011097085741551027,16.094418991752292,0.011487807988402777,0.02032424437089099
180,0.25,0.001,0.013891032326804555,0.011096404564121495,15.661095105046812,0.011178511852281806,0.01603639270696375
181,0.25,0.001,0.013851364543256552,0.011043569356527018,15.734884822679602,0.011231181172505069,0.018578052417271666
182,0.25,0.001,0.013888818992544776,0.011096082389678644,15.65049621084462,0.011170946617305225,0.010753520040048493
183,0.25,0.001,0.013823616365375727,0.011015522272690483,15.7365597335152,0.01123237668345125,0.013697915503548251
184,0.25,0.001,0.013832734387529933,0.011022066316850807,15.750984012769615,0.011242672385988304,0.01508238549447722
185,0.25,0.001,0.013825307462526405,0.011056638889662598,15.515618531600289,0.011074674183868871,0.01630196689317624
186,0.25,0.001,0.013836634964074777,0.011032241595828015,15.715820655822753,0.011217573630137583,0.014872255735099316
187,0.25,0.001,0.013849886550527551,0.011098816572971966,15.41699649810791,0.011004280155680163,0.02511174449076255
188,0.25,0.001,0.01379665542555892,0.010999547568676264,15.674993340865425,0.011188432077705514,0.016952091827988625
189,0.25,0.001,0.013867711913974389,0.01105519136009009,15.761365786013396,0.011250082645262952,0.015322303916845057
190,0.25,0.001,0.013851812747509584,0.011055019998356052,15.673226563826852,0.01118717099487998,0.016097463874353304
191,0.25,0.001,0.013798955244862516,0.010997064421358315,15.70179596942404,0.0112075631473405,0.01776293685866727
192,0.25,0.001,0.01381026921874803,0.011019850564391717,15.63750690460205,0.011161675163884404,0.017537340832253296
193,0.25,0.001,0.01379400407490523,0.010985723359753256,15.7376046139261,0.011233122493880157,0.0200435740666257
194,0.25,0.001,0.013815693328885928,0.011022685531364835,15.652015888379967,0.011172031326466787,0.016263495820264023
195,0.25,0.001,0.013815317685189454,0.010974643628882326,15.919137568266496,0.01136269633709243,0.01313215908077028
196,0.25,0.001,0.013707172404164853,0.010937708710198817,15.520073900637419,0.011077854318799015,0.013878706739180617
197,0.25,0.001,0.01380979357044334,0.011030797043248363,15.573496840103813,0.011115986324128345,0.012901281834476523
198,0.25,0.001,0.013773488502787506,0.010948367779669555,15.831977243838104,0.011300483400312708,0.0118592603959971
199,0.25,0.001,0.013782516274115314,0.01099153437692186,15.640662223152493,0.01116392735414168,0.011126518559952578
200,0.25,0.001,0.013787457031076368,0.010952091894072036,15.889386377749236,0.011341460655067264,0.01569988661342197
201,0.25,0.001,0.013724507219765498,0.01096249458744474,15.478318360370139,0.011048050221534718,0.02030409261998203
202,0.25,0.001,0.013725867391280505,0.010946577533107738,15.57513934591542,0.011117158705150194,0.01343385906269153
203,0.25,0.001,0.013794160896669263,0.010948940552771092,15.944615030703337,0.011380881535120155,0.011555559933185577
204,0.25,0.001,0.013684135536136835,0.01093379275954288,15.412921751271124,0.011001371699693879,0.013430774315363832
205,0.25,0.001,0.01372591489844996,0.010855662602445354,16.084894034344217,0.01148100930360044,0.016767697512275644
206,0.25,0.001,0.013784494268829408,0.010986053739552913,15.682459915824559,0.011193761538775559,0.02003453320099248
207,0.25,0.001,0.013765612702978694,0.010946229016003402,15.799826502592667,0.011277534976868429,0.015579501322160164
208,0.25,0.001,0.013688227835556736,0.010915858217555544,15.53635945195737,0.011089478552432098,0.012400451271484295
209,0.25,0.001,0.013718926984330882,0.01091281364955332,15.725460594840671,0.011224454386039022,0.014834063334597481
210,0.25,0.001,0.013673673521565354,0.010882611013948917,15.641114379219387,0.011164250092233681,0.012811040091845725
211,0.25,0.001,0.013712653927505015,0.010902043091862098,15.750663591467816,0.011242443676993445,0.014354304410517216
212,0.25,0.001,0.013680647103034932,0.010920210587589636,15.469486435599949,0.011041746206709457,0.01674143975186679
213,0.25,0.001,0.013665040436646212,0.010858989495622076,15.7251101883598,0.011224204274346752,0.01900853816833761
214,0.25,0.001,0.013743892741268096,0.010955871758253678,15.62406961855681,0.01115208395328823,0.020018167172869045
215,0.25,0.001,0.013678801156904386,0.010856741127436577,15.814824092699133,0.011288239894860195,0.012978705732772747
216,0.25,0.001,0.013692295826647593,0.010895706096097179,15.672089623160984,0.011186359474062086,0.011245877016335726
217,0.25,0.001,0.013616270401879496,0.010801569825929145,15.77358212346616,0.011258802372209964,0.01118183560255501
218,0.25,0.001,0.01364647594159064,0.010847201280943726,15.687134862153426,0.011197098402679104,0.014860029228859477
219,0.25,0.001,0.01366871181551529,0.010867136524099371,15.700027784264606,0.011206301059432267,0.018954173144367006
220,0.25,0.001,0.013743028227725754,0.010951513704722343,15.643647845724354,0.011166058419503464,0.01925982441753149
221,0.25,0.001,0.013643702493737574,0.01084403853215601,15.689316502446713,0.011198655604887019,0.016353769331342645
222,0.25,0.001,0.013651250095471091,0.01088651933423851,15.493550441576087,0.011058922513616051,0.016196907601422735
223,0.25,0.001,0.013668443952565609,0.010861250792184602,15.731511233785879,0.011228773186142668,0.014257757200135125
224,0.25,0.001,0.013661223986874456,0.010911136949839799,15.411487731933594,0.011000348131287361,0.015453595771557756
225,0.25,0.001,0.013695092677422192,0.010873486979500108,15.812277916618015,0.011286422495801581,0.013946005350185765
226,0.25,0.001,0.013707580935695896,0.010935079388968323,15.537099015609078,0.011090006435124252,0.02086832829647594
227,0.25,0.001,0.013694402737462003,0.010847683020907899,15.95301685333252,0.011386878553413646,0.015676658031427197
228,0.25,0.001,0.01367677901102149,0.010932535346111525,15.378741743668266,0.01097697483488099,0.013989483058038685
229,0.25,0.001,0.013666446986405746,0.01085277185815832,15.76783674488897,0.011254701459592412,0.012928681034180853
230,0.25,0.001,0.013709963383558003,0.010915546686105107,15.659911027991253,0.011177666686646147,0.019150120878799096
231,0.25,0.001,0.01372249545286531,0.010876339160553788,15.949859811534052,0.011384625133143506,0.020621739845308993
232,0.25,0.001,0.013618100159194159,0.01086918830871582,15.404902295651643,0.01099564760574707,0.023415389988157485
233,0.25,0.001,0.013592951036989688,0.010846124767609265,15.393213441268257,0.01098730438348912,0.01619987551950746
234,0.25,0.001,0.013675397968162662,0.010891552729451139,15.600670079770296,0.011135381927030903,0.022267304205646116
235,0.25,0.001,0.013750712299800438,0.010951931008502194,15.684371376037598,0.011195125892960456,0.02443202833334605
236,0.25,0.001,0.013701942987416102,0.010968581190251786,15.31775959180749,0.010933447246115268,0.02923269435349438
237,0.25,0.001,0.013656819919529169,0.010932225698362226,15.268626103608504,0.01089837694761492,0.020485028417574033
238,0.25,0.001,0.013635559674838316,0.010833318212434002,15.703760561735734,0.011208965425935571,0.016822641922367945
239,0.25,0.001,0.01364973433315754,0.010841626819709073,15.736634554655655,0.0112324300889762,0.018138406694763236
240,0.25,0.001,0.013567094247302283,0.010809033422366433,15.456173057556152,0.011032243438655354,0.01234778192722135
241,0.25,0.001,0.013604783569665059,0.01081001734280068,15.66187056168266,0.0111790653545201,0.01403160724374983
242,0.25,0.001,0.01354965154081583,0.010727477643800819,15.815461641394574,0.01128869496173774,0.012249896665000252
243,0.25,0.001,0.013476770915414975,0.010743329571964949,15.318205118593962,0.010933765252386839,0.012761537140856186
244,0.25,0.001,0.013569354516980442,0.010799881075711355,15.520129205454952,0.011077893794043506,0.01301497955703073
245,0.25,0.001,0.01357161240571219,0.01080837771134532,15.48516727115797,0.011052938808820821,0.011650827506350147
246,0.25,0.001,0.013607872616013756,0.010821891862737095,15.612635781661323,0.011143922756360688,0.017140369344916608
247,0.25,0.001,0.013584477486817733,0.010790021521565708,15.660130918751593,0.011177823639365876,0.011375075827042261
248,0.25,0.001,0.013541900460486827,0.010794513747096062,15.396356360394021,0.010989547723336204,0.015535171557631757
249,0.25,0.001,0.013513202774135962,0.010747500465291998,15.498996943598208,0.011062810095359178,0.011574099564717876
250,0.25,0.001,0.013571057358513708,0.010779359185177346,15.644676891824474,0.01116679292778335,0.013592940858668752
251,0.25,0.001,0.013588251599475094,0.01078641395529975,15.70149784585704,0.011207350353930792,0.019116457551717758
252,0.25,0.001,0.013571024295752463,0.010737520101601663,15.8789571529886,0.011334016526044682,0.012582022800213762
253,0.25,0.001,0.013584595408452594,0.010844997054208879,15.352709538003673,0.010958393674520823,0.020270763482484553
254,0.25,0.001,0.013560026132542154,0.010803492487124774,15.447616021529488,0.01102613563278336,0.01692200793574254
255,0.25,0.001,0.013537809754843297,0.010729938027975353,15.735313616213592,0.01123148723498472,0.013977934192452166
256,0.25,0.001,0.013514455006174418,0.010716332054656484,15.68068118551503,0.011192491923993598,0.014971493484659327
257,0.25,0.001,0.01347507992354424,0.010706590624607128,15.514612911058508,0.011073956396187372,0.01665435576190551
258,0.25,0.001,0.013543784508238668,0.01079439861295016,15.407559210735819,0.010997544047634417,0.012406257188154591
259,0.25,0.001,0.013471363594998485,0.010677833270443523,15.654943360038425,0.011174120885109511,0.013430166937824752
260,0.25,0.001,0.01353842479703219,0.010777358053171116,15.47301882536515,0.011044267541302747,0.01286802047656642
261,0.25,0.001,0.013510194628135018,0.01071563116396251,15.660732947639797,0.011178253353061954,0.012372639961540699
262,0.25,0.001,0.013519468803120696,0.01076466825183319,15.437902636320695,0.011019202452762809,0.012471222577409612
263,0.25,0.001,0.013530863256234189,0.010704031363129616,15.841565490390943,0.011307327259379689,0.01108912518247962
264,0.25,0.001,0.013588916371050088,0.010829703380232272,15.462630446060844,0.011036852566781474,0.011427808552980423
265,0.25,0.001,0.013551187434274217,0.010714158291078132,15.898711227748706,0.011348116508029055,0.01723712134278483
266,0.25,0.001,0.013583857334502365,0.010843515789703183,15.356874286817467,0.010961366371746942,0.021517463959753513
267,0.25,0.001,0.013591260015964508,0.010741758398387743,15.968606806216032,0.011398006285664548,0.012382686810774935
268,0.25,0.001,0.013533033613601456,0.010743407284759957,15.633066197270933,0.011158505494126291,0.010789185658925109
269,0.25,0.001,0.013480741721780404,0.010687048414155194,15.655857059644616,0.011174773061844836,0.011475960931016339
270,0.25,0.001,0.013509518679069436,0.01075776869836061,15.420808017564857,0.011007000726313245,0.015563331544399261
271,0.25,0.001,0.013633743717294672,0.010820559102879919,15.765086562115213,0.011252738445478382,0.02041878354632192
272,0.25,0.001,0.013487655845997126,0.010712082002149976,15.554316391322924,0.011102295782528854,0.015025963282419575
273,0.25,0.001,0.013564281734111516,0.010770226431929547,15.6578868948895,0.011176221909271592,0.011593040337579118
274,0.25,0.001,0.013490710232568823,0.01063758454407039,15.988917120228644,0.01141250329780774,0.012793339478472868
275,0.25,0.001,0.01346659348062847,0.010765961912339148,15.13433931765349,0.010802526279552813,0.015027415214313401
276,0.25,0.001,0.013445376693878484,0.01065432128051053,15.641075311743695,0.011164222206812058,0.017155387852754857
277,0.25,0.001,0.01350847223530645,0.010820217198975707,15.064981387594472,0.010753020262380066,0.01857707742601633
278,0.25,0.001,0.013500900268554687,0.01065096722672815,15.97102428270423,0.011399731822058693,0.018680001919468243
279,0.25,0.001,0.013577852924556835,0.01085288668618254,15.270711177328359,0.010899865222932447,0.021885118757685024
280,0.25,0.001,0.013483310385566692,0.010715408445052478,15.51132290052331,0.011071608066040907,0.020423217831800382
281,0.25,0.001,0.013522874755056008,0.010748915511952794,15.545268269414487,0.011095837451402203,0.01856840019010835
282,0.25,0.001,0.013559471763994383,0.01072421557067529,15.888775263247283,0.011341024456279289,0.014638786307639547
283,0.25,0.001,0.01347357958069314,0.01072994010441977,15.375355224609375,0.01097455761927864,0.012601004706488715
284,0.25,0.001,0.013423301985730296,0.010685326709695485,15.343613735696543,0.010951901310275906,0.013611238811992936
285,0.25,0.001,0.013522285618211912,0.010753600179501202,15.515714025082795,0.011074742344812845,0.019881187834673457
286,0.25,0.001,0.013539494065486867,0.01072848638276691,15.752887291286303,0.011244030900275735,0.013720052730706003
287,0.25,0.001,0.013436005241844965,0.010612258561279463,15.824276390075683,0.011294986716685,0.010417376644909382
288,0.25,0.001,0.013478283179195031,0.010759682988990908,15.235035765274711,0.01087440097450015,0.015998003486957815
289,0.25,0.001,0.013405888077357542,0.010590247278628142,15.778850306635318,0.0112625626742579,0.011464671749207709
290,0.25,0.001,0.013498841294127963,0.010720554457410523,15.569520067961319,0.011113147800115146,0.01326261522869269
291,0.25,0.001,0.013456221499844738,0.010658878705099873,15.676308686629586,0.011189370939778434,0.01781451619333691
292,0.25,0.001,0.013495576577666013,0.010755666609367599,15.354455440355384,0.010959639857498489,0.014059253450897004
293,0.25,0.001,0.013463339465467827,0.010647085006146327,15.782290743952212,0.011265018375412,0.011970012448728085
294,0.25,0.001,0.013442779295146465,0.010703649692561315,15.35008241902227,0.010956518500372783,0.01533344377660089
295,0.25,0.001,0.01345112835097572,0.010674413701762324,15.560709681303605,0.01110685915867495,0.014905491326418187
296,0.25,0.001,0.01349694050848484,0.010763024848116481,15.320863066963527,0.01093566243180837,0.014930045025216209
297,0.25,0.001,0.013456460553342882,0.010644418585883534,15.758683682317319,0.01124816822435212,0.015870812969903152
298,0.25,0.001,0.013424364130782044,0.010688393362190412,15.33238029314124,0.010943883149993748,0.012140844327708086
299,0.25,0.001,0.013410681337118148,0.010674670981648175,15.332602822676948,0.010944041986207673,0.012422856357362535
300,0.25,0.001,0.013354262754968975,0.010573311106342336,15.58445397750191,0.011123807264455325,0.008803359957204925
301,0.25,0.001,0.013420675957332488,0.010669433307712493,15.417964162411897,0.011004970851114845,0.010136273275646899
302,0.25,0.001,0.013385326139952825,0.010613044007964756,15.53586963487708,0.01108912893281733,0.012693847012188699
303,0.25,0.001,0.013379032083827517,0.010658416074255238,15.246332306239916,0.010882464172905008,0.011637819930911064
304,0.25,0.001,0.013356214907506238,0.010588265339965406,15.511589390298594,0.011071798280013272,0.012835656189256243
305,0.25,0.001,0.013415096666177977,0.010705324853567974,15.185561478656272,0.010839087422309972,0.01664106547832489
306,0.25,0.001,0.013383200296565242,0.010609470013043154,15.543984270510466,0.011094920963961788,0.013073138220028745
307,0.25,0.001,0.013379374324627545,0.010617754980921745,15.476115004498025,0.011046477519270539,0.010346050891611312
308,0.25,0.001,0.013393340104300043,0.010596999710668688,15.670692105500594,0.011185361959672086,0.010722828718523184
309,0.25,0.001,0.0134163114088385,0.010625749236863592,15.638311517134957,0.011162249476898613,0.010740560945123434
310,0.25,0.001,0.01329773406619611,0.010543537068626156,15.434520412942637,0.011016788303313802,0.01222365028742287
311,0.25,0.001,0.013349926970575167,0.010612429856606152,15.34093432550845,0.010949988811926088,0.012835501796669431
312,0.25,0.001,0.013443436944938224,0.01061463165866292,15.852625417294709,0.011315221568375953,0.015980205084714625
313,0.25,0.001,0.013397974206701569,0.010646732914382997,15.417955989008364,0.011004965017136591,0.01272799571355184
314,0.25,0.001,0.013400198253600493,0.010605931016414062,15.659072869342307,0.01117706842922363,0.011758577595982287
315,0.25,0.001,0.013382250345919442,0.010603967871031036,15.569495867853579,0.011113130526662084,0.011196453538205888
316,0.25,0.001,0.013400539781736292,0.010607727399986723,15.650921826569931,0.011171250411541706,0.009539386567970118
317,0.25,0.001,0.013431301505669303,0.010672023919937403,15.462992931863536,0.011037111300402238,0.010713860909971926
318,0.25,0.001,0.013359631358281426,0.01053265756401031,15.842362296062968,0.011307896000044945,0.011338414624333382
319,0.25,0.001,0.013369411430929018,0.010637539160316406,15.309411898073943,0.010927488863721586,0.011578477505180571
320,0.25,0.001,0.013381694770701554,0.01061742695291405,15.49095689524775,0.011057071302817809,0.011137957736435864
321,0.25,0.001,0.013326755410627179,0.010534380556124708,15.64846920510997,0.011169499789514611,0.014820454124775197
322,0.25,0.001,0.013354947869868383,0.01061631281738696,15.34731142292852,0.010954540630213077,0.013515502835313479
323,0.25,0.001,0.013347199057107387,0.01055407195797433,15.652684611444888,0.011172508644857165,0.014096771677335104
324,0.25,0.001,0.013360996094086896,0.010553059673503689,15.735676133529,0.0112317459910985,0.011972929040590921
325,0.25,0.001,0.013387508275716201,0.01064540427826021,15.36675128273342,0.010968416333143055,0.011540003741780916
326,0.25,0.001,0.013337746819724208,0.010557873020677462,15.578412654710853,0.011119495113997754,0.012355137926836809
327,0.25,0.001,0.013364520040543183,0.010571001445793588,15.654877787050994,0.011174074080693073,0.011709439826922284
328,0.25,0.001,0.013344512717879337,0.010565775859615077,15.572040750254756,0.011114947002323166,0.011966293574207358
329,0.25,0.001,0.013335064792114755,0.010564353522723136,15.527066230773926,0.01108284527535612,0.01242198251808683
330,0.25,0.001,0.01336574807115223,0.01059561593539041,15.523819556858228,0.011080527877843133,0.0148172193310327
331,0.25,0.001,0.0133897991316474,0.010617527028788692,15.535813633462658,0.011089088960358784,0.017363301064405177
332,0.25,0.001,0.013307004901378051,0.010533361269727997,15.543498389202615,0.011094574153606434,0.010731221590605047
333,0.25,0.001,0.013315274506483388,0.010591179624847744,15.265827873893405,0.010896379638753322,0.014168272001875771
334,0.25,0.001,0.013401675431624703,0.010584665057451828,15.786526061348294,0.011268041442789646,0.014389066749976741
335,0.25,0.001,0.013330353919578635,0.010582526650117791,15.39882333672565,0.010991308591524376,0.010705562204950385
336,0.25,0.001,0.013397949831965177,0.010624374701924946,15.543114307237708,0.011094300005166102,0.014120898106031947
337,0.25,0.001,0.013400119159208692,0.010632331089481063,15.510685073189114,0.01107115280027774,0.014291969334913624
338,0.25,0.001,0.013355639573672544,0.010554355935234091,15.698394209820291,0.011205135053404919,0.012497288899289237
339,0.25,0.001,0.013305564286268275,0.010562113293487092,15.374299503823986,0.010973804071251952,0.015309574185974069
340,0.25,0.001,0.013350389496139857,0.010606718069833258,15.375534747579824,0.010974685758443842,0.016602776841157012
341,0.25,0.001,0.01330622251752926,0.010534070558522058,15.535140929844069,0.01108860880074523,0.012276355280644365
342,0.25,0.001,0.013408997334215952,0.010673051486196725,15.332240522633429,0.010943783385177323,0.0185545797770222
343,0.25,0.001,0.013405562044809693,0.010602125310055588,15.710459228183913,0.01121374677243677,0.024108733360966045
344,0.25,0.001,0.013321447678558205,0.01060510183967974,15.222402617413065,0.01086538373833909,0.014314645383920934
345,0.25,0.001,0.013334996463811916,0.010572042811823928,15.483591932213825,0.011051814369888526,0.015636458734257355
346,0.25,0.001,0.01332120907533428,0.010571620005952275,15.40869716146718,0.01099835628941269,0.01478296761504478
347,0.25,0.001,0.013344319849882437,0.010556573312243689,15.622531948918882,0.011150986401797918,0.012284361032976044
348,0.25,0.001,0.013288833362900692,0.01054854213381591,15.35659242215364,0.010961165183550064,0.014108043164014816
349,0.25,0.001,0.01337900637284569,0.010567244636299817,15.757113110086193,0.011247047187784577,0.013011588352835841
350,0.25,0.001,0.013317887191863163,0.010566953363949838,15.416233955051588,0.01100373587084339,0.012147254414028592
351,0.25,0.001,0.013305301426545433,0.010576477206271627,15.292331479943316,0.0109152972733357,0.012362686658485068
352,0.25,0.001,0.013219199582286503,0.010430057133021562,15.63035361248514,0.011156569316548993,0.013000944008429846
353,0.25,0.001,0.013295313524811165,0.010582263591172902,15.203933103810186,0.010852200645117906,0.01080755071921481
354,0.25,0.001,0.013321030543226264,0.01045510103845078,16.060668827554455,0.011463717935442153,0.014323874790635373
355,0.25,0.001,0.013307223603453325,0.010632696867637013,14.988047747404678,0.01069810688608471,0.018500191987388663
356,0.25,0.001,0.013304451691067738,0.010498957352145859,15.721989872144617,0.011221977067911932,0.015876029721564718
357,0.25,0.001,0.013280075652443844,0.010570155840529049,15.186390228271485,0.01083967896379121,0.01548750088032749
358,0.25,0.001,0.013247271400430928,0.010483511631255564,15.488109003149944,0.011055038546145571,0.012515504947967
359,0.25,0.001,0.013329711258411408,0.010557774430059869,15.533933641184932,0.011087747067226933,0.011160924513306882
360,0.25,0.001,0.013214261334227479,0.010470226922112963,15.377568362692129,0.010976137303848771,0.011528678031431304
361,0.25,0.001,0.013229409240834092,0.010445180773411108,15.602816392649775,0.011136913913383137,0.010041346980465783
362,0.25,0.001,0.01327854138839504,0.010542416940240756,15.333242134425952,0.010944498311510314,0.01529513599558009
363,0.25,0.001,0.013282070961659368,0.010551470819374789,15.302283315243928,0.010922400653279036,0.014189947086075941
364,0.25,0.001,0.013257231343051661,0.010495793903651445,15.475094576296598,0.011045749162238829,0.015366037272744708
365,0.25,0.001,0.013268350772559643,0.010528185898843018,15.355884850543479,0.010960660136005338,0.012190217359198464
366,0.25,0.001,0.013218404271680376,0.01046056212776381,15.454946031985076,0.01103136761740548,0.015868769958615303
367,0.25,0.001,0.013261188074298528,0.010474399793083252,15.617160919852878,0.011147152690830034,0.012000402642620934
368,0.25,0.001,0.013208083840815918,0.010472071070386016,15.332615319956904,0.0109440509064646,0.01184011995792389
369,0.25,0.001,0.013322741993419502,0.010567784390371779,15.438783247574516,0.01101983101183049,0.018725420348346233
370,0.25,0.001,0.013281037622819776,0.01048988885205725,15.641598031417184,0.011164595311504056,0.01533663852347268
371,0.25,0.001,0.013276561948916186,0.010537052135104719,15.352213119838549,0.010958039343210955,0.016641059269507725
372,0.25,0.001,0.013313564588518246,0.010540916919708251,15.53791756671408,0.011090590697154947,0.01401598658412695
373,0.25,0.001,0.013238374794954839,0.010527865156207395,15.189695653500765,0.010842038296574421,0.013688363134860992
374,0.25,0.001,0.013266795428226823,0.010473864728017994,15.6515834144924,0.011171722637039543,0.014761680116256079
375,0.25,0.001,0.013307755453431089,0.010563256646627965,15.380170808875043,0.010977994867148497,0.012235720538430743
376,0.25,0.001,0.013296460046068482,0.010494176525136699,15.703996618519659,0.011209133917572918,0.015656491845018335
377,0.25,0.001,0.01326206621106552,0.010528115997819797,15.321057966481085,0.010935801546381931,0.019010042047335043
378,0.25,0.001,0.013291392651912958,0.010537075231904568,15.435194836492125,0.011017269690572536,0.01398339681327343
379,0.25,0.001,0.013252485540250073,0.010498985593085704,15.43061443992283,0.011014000314006303,0.010862995973891683
380,0.25,0.001,0.013229684279016827,0.010473783842247465,15.44406606922979,0.011023601762476652,0.011521280950142277
381,0.25,0.001,0.01331278062870969,0.010508510781371076,15.71512864486031,0.011217079689407787,0.01724338924719228
382,0.25,0.001,0.013252174086544825,0.01052149959070527,15.302700329656187,0.010922698308105772,0.01639067329880264
383,0.25,0.001,0.013346146886115488,0.01055592800450066,15.636387013974398,0.011160875812972447,0.016876450325879786
384,0.25,0.001,0.01328584483784178,0.010536566938719023,15.40695416657821,0.010997112181711784,0.015865508673919573
385,0.25,0.001,0.01321145819419104,0.01043378272458263,15.566093531069548,0.011110702020749142,0.014042158818079365
386,0.25,0.001,0.01321943619976873,0.010483871236767459,15.33010675844939,0.010942260355781148,0.01451036168469323
387,0.25,0.001,0.01330070187540158,0.01053941116384838,15.474273499198581,0.011045163097215262,0.010916911582979891
388,0.25,0.001,0.013187445849180222,0.010480575717013815,15.169300585207731,0.010827480788870615,0.013392379248721732
389,0.25,0.001,0.01318502201496259,0.010476031946423261,15.18117990742559,0.010835959962473656,0.011025599773145385
390,0.25,0.001,0.013225313606469528,0.010450277950452721,15.551300072048022,0.011100142806601015,0.010397069777051607
391,0.25,0.001,0.013229596572725669,0.0104694395220798,15.467919409378716,0.011040627701198227,0.011296407837006781
392,0.25,0.001,0.013288170410239178,0.010512442000858161,15.555182465263035,0.01110291396521273,0.014279616272283925
393,0.25,0.001,0.013245727387459381,0.010450432493310907,15.664833038993503,0.011181179899352965,0.012325946965979205
394,0.25,0.001,0.013307656138811422,0.010508023966913638,15.689138581649116,0.011198528609314144,0.01846143396364318
395,0.25,0.001,0.013286487179929795,0.010504624550433262,15.58955790312394,0.011127450323428935,0.015221574447221227
396,0.25,0.001,0.013273277311869289,0.010520633930421394,15.425815018363622,0.011010574602686382,0.015412481191257635
397,0.25,0.001,0.01322414797609267,0.010432792414465677,15.642756004333496,0.0111654218446349,0.015782583504915237
398,0.25,0.001,0.013206476340799227,0.010472547680787418,15.320935992365298,0.010935714484200783,0.013830726862781577
399,0.25,0.001,0.01321278369297152,0.010438228641515192,15.548607433153235,0.01109822086591951,0.00996627394730846
400,0.25,0.001,0.01322002798480832,0.010470840069262877,15.406449843696926,0.010996752208206229,0.012096945196390152
401,0.25,0.001,0.013152069421889989,0.01039299939799568,15.461828069272249,0.011036279849587615,0.010344437271770503
402,0.25,0.001,0.01318370531272629,0.010462070993431237,15.252039527893066,0.01088653785003074,0.011266154857973257
403,0.25,0.001,0.01322381443951441,0.010433967827778796,15.634300704624343,0.011159386655691893,0.011977084705399143
404,0.25,0.001,0.013175422510375148,0.01040422226747741,15.529806322844133,0.011084801086969402,0.013047670117682882
405,0.25,0.001,0.013098299423961535,0.010383972635735636,15.2110876730214,0.010857307404012419,0.011900272116892867
406,0.25,0.001,0.0131577167838164,0.010451903547281803,15.16337792603866,0.010823253337643583,0.011942756983141104
407,0.25,0.001,0.01324172682736231,0.010429458812527034,15.7599495580922,0.011249071775940186,0.014769772792028056
408,0.25,0.001,0.013261674351018408,0.01052066759246847,15.360602672411048,0.01096402760343401,0.021538238661984604
409,0.25,0.001,0.013222894849984542,0.01039234285445317,15.86241323719854,0.011322207878086039,0.02117510253770484
410,0.25,0.001,0.013220077882642331,0.010550462482092174,14.960525248983632,0.01067846199070923,0.015796364285051823
411,0.25,0.001,0.013202411072409671,0.010410818159580231,15.64408660556959,0.01116637159569564,0.01271002222266462
412,0.25,0.001,0.013202288946055848,0.010509114897121554,15.092547262440558,0.010772696118801255,0.012595904007967975
413,0.25,0.001,0.013244893095739509,0.010447972930319932,15.673940733204716,0.011187680751752117,0.015240321556727091
414,0.25,0.001,0.013231513814433762,0.010505432520547638,15.276960887079653,0.01090432611497477,0.015670086153679423
415,0.25,0.001,0.01322893133144016,0.010467968604162983,15.472436050746753,0.011043851570839938,0.019954986559847992
416,0.25,0.001,0.01321577173050331,0.010455547519352125,15.468296216881793,0.011040896657303206,0.01266392713619603
417,0.25,0.001,0.013225701035040876,0.01042031616134488,15.721376259845236,0.011221539086256414,0.013334758269290129
418,0.25,0.001,0.013190215749909048,0.010451227355262507,15.34929129227348,0.010955953813185924,0.01243766743896736
419,0.25,0.001,0.01308715702884871,0.010355130336854769,15.310276927118716,0.01092810630058438,0.009221892493466536
420,0.25,0.001,0.013203077026359413,0.010457341917183088,15.387099715523098,0.010982940553549677,0.013297122178806199
421,0.25,0.001,0.01316429087649221,0.010437911952967229,15.278627594657566,0.010905515770633523,0.015112351522677474
422,0.25,0.001,0.013242261787147625,0.010473666527996892,15.515207892708156,0.011074381079734586,0.01811298241631852
423,0.25,0.001,0.013216407467489658,0.01052263189593087,15.095918783104938,0.010775102628911447,0.010394560690555308
424,0.25,0.001,0.01315957152325174,0.010356301882344744,15.709522763127866,0.011213078346272567,0.011221256831453906
425,0.25,0.001,0.01312620565943096,0.010397312105025935,15.292719512607741,0.010915574241690037,0.011037586567302545
426,0.25,0.001,0.013163311180213223,0.010432433753233888,15.303837021537449,0.010923509651347215,0.012973400867647596
427,0.25,0.001,0.01311766976085694,0.01030179585289696,15.780157790805983,0.01126349592491505,0.011413512441019217
428,0.25,0.001,0.013168367976727694,0.010432842276666476,15.32988694564156,0.010942103458702042,0.010598093426475922
429,0.25,0.001,0.013173482405102771,0.010382463935276736,15.640867148689601,0.01116407362504611,0.013665184068183104
430,0.25,0.001,0.01323973485633083,0.010469066034192624,15.526827900098718,0.011082675160670035,0.01179170712000794
431,0.25,0.001,0.01313802163562049,0.010308462125451669,15.856851453366486,0.011318238010968228,0.01108030861036645
432,0.25,0.001,0.013165714118791663,0.010409001518526802,15.44861763332201,0.011026850559116353,0.010364399602015814
433,0.25,0.001,0.013111248173467491,0.010352670864566513,15.459067318128502,0.011034309292026055,0.009711566381156445
434,0.25,0.001,0.013134840853188348,0.010433080636936685,15.140665447400965,0.010807041718344729,0.009529439215030935
435,0.25,0.001,0.013188050949703092,0.010355275960072227,15.874871695145316,0.011331100424800369,0.012011334300041199
436,0.25,0.001,0.013132728114724159,0.010394083724721618,15.347363131979238,0.010954577538885965,0.011335416852186123
437,0.25,0.001,0.013150349695073522,0.010338903565121734,15.755344098961872,0.011245784510322536,0.012739425214628378
438,0.25,0.001,0.013138942794631356,0.010411641983234365,15.283793583745542,0.010909203129011807,0.015325079568558268
439,0.25,0.001,0.013241691945687584,0.010456043358730233,15.610774133101753,0.0111425939565323,0.0133703982250558
440,0.25,0.001,0.013128057702080063,0.010367590827138527,15.46965629245924,0.011041867446437715,0.011160466716521315
441,0.25,0.001,0.0131777360840984,0.010431860369508682,15.387887511875318,0.010983502863579813,0.011130715823835798
442,0.25,0.001,0.013066337469803251,0.010314442204392475,15.421621053944463,0.011007581052065998,0.014496967092984252
443,0.25,0.001,0.013192265984480795,0.010401671778248705,15.638489937160326,0.011162376828808227,0.01726397064824899
444,0.25,0.001,0.013103804285435573,0.01036480660509804,15.349342341215714,0.010955990250689303,0.01773304192142354
445,0.25,0.001,0.013162587403279283,0.010440487246150557,15.25464950395667,0.010888400787977637,0.014221858233213425
446,0.25,0.001,0.01313935221699269,0.01037465297009634,15.493374225782311,0.01105879673503377,0.013503982478545772
447,0.25,0.001,0.01312165416777134,0.010360127993575904,15.475592994689942,0.011046104921263341,0.01217607729550865
448,0.25,0.001,0.013115176997430946,0.010408308091370956,15.169293995732847,0.010827476085462417,0.012095159644054042
449,0.25,0.001,0.013050463947912922,0.010300299513923085,15.411922010338825,0.011000658108735779,0.012969377140204111
450,0.25,0.001,0.01316404444044051,0.0104366105535756,15.284539556088655,0.010909735586073272,0.012934396871262126
451,0.25,0.001,0.01306434139771306,0.01031096309747385,15.429932531273883,0.011013513584064155,0.010431304211831756
452,0.25,0.001,0.013073317444194918,0.010361907676510188,15.19474035843559,0.010845639085250243,0.010151828328768412
453,0.25,0.001,0.013109493858140447,0.010381465134737285,15.287872853486434,0.010912114813337925,0.012375560382174121
454,0.25,0.001,0.013100237750812717,0.010369339802342913,15.303952497399372,0.010923592075231529,0.014795858826902177
455,0.25,0.001,0.013138946613863759,0.0103650778758785,15.544761870011039,0.011095475995725223,0.01705898955050442
456,0.25,0.001,0.013143269902338153,0.010423453733648943,15.241848257313604,0.010879263566961887,0.014602857331434885
457,0.25,0.001,0.013098418949090916,0.010304722904187182,15.655872500875722,0.01117478408342307,0.013098622775740094
458,0.25,0.001,0.013099864311516284,0.010356851236327834,15.37184544770614,0.010972052425200671,0.012362133401135603
459,0.25,0.001,0.013083891962533413,0.01032255338585895,15.474541201384172,0.011045354176576854,0.013451756495568488
460,0.25,0.001,0.013061435384594876,0.010357867270384145,15.15079624010169,0.010814272833762805,0.01199602113208837
461,0.25,0.001,0.013121949061751365,0.01034902569230484,15.539462917162025,0.011091693731022145,0.017296529581977263
462,0.25,0.001,0.013112220409447732,0.010363942203314408,15.401351927052373,0.01099311343829577,0.013367622676822875
463,0.25,0.001,0.013068056130862754,0.010367881579567556,15.131779314124065,0.010800699010795193,0.012473091897037294
464,0.25,0.001,0.013082163482904434,0.010300493128597736,15.588481851660687,0.01112668226385488,0.010516823890308538
465,0.25,0.001,0.01307389749618976,0.010335314703052458,15.34701865154764,0.010954331657064695,0.010904999035927985
466,0.25,0.001,0.013072284843934618,0.010301992316608844,15.524719928243886,0.011081170541216193,0.013806345458659861
467,0.25,0.001,0.013104236453123714,0.010344757115387399,15.464122918170432,0.011037917857366476,0.01249961694702506
468,0.25,0.001,0.013037857079635496,0.0102632069117997,15.549140661488408,0.011098601471440692,0.012712223196609152
469,0.25,0.001,0.013036445460241774,0.010372253129987612,14.930133681919264,0.01065676922335422,0.011950625106692314
470,0.25,0.001,0.013098919537404309,0.010336200327652952,15.482278269892154,0.01105087670941624,0.015350034046504233
471,0.25,0.001,0.01319212660031474,0.010453833707648776,15.345393210701321,0.010953171456603369,0.017704570665955544
472,0.25,0.001,0.01321315658805163,0.010406140438888383,15.730518700972848,0.0112280647401662,0.019461487730344135
473,0.25,0.001,0.013106542441831983,0.010386838921062324,15.241218077618143,0.010878813759898746,0.011232624037398232
474,0.25,0.001,0.013070601234617441,0.010287048759991708,15.5990282788484,0.011134210049142326,0.01037718490180042
475,0.25,0.001,0.013065445397211158,0.010298361711851929,15.506736752053966,0.011068334583907186,0.009550767071131203
476,0.25,0.001,0.013024356125489526,0.01028142752530782,15.37137233402418,0.010971714728068651,0.010280561529927783
477,0.25,0.001,0.01297163710322069,0.010270125116019145,15.139272477523141,0.010806047450052206,0.008959267029745711
478,0.25,0.001,0.013052539268265599,0.010304492109495661,15.400055998097296,0.01099218843547273,0.010515257095297178
479,0.25,0.001,0.013069367233825766,0.010303269577739032,15.501211959175441,0.011064391120039572,0.01500488972912232
480,0.25,0.001,0.013094958721295647,0.01034275976860005,15.423322219848632,0.011008795303246704,0.013175490933159987
481,0.25,0.001,0.013004154527316923,0.010208144861718883,15.668839159426481,0.011184039371467867,0.013424166271256076
482,0.25,0.001,0.012999612481697747,0.010302333125601644,15.115554219121519,0.010789117929422925,0.01289026490930054
483,0.25,0.001,0.013089533019001068,0.010344522389704767,15.383039791273035,0.01098004267756819,0.014742903204427825
484,0.25,0.001,0.013086925887543222,0.010336205266092134,15.415037752234417,0.011002882050131632,0.0146765254644884
485,0.25,0.001,0.013079582872274129,0.010280643445642099,15.685256740735925,0.011195757844922145,0.013460363675322797
486,0.25,0.001,0.013031418789987979,0.010269307176703992,15.47887397600257,0.011048446806568572,0.00977145911504825
487,0.25,0.001,0.013082884039891803,0.01036390258566193,15.237171917790953,0.01087592570863023,0.016477650238407984
488,0.25,0.001,0.013111361036806003,0.010320007400992124,15.642745867190154,0.011165414608986549,0.019101426212324038
489,0.25,0.001,0.013090884763261547,0.010350692524858143,15.356036741837212,0.010960768552346333,0.01565986644062731
490,0.25,0.001,0.013030235734970674,0.01021782350928887,15.760757608828337,0.011249648543060911,0.015870846652736265
491,0.25,0.001,0.012989695954905903,0.010322838811122852,14.945068395863409,0.010667429261858251,0.014936515026622348
492,0.25,0.001,0.01309280747304792,0.010325758351903894,15.506544567605724,0.0110681974072846,0.011808002574576272
493,0.25,0.001,0.013030370969487273,0.01028142079387022,15.405117245549741,0.01099580103179853,0.011570389692982038
494,0.25,0.001,0.013076404326635859,0.010325282209593317,15.4172872725777,0.011004487703481586,0.01285911009957393
495,0.25,0.001,0.013060833925138349,0.010268272465985754,15.649515060756517,0.011170246296043195,0.011249529094331794
496,0.25,0.001,0.013102830541522607,0.010370965557901755,15.309371210181196,0.010927459821685364,0.012780799116525386
497,0.25,0.001,0.012979690382338089,0.010216527030519817,15.484768069723378,0.011052653868467793,0.012763663712475035
498,0.25,0.001,0.013009748452383538,0.01032297839127157,15.056659394969111,0.010747080224817353,0.0124417327137457
499,0.25,0.001,0.012995884870381459,0.010249774073776991,15.38920489601467,0.010984443180595767,0.011281089650260078
500,0.25,0.001,0.012989434763465238,0.010256025473708692,15.318026205975077,0.010933637548875857,0.014152536375655068
