epoch,beta,learning_rate,train_loss,train_reconstruction_loss,train_kl_unnormalized,train_kl_normalized,mean_unclipped_gradient_norm
1,0.0,0.001,0.09214901592996386,0.09214901592996386,60.274333357113846,0.04302236499437105,0.166380542020003
2,0.02,0.001,0.06479021828425557,0.056425799642912826,585.927566617553,0.41822096118312135,0.11819404487808545
3,0.04,0.001,0.054481917959556245,0.04685586459978282,267.1025147912098,0.1906513310429763,0.111593808978796
4,0.06,0.001,0.045389726758003235,0.042600578884457986,65.12660279748036,0.04648579785687392,0.10472455372412999
5,0.08,0.001,0.04157835702624237,0.037272061041572636,75.41400826883594,0.0538286996922455,0.06719838672628005
6,0.1,0.001,0.03988369031433474,0.03650601907518872,47.3211656760054,0.0337767064068561,0.05321488001694282
7,0.12,0.001,0.038113800863250655,0.03494363384898643,37.01170257657592,0.02641806036871943,0.04744441000123819
8,0.14,0.001,0.036266616322318014,0.033967108776172004,23.011497653715793,0.016425051858469517,0.04689020632455746
9,0.16,0.001,0.03403923858763182,0.03173196838613142,20.203031740690534,0.014420436645746278,0.05114786668370167
10,0.18,0.001,0.030993836512516814,0.027749353747444545,25.252892767476755,0.0180249056156151,0.04921713719765345
11,0.2,0.001,0.02877241317509559,0.024636714626648272,28.970570179454068,0.02067849406099505,0.04544689723600944
12,0.22,0.001,0.02750657226519975,0.023330191847438005,26.595950723391528,0.018983547982435067,0.05310828611254692
13,0.24,0.001,0.026147291924782663,0.022026431806690512,24.055522751389887,0.017170251785431755,0.031684636138379574
14,0.25,0.001,0.025046717157663656,0.02077063546673945,23.963162985461498,0.017104327612749107,0.03265663841739297
15,0.25,0.001,0.024111198141560916,0.020028916084104113,22.877109014499954,0.016329128490007106,0.046094697434455156
16,0.25,0.001,0.02255595458006998,0.018253473063919976,24.111110486482318,0.017209928969651903,0.03053598819921414
17,0.25,0.001,0.02159411562552229,0.017366718686027835,23.69033462122867,0.016909589308514397,0.027910635185738403
18,0.25,0.001,0.021062412511622698,0.01695162155910542,23.036873611093263,0.016443164604634734,0.03550938578943411
19,0.25,0.001,0.02028617450194052,0.01604093713631407,23.790312683373166,0.016980951237239948,0.05233029819404086
20,0.25,0.001,0.019725181129679345,0.01545572280883789,23.92604420756736,0.01707783312460197,0.06183168633530537
21,0.25,0.001,0.01924239844083786,0.015277316641302137,22.2203210641069,0.015860329096436046,0.03475840327640375
22,0.25,0.001,0.018764576346379274,0.014710794099503093,22.717394722832573,0.016215128281821964,0.017013440529505413
23,0.25,0.001,0.018294718094736512,0.014124651973228357,23.369050076133327,0.01668026415141565,0.01624837564304471
24,0.25,0.001,0.018308039166425403,0.014005543680436779,24.111185453091448,0.017209982479008883,0.01585426414385438
25,0.25,0.001,0.018341463614712682,0.014327434844702308,22.494618086786996,0.01605611569363811,0.0207388602818052
26,0.0,0.001,0.013659856129677324,0.013659856129677324,25.084355939898575,0.01790460809414602,0.034706238036354385
27,0.02,0.001,0.012885765444857684,0.012292841601877184,41.53432065283346,0.029646196040566352,0.023900525644421577
28,0.04,0.001,0.013004235487583785,0.011337417934895956,58.380287928887974,0.041670441062732315,0.028271956369280815
29,0.06,0.001,0.013653577212788905,0.010782564031668225,67.03815942061574,0.04785022085697055,0.04084404495855173
30,0.08,0.001,0.01441416855661841,0.010914988538021581,61.27938867312426,0.04373974923135208,0.046086592599749565
31,0.1,0.001,0.014442449778710542,0.010909834130509206,49.491943448607685,0.03532615520957008,0.03350242398058375
32,0.12,0.001,0.014615827915394864,0.011449037092514554,36.97228644744695,0.026389926086685903,0.02082312759011984
33,0.14,0.001,0.01494095573604804,0.01177952845433825,31.636856201796505,0.022581624697927554,0.011825694392124811
34,0.16,0.001,0.015277758213468114,0.011823401557641071,30.247210954364977,0.021589729446370432,0.019508833686510723
35,0.18,0.001,0.015749688516234792,0.011817283242156631,30.60722095645659,0.02184669590039728,0.02743415511213243
36,0.2,0.001,0.015971548953338674,0.01177918340204752,29.367519445586623,0.02096182687051151,0.02053781660894553
37,0.22,0.001,0.016465948153918948,0.012308857599763494,26.473107968157496,0.018895865787407207,0.037453610760470234
38,0.24,0.001,0.01660531651424734,0.012160790594000565,25.944920935825994,0.018518858626571016,0.02976183608795206
39,0.25,0.001,0.016594302791513894,0.012249249948613476,24.3496765560574,0.017380211674559172,0.034352530259639025
40,0.25,0.001,0.01667322525591181,0.012371368341322183,24.107604868927893,0.01720742674441677,0.025153748070200283
41,0.25,0.001,0.01632893927482485,0.011901238355894534,24.81283578259206,0.017710803556454005,0.019929462267706793
42,0.25,0.001,0.016173933812400752,0.012026907483998098,23.23993680630511,0.016588106214350543,0.02840761374682188
43,0.25,0.001,0.016155225284702597,0.01206924309899584,22.897844102647568,0.01634392869567992,0.03730867182215055
44,0.25,0.001,0.015871356704343132,0.011903312558319137,22.236920451560216,0.015872177338729632,0.02448708439866702
45,0.25,0.001,0.016119249393804033,0.012241425804183846,21.731326811494885,0.015511296796213337,0.031097711840023596
46,0.25,0.001,0.01563342280511619,0.011480474250924867,23.273123479028893,0.016611794060691572,0.011436079783986012
47,0.25,0.001,0.015705525439385085,0.011871206819226867,21.487520786753873,0.015337273937725819,0.01812235762675603
48,0.25,0.001,0.015707122619476235,0.011627564931081401,22.861841614483392,0.016318230988210843,0.022149412892758846
49,0.25,0.001,0.015466711091759958,0.011577386006015784,21.795779222633406,0.01555730137232934,0.0185267295067509
50,0.25,0.001,0.015432260266085815,0.011508655843286836,21.987879379450927,0.015694417829729426,0.020818873230988782
51,0.0,0.001,0.011079950519559676,0.011079950519559676,24.37381967466477,0.017397444450153298,0.026318699742356937
52,0.02,0.001,0.010522042330332666,0.009961217968610296,39.28575321665981,0.028041222852719355,0.020611566957086325
53,0.04,0.001,0.010721933799223942,0.009169785861383405,54.36397797880117,0.038803695916346304,0.020013860194012523
54,0.06,0.001,0.011466114460463412,0.008865573715788928,60.722632514105904,0.04334235011713484,0.02014435858776172
55,0.08,0.001,0.011989659014326788,0.008787621460767866,56.07568682843482,0.04002547239716975,0.021714333910495043
56,0.1,0.001,0.012195267142695292,0.00896913537004015,45.19810525994552,0.03226131710203106,0.014948263143499693
57,0.12,0.001,0.012562383794122271,0.00958674499623434,34.74058345326206,0.024796990330665285,0.014145743179445466
58,0.14,0.001,0.012766872287580841,0.009786829406842154,29.82171296236808,0.02128601924508785,0.017273629317060113
59,0.16,0.001,0.013141657405516557,0.009959737339999244,27.861689026592767,0.019887001446533024,0.018766225781291723
60,0.18,0.001,0.013489822960562177,0.009984662151781091,27.281833960996035,0.019473114890075686,0.017024603051443894
61,0.2,0.001,0.014097091507667686,0.010337531773580445,26.335717117577268,0.018797799512903116,0.021447371846685808
62,0.22,0.001,0.014274842133037528,0.010293187039811708,25.355904272425246,0.01809843274263044,0.019271497149020433
63,0.24,0.001,0.014574415355441515,0.010578738683453428,23.324763593617934,0.016648653528635215,0.016086654039099813
64,0.25,0.001,0.014538947830510419,0.01048661692732433,22.70926218980934,0.01620932347595242,0.016323883707324665
65,0.25,0.001,0.014445444710596262,0.010460191482558237,22.333357950400192,0.01594101209878672,0.01527347695082426
66,0.25,0.001,0.014609514904475351,0.010713640191968073,21.832479990016648,0.015583497494658564,0.019314060142884653
67,0.25,0.001,0.014400116467510748,0.010358348641304941,22.65006715651841,0.016167071489306503,0.01670756998161475
68,0.25,0.001,0.014212022813265784,0.010346134067975988,21.664440389265096,0.015463554881702424,0.013164857557664314
69,0.25,0.001,0.014110575299383256,0.010421148877133402,20.675545664558634,0.014757705684909802,0.014006526364634434
70,0.25,0.001,0.014225441510435085,0.010474959344804635,21.017702872293036,0.015001929245034287,0.017386176778624456
71,0.25,0.001,0.014107480944727946,0.01022160459549455,21.776451824701322,0.015543505941970966,0.022770418087020516
72,0.25,0.001,0.014104056084931593,0.0102354881315552,21.679455294246562,0.015474272158634235,0.017595650007327397
73,0.25,0.001,0.01386576797268544,0.01019488391602597,20.571634348372967,0.014683536294341876,0.015041684887061516
74,0.25,0.001,0.013780963460081503,0.010168723783820693,20.242991977267796,0.014448959298549462,0.010792566773792108
75,0.25,0.001,0.013795125151151106,0.010111838568285195,20.64113852294565,0.014733146697320235,0.013719693757593632
76,0.0,0.001,0.009606690216831297,0.009606690216831297,23.73688232689573,0.016942813937827074,0.021069685307641823
77,0.02,0.001,0.009187605101288411,0.008646644009222762,37.894330721849585,0.027048059044860517,0.011639940086752176
78,0.04,0.001,0.009531258109804482,0.008060575451985089,51.51065489562632,0.03676706273777753,0.016733072232455015
79,0.06,0.001,0.010231694489804625,0.007770745225294292,57.46316479242336,0.041015820694092334,0.01870016784717639
80,0.08,0.001,0.010639613864627497,0.007689175577235152,51.66955321016368,0.036880480521173216,0.0145152456437548
81,0.1,0.001,0.0108366442833379,0.007980199508935387,40.01879213567366,0.02856444834808969,0.009709319875886043
82,0.12,0.001,0.011153959478551185,0.00855126829915925,30.386421471311333,0.021689094554826076,0.013117262783149878
83,0.14,0.001,0.011656578210841494,0.008938218635773798,27.203012845669573,0.019416854279564293,0.01587064579750101
84,0.16,0.001,0.011984864347859434,0.008956075411790993,26.520832708704543,0.018929930555820516,0.01378979068249464
85,0.18,0.001,0.012148965139225212,0.008775525998694507,26.25660134477225,0.018741328582992326,0.01902750755349795
86,0.2,0.001,0.012520598525410159,0.00902655667336712,24.475763733624017,0.017470209659974315,0.016354549520959456
87,0.22,0.001,0.012772561873347438,0.009069039840360133,23.584701794629904,0.016834191145346112,0.014088974334299564
88,0.24,0.001,0.013101016917423896,0.009394411787347139,21.637307685718202,0.01544418821250407,0.012107637710869312
89,0.25,0.001,0.013264651470191298,0.009300946503093368,22.21260340729652,0.015854820419198088,0.012713890833159288
90,0.25,0.001,0.013163161480374504,0.009368778151944715,21.26372545922709,0.01517753423213925,0.013428155953685442
91,0.25,0.001,0.013195622461842514,0.00938184769028983,21.372395074855515,0.015255099982052473,0.014965240688373646
92,0.25,0.001,0.013161290807333605,0.009381373821381937,21.18265464291935,0.015119667839342862,0.014781283680349588
93,0.25,0.001,0.013151610150323277,0.00944432167456164,20.775644224289564,0.014829153621905471,0.016823897138237953
94,0.25,0.001,0.01300815593080911,0.009323204208535758,20.650469506693167,0.014739806928403402,0.014732175739482045
95,0.25,0.001,0.012993358119189391,0.009429402997967793,19.972403911122104,0.01425582006504076,0.015566885083292922
96,0.25,0.001,0.012774244898505378,0.009255511375765005,19.718982819228145,0.01407493420358897,0.011322834451372424
97,0.25,0.001,0.012890773814454762,0.009294622621297488,20.152832220869456,0.01438460543959276,0.012911778874695301
98,0.25,0.001,0.012680613746245703,0.009181763840654092,19.607555947108576,0.013995400390512903,0.01356159926702579
99,0.25,0.001,0.012752690570352719,0.009218575732444811,19.80518046596594,0.014136460004258344,0.014822501378754774
100,0.25,0.001,0.012648964093791114,0.00905026556455601,20.16710627148723,0.014394793912553341,0.014999954495579004
101,0.25,0.001,0.012493765036090773,0.008983737053839784,19.670196778593006,0.014040111904777306,0.011936389841139317
102,0.25,0.001,0.012512269086743655,0.009059330524756895,19.350266551413732,0.013811753427133285,0.010738074081018567
103,0.25,0.001,0.012471823871397135,0.008932092570160565,19.836655644645468,0.014158926227441448,0.010590214903155962
104,0.25,0.001,0.012490433858631298,0.008999052724381637,19.565699437905472,0.013965524224058152,0.01273643869596223
105,0.25,0.001,0.012473092697647929,0.009045033410670813,19.21084439684773,0.013712237256850628,0.018983507839341957
106,0.25,0.001,0.01249019282581339,0.009056468374417192,19.242591378284477,0.013734897486284424,0.014545776881277561
107,0.25,0.001,0.012321769918876084,0.008817945819413453,19.635431200440166,0.014015297073833095,0.01686725749944647
108,0.25,0.001,0.01241275217188032,0.008994672823239836,19.154917588707995,0.01367231805046966,0.01242749129111568
109,0.25,0.001,0.012253649696184877,0.008838181879523902,19.140282870733248,0.013661872141850998,0.018756191711872816
110,0.25,0.001,0.012115899702174622,0.008735341776968443,18.944647749962165,0.013522232512464072,0.017560303055991728
111,0.25,0.001,0.01217044932408291,0.008786994397465945,18.960880859553466,0.013533819314456436,0.013008215464651585
112,0.25,0.001,0.012188043238388168,0.008893167000939275,18.46448652925547,0.01317950501731297,0.011695734535654386
113,0.25,0.001,0.01213295916803399,0.008739949002513412,19.014429850885044,0.013572041292566056,0.012816689442843199
114,0.25,0.001,0.012210051109742003,0.008756940906638639,19.35122956169976,0.013812440800642227,0.015289750415831804
115,0.25,0.001,0.012136856017754091,0.008636608474740856,19.615387308667277,0.014000990227457015,0.017374152938524883
116,0.25,0.001,0.011962622681861384,0.008637864627379772,18.631944265979076,0.013299032309763795,0.018517388806988794
117,0.25,0.001,0.01195718247813788,0.008661235502937384,18.470487360368693,0.01318378826578779,0.018174631831546623
118,0.25,0.001,0.012056343311890524,0.008814136083755229,18.169330429612543,0.012968829714213093,0.02019196570230027
119,0.25,0.001,0.01193548131145929,0.008538205960863516,19.03833090352733,0.013589101287314298,0.012898746334637204
120,0.25,0.001,0.011910281476308729,0.008488103355232039,19.17788785521747,0.0136887136725321,0.010738896206021309
121,0.25,0.001,0.011943297128449057,0.00865414510998461,18.43240751299942,0.013156607789435702,0.010217155407493314
122,0.25,0.001,0.011923986982706695,0.008633689301317199,18.438828830830534,0.01316119117118525,0.012142963707447052
123,0.25,0.001,0.011951419268870911,0.008573445965323532,18.930162641737198,0.013511893391675373,0.01732218498364091
124,0.25,0.001,0.011787211201126463,0.00847602770418713,18.55587293390642,0.013244734428198731,0.011023584830885133
125,0.25,0.001,0.01177862144963086,0.008490249868591277,18.428033371417843,0.013153485632703672,0.009992251793543497
126,0.25,0.001,0.011818618611677698,0.008536612380797054,18.392362817686205,0.013128024852024415,0.010510571300983429
127,0.25,0.001,0.011784137972788504,0.008473431925719593,18.553196042601826,0.013242823727767184,0.012507515804221233
128,0.25,0.001,0.011763567932777934,0.008506357947593196,18.253406524658203,0.013028841202468382,0.01332665296892325
129,0.25,0.001,0.011632042185387067,0.008323470585331408,18.541234791627403,0.013234286075394291,0.013495986039439837
130,0.25,0.001,0.011672019631716242,0.008444994856870313,18.084247589111328,0.012908099635339992,0.014777752493197719
131,0.25,0.001,0.011606281612351624,0.008332432253144638,18.346650831880627,0.013095396739386601,0.015644588507711887
132,0.25,0.001,0.01149354603860462,0.008303796611072724,17.875355558785778,0.01275899754374431,0.01152950944378972
133,0.25,0.001,0.011593235313500228,0.008291368133099804,18.503664239805346,0.013207469121916735,0.012447196602200469
134,0.25,0.001,0.011606646004563187,0.008359609346030748,18.196394111677918,0.012988147117543125,0.01502145625030001
135,0.25,0.001,0.01148641427532274,0.008154761209561113,18.67058389228687,0.01332661234281718,0.014896052423864603
136,0.25,0.001,0.011454559595743466,0.008282942637496175,17.773742307696427,0.012686468456599877,0.015033501045157513
137,0.25,0.001,0.011386119869499528,0.008189409072592593,17.914367742705764,0.012786843499433093,0.014363819578041634
138,0.25,0.001,0.011478808234658158,0.008270376737703356,17.980051408734237,0.012833726915584752,0.01407704952483376
139,0.25,0.001,0.01129979520426159,0.008034101066490015,18.30095158404077,0.013062777718801407,0.01390457215408484
140,0.25,0.001,0.011402882434079173,0.008176216256548787,18.082237210190087,0.012906664675367656,0.01432601905738314
141,0.25,0.001,0.011425952394411229,0.008191212401752584,18.127483390228093,0.012938960307086434,0.016144094833483297
142,0.25,0.001,0.011389226908659377,0.008293742428354005,17.34709502103036,0.012381937916509893,0.019399812289824087
143,0.25,0.001,0.011351764321937198,0.008166232851622572,17.851718456424468,0.012742125950338664,0.01580453966744244
144,0.25,0.001,0.011310070557029624,0.008106226341156235,17.95434255767287,0.012815376557939236,0.01272411954899629
145,0.25,0.001,0.011279234804256617,0.007998455438370767,18.385487974735728,0.013123117754986244,0.008707276778295636
146,0.25,0.001,0.011296015935378117,0.008156232424189298,17.595347298516167,0.012559134402938021,0.010288123429442445
147,0.25,0.001,0.011339541491970681,0.008149314900500733,17.87803011888649,0.012760906580218764,0.01630933132643501
148,0.25,0.001,0.011209045466013819,0.007923487263421217,18.412268822653253,0.013142233278125092,0.014759438888480267
149,0.25,0.001,0.01122220398651229,0.007976376560478532,18.189617893152068,0.012983310416239877,0.014231224932397405
150,0.25,0.001,0.011270158134444415,0.008073616309951969,17.913420571221245,0.012786167431278547,0.02431204030290246
151,0.25,0.001,0.011226390079970946,0.008037871915346,17.868455976073506,0.012754072788061031,0.02006157332410415
152,0.25,0.001,0.011219564182629363,0.008032952124873797,17.857773619088512,0.012746447979363678,0.011720057654504975
153,0.25,0.001,0.011208134234953693,0.007963674957183196,18.18195071973299,0.012977837772828685,0.015066897574191293
154,0.25,0.001,0.011288223352435737,0.008124467317690278,17.72968930250023,0.012655024484297095,0.01440692413598299
155,0.25,0.001,0.011156329416740707,0.007916722378600933,18.154758642988597,0.012958428724474374,0.012001431081444025
156,0.25,0.001,0.011093796808163674,0.007983360028340977,17.43088737844724,0.012441746879691105,0.015314311720430851
157,0.25,0.001,0.011092449336895469,0.007895803250568477,17.914005536084982,0.01278658496508564,0.015902031523485977
158,0.25,0.001,0.01115099763312535,0.008062888759226478,17.30576315539622,0.012352436227977317,0.014967622701078653
159,0.25,0.001,0.011219701653466238,0.007990335291306003,18.09737057156033,0.012917466503611941,0.01368526928126812
160,0.25,0.001,0.011189940385520458,0.00794712527061415,18.172736073097987,0.012971260580369726,0.013113221153616905
161,0.25,0.001,0.011106203206711344,0.007920146718272689,17.854661718446607,0.012744226779762032,0.014291717205196619
162,0.25,0.001,0.01114316029223608,0.007954150890354176,17.871207298591123,0.012756036615696733,0.01521131582558155
163,0.25,0.001,0.011019155867833492,0.007891474915287125,17.52752471388432,0.01251072427829002,0.01600199906776349
164,0.25,0.001,0.011005453128171595,0.0077633567219763475,18.168708343952023,0.012968385684476818,0.012035433358202377
165,0.25,0.001,0.010941410943735064,0.007819307298121745,17.496269895319355,0.012488415342840366,0.012665891088545322
166,0.25,0.001,0.010950740884270584,0.007841991985009776,17.421428524262723,0.012434995377774963,0.011724670572827259
167,0.25,0.001,0.011034225021102274,0.007860728591266606,17.784273816828144,0.01269398559373886,0.01658932880188028
168,0.25,0.001,0.011047662197672135,0.007848252809187125,17.92949066385191,0.012797637875697297,0.014195869366327921
169,0.25,0.001,0.011067854077146765,0.007910970887114779,17.691175393890916,0.012627534185503865,0.015409111976623535
170,0.25,0.001,0.01090691342122025,0.007683980659913947,18.061315480728595,0.012891731249627834,0.009824736043810844
171,0.25,0.001,0.010968820284507429,0.007854522897573242,17.45252257899234,0.012457189563877473,0.011670947540551424
172,0.25,0.001,0.010922711456946115,0.007753757735420214,17.758816891943503,0.012675815054920417,0.010774433923264345
173,0.25,0.001,0.010792657564127306,0.0076977866184380316,17.343655569511547,0.01237948291899468,0.010264954607312879
174,0.25,0.001,0.010867980733644544,0.0077915991553001935,17.240043149356953,0.01230552687320268,0.009992146398872137
175,0.25,0.001,0.010846275199008616,0.007701707573618457,17.6221575932196,0.012578270944482228,0.010454903977612654
176,0.25,0.001,0.010961223535283266,0.007791083058266089,17.76546831855997,0.01268056268276943,0.011072857615848383
177,0.25,0.001,0.010886836464772795,0.007650899804300732,18.13418827837671,0.0129437460944873,0.011076100481053194
178,0.25,0.001,0.010905668052316408,0.007768724410527805,17.57943311769363,0.012547775244606445,0.013313512550666928
179,0.25,0.001,0.01086319489567949,0.007820968385459039,17.048637947840998,0.012168906458130619,0.01395180510977904
180,0.25,0.001,0.010872786352683229,0.007690007978102617,17.836290069490847,0.012731113539964915,0.01368720456957817
181,0.25,0.001,0.01086911298770305,0.007769205435914428,17.37188297963282,0.012399630963335346,0.016690808814018965
182,0.25,0.001,0.010982656530077345,0.007905718407522865,17.24316114012958,0.012307752419792706,0.021569094931085903
183,0.25,0.001,0.010819529989265908,0.007673634807116281,17.629597914846318,0.012583581666556973,0.014097027791043123
184,0.25,0.001,0.010839968200838357,0.007695889721314113,17.619416510152536,0.012576314425519299,0.013262449918935696
185,0.25,0.001,0.010857067152596357,0.0077504622259814485,17.409413488287676,0.01242641933496622,0.01429344853386283
186,0.25,0.001,0.010875950180734808,0.007732290850832448,17.617067258957533,0.012574637586693457,0.015638975736995537
187,0.25,0.001,0.010794561988080454,0.007631788283521146,17.724184348569278,0.012651095180991632,0.014164570874224106
188,0.25,0.001,0.010806800165807295,0.007757036630826736,17.090874911748873,0.012199054183974928,0.013351829101641973
189,0.25,0.001,0.01084573658411963,0.0077028925808375346,17.612497552793627,0.012571375840680675,0.021099128449956577
190,0.25,0.001,0.010729397151466698,0.007577060980515348,17.665692758839032,0.012609345295388317,0.01826992832745115
191,0.25,0.001,0.010785015849995683,0.007718408529303576,17.185268469024123,0.012266430027854477,0.019674185973902542
192,0.25,0.001,0.01078952575505477,0.007674118133577687,17.45874526486759,0.012461631166929044,0.015190032310783863
193,0.25,0.001,0.01064306738846309,0.007517824518597788,17.513861315989356,0.012500971674510603,0.014059804069499174
194,0.25,0.001,0.010756083235841745,0.00776476580758541,16.763343866805585,0.011965270425985428,0.013267657874772945
195,0.25,0.001,0.010715821501935086,0.007631014885478898,17.28725644161827,0.012339226582168643,0.013472295987109343
196,0.25,0.001,0.010654124327831797,0.007571490252749962,17.27508134451526,0.012330536291588338,0.012200059679647287
197,0.25,0.001,0.010678326596685668,0.007602547796453998,17.236666355913844,0.012303116599510238,0.022375622453788917
198,0.25,0.001,0.010774364596919009,0.007704607055832942,17.20292053445738,0.012279029646293634,0.020165928173810244
199,0.25,0.001,0.010726034047615808,0.007455534220003245,18.327881952475387,0.013081999966078077,0.01844528007010619
200,0.25,0.001,0.010773330654578599,0.0077708294065070085,16.826017346298485,0.012010005243610625,0.01794510365774234
201,0.25,0.001,0.010638152864592814,0.0076184554722661165,16.922384250930875,0.012078789615225464,0.01468197830642263
202,0.25,0.001,0.01071213463005441,0.007592623944432415,17.481738553409688,0.012478043221562946,0.011635240322599808
203,0.25,0.001,0.01069526906446581,0.00753644960033789,17.702025240624856,0.012635278544343223,0.009944930206984282
204,0.25,0.001,0.010562593716452693,0.007413602943330655,17.646944347180817,0.012595963131463824,0.01224442315287888
205,0.25,0.001,0.010606777669088534,0.007440207354528339,17.745458870603326,0.012666280421558405,0.01046492966512839
206,0.25,0.001,0.010547117003354064,0.007492660468564048,17.117174416257622,0.0122178261358013,0.012945453248297175
207,0.25,0.001,0.010612173338164712,0.007519133062216274,17.333398116262334,0.012372161396332858,0.012800238560885191
208,0.25,0.001,0.010628070595145922,0.007504861229997978,17.502464093660052,0.012492836612177054,0.018506190739572048
209,0.25,0.001,0.010549848000600673,0.007433294590932933,17.46516492073996,0.012466213362412533,0.014524735820790132
210,0.25,0.001,0.010567618000228502,0.007430748787997236,17.57901534141853,0.012547477045980393,0.014634389119843641
211,0.25,0.001,0.010612282193979325,0.007543781194944828,17.19587899369803,0.01227400356438118,0.016635311767458916
212,0.25,0.001,0.010560119557276107,0.007450680994586638,17.425294318394354,0.012437754688361422,0.012736927873144547
213,0.25,0.001,0.010555954230676966,0.007576759545165196,16.695406796639425,0.011916778584325072,0.013535616608957449
214,0.25,0.001,0.010597234570056374,0.0074822953058003685,17.456118767721613,0.012459756436632129,0.011540377279743552
215,0.25,0.001,0.010505912863589519,0.007382876797965918,17.501494524771708,0.012492144557296008,0.011427097177753845
216,0.25,0.001,0.01055000466430745,0.007475552797230363,17.229228081061827,0.012297807338373894,0.011322197504341602
217,0.25,0.001,0.010530614136168135,0.007489442814424721,17.0427246484143,0.012164685687661884,0.014478247767935196
218,0.25,0.001,0.010556618933571361,0.007459940007555554,17.353789201256824,0.012386716060854263,0.013363108659783999
219,0.25,0.001,0.010513353330350061,0.0073865883117705065,17.52239083407218,0.012507059838738172,0.014761103394751748
220,0.25,0.001,0.010473512576032452,0.007352705532957238,17.48900387858787,0.012483229035394625,0.01467548372844855
221,0.25,0.001,0.010441241600708655,0.007405653702127829,17.011434265047487,0.012142351366914696,0.0122324846064051
222,0.25,0.001,0.010469603325017014,0.007310462679866462,17.703823502300775,0.012636562100143309,0.011927527685960134
223,0.25,0.001,0.010450073741158547,0.007370587193260067,17.257441470497533,0.012317945375087461,0.011102470569312572
224,0.25,0.001,0.010534810163734252,0.007489827189224156,17.064084660937215,0.0121799319492771,0.01139979794000586
225,0.25,0.001,0.010493600626655837,0.007291033052518005,17.9471893979792,0.01281027080512434,0.016938659828156233
226,0.25,0.001,0.010451478050335458,0.007275556835035483,17.79786347506339,0.012703685563928188,0.015897048482050497
227,0.25,0.001,0.010431126892915246,0.007389489724709277,17.045334397700795,0.012166548463740753,0.012733810270826021
228,0.25,0.001,0.010398003256373238,0.0073777103268307205,16.92572093985931,0.012081171263282876,0.010105559524769584
229,0.25,0.001,0.010431846244293348,0.007375118850964551,17.129901384052477,0.012226910338367222,0.01683831385647257
230,0.25,0.001,0.010440569321968053,0.007275656758867509,17.736169446978653,0.01265964985508826,0.011849615490064025
231,0.25,0.001,0.010371389074458016,0.007314456340840511,17.13105245222125,0.012227731943055854,0.015014954221745333
232,0.25,0.001,0.010420044448379188,0.007340881562307042,17.255628240038778,0.01231665113493132,0.012423858512192965
233,0.25,0.001,0.010307841416862275,0.00723569950753311,17.216284322459796,0.012288568395760025,0.010053623467683792
234,0.25,0.001,0.010402841199385492,0.007400627656463991,16.82440629479481,0.012008855313914924,0.011985626382132372
235,0.25,0.001,0.010405365029099391,0.007256861868701134,17.644212310077155,0.01259401306929133,0.01419850035260121
236,0.25,0.001,0.01040343739833051,0.00730513086901945,17.362909250092088,0.012393225731686,0.012906766186157862
237,0.25,0.001,0.010332468466844127,0.007275511399020403,17.13118729396173,0.012227828189837066,0.009293588421617946
238,0.25,0.001,0.010285205087945825,0.007177388126695016,17.4162071964197,0.012431268519928406,0.009805629340310892
239,0.25,0.001,0.010324495534102121,0.007279789075255394,17.062535748844258,0.012178826373193617,0.01158694775464634
240,0.25,0.001,0.01045116527300132,0.007315512784696811,17.572196547748053,0.012542609955566062,0.013535824293891588
241,0.25,0.001,0.010412042459462121,0.00723595858949144,17.79877493116591,0.012704336139304717,0.01349195217092832
242,0.25,0.001,0.010293749019460023,0.0071534267871787675,17.598365203678956,0.012561288510834372,0.012540721024076143
243,0.25,0.001,0.010295846837175172,0.007215596245307671,17.26172399242022,0.012321002135917358,0.011255111933375398
244,0.25,0.001,0.010298488008087142,0.007260637818045958,17.02411218832808,0.012151400562689563,0.010369547565157214
245,0.25,0.001,0.01038364440268069,0.0073552639278098506,16.9710447523329,0.012113522307161242,0.0154745706046621
246,0.25,0.001,0.010368720873406059,0.007229161097488382,17.594093701992815,0.01255823961598345,0.016552807297557592
247,0.25,0.001,0.010330145633970087,0.007337496643177947,16.770804890415125,0.011970595924636063,0.016545675539722044
248,0.25,0.001,0.010327972847510847,0.007185370525160031,17.611143747965496,0.012570409527455743,0.01321822862761716
249,0.25,0.001,0.010340922027390603,0.007284200968144581,17.12986502173351,0.012226884383821208,0.016452463809400797
250,0.25,0.001,0.01040445356929337,0.007416063587437248,16.746938705444336,0.011953560817590532,0.019374347912768524
251,0.25,0.001,0.010337115766491458,0.007215012428595831,17.496267552961385,0.01248841367092176,0.017438695145150025
252,0.25,0.001,0.010411404476266855,0.007386812793188973,16.94981250428317,0.01209836724074459,0.016262800122300785
253,0.25,0.001,0.01036394182701557,0.007258064971354447,17.40533447265625,0.01242350783201731,0.013337835436686873
254,0.25,0.001,0.010299209374607656,0.00716363782694901,17.571743898224412,0.01254228686525654,0.013042062055319548
255,0.25,0.001,0.0103273958359894,0.007261745677988606,17.17990377771924,0.01226260084062758,0.013981285815437635
256,0.25,0.001,0.010290020216278166,0.007100847903748005,17.872120606271846,0.012756688512685115,0.018704081264634926
257,0.25,0.001,0.010299911504687622,0.007269953862268325,16.979883193969727,0.012119830973568684,0.0178648317232728
258,0.25,0.001,0.010201741908595227,0.007172413418145731,16.97635745444493,0.012117314385756552,0.011310296598821878
259,0.25,0.001,0.010357604127878334,0.007326388633564899,16.98693212988781,0.01212486233396703,0.019966505312671263
260,0.25,0.001,0.010267820388993673,0.0071868680673515236,17.265656956455164,0.012323809390760289,0.014484922867268324
261,0.25,0.001,0.010254592139121384,0.007248835352233104,16.844261994835925,0.012023027833573108,0.011693157410869995
262,0.25,0.001,0.010211726585239694,0.0071440691438814,17.19115324187697,0.012270630436743021,0.01262666704133153
263,0.25,0.001,0.010281308581344566,0.007255222468653269,16.958186924806114,0.012104344700075742,0.012330897462864717
264,0.25,0.001,0.010300823966618518,0.00718349950900029,17.46948738544308,0.01246929863343546,0.010627618214736382
265,0.25,0.001,0.010300814647946441,0.007114038421440194,17.85869529233341,0.012747105847489944,0.012225974816828966
266,0.25,0.001,0.010310398736064546,0.0072677711035773074,17.050885652240954,0.012170510815304035,0.012865467773129543
267,0.25,0.001,0.010337540988772237,0.007279757165202969,17.135821236504448,0.012231135786227301,0.012628861392537752
268,0.25,0.001,0.010314382678061201,0.00718138831781975,17.557299954152246,0.012531977126446998,0.015392139088362455
269,0.25,0.001,0.010457160681137565,0.007397206625438225,17.147982234843294,0.01223981601344989,0.01866435958072543
270,0.25,0.001,0.01036194678700981,0.0071911194650401845,17.76931671231811,0.012683309573389085,0.015962938002000254
271,0.25,0.001,0.010240722077283246,0.007174105279975467,17.185320480525146,0.012266467152409097,0.015334885412206253
272,0.25,0.001,0.01028560582352312,0.007292699599801971,16.772246868289702,0.01197162517365432,0.014805281845231852
273,0.25,0.001,0.010264753140726982,0.007160802126715058,17.39454008403577,0.012415803057841379,0.013433259135733048
274,0.25,0.001,0.010220316919492699,0.0070814307212655305,17.590318534806457,0.012555544992724094,0.013591034337878227
275,0.25,0.001,0.010126960659889798,0.007132465651596499,16.781149345531798,0.011977979547131904,0.01260515380029877
276,0.25,0.001,0.01025409462224496,0.007176579795886724,17.246392690647415,0.012310059022589161,0.010430067855243882
277,0.25,0.001,0.010188007749050682,0.007136758917953536,17.099197833858735,0.012204994884981253,0.010578056797385216
278,0.25,0.001,0.010194761221084678,0.0071289515482229095,17.180797097278617,0.012263238470577172,0.011291645156840483
279,0.25,0.001,0.010199899790666954,0.007083039251510163,17.466886442307143,0.012467442142974405,0.013873362448066473
280,0.25,0.001,0.010177271026704047,0.007067772181301612,17.42563207525956,0.012437995771063212,0.011473090698321661
281,0.25,0.001,0.01018525007022926,0.007015206126703156,17.7649250476681,0.012680174909113563,0.01256473936761419
282,0.25,0.001,0.01016964868517124,0.0070428474375989,17.522594663831924,0.012507205327503159,0.011993247860421738
283,0.25,0.001,0.010296926348965767,0.007279069952623189,16.9120669337044,0.012071425363100926,0.017226073735704023
284,0.25,0.001,0.010206743148945228,0.007086519620310493,17.48573333338687,0.012480894599134098,0.01431570357332627
285,0.25,0.001,0.010222244185357415,0.007106556878452412,17.46031185618618,0.01246274936201726,0.013977764174342155
286,0.25,0.001,0.01021356742872655,0.007198880753365525,16.89430444282398,0.01205874692564167,0.01407622949530681
287,0.25,0.001,0.01015402937079208,0.007028446385734959,17.515765965333458,0.01250233116726157,0.011321569715316096
288,0.25,0.001,0.01004876190938099,0.00705212601106505,16.793149390415838,0.011986544889661555,0.012026575859636068
289,0.25,0.001,0.010110408726709279,0.007053562668724018,17.13056553176969,0.012227384390984789,0.012466692676146826
290,0.25,0.001,0.010146474345908528,0.007055474510579778,17.321964643154924,0.012364000459068469,0.01226410580178102
291,0.25,0.001,0.01016747640522077,0.007101002998911498,17.184516839813767,0.01226589353305765,0.010820549447089434
292,0.25,0.001,0.0100297724926158,0.006935288437930813,17.34148869876973,0.012377936258936281,0.01249297708272934
293,0.25,0.001,0.010260842168670996,0.00718410718881073,17.242022084910968,0.012306939389658078,0.014084129749486843
294,0.25,0.001,0.01023892612245522,0.007049218942111695,17.875119203712508,0.012758828839195224,0.014058600024630627
295,0.25,0.001,0.010152111178514554,0.00708185353354491,17.205723500391198,0.012281030335753888,0.01817965026323994
296,0.25,0.001,0.010108637830449475,0.007098114281369929,16.870974479362978,0.012042094560573147,0.014293750437597433
297,0.25,0.001,0.010136812930785076,0.007062161330416886,17.23034838626259,0.012298606985198138,0.015762533992528915
298,0.25,0.001,0.01013806604437138,0.007056284453502001,17.270304663139477,0.012327126811662724,0.012235795768598715
299,0.25,0.001,0.01003955342746966,0.006930611790729719,17.4225088532208,0.012435766490521628,0.010737104962269465
300,0.25,0.001,0.010008661844359156,0.006959745339090713,17.086128502561333,0.012195666311606948,0.010849637755503258
301,0.25,0.001,0.010142936344035187,0.007109599514750012,16.998820243523134,0.012133347782671758,0.012236222469558319
302,0.25,0.001,0.010050666120927237,0.006974229284110125,17.24035155982302,0.01230574700915276,0.011184406156341234
303,0.25,0.001,0.010177504282161506,0.007009006203397324,17.756263275592648,0.012673992345176766,0.013314689664791027
304,0.25,0.001,0.010104172917529505,0.006949874580625379,17.67668828908463,0.012617193639603591,0.011995912995189428
305,0.25,0.001,0.010146225677334775,0.007138053799451095,16.857795570328918,0.012032687773254046,0.02001392701640725
306,0.25,0.001,0.010109055449652392,0.0070322175069074885,17.24260109349301,0.012307352672014998,0.016973148565739393
307,0.25,0.001,0.01009456254541874,0.006970435724054512,17.50760687443248,0.012496507405019614,0.014136478149642548
308,0.25,0.001,0.010023864329253373,0.0069245434317149615,17.368594164039656,0.012397283486109677,0.011349129645774761
309,0.25,0.001,0.010132474111316845,0.007006066344809114,17.52038831878127,0.012505630491635453,0.015006180542210737
310,0.25,0.001,0.010032134838620125,0.006973458001967411,17.140825505842244,0.012234707712949495,0.012652063431839148
311,0.25,0.001,0.01012397650629282,0.0069805689275874725,17.61565749408209,0.012573631330536824,0.016371725592762232
312,0.25,0.001,0.009986941958641448,0.0069770604312114895,16.867376282898306,0.0120395262547454,0.012086201614389816
313,0.25,0.001,0.010056816678690282,0.007048347627210338,16.859461009153847,0.012033876523307528,0.01132631270835797
314,0.25,0.001,0.010055734334807647,0.006938763120761741,17.46750768025716,0.012467885567635374,0.013125357994188866
315,0.25,0.001,0.009984694513878976,0.006940574513214548,17.059248026351483,0.012176479676196634,0.013916962780058384
316,0.25,0.001,0.010093480593671924,0.00702934187145261,17.171432930126524,0.012256554553980389,0.013747264010210833
317,0.25,0.001,0.01000728545307416,0.006995713692267387,16.87684863352636,0.01204628739009733,0.013139456510543823
318,0.25,0.001,0.010126511190544096,0.006963918429434474,17.72316995141102,0.012650371128773033,0.019240510339538257
319,0.25,0.001,0.010065627442291605,0.007001655620157893,17.17049749274003,0.01225588686134192,0.013085046006987492
320,0.25,0.001,0.01008986779733708,0.006983140513453393,17.410099888405604,0.012426909270810567,0.009446197499831518
321,0.25,0.001,0.010076935179749428,0.006904679699120117,17.777319880256876,0.012689022041582352,0.012448993744328618
322,0.25,0.001,0.010013582348300699,0.006924807900094498,17.309493271230956,0.012355098694668776,0.01184174201140801
323,0.25,0.001,0.010063456365980251,0.0070204402167589695,17.053063465140717,0.01217206528561079,0.012063757050782442
324,0.25,0.001,0.010066181590116163,0.007063806152287108,16.825312575401618,0.01200950219514748,0.013779389516760906
325,0.25,0.001,0.010042019575093573,0.006963076609137811,17.254396182054666,0.012315771721666428,0.0126381223089993
326,0.25,0.001,0.010017187383614089,0.0069355971577484705,17.269231539720682,0.01232636084205616,0.012481187470257282
327,0.25,0.001,0.010006037567965469,0.006938582367933633,17.190019663314374,0.012269821315713329,0.015452416303257147
328,0.25,0.001,0.010040466243412063,0.0069783382711398325,17.160165864821764,0.012248512394590837,0.01563470298424363
329,0.25,0.001,0.010105569220600073,0.007126918923087985,16.692355518452604,0.011914600655569312,0.01284101977944374
330,0.25,0.001,0.010097384333000546,0.006960344492670214,17.57997056615283,0.012548158862350342,0.013950881237785021
331,0.25,0.001,0.00994430426290335,0.006840692993732747,17.392638345908004,0.012414445643046399,0.013095261684308449
332,0.25,0.001,0.00996716687597378,0.006995400016288659,16.65378238722595,0.011887068085100606,0.014181932589660088
333,0.25,0.001,0.01004510946920392,0.006990154848395907,17.119965291162682,0.012219818194976933,0.011546555906534195
334,0.25,0.001,0.010017877068828073,0.0068696158562313045,17.642855973271597,0.012593044948801996,0.011534782592207193
335,0.25,0.001,0.009915481713649473,0.0068004157595685,17.456829271818464,0.012460263577315106,0.010330451497187218
336,0.25,0.001,0.009912777626723573,0.006913294258652724,16.80910503097445,0.011997933640952498,0.009751751009995738
337,0.25,0.001,0.01004360900505593,0.007058785947813102,16.726949067143668,0.011939292696034024,0.012205181022485098
338,0.25,0.001,0.010011284955238042,0.006884826728475024,17.520672156796817,0.01250583308836318,0.012264025552819172
339,0.25,0.001,0.00991011305292796,0.00679292778446399,17.468706186751874,0.012468741032656584,0.01084454683586955
340,0.25,0.001,0.009964830862979094,0.006953989653929807,16.872754281027277,0.012043364940062296,0.010100418546547493
341,0.25,0.001,0.009953480453519096,0.006836332165641569,17.468499523854394,0.012468593521666235,0.011697953411688408
342,0.25,0.001,0.009917909361160639,0.006856197477672358,17.15783353437457,0.01224684763338656,0.00950895925052464
343,0.25,0.001,0.009953446375826994,0.00685093228089792,17.386488975837217,0.012410056371047265,0.01204203845312198
344,0.25,0.001,0.009925205777916644,0.006843605582542413,17.26928857056021,0.012326401549293512,0.012485047957549492
345,0.25,0.001,0.009963953856662003,0.006973280495152488,16.75973443817674,0.011962694102909878,0.012960422318428755
346,0.25,0.001,0.01007472292917688,0.006969476241226259,17.401801494129916,0.012420986077180526,0.014369618147611618
347,0.25,0.001,0.009885550955887775,0.006784896998072577,17.376065393637496,0.012402616269548535,0.012420546573897203
348,0.25,0.001,0.009907458500381102,0.006872891039963355,17.00571650231791,0.01213827016582292,0.013244026030103365
349,0.25,0.001,0.009984118286629168,0.006964580477242581,16.921490607903017,0.012078151754391876,0.01260808389633894
350,0.25,0.001,0.009974382545428666,0.006854343494912337,17.48469919349715,0.012480156455030086,0.012117056952168545
351,0.25,0.001,0.010006167190639596,0.006937098599512849,17.199060138903167,0.01227627418908149,0.015322442166507244
352,0.25,0.001,0.009930779656384423,0.006859245726413894,17.212875533522222,0.012286135284455548,0.012455970048904419
353,0.25,0.001,0.00999895011603135,0.006941889222079551,17.131768366049606,0.012228242945074665,0.012638148153200746
354,0.25,0.001,0.010023001641340075,0.006815791086495271,17.973208421852156,0.012828842556639655,0.018752580663810175
355,0.25,0.001,0.009934598569110123,0.006893071743567088,17.044716874061272,0.012166107690265006,0.012063435589273771
356,0.25,0.001,0.009993618136348083,0.006942797313329943,17.096799326221845,0.012203282888095536,0.015658235487838585
357,0.25,0.001,0.009985625558690718,0.0068520937000581044,17.560311836108827,0.012534126935124073,0.012957798161854347
358,0.25,0.001,0.009859267807407686,0.006839895953168297,16.92056006716009,0.01207748755685945,0.01262853154912591
359,0.25,0.001,0.009999800408095644,0.007001042755440488,16.80503711365817,0.011995030059713183,0.013814017176628113
360,0.25,0.001,0.010010208782048254,0.006839402022700735,17.769202048318427,0.012683227728992453,0.014032051588098208
361,0.25,0.001,0.00992881814399135,0.006814729672862075,17.45135054114269,0.012456352991536539,0.01346099174891909
362,0.25,0.001,0.009847581141481274,0.0068675266164872385,16.700225869117425,0.011920218321996735,0.015969475420812767
363,0.25,0.001,0.009950873621723108,0.006887468040991596,17.167325884278057,0.012253623043738799,0.011792370428641638
364,0.25,0.001,0.009826514875374691,0.00675058094185521,17.23753366972271,0.012303735667182519,0.012955440829197565
365,0.25,0.001,0.009964216631232646,0.006884058970108367,17.261203788177312,0.012320630826679023,0.012076879075417915
366,0.25,0.001,0.009821452505407278,0.006696218730914488,17.513810230277436,0.01250093521076191,0.01113880860308806
367,0.25,0.001,0.009836289062224633,0.0068061515193280075,16.980890999063412,0.012120550320530629,0.010166211053729057
368,0.25,0.001,0.009845088666294053,0.006789084711814658,17.125847052412425,0.012224016454255835,0.010593194359292587
369,0.25,0.001,0.009887819962674066,0.006803752140997097,17.283115554274175,0.012336270916683923,0.01153510125974814
370,0.25,0.001,0.00991615331704505,0.006746426475239776,17.76314878184893,0.012678907053425361,0.010029601476465663
371,0.25,0.001,0.009898077260855346,0.006742021455620116,17.686537737037703,0.01262422393792841,0.011401456858341893
372,0.25,0.001,0.009891550492342801,0.006769761021047482,17.49450787326746,0.012487157654009607,0.010755992804964384
373,0.25,0.001,0.009842219495633889,0.006800268174895243,17.04709493625931,0.012167805093689728,0.012118098170806965
374,0.25,0.001,0.009879577044419378,0.006834110664476079,17.066793296769347,0.012181865308186544,0.012984936591237783
375,0.25,0.001,0.009943993261073068,0.006781976321461605,17.719943107917295,0.012648067885736828,0.012788327566037575
376,0.25,0.001,0.009918427127495147,0.0068204803119974525,17.36089395221911,0.01239178726068459,0.012310275963197151
377,0.25,0.001,0.009864915739635976,0.006861790723292626,16.82951333787706,0.012012500598056431,0.009976663549120227
378,0.25,0.001,0.009912488873154796,0.006840228546977217,17.216947778623705,0.01228904195476353,0.011294845025986433
379,0.25,0.001,0.0098034184240894,0.0067023608359720625,17.378327743351807,0.01240423108019401,0.011784556477020184
380,0.25,0.001,0.009791540602842966,0.006813009005388495,16.691691314964963,0.011914126563144157,0.011087089466551939
381,0.25,0.001,0.009861568582641799,0.006832069341550793,16.977312768411917,0.012117996265818642,0.012875962536782026
382,0.25,0.001,0.00980772380853257,0.006751628614395683,17.12635748567637,0.012224380789205118,0.012658693517247835
383,0.25,0.001,0.009911555421064821,0.006888490235596372,16.941257342957613,0.012092260772989017,0.013266995549201965
384,0.25,0.001,0.009804600190741626,0.006767173619036786,17.02173830891213,0.012149706144833784,0.012880046231051287
385,0.25,0.001,0.009857543902090418,0.00685550725327162,16.82341322424816,0.012008146484117174,0.013948990032076836
386,0.25,0.001,0.009895859209940447,0.006788028338760661,17.416285196940105,0.012431324194818062,0.01283906881387035
387,0.25,0.001,0.009909433486996687,0.006776892667233247,17.554759588855052,0.012530163874985761,0.014134979341179132
388,0.25,0.001,0.009913689511343401,0.0068914501530210875,16.93662877668414,0.012088957014050066,0.014067321084439754
389,0.25,0.001,0.009925419464707375,0.006848866041009015,17.24100523385388,0.012306213585905695,0.012357846212883791
390,0.25,0.001,0.009830014878197721,0.006764655126727115,17.1782765025981,0.012261439330905137,0.010830866328130165
391,0.25,0.001,0.00983893008608567,0.006793316706949682,17.067617137529698,0.012182453345845608,0.01163860953723391
392,0.25,0.001,0.009859759828936287,0.006789161025802469,17.20763583490026,0.012282395313990191,0.010161063245808085
393,0.25,0.001,0.009808619555674102,0.006723616149668631,17.288359368753714,0.012340013824949118,0.010458246649553379
394,0.25,0.001,0.009794393331030308,0.006688704098743653,17.40428224083973,0.012422756774332428,0.013315602205693722
395,0.25,0.001,0.009805397833125633,0.006771145502856949,17.0039508551882,0.012137009889499072,0.011143320240080357
396,0.25,0.001,0.009838458700704645,0.00675562899341883,17.276177891513758,0.012331318980380984,0.01057049926991264
397,0.25,0.001,0.009783911447950273,0.006710090048131887,17.225694299441333,0.012295285010307876,0.012033165277292332
398,0.25,0.001,0.00985951988538455,0.006819562262131108,17.035922814530934,0.012159830702734428,0.014624024741351604
399,0.25,0.001,0.009844883105428944,0.006796053422843678,17.085641604417948,0.012195318775458921,0.011926045330862204
400,0.25,0.001,0.009830937502981975,0.006707689030455393,17.502684710318583,0.012492994083025398,0.011050215223804116
401,0.25,0.001,0.009816159826447393,0.006721718100645737,17.341252388312803,0.012377767586233265,0.0121479711184899
402,0.25,0.001,0.00993885660315292,0.006859725972975207,17.255448815418266,0.012316523065965928,0.013138194102793932
403,0.25,0.001,0.009921991979779556,0.006826949948499425,17.344615646273073,0.012380168198624607,0.012169168020288149
404,0.25,0.001,0.00983232812008314,0.006733360073981229,17.366616979677076,0.012395872219612475,0.011999491136521101
405,0.25,0.001,0.00984161020915585,0.006751101929694414,17.319209294012417,0.012362033757325065,0.015994014218449593
406,0.25,0.001,0.00978028190959441,0.006792779374671609,16.741964931376497,0.011950010657656315,0.012271219864487648
407,0.25,0.001,0.009858126779310188,0.006817015860099019,17.04238606056972,0.012164444011827065,0.013365788074831167
408,0.25,0.001,0.009848125502249302,0.006721229717266141,17.52312437135574,0.012507583419954131,0.012961295278122028
409,0.25,0.001,0.009869957163014956,0.006759064566147954,17.43344125134206,0.01244356977254965,0.01822371796394388
410,0.25,0.001,0.009809166737641508,0.006725574895325635,17.28044875741702,0.012334367421425425,0.014993994031101465
411,0.25,0.001,0.009891760328577625,0.006826961777930023,17.17513150220726,0.012259194505501256,0.017719089053571224
412,0.25,0.001,0.009880150445023475,0.006824093298953876,17.126144308792917,0.012224228628688735,0.016944574968268473
413,0.25,0.001,0.009757353101818883,0.006621603908463877,17.572738245913857,0.012542996606648007,0.010704801107446352
414,0.25,0.001,0.009790980714585697,0.0067356740021043355,17.121939865469237,0.012221227598479113,0.011052063976724943
415,0.25,0.001,0.009751481238251541,0.006740917999035956,16.871197404917222,0.012042253679455547,0.01106766137915353
416,0.25,0.001,0.009787499566960055,0.006685103126393075,17.38583044977913,0.012409586331034355,0.011035412394752106
417,0.25,0.001,0.009746169878376855,0.006724501050442283,16.933431630943254,0.012086674968553358,0.012457769364118576
418,0.25,0.001,0.0097928194122182,0.0066926691310796125,17.373241558409575,0.012400600684089632,0.011624534924825033
419,0.25,0.001,0.009863225634247935,0.00676399019236366,17.368117148416083,0.01239694300386587,0.012071820286413034
420,0.25,0.001,0.009872461631022698,0.006769764079162252,17.387517538684154,0.012410790534392686,0.012499345000833273
421,0.25,0.001,0.009743812139968427,0.006626297123403403,17.470553738331933,0.012470059770401094,0.011231980907420317
422,0.25,0.001,0.009894852815141455,0.006776346650780641,17.47610802678337,0.01247402428749705,0.014893120775620142
423,0.25,0.001,0.009880136464292194,0.0068737094219752225,16.84801767583479,0.012025708548061948,0.013409543316811323
424,0.25,0.001,0.00982088354900915,0.006629895386204385,17.882297370866027,0.01276395244173164,0.015415190563847622
425,0.25,0.001,0.009801486817499002,0.006714487105215851,17.299546080026012,0.012347998629568887,0.012517216460158428
426,0.25,0.001,0.009746697192129335,0.006740209965133353,16.848355466162253,0.01202594965464829,0.011391397720823685
427,0.25,0.001,0.009813422734756567,0.006773153654904219,17.037667146203113,0.012161075764598938,0.01449246301005284
428,0.25,0.001,0.009688773034521711,0.006608597999602033,17.26130072833502,0.012320700020224853,0.014493106088290611
429,0.25,0.001,0.009808796953562408,0.0067848712233118495,16.946080681873344,0.012095703555941003,0.016070360628267128
430,0.25,0.001,0.0097368512498705,0.006727864244157633,16.862363190678824,0.012035948030463114,0.012303154139469067
431,0.25,0.001,0.00975274340363971,0.006701415453694369,17.099641353763335,0.012205311458788962,0.011559819181760153
432,0.25,0.001,0.009825307249543612,0.006701507450391849,17.505774425484283,0.012495199447169368,0.013111628747234741
433,0.25,0.001,0.009735259058618407,0.006685275619860456,17.092106133176568,0.012199933000126029,0.012054497996966044
434,0.25,0.001,0.009806660521361563,0.006759860667220333,17.07426787259286,0.012187200480080556,0.011715669184923172
435,0.25,0.001,0.00974544566887164,0.0066311743344610544,17.45237614815695,0.012457085045079908,0.010789689918359121
436,0.25,0.001,0.00973631981324557,0.006706599135235039,16.978554374293278,0.01211888249414224,0.010844889873017868
437,0.25,0.001,0.00977893376298118,0.006700805693385545,17.249829755191914,0.012312512316339697,0.010565951466560364
438,0.25,0.001,0.009806680090028292,0.0066684355240380555,17.586722022608708,0.012552977889085444,0.014891869543741146
439,0.25,0.001,0.009829912007900706,0.006774712517334704,17.121338816414102,0.012220798584164241,0.013136216594527165
440,0.25,0.001,0.009817726093164662,0.006754056697613315,17.168804090622572,0.012254678151764863,0.016552467054377
441,0.25,0.001,0.009764810621041304,0.006657378350477121,17.414051959389134,0.01242973016373243,0.014379245849947134
442,0.25,0.001,0.009861753594500628,0.006784517402428458,17.24483012595372,0.01230894370160865,0.011837774266799292
443,0.25,0.001,0.009765781178983331,0.006716974605179843,17.08551123546578,0.012195225721246096,0.011347803597648939
444,0.25,0.001,0.009719026149713506,0.006679436578605956,17.03385952062774,0.012158357973324582,0.013640829672416052
445,0.25,0.001,0.009686188189563348,0.006601739876320836,17.285247724655775,0.012337792808462367,0.011209525012721619
446,0.25,0.001,0.009676810658988897,0.0066638138929480005,16.884835036874513,0.012051987892130273,0.010596498070905605
447,0.25,0.001,0.009681399132816763,0.006598276287665841,17.27782099985937,0.012332491791477065,0.011893984240790209
448,0.25,0.001,0.009745155575505475,0.006754321438309394,16.76063421595166,0.011963336342577917,0.012668166309595108
449,0.25,0.001,0.009670668771784557,0.0066349911067787315,17.011938496639853,0.012142711275260424,0.014135562814772129
450,0.25,0.001,0.009792087354550236,0.006786784184388599,16.841720212969864,0.01202121357099919,0.016247208540638287
451,0.25,0.001,0.009783193659669126,0.006750890680136737,16.993025249905056,0.012129211456035014,0.01371238644545277
452,0.25,0.001,0.009695208980021073,0.006577666780818799,17.470706415455243,0.012470168747648282,0.011916402727365494
453,0.25,0.001,0.009691465994593694,0.006654160549286862,17.021060765138145,0.01214922253043408,0.012518476694822311
454,0.25,0.001,0.009729407242994908,0.006657970810516013,17.212329228719074,0.012285745345267005,0.011664182258148989
455,0.25,0.001,0.009753412855734602,0.006738631348860891,16.89483552230032,0.012059125997359256,0.014441969028363625
456,0.25,0.001,0.009699925693155032,0.006632713666349126,17.1886568459851,0.012268848569582514,0.016043676684300106
457,0.25,0.001,0.009720787896137489,0.006612611866463521,17.418218489975956,0.012432704132745151,0.01275107574959596
458,0.25,0.001,0.009727712067072852,0.006697234463447716,16.98279637342308,0.012121910330780215,0.016127546938757103
459,0.25,0.001,0.009744254703366617,0.006721448243121829,16.939807958770217,0.012091226237523353,0.011148568398008743
460,0.25,0.001,0.009779048822166627,0.006609113835212257,17.764315744589645,0.012679740003275979,0.015736315088967483
461,0.25,0.001,0.009710081270215108,0.00663778660219838,17.217139539662856,0.01228917882916692,0.014278911985456944
462,0.25,0.001,0.009697469637582177,0.006694835471806296,16.826762561909636,0.012010537160535071,0.014273312874138355
463,0.25,0.001,0.009731030086197003,0.006632506648590516,17.36412433155796,0.012394093027521742,0.011859468805293242
464,0.25,0.001,0.009771799635991715,0.006671290261921478,17.375255361635084,0.01240203808824774,0.013147996117671331
465,0.25,0.001,0.009727008580856504,0.0066250359546937785,17.383453692609105,0.012407889859107141,0.010567841120064259
466,0.25,0.001,0.009704135892074011,0.00658373294223906,17.48673821611014,0.012481611860178545,0.010306099895387888
467,0.25,0.001,0.009600015732933554,0.006636354462270848,16.608358082018402,0.011854645311933192,0.010013505506018797
468,0.25,0.001,0.009619623449854335,0.006614587781678515,16.840220523856537,0.012020143129091033,0.01325378380715847
469,0.25,0.001,0.009782890772871804,0.006701408583148007,17.268625359786185,0.012325928165443386,0.010490917755911747
470,0.25,0.001,0.009772969856422547,0.006576689001042069,17.911957389429997,0.012785123047416129,0.010607889232536158
471,0.25,0.001,0.009682930864350141,0.0065869935842677516,17.34963211818048,0.012383748835246596,0.01174466172233224
472,0.25,0.001,0.009668091333836143,0.006676174142011251,16.766703304491546,0.011967668311557135,0.011513620304564634
473,0.25,0.001,0.009621946816468796,0.006545044587957754,17.24295921771847,0.01230760829244716,0.008854500949382782
474,0.25,0.001,0.009662747110801133,0.006485366028303291,17.806043535645244,0.012709524293822444,0.012128793479253849
475,0.25,0.001,0.009664288073865294,0.006622808884655,17.04444830598887,0.012165915992854296,0.011495088071872791
476,0.25,0.001,0.00970446560749708,0.006621589968580077,17.27643366585001,0.012331501545931486,0.011209986793498198
477,0.25,0.001,0.009617249127368482,0.006584916566090102,16.993192985043887,0.012129331181330397,0.011395704466849566
478,0.25,0.001,0.009705194805841349,0.006636035715758103,17.199567560564006,0.012276636374421132,0.0106094132643193
479,0.25,0.001,0.0096114801776688,0.0065328346385636876,17.252729092425074,0.012314581793308405,0.010966585949063301
480,0.25,0.001,0.009652308090344855,0.006667413825049386,16.727348283020376,0.011939577646695487,0.011752222664654255
481,0.25,0.001,0.009560487853984037,0.00651925007338848,17.043095839651006,0.012164950635011424,0.013087913393974304
482,0.25,0.001,0.009694673562128293,0.006599477353391417,17.345480400219298,0.012380785439128692,0.014048424859841665
483,0.25,0.001,0.009724152682904611,0.006671772450099737,17.105538022448446,0.01220952035863558,0.012928504031151533
484,0.25,0.001,0.009722730449852888,0.006584459847678044,17.58686854267678,0.012553082471575145,0.015398111660033464
485,0.25,0.001,0.009646840295509287,0.006523444510625991,17.503510179575425,0.01249358328306597,0.011589015057931343
486,0.25,0.001,0.009705378058535314,0.006683845239097787,16.93267045941269,0.01208613166267858,0.013247771188616753
487,0.25,0.001,0.009667758040173708,0.0066039697566663315,17.169470881858068,0.012255154091262004,0.01415228471159935
488,0.25,0.001,0.009565934348219668,0.006542714176514344,16.94212660315441,0.012092881229946046,0.012176853837445378
489,0.25,0.001,0.00965961622760484,0.006633353455003068,16.95917616950141,0.012105050799073098,0.013540833257138729
490,0.25,0.001,0.00970629489386988,0.006693644909329756,16.882891024762426,0.012050600303185171,0.011306795757263899
491,0.25,0.001,0.009656091302371862,0.006512526125913998,17.616540194951998,0.012574261381122054,0.014652665083607038
492,0.25,0.001,0.009661246853613715,0.006629852297557899,16.987933867158947,0.012125577349863631,0.012107031264652809
493,0.25,0.001,0.009633423444646143,0.006553470489313031,17.260057672422533,0.012319812756904022,0.011255594901740551
494,0.25,0.001,0.009683063689466805,0.006679504023243983,16.831948046098674,0.012014238434046162,0.013623206410557032
495,0.25,0.001,0.009719738148544965,0.0066973662864395055,16.937372129563002,0.012089487601401144,0.01442303555086255
496,0.25,0.001,0.009634761368496376,0.0065307368426338625,17.3949534321389,0.012416098095745112,0.014764556816468636
497,0.25,0.001,0.009574271493444317,0.006575999835952681,16.80231359827588,0.011993086080139815,0.01094248735656341
498,0.25,0.001,0.009626217703852389,0.006607820516811651,16.91509839108116,0.012073589144240657,0.01023697069225212
499,0.25,0.001,0.009634419431506891,0.006580768784845782,17.112657156604076,0.01221460182484231,0.009586810056741038
500,0.25,0.001,0.009700780380408319,0.006631724849582938,17.198987548114264,0.01227622237552767,0.013570713344961405
