epoch,beta,learning_rate,train_loss,train_reconstruction_loss,train_kl_unnormalized,train_kl_normalized,mean_unclipped_gradient_norm
1,0.0,0.001,0.09371879056700659,0.09371879056700659,56.93314055212927,0.04063750217853623,0.12456938198634557
2,0.02,0.001,0.07667766159360334,0.06848791585723939,573.6917226422659,0.4094873109509392,0.17060495913028717
3,0.04,0.001,0.06396095350669222,0.05392737613728621,351.42604418187835,0.25083943196422437,0.12998134855713164
4,0.06,0.001,0.050897217744645756,0.046987051317614985,91.30240259648508,0.06516945224588513,0.11667804100683757
5,0.08,0.001,0.041295708417181186,0.039069300344067144,38.98998173096869,0.027830108301904844,0.15705565735697746
6,0.1,0.001,0.03818131151980318,0.035237009563707795,41.24966735657758,0.029443017385137462,0.09440819865890912
7,0.12,0.001,0.03706004863564894,0.034790387372697455,26.498289531625826,0.018913839779889953,0.04943488125822374
8,0.14,0.001,0.035280748943938275,0.03349272165278546,17.8930455028015,0.012771624199001784,0.049789641318576675
9,0.16,0.001,0.033459568205056155,0.031200376412606753,19.782048031936682,0.014119948630932678,0.06298654153943062
10,0.18,0.001,0.031201109218995726,0.028742668541206096,19.13485839315701,0.01365800028062599,0.08152550458908081
11,0.2,0.001,0.029497464892047687,0.026731216275357687,19.377570878349797,0.013831242596966307,0.12060244221772466
12,0.22,0.001,0.028796453566817225,0.025632668246552883,20.147559186439242,0.014380841674831722,0.16608875830258643
13,0.24,0.001,0.027872698599370395,0.024406969062717263,20.231197794183625,0.014440540895206013,0.18715430317180498
14,0.25,0.001,0.027125082505524586,0.023762434272002208,18.844281112379562,0.013450593227965426,0.16934428470475332
15,0.25,0.001,0.02596945231135819,0.022608693551298825,18.833691785898868,0.013443034822197622,0.11832506422485624
16,0.25,0.001,0.025580166178913274,0.022286543151394847,18.457463608152256,0.013174492225661853,0.10957043245434761
17,0.25,0.001,0.02530527206889058,0.02186336002016978,19.288474845431015,0.01376764799816632,0.1377450307565076
18,0.25,0.001,0.02480682671550208,0.02147976230376518,18.644868577579324,0.013308257371576962,0.12307681329548359
19,0.25,0.001,0.024742680546207475,0.0212298059404821,19.686148472788226,0.014051497839249269,0.18420336927686418
20,0.25,0.001,0.024463671244022954,0.0212224319105999,18.163906370540793,0.012964958151706492,0.1577726442899023
21,0.25,0.001,0.023966051544771844,0.020475573588811698,19.560640061954324,0.013961912963564829,0.11640509404242039
22,0.25,0.001,0.023623428856487206,0.020231950232372363,19.005845711737656,0.013565914141140369,0.11130854540637561
23,0.25,0.001,0.02349854655883904,0.020095479965814542,19.070784138608946,0.01361226562356099,0.11635196355304547
24,0.25,0.001,0.023082608352626422,0.01951334356532603,20.00216236433152,0.014277060931000372,0.10442791320383549
25,0.25,0.001,0.022881777792600002,0.019648514074542357,18.11920887985776,0.01293305416121182,0.10200118885508605
26,0.0,0.001,0.018761654542247833,0.018761654542247833,25.598692518429996,0.018271729135210562,0.0897442480283124
27,0.02,0.001,0.018161391923848656,0.017399722941415407,53.35493279869061,0.03808346381062856,0.1053844638434904
28,0.04,0.001,0.01859012475517314,0.016566033366187376,70.89379824545048,0.050602282830442886,0.05852312647870609
29,0.06,0.001,0.01909620580230095,0.016302819468241032,65.22557248136025,0.046556440029521945,0.04905432888439724
30,0.08,0.001,0.019275422205788425,0.016727814744259977,44.61497672360951,0.03184509402113455,0.08440624071019036
31,0.1,0.001,0.01944365518207624,0.017346773874503615,29.37730621665645,0.020968812431589188,0.056812209343271594
32,0.12,0.001,0.019713417335740138,0.017308259147234918,28.080224139593668,0.02004298653789698,0.08945333372269358
33,0.14,0.001,0.020118982760071187,0.01716559273602001,29.554995388859496,0.021095642675845464,0.09874050784856081
34,0.16,0.001,0.020300934477964848,0.017211871546179695,27.0486086752079,0.019306644307785795,0.10199700934546334
35,0.18,0.001,0.020348745667173356,0.01723600082935183,24.227529726051202,0.01729302621416931,0.07671927634094443
36,0.2,0.001,0.02052191475090662,0.017162260628329824,23.53437814735285,0.016798271340009174,0.07630240092320102
37,0.22,0.001,0.020505769827307552,0.0171128476487566,21.606745676664293,0.015422373787768945,0.04005287427987371
38,0.24,0.001,0.02069536714785708,0.01706563696034057,21.188548896079418,0.01512387501504598,0.07662829464035374
39,0.25,0.001,0.020733877251853806,0.01712288803071993,20.23598324086046,0.014443956631592049,0.07633210106619767
40,0.25,0.001,0.020966186270402268,0.01744783170930241,19.716861210461165,0.014073419850436234,0.12393126264214516
41,0.25,0.001,0.020962116395196653,0.017240412137637846,20.8564303860175,0.014886816835130264,0.14252119032399996
42,0.25,0.001,0.02059258140961424,0.01715033273779407,19.29036073070153,0.013768994097574254,0.1242263460797923
43,0.25,0.001,0.02065560339032039,0.01712108865771487,19.807420830738003,0.014138059122582444,0.11296719259449414
44,0.25,0.001,0.02025505759017564,0.016769668056245066,19.532123046729332,0.013941558206088032,0.09926864504814148
45,0.25,0.001,0.020289004182438578,0.016761499237011326,19.76813696449298,0.014110019246604556,0.12040683999657631
46,0.25,0.001,0.020118386611377995,0.016638265802638344,19.50259729444554,0.013920483436435075,0.09626184882862228
47,0.25,0.001,0.019574830455256532,0.016233866692016118,18.722760912911134,0.013363855041335571,0.06013106115694557
48,0.25,0.001,0.01945049119646481,0.016009040421368397,19.285888781126474,0.013765802127856155,0.0948778646332877
49,0.25,0.001,0.019140504842939696,0.015789703470443627,18.77789172352356,0.013403206083885481,0.07175632832305771
50,0.25,0.001,0.019068881944888816,0.015690939854341505,18.929989384580626,0.01351176972489695,0.06043515354394913
51,0.0,0.001,0.015284866730289129,0.015284866730289129,21.880563440072507,0.015617818301265173,0.06952177813010556
52,0.02,0.001,0.014515709663187831,0.01393538277800726,40.651910513283816,0.029016352971651546,0.05977303987102849
53,0.04,0.001,0.014925211163455519,0.013290504560425772,57.25559079846221,0.040867659385055106,0.05461195111274719
54,0.06,0.001,0.015501958618122808,0.013045480385920597,57.35877775861426,0.040941311747761784,0.056629217362829616
55,0.08,0.001,0.015528789901470228,0.01305035243659927,43.40363029534606,0.03098046416512924,0.03577928418027503
56,0.1,0.001,0.015802620654494497,0.01369346805841513,29.549231950309224,0.021091528872454836,0.04105345851608685
57,0.12,0.001,0.016006329312458243,0.01375025254729824,26.339694881211603,0.018800638744619274,0.026393937479172434
58,0.14,0.001,0.016360813093889585,0.013661286538035602,27.014548181064942,0.019282332748797246,0.05414737481623888
59,0.16,0.001,0.016384281840415446,0.013546549114965454,24.847898064479054,0.01773583016736549,0.02083426999992558
60,0.18,0.001,0.016826036121687343,0.013896561007688893,22.80108288876481,0.016274862875635124,0.06831920625908035
61,0.2,0.001,0.016972399861296207,0.013754626182585883,22.540508361306568,0.016088871064458648,0.04263431738529887
62,0.22,0.001,0.017214601970586687,0.013905704459331059,21.071662443065417,0.015040444284843267,0.05981073209217617
63,0.24,0.001,0.017234394869151435,0.013782421738211608,20.150893623333843,0.014383221715441716,0.0349928829818964
64,0.25,0.001,0.017374615733976296,0.013882777360234596,19.5682635432496,0.01396735442059215,0.03682382617677961
65,0.25,0.001,0.017308660131614646,0.013904640013196445,19.076131060470544,0.013616082127387968,0.05849237473947661
66,0.25,0.001,0.017050063762111423,0.013613408987092516,19.259012759443113,0.01374661867197938,0.0519082530268601
67,0.25,0.001,0.016999109725963527,0.013660763645975857,18.708094858611112,0.013353386765603934,0.029349517609391893
68,0.25,0.001,0.016998914286031928,0.013639301759566498,18.827267822047123,0.013438449551782385,0.048317658847996166
69,0.25,0.001,0.016897986356284568,0.013600426012547887,18.479528909651364,0.013190241905532737,0.02986459088112627
70,0.25,0.001,0.016670707310938893,0.013335419094149993,18.690956944212992,0.013341154135769445,0.042321396326380115
71,0.25,0.001,0.016758625251118778,0.013498884016705726,18.267589814907613,0.013038964892867676,0.05378446275634425
72,0.25,0.001,0.01659074775554542,0.013344805569861413,18.190258749914054,0.012983767844335513,0.04424521513283253
73,0.25,0.001,0.01656007901865429,0.013254653095647799,18.523605692642686,0.013221702849852024,0.026262474512415274
74,0.25,0.001,0.016302983267655093,0.013058147959962381,18.18405543306847,0.012979340066430027,0.0192218508039202
75,0.25,0.001,0.01627353815081794,0.013139137935986952,17.565179729234064,0.012537601519795905,0.01922233442642859
76,0.0,0.001,0.01267000653632074,0.01267000653632074,22.547254038881288,0.0160936859663678,0.028306722241852964
77,0.02,0.001,0.012268892222646455,0.011658855960626591,42.73305069916572,0.030501820627527283,0.02264863465513502
78,0.04,0.001,0.012806325657448792,0.011207157408102884,56.010863502156475,0.0399792030707755,0.026945175203893865
79,0.06,0.001,0.013454351320791643,0.011223516009107837,52.09001082281509,0.037180593021281294,0.04121524441455092
80,0.08,0.001,0.01359663379816494,0.011475570635483344,37.14511813980867,0.02651328917902118,0.03670303230839116
81,0.1,0.001,0.013741229905309,0.011847764853752598,26.52744721114493,0.018934651828083463,0.028390960368726934
82,0.12,0.001,0.014131281889423834,0.01203499177164067,24.474186002781398,0.0174690835137626,0.03737975670290845
83,0.14,0.001,0.014463094243144079,0.01200890119869911,24.559459909334386,0.017529949970973867,0.06692200021020003
84,0.16,0.001,0.014692797681187815,0.011960186491006884,23.927429572494617,0.017078821964664252,0.03423983816589628
85,0.18,0.001,0.014838042506739178,0.011992085831759938,22.151029377393336,0.015810870362165122,0.017968160898557732
86,0.2,0.001,0.01513382837371923,0.01221031786513855,20.479191864305008,0.01461755307944683,0.03318368803177561
87,0.22,0.001,0.01534624325293772,0.012120588280278346,20.541556556355697,0.014662067492045466,0.028214038083595887
88,0.24,0.001,0.01565086028509749,0.012253069618899099,19.834603967416257,0.014157461789733232,0.05313775661800589
89,0.25,0.001,0.015691417916222233,0.012286319432953519,19.082171028155415,0.013620393310603437,0.0400402873222317
90,0.25,0.001,0.01570115782551663,0.012427673326151752,18.344607910848175,0.013093938551640382,0.05928379563348634
91,0.25,0.001,0.015881267298448628,0.012595294021194477,18.4145931070915,0.013143892296282296,0.07236914789038044
92,0.25,0.001,0.015761494285344794,0.012430567409941006,18.6665152592989,0.01332370825074868,0.055542230872171264
93,0.25,0.001,0.015599254074201948,0.012376010431274594,18.063057460193132,0.012892974632543278,0.034861205677901
94,0.25,0.001,0.015571515035853323,0.012272758356035467,18.48623241160536,0.013195026703501329,0.047853441908955574
95,0.25,0.001,0.015608571625374667,0.012352011333217484,18.249763224745138,0.013026240702887321,0.04565208538302353
96,0.25,0.001,0.015428667772463512,0.012203529648269418,18.073673143591687,0.012900551851243175,0.0320224046174969
97,0.25,0.001,0.015461122994989085,0.012189149692085592,18.336138604648927,0.01308789336520266,0.033726980643613
98,0.25,0.001,0.015408856180765464,0.0121589027731935,18.212739166041263,0.012999813823013035,0.04736240633896419
99,0.25,0.001,0.01544475584759917,0.012161431487356279,18.39974971033793,0.013133297437785817,0.04298409034631082
100,0.25,0.001,0.015279790884448407,0.012026593415844554,18.230919303074657,0.013012790366220313,0.025592288268463954
101,0.25,0.001,0.015211538702854108,0.012084494556049173,17.52395464184745,0.012508176047000321,0.021193133001880988
102,0.25,0.001,0.01521308907709998,0.011937658413622288,18.355515068072407,0.01310172381732506,0.03180401798869882
103,0.25,0.001,0.015259163600874972,0.012050483446914995,17.98144296359333,0.012834720173871043,0.034469942429236004
104,0.25,0.001,0.015165550331974087,0.011876728121182373,18.430559745551864,0.013155288897610182,0.03208515008113214
105,0.25,0.001,0.015114625998125868,0.011924665399020214,17.87653946250606,0.01275984258565743,0.025474019747759615
106,0.25,0.001,0.015186192547826893,0.012009622653621762,17.801498586067435,0.012706280218463551,0.033547145181468556
107,0.25,0.001,0.015076168792806833,0.011847055370437074,18.09595069794211,0.012916453032078595,0.04322416867528643
108,0.25,0.001,0.015181386234296535,0.012114874380674026,17.184732141244382,0.012266047210024542,0.05640123864369733
109,0.25,0.001,0.015047905410957792,0.011849415757491082,17.92433581204289,0.012793958466840036,0.03279533689575536
110,0.25,0.001,0.014993581645244062,0.011889958645268244,17.392705102524495,0.012414493292308704,0.02323881071060896
111,0.25,0.001,0.015076856091085084,0.011848382487324087,18.092365019076762,0.01291389366101125,0.03912040192101683
112,0.25,0.001,0.015010506088060808,0.011844948543177868,17.73978512383873,0.01266223063800052,0.04951402066009385
113,0.25,0.001,0.014873877798956164,0.011616415548669552,18.254818153836563,0.01302984878931946,0.03630991905395474
114,0.25,0.001,0.014997942326479283,0.01180598111311974,17.88775150417428,0.012767845470502697,0.03264395147562027
115,0.25,0.001,0.014924609044517851,0.011820005199611898,17.39819950021821,0.012418415060826703,0.0387183442445738
116,0.25,0.001,0.014963307366806454,0.011728256931950768,18.12922113095377,0.01294020066449234,0.04243896050112588
117,0.25,0.001,0.014901748833942243,0.011717131692551628,17.846593729351472,0.012738468043791201,0.03997718183589833
118,0.25,0.001,0.01486653964833172,0.011757153555359647,17.424999546606387,0.012437544287370726,0.04392757639288902
119,0.25,0.001,0.014825228952884958,0.011670124294738638,17.68120516228505,0.012620417674721662,0.02877814189663955
120,0.25,0.001,0.014717816830854996,0.01157382975925907,17.61890284372116,0.012575947782813105,0.02464496503983225
121,0.25,0.001,0.014772933165416086,0.011679539174677222,17.335380549647073,0.01237357640945544,0.0356856994330883
122,0.25,0.001,0.014680591147384098,0.01152626507268743,17.67684469928605,0.01261730528143187,0.02346075831779412
123,0.25,0.001,0.014755461404993597,0.011639948707598491,17.459332673248074,0.01246205044485944,0.020648208047662462
124,0.25,0.001,0.014673160975865646,0.011527391008339235,17.628895743650013,0.012583080473697368,0.01670100087566035
125,0.25,0.001,0.014502210218041494,0.011377701813661824,17.50974547720752,0.01249803388808531,0.02722007275692054
126,0.25,0.001,0.014591633782306407,0.011483240196912556,17.419437727097396,0.012433574394787577,0.022107837987797602
127,0.25,0.001,0.014549397798988586,0.011358305698522947,17.88287957585228,0.012764368005604767,0.022124928821410452
128,0.25,0.001,0.014532873947128903,0.011432320897540784,17.375500544727846,0.012402213094024159,0.027811376377940178
129,0.25,0.001,0.01455306803678698,0.011450296118944386,17.38793418174143,0.012411087924155195,0.029638903215527534
130,0.25,0.001,0.014696744624036308,0.011571046356156219,17.516412548347418,0.012502792682617715,0.039781369268894196
131,0.25,0.001,0.01456789015558924,0.011360131397505507,17.976280226058776,0.012831035136373145,0.029156737295644625
132,0.25,0.001,0.014607550062879315,0.011570492592642444,17.019670331677275,0.012148230072574786,0.04320888673620565
133,0.25,0.001,0.014564731716220589,0.011424187473010335,17.59960850554036,0.01256217594970761,0.04717289337090084
134,0.25,0.001,0.014517638356667145,0.01140374238636158,17.450273796026917,0.012455584436850048,0.028881828832839216
135,0.25,0.001,0.014418470462104017,0.011238596173167798,17.82001575479075,0.012719497326759992,0.02224646495389087
136,0.25,0.001,0.014485926516265174,0.011347281073080043,17.588968855099917,0.012554581623911433,0.01902603930128472
137,0.25,0.001,0.014412708804989344,0.01138500939290037,16.967227872060988,0.012110797910107772,0.033677849652511735
138,0.25,0.001,0.014478053630892019,0.011347829110849302,17.54177817296868,0.012520898053510835,0.04886586698038237
139,0.25,0.001,0.014470880873376828,0.011347767519086671,17.501928329467773,0.012492454196622252,0.027652578162295476
140,0.25,0.001,0.01444555871046386,0.011290335456500617,17.6818728936316,0.012620894285247394,0.024932364001870155
141,0.25,0.001,0.014430856123246554,0.0113401763599037,17.320169116545976,0.012362718855493202,0.028588407672941685
142,0.25,0.001,0.014337458854501174,0.011228327466028261,17.42357274968186,0.012436525874148365,0.019813007808157375
143,0.25,0.001,0.014330894015018155,0.01115312999189967,17.808190835119717,0.012711056984382381,0.01969229243695736
144,0.25,0.001,0.01429404574390812,0.011172948118414827,17.490631026129165,0.01248439045405365,0.020240796330784048
145,0.25,0.001,0.014294833933983469,0.011182507606743344,17.441477859788407,0.012449306109770455,0.0286587088235787
146,0.25,0.001,0.014332345106721208,0.011231518486127932,17.377032682833068,0.012403306697239878,0.036693395780665536
147,0.25,0.001,0.014303672956502807,0.011124800170520609,17.8144042622787,0.012715491978785652,0.03438253328204155
148,0.25,0.001,0.014325951026010201,0.011262273058064086,17.168852958588158,0.012254713032539727,0.02486096482191767
149,0.25,0.001,0.014209634968944267,0.011119621374637671,17.31643590267063,0.012360054177495096,0.02345242550862687
150,0.25,0.001,0.01428194923286364,0.011166137396435748,17.46100940112567,0.012463247252766358,0.02389437798410654
151,0.25,0.001,0.01417335318645956,0.011030978392053902,17.60986717788587,0.012569498342530957,0.03280979009079082
152,0.25,0.001,0.014255612359553362,0.011168285233006415,17.301381859972825,0.012349308965005586,0.03113183206213372
153,0.25,0.001,0.01419290713076802,0.011054830181107885,17.585783655717435,0.012552308105437142,0.02604862581938505
154,0.25,0.001,0.014179839323628205,0.01109718900120557,17.27517162131808,0.012330600728992206,0.0339066886476108
155,0.25,0.001,0.014077545199232057,0.011022770288344783,17.118959388186653,0.01221910020570068,0.029720257967710495
156,0.25,0.001,0.0141681278088888,0.011167443828626151,16.815832957447572,0.012002735872553585,0.031629583931394985
157,0.25,0.001,0.014180201105773449,0.011027288151936059,17.66892236969067,0.012611650513697836,0.037096810660191944
158,0.25,0.001,0.014049025817034069,0.01100628383608806,17.051526823021064,0.012170968467538233,0.020581810336027826
159,0.25,0.001,0.014023531548376584,0.01096533215771427,17.138148979241638,0.012232797272834859,0.01711201960487025
160,0.25,0.001,0.014098634169857087,0.010965186564656317,17.55984099212865,0.012533790858050427,0.021503289895398275
161,0.25,0.001,0.01414427067639933,0.011093201120172879,17.098192966069696,0.0122042776345965,0.03302236659718411
162,0.25,0.001,0.014256545271377718,0.011160615693804473,17.34958921810323,0.012383718214206444,0.03847109020820686
163,0.25,0.001,0.014237737865465068,0.011149672384602785,17.305519035721737,0.01235226198124321,0.03413129464856216
164,0.25,0.001,0.014187461829928767,0.01106192942859876,17.51548261801781,0.01250212892078359,0.02535295858979225
165,0.25,0.001,0.013990029350349898,0.010860139612988668,17.539902671140247,0.012519559365553353,0.025733431135969504
166,0.25,0.001,0.013904808502564283,0.010838261936615646,17.18492629476834,0.012266185792125866,0.018241222681743757
167,0.25,0.001,0.013936093697204367,0.010834453938648923,17.381588610373704,0.012406558608403786,0.01994126875485693
168,0.25,0.001,0.013991300552318802,0.010854373601551984,17.579338187534088,0.012547707485748813,0.025073372093694552
169,0.25,0.001,0.014017402750122091,0.010933563133217127,17.281836329894873,0.012335357837184063,0.021356178048465933
170,0.25,0.001,0.013902166747179123,0.010903992023327896,16.801770849842445,0.011992698679402173,0.018939706762986525
171,0.25,0.001,0.01391038213476432,0.010912684545916703,16.799097589206013,0.011990790570453972,0.02126297341393573
172,0.25,0.001,0.01407305181675495,0.01104212025522759,16.985340514444793,0.012123726277262522,0.03742206309522901
173,0.25,0.001,0.01405616278420058,0.010849591978072124,17.96962274628778,0.012826283187928465,0.03326051575796945
174,0.25,0.001,0.014089162296977846,0.010990519123263034,17.364795407133627,0.012394572025077535,0.03205442189105919
175,0.25,0.001,0.014109582798044267,0.010958865618328775,17.656618769242826,0.01260286850053021,0.042279251984187534
176,0.25,0.001,0.01413722653919942,0.011114318657284137,16.940376586731976,0.01209163211044395,0.03543645489428725
177,0.25,0.001,0.014170556735949755,0.011037579128576492,17.55720662956875,0.012531910513610814,0.032961497881582806
178,0.25,0.001,0.01394626427761908,0.010801153055221056,17.625202802598903,0.012580444541469595,0.02894109913281032
179,0.25,0.001,0.013945527372521688,0.010881340709072594,17.1717023052862,0.012256746827470522,0.025515488082809106
180,0.25,0.001,0.013990517765692566,0.01087145233940253,17.47924222468192,0.012476261402342554,0.02352501984153475
181,0.25,0.001,0.01391972069292905,0.010856909123927283,17.163996675987516,0.01225124673518024,0.033401653968862126
182,0.25,0.001,0.01397525196392667,0.010783537355449433,17.88637010578893,0.012766859461662335,0.03797851290021624
183,0.25,0.001,0.013893672769671407,0.010904022808095578,16.75399878372156,0.011958600131136017,0.019693716695266112
184,0.25,0.001,0.013945048212613866,0.010826162620489807,17.47823571362188,0.012475542979030608,0.03199734219482967
185,0.25,0.001,0.013892569341352277,0.010801671672976956,17.321391968283276,0.012363591697561224,0.021965566357331618
186,0.25,0.001,0.013924936608351358,0.010853603913455419,17.21174890158569,0.01228533112175995,0.02763484338564532
187,0.25,0.001,0.013882461230677323,0.010797472808483392,17.288275051799765,0.012339953641541588,0.019254006445407867
188,0.25,0.001,0.013861070449301764,0.010732813293741114,17.53075323810441,0.012513028720988159,0.022631397736924037
189,0.25,0.001,0.013908141392654337,0.010797854188411787,17.430049381847883,0.012441148737935677,0.043173880715455325
190,0.25,0.001,0.013762084024831617,0.010680647260178245,17.268372069110733,0.012325747372670044,0.024985236248799732
191,0.25,0.001,0.013721054406538783,0.01061513297802153,17.40558203649407,0.012423684537112113,0.02464826697749751
192,0.25,0.001,0.013838796574080048,0.010767519289543207,17.21143839069084,0.012285109486574476,0.038195335173181126
193,0.25,0.001,0.01376479991705008,0.010733975215341567,16.984742385390835,0.012123299347174044,0.03260232015912022
194,0.25,0.001,0.013787296576189824,0.010719346251507647,17.19279341140055,0.012271801150178837,0.02934742279882942
195,0.25,0.001,0.013774700371686342,0.010689860516558968,17.287443233845057,0.012339359909953645,0.020051332722817148
196,0.25,0.001,0.013732733209406277,0.010635946848405289,17.354390287740703,0.01238714510188487,0.021144960341709002
197,0.25,0.001,0.013617048695736825,0.010642655622791987,16.66849930246576,0.011897572664144013,0.01946124727172511
198,0.25,0.001,0.013649481968834178,0.01062844887037977,16.929870446143685,0.012084133080759233,0.025442776270210743
199,0.25,0.001,0.013641887408879037,0.01052931189172521,17.442873729441786,0.012450302447852809,0.019482332547860488
200,0.25,0.001,0.013696196451249726,0.010620451141104352,17.236475764709326,0.012302980560106584,0.014573792128690652
201,0.25,0.001,0.01354456489554524,0.010480288578406296,17.17220416103172,0.012257105039994089,0.01796532701700926
202,0.25,0.001,0.01360718229994498,0.010652934798975264,16.55560248563853,0.011816989639998951,0.01897095117185797
203,0.25,0.001,0.01367117424311032,0.010484951628296501,17.855592108569454,0.012744890869785478,0.0158040284046105
204,0.25,0.001,0.013618948600457221,0.010578862029107771,17.036646390018145,0.01216034717346049,0.020627698062786033
205,0.25,0.001,0.013638104596630913,0.01053351957377642,17.39809462790842,0.012418340205502084,0.01918111156140055
206,0.25,0.001,0.01357626185479056,0.010533447630774576,17.051932036734424,0.012171257699310795,0.018762126631502594
207,0.25,0.001,0.013635516497873321,0.010556884807910156,17.252651464967567,0.012314526384702046,0.021989802829921246
208,0.25,0.001,0.01357320376709637,0.010476209947879388,17.355553315192246,0.012387975242821017,0.0153324461675116
209,0.25,0.001,0.013642886257897129,0.010531586910506848,17.435721290424503,0.012445197209439332,0.0207778432273439
210,0.25,0.001,0.01359535101134339,0.010529377833364403,17.181714010124843,0.012263892940845712,0.02703990907009159
211,0.25,0.001,0.013670348700109273,0.010664114361820045,16.846936337418658,0.012024936714788478,0.03370310871728829
212,0.25,0.001,0.013683794164109912,0.010507694474445892,17.798862539213996,0.012704398671815843,0.024092568084597588
213,0.25,0.001,0.01369235424107043,0.01064999960585184,17.049355404473715,0.012169418561365964,0.033180067847882
214,0.25,0.001,0.013622702828437304,0.010515435480986119,17.4131267565816,0.012429069776289508,0.03190465883484909
215,0.25,0.001,0.013580067887866696,0.010500977389283283,17.25522342217566,0.01231636218570711,0.02700274038527693
216,0.25,0.001,0.013589659808003533,0.010583316813932113,16.847545919668704,0.012025371819892008,0.025390295843992914
217,0.25,0.001,0.013623154146467871,0.010602534252945734,16.927554492449705,0.0120824800088863,0.017774260735937526
218,0.25,0.001,0.01353947817834721,0.010380891549594363,17.700720261275627,0.012634347081567186,0.017344391638679162
219,0.25,0.001,0.013563351412270405,0.010568980083118474,16.780456606698777,0.011977485086865651,0.018424203220222677
220,0.25,0.001,0.013545281300432357,0.010511483565897532,17.001403134876334,0.012135191388205806,0.023384951055049896
221,0.25,0.001,0.013535227664348476,0.01044045895480313,17.34308315632167,0.012379074344269572,0.01961450238845178
222,0.25,0.001,0.013532240859506238,0.010405274041370446,17.523521723781396,0.01250786704052919,0.025825075139956816
223,0.25,0.001,0.013522570794959483,0.010471796247939221,17.0965409699943,0.01220309847965332,0.023038701553429877
224,0.25,0.001,0.013421688217731962,0.010378458312665933,17.054259885182528,0.012172919261372254,0.021933494800967828
225,0.25,0.001,0.013451953111816562,0.010366845835969385,17.288941362877164,0.012340429238313464,0.01722205031130995
226,0.25,0.001,0.01349485243241656,0.010431124219728683,17.16913332973289,0.012254913154698708,0.02476562639432294
227,0.25,0.001,0.013427980990995939,0.010424454116344736,16.831765618699833,0.012014108221770046,0.028126875337745463
228,0.25,0.001,0.013433565372303306,0.010394959252656644,17.028348226251353,0.012154424144362136,0.025419316786740507
229,0.25,0.001,0.013489586423397917,0.01034214924176297,17.638239275584073,0.012589749661373358,0.03369678929448128
230,0.25,0.001,0.013430525999969686,0.010492666728954611,16.463763230171296,0.011751436995125835,0.032809408381581306
231,0.25,0.001,0.013413918171264676,0.01031822492957542,17.348264147956503,0.012382772411103856,0.019700868720454828
232,0.25,0.001,0.013474276644980139,0.010445173880916649,16.9750918932348,0.012116411058697216,0.021494822576642036
233,0.25,0.001,0.013511446320178401,0.01030789634884115,17.952694144055496,0.012814199960068162,0.02142185252159834
234,0.25,0.001,0.013405274999881417,0.010362292415415758,17.052875063584356,0.012171930809125165,0.022576948228691305
235,0.25,0.001,0.013407570981200526,0.010371122773745606,17.01625546293782,0.012145792621654404,0.018723079402531897
236,0.25,0.001,0.01343390133747551,0.01040414437376016,16.978758755048876,0.012119028376194772,0.02883767576089927
237,0.25,0.001,0.013525683988499185,0.010399663871985489,17.518217796926567,0.012504081225500762,0.020562502023364817
238,0.25,0.001,0.013510098992035612,0.010449503392852433,17.151577601284856,0.012242382299275415,0.024330510491771356
239,0.25,0.001,0.013383264555584702,0.010258263992790248,17.51250363079062,0.012500002591570749,0.01735126187226602
240,0.25,0.001,0.013399497703660217,0.01038422157681216,16.897607857970463,0.012061104823676276,0.013023230779383863
241,0.25,0.001,0.013426161128894241,0.010308908187475296,17.469085315531363,0.012469011645632664,0.02340550920260804
242,0.25,0.001,0.013379067764895343,0.010355312417223516,16.94512445545424,0.012095021024592607,0.02056458419454949
243,0.25,0.001,0.013475394418778737,0.010370411198844062,17.400325706864315,0.01241993269583463,0.028208092653325627
244,0.25,0.001,0.01335754159277834,0.010194892501614117,17.72348536398075,0.012650596262655781,0.01996125906173672
245,0.25,0.001,0.013306331900804168,0.010303850070104394,16.82590848335503,0.012009927539867972,0.015242095770580428
246,0.25,0.001,0.013353550406550735,0.010314332425754366,17.03177799871258,0.012156872233199558,0.018440433777868748
247,0.25,0.001,0.013312110101675219,0.010229493449119793,17.274984400710512,0.012330467095439338,0.02010029394711767
248,0.25,0.001,0.013354609824877081,0.0102697918591643,17.287321382035504,0.012339272935071737,0.022888928119625365
249,0.25,0.001,0.013319507541317216,0.010279493148578664,17.036239969986436,0.012160057080646993,0.019366470830781118
250,0.25,0.001,0.013399199907154486,0.01035944623805956,17.03477977852833,0.012159014831212225,0.025415972540421144
251,0.25,0.001,0.013281187687184759,0.010175424305664326,17.404698506175475,0.01242305389448642,0.024263151522193636
252,0.25,0.001,0.013362208874740577,0.010308590484227371,17.112478620397162,0.012214474390005113,0.03183602860995701
253,0.25,0.001,0.013402048029396728,0.010373932865130445,16.96955669466806,0.012112460167500401,0.029435026858534132
254,0.25,0.001,0.013334439949605943,0.010258071669121772,17.239966890976934,0.012305472441810803,0.022650095634162426
255,0.25,0.001,0.013308019475091186,0.010285556854275645,16.937879935653797,0.012089850061137613,0.02606071239071233
256,0.25,0.001,0.013238912621659708,0.010234567612356246,16.836349937967015,0.012017380398263394,0.02260993966566665
257,0.25,0.001,0.01329316243502647,0.01027956943923434,16.888174971987922,0.012054371857236205,0.019956045651010106
258,0.25,0.001,0.013340843510247216,0.010305669929983366,17.00911363041771,0.012140694953902718,0.021596542027379786
259,0.25,0.001,0.013328797777398958,0.010276295489193716,17.106223887077096,0.012210009912260596,0.024651681738240377
260,0.25,0.001,0.013376074014031517,0.010318728968465527,17.133361666185476,0.012229380204272288,0.026991006519113268
261,0.25,0.001,0.013283766417148431,0.010178445685023624,17.402217323285015,0.012421282885999297,0.01867584258850132
262,0.25,0.001,0.013305245031800503,0.010334798392699698,16.64638219300773,0.01188178600500195,0.02392906043678522
263,0.25,0.001,0.013274748929662893,0.010203470269258096,17.211447112600105,0.012285115712062887,0.028838380106857846
264,0.25,0.001,0.013243142026420993,0.010227742244829568,16.898300944763037,0.012061599532307664,0.028609729771103178
265,0.25,0.001,0.013270693619986708,0.010176212580203299,17.341472475511647,0.012377924679166059,0.02255501744470426
266,0.25,0.001,0.013282826612647933,0.010312395212562813,16.64629861107874,0.011881726346237503,0.018513772237513746
267,0.25,0.001,0.013269333573400547,0.010155916654089187,17.447588199078325,0.012453667522539846,0.017990337817796638
268,0.25,0.001,0.013127867812579743,0.010140621976878024,16.74052564853131,0.011948983332285019,0.026270361617207527
269,0.25,0.001,0.013226296103655012,0.010152174826702526,17.227374984996132,0.012296484643109302,0.02967258117028645
270,0.25,0.001,0.013309249361012318,0.010237417701711802,17.214545661908062,0.012287327381804469,0.026841763673084124
271,0.25,0.001,0.01321235326894499,0.01011884891536967,17.33599748361082,0.012374016762034848,0.01704739686101675
272,0.25,0.001,0.013183430881908514,0.01010494882147537,17.2518139795927,0.012313928607846324,0.01427206104355199
273,0.25,0.001,0.01310987188647499,0.010106805045166561,16.829186637532455,0.012012267407232302,0.014993157769952501
274,0.25,0.001,0.013122880111197298,0.010128877814725788,16.778388835934294,0.011976009161980224,0.018385678928877627
275,0.25,0.001,0.01318290394893125,0.010084041701029622,17.36602415845047,0.012395449078123106,0.013686653093567916
276,0.25,0.001,0.013153241600547884,0.010137741974063733,16.898859802464596,0.012061998431452246,0.01500353922269174
277,0.25,0.001,0.013202011396303809,0.010025218944898795,17.802745423055207,0.012707170180624701,0.017864216917327473
278,0.25,0.001,0.013185836717059618,0.010137118957047673,17.085014334157428,0.012194871045080248,0.02658844379974263
279,0.25,0.001,0.013152582850974044,0.010082315035644464,17.20578129251703,0.012281071586379037,0.017477691173553467
280,0.25,0.001,0.01314025181334528,0.010081227373127295,17.142772679112692,0.01223609755825317,0.015417225392801421
281,0.25,0.001,0.013201380953157147,0.010060578460198314,17.60105767625613,0.012563210332802376,0.02199206142021077
282,0.25,0.001,0.013194594261078675,0.010118498864777049,17.238439405163604,0.012304382159288797,0.029335950634309223
283,0.25,0.001,0.013105386583610195,0.009962385209157244,17.61337995415371,0.01257200567748302,0.023176894390157292
284,0.25,0.001,0.01318558444866915,0.010152117000239276,16.99955161829837,0.012133869820341448,0.024625233241489956
285,0.25,0.001,0.013135626423117084,0.010002477825808213,17.5581646967048,0.012532594358818558,0.02303608094475099
286,0.25,0.001,0.013096783630247617,0.010099538008466826,16.796565399534092,0.011988983154556812,0.02296995877155236
287,0.25,0.001,0.013184352393366556,0.010049245269137806,17.569141078393613,0.01254042903525597,0.02654894734067576
288,0.25,0.001,0.013182599882112908,0.010066011331548696,17.46536259434957,0.012466354457066075,0.029823188270841326
289,0.25,0.001,0.013155314486767199,0.010064064985172276,17.32336155383854,0.012364997540213092,0.02059754795793976
290,0.25,0.001,0.013079537603301763,0.010047079319565564,16.993896839442286,0.012129833575619049,0.01669093660478081
291,0.25,0.001,0.013143929232774316,0.010035422101599077,17.420073661713158,0.012434028309573988,0.023010682447680404
292,0.25,0.001,0.013024657062279297,0.009983457018107817,17.042885113445273,0.012164800223729674,0.014339360807623183
293,0.25,0.001,0.01314827445494389,0.01003678150581716,17.43680685858169,0.01244597206179992,0.023959285047437464
294,0.25,0.001,0.013077767501387363,0.010013106150156985,17.174362141647887,0.012258645354495279,0.021411109449607984
295,0.25,0.001,0.013097808923047738,0.010027657643067239,17.205127679647294,0.012280605053281438,0.024421194568276405
296,0.25,0.001,0.013136696212687185,0.010007134772090327,17.538063008347105,0.012518246258634623,0.019091407768428326
297,0.25,0.001,0.013155630320701793,0.010099011175512271,17.12929488935448,0.012226477437083855,0.0316412216052413
298,0.25,0.001,0.013091753312522159,0.009987321346642578,17.397236029686393,0.01241772735880542,0.025345219831381525
299,0.25,0.001,0.013085615063232851,0.010068849571547104,16.90595396037318,0.012067062070216402,0.02486220215048109
300,0.25,0.001,0.013123605044687563,0.01003978196264807,17.281745095810628,0.012335292716495808,0.02225413572575365
301,0.25,0.001,0.01315757418206953,0.010049656727006726,17.416768190115334,0.012431668943694029,0.019539240215505873
302,0.25,0.001,0.013090384088296594,0.010056278234912274,17.003128356751507,0.012136422809958249,0.02123828139156103
303,0.25,0.001,0.013060806483599337,0.009911191503034997,17.65044371211159,0.012598460893727044,0.01820177079311439
304,0.25,0.001,0.013069755362173396,0.010013150766954217,17.129212149572258,0.012226418379423454,0.02271347905376128
305,0.25,0.001,0.013145055599635143,0.01005115931706952,17.338195309149622,0.01237558551688053,0.027155801919954165
306,0.25,0.001,0.013109145628239489,0.010006043628782817,17.38978337672559,0.012412407834921904,0.02382206530975444
307,0.25,0.001,0.01300610487653845,0.009886872754621193,17.48017624738962,0.012476928085217429,0.03426547268671649
308,0.25,0.001,0.01303884772659415,0.010064793132725649,16.66660224167999,0.011896218587922905,0.031385211806212156
309,0.25,0.001,0.013098244281899103,0.009961786415419033,17.57671183219673,0.01254583285667147,0.02705349028110504
310,0.25,0.001,0.013163407935554202,0.010150730383175655,16.883045451453306,0.012050710529231482,0.02661951578089169
311,0.25,0.001,0.01307003211390076,0.010011716323475707,17.138803204374838,0.012233264242951347,0.019097335769661834
312,0.25,0.001,0.013068557103433444,0.01001350280911015,17.120525355555277,0.012220217955428462,0.019778462126851082
313,0.25,0.001,0.013104367067677309,0.009969282377431245,17.56901515696669,0.012540339155579365,0.02315527932452304
314,0.25,0.001,0.01307629451582426,0.009973880714850237,17.38592747799821,0.012409655587436267,0.018732517691595212
315,0.25,0.001,0.013085127350271886,0.009975744084608442,17.424983486639857,0.012437532824154073,0.020130759105086327
316,0.25,0.001,0.012941496464510522,0.009881231776018557,17.14972395885531,0.012241059214029487,0.024095817069922174
317,0.25,0.001,0.012995861266208435,0.009937116176085569,17.141206254253525,0.012234979481979675,0.01754301373979875
318,0.25,0.001,0.012884317386033,0.009821310325976915,17.16509240453169,0.012252028839779936,0.021190783541117395
319,0.25,0.001,0.012935591610437504,0.009900839957086311,17.00674905981824,0.01213900718045556,0.020293258130550385
320,0.25,0.001,0.01298999414737014,0.00998051381649934,16.865126907967724,0.012037920705187527,0.014418865687080793
321,0.25,0.001,0.013037051272029523,0.009884281930800412,17.66811971732711,0.012611077599805216,0.023035258453871523
322,0.25,0.001,0.012963711697528215,0.009902552216978375,17.154738428484567,0.012244638421473638,0.01883751420038087
323,0.25,0.001,0.013070540022558415,0.010067150970311894,16.830992081853825,0.012013556089831423,0.024648791578199183
324,0.25,0.001,0.013122788463721412,0.009908843360983528,18.010948076453015,0.01285578021160101,0.02477928783212389
325,0.25,0.001,0.012907200332882155,0.009845486090814157,17.157847347578173,0.01224685749291804,0.015853027014860084
326,0.25,0.001,0.01282255700511551,0.009834137409569824,16.7471036478557,0.011953678549504425,0.014671668410301208
327,0.25,0.001,0.013054601305780093,0.009926950176711014,17.52735749747702,0.012510604923252691,0.022477861759918078
328,0.25,0.001,0.013016330745062282,0.009884372309099233,17.55149478957875,0.01252783354002766,0.03175577374973467
329,0.25,0.001,0.012946964983955062,0.009907555624149153,17.032850543183756,0.012157637789567277,0.024695031344890594
330,0.25,0.001,0.012906499078101645,0.009888766277892634,16.9113752324143,0.01207093164340778,0.027252213497247015
331,0.25,0.001,0.013027906351164872,0.009900002137964551,17.528775572492286,0.012511617110986643,0.02857259993574449
332,0.25,0.001,0.012966921032897613,0.00993587378510285,16.98598908126212,0.01212418920860965,0.03438575565814972
333,0.25,0.001,0.013067149314896019,0.01000816365681713,17.142555059282763,0.012235942226468783,0.041680190712213516
334,0.25,0.001,0.01301372707387997,0.009900971621426094,17.443881965764668,0.012451022102615752,0.03014158390994583
335,0.25,0.001,0.012958047471424844,0.009957237151364722,16.816541371311377,0.012003241521278641,0.018461895441370352
336,0.25,0.001,0.01296932059551338,0.009914757957268587,17.117770115344793,0.01221825133143811,0.018082862586847374
337,0.25,0.001,0.013055159923729435,0.009910593622837544,17.622150193535344,0.012578265662766127,0.0284062513549413
338,0.25,0.001,0.013005431221357963,0.009983916558005217,16.932568229183662,0.012086058693207467,0.027837316372564862
339,0.25,0.001,0.013097815148905808,0.009994606685275678,17.390379748651693,0.012412833510814913,0.02694611477532557
340,0.25,0.001,0.013007832886673386,0.009969812093262599,17.025069029632785,0.01215208353292847,0.0273693519245301
341,0.25,0.001,0.01299170833658916,0.009962504327314993,16.975660802071875,0.01211681713209984,0.024207198859325478
342,0.25,0.001,0.012922206644617858,0.009875035835852345,17.076345461934164,0.01218868341322924,0.02648822989846979
343,0.25,0.001,0.012980253055585029,0.009917657949065963,17.162782600785214,0.012250380157591159,0.022605744722698416
344,0.25,0.001,0.012867065897847132,0.00979068037789306,17.240064557241652,0.012305542153634299,0.02027346140572003
345,0.25,0.001,0.012925354368220081,0.009886781660604306,17.02816187965557,0.012154291134657795,0.018327461555600166
346,0.25,0.001,0.012911204415371282,0.009806833707845297,17.396892775214656,0.012417482352044722,0.0181597520464233
347,0.25,0.001,0.01287065358356815,0.009855196582317921,16.898621392989785,0.012061828260520904,0.01285197532602719
348,0.25,0.001,0.01287892902923441,0.009725869386534702,17.669745852668417,0.012612238295980311,0.0207429224891322
349,0.25,0.001,0.012887081180239065,0.0098086665640085,17.251434658478438,0.012313657857586322,0.017292296513915062
350,0.25,0.001,0.012792011416186012,0.009717155692472093,17.23149111162791,0.01229942263499494,0.01945636754057237
351,0.25,0.001,0.01289685778675472,0.009772087845213374,17.511211955177473,0.012499080624680565,0.024868998942630633
352,0.25,0.001,0.012861500447504845,0.009767247844033992,17.34019052783174,0.012377009655839929,0.02299995081765311
353,0.25,0.001,0.012837980804978236,0.009803272870442605,17.0065032348997,0.012138831716559386,0.018949679232069423
354,0.25,0.001,0.012916757898551894,0.00984196633162746,17.231132370759877,0.012299166574418185,0.019199550417917117
355,0.25,0.001,0.012941711435543466,0.009808777013531306,17.5569642961452,0.012531737541859529,0.027765866102916852
356,0.25,0.001,0.012876043225102891,0.009827724077821062,17.08278048749755,0.012193276579227374,0.01941162840064083
357,0.25,0.001,0.012852967067717226,0.009741313666603161,17.43770606648666,0.012446613894708535,0.022945090596164976
358,0.25,0.001,0.01284542234129937,0.009776035061457277,17.200846537769838,0.012277549277494531,0.023744150730116025
359,0.25,0.001,0.012844463067933881,0.009769473033723797,17.23224312138159,0.012299959401414411,0.016826154398066655
360,0.25,0.001,0.012831167884722246,0.009706572742870428,17.51023085874134,0.01249838034171402,0.02073626233530896
361,0.25,0.001,0.012826180761248798,0.009789732971666536,17.016253118583297,0.012145790948310704,0.021444470089461123
362,0.25,0.001,0.012863182398292785,0.009765681428368023,17.358395264655137,0.012390003757783824,0.02369996240096433
363,0.25,0.001,0.012807861528401585,0.009737857148442462,17.20430493411699,0.012280017797371156,0.016788719088903496
364,0.25,0.001,0.012802442517976203,0.009716484377823041,17.293708719330926,0.012343832062334708,0.013398109669131892
365,0.25,0.001,0.012796688575946631,0.009727089294634741,17.20203447000508,0.01227839719486444,0.013175284756081445
366,0.25,0.001,0.012892403417580309,0.009823240795415028,17.199587259770578,0.012276650435239527,0.019778120065374032
367,0.25,0.001,0.01286250948105763,0.009742357181318478,17.485332548191554,0.012480608528330875,0.01669090267802988
368,0.25,0.001,0.01288377679662161,0.009702195044437997,17.829585227875267,0.012726327785778205,0.02381918260029384
369,0.25,0.001,0.012830829452323174,0.009750661991429927,17.261258560034996,0.012320669921509634,0.024683618918061256
370,0.25,0.001,0.01277854423392075,0.009817864930341666,16.591646558629584,0.011842717029714192,0.022552074066230228
371,0.25,0.001,0.012813080497850666,0.009649969761866658,17.726071683205397,0.012652442314921769,0.018604162149131298
372,0.25,0.001,0.01277046209214553,0.009690364231499965,17.26086952919607,0.012320392240682421,0.015034681718264307
373,0.25,0.001,0.012740509626777901,0.00963225456172498,17.41866017070761,0.012433019393795583,0.020308461306350573
374,0.25,0.001,0.012757766818481016,0.009692887906740845,17.175582052699706,0.012259516097572953,0.017515303633574928
375,0.25,0.001,0.012755505509478949,0.009690162570155748,17.178181645978324,0.012261371624538418,0.016732670100671903
376,0.25,0.001,0.01283872796796031,0.00977448280678444,17.172031184084943,0.012256981573222657,0.019581548869609833
377,0.25,0.001,0.012767351025755479,0.00966101446964718,17.40791087730972,0.012425346807501585,0.02093594734157835
378,0.25,0.001,0.012743449163109705,0.009631216706072374,17.440950634940428,0.012448929789393597,0.018757717151726996
379,0.25,0.001,0.012712183359539168,0.009630343827879088,17.27062834418759,0.01232735784738586,0.0180307271491204
380,0.25,0.001,0.012746865503258807,0.00965891799807264,17.304858601463152,0.01235179057920282,0.015480766472007548
381,0.25,0.001,0.012719103601941202,0.009760685947441401,16.578972368081033,0.0118336704982734,0.0216307830331581
382,0.25,0.001,0.012857110468506244,0.009732333276429722,17.511251385854933,0.012499108769346847,0.020244867940034186
383,0.25,0.001,0.012792310124009776,0.009605654428639674,17.858019353097266,0.012746623378370639,0.024817095138132572
384,0.25,0.001,0.012816047538205234,0.009704996965078722,17.434327560279137,0.01244420239848618,0.017212679609656334
385,0.25,0.001,0.012832148658525118,0.009611093823693533,18.050791205540477,0.012884219275903268,0.020530163709606444
386,0.25,0.001,0.01280492068510636,0.009704314023345212,17.37580053561627,0.012402427220282848,0.027400640504700795
387,0.25,0.001,0.012849942436508461,0.009817360309097106,16.99459005824706,0.012130328378477558,0.02266728292618479
388,0.25,0.001,0.012710455711708717,0.009614877522809694,17.347620643124092,0.012382313092879437,0.017918645670371398
389,0.25,0.001,0.01266899397530035,0.009629742342418588,17.031966726080046,0.01215700694224129,0.015475034580699034
390,0.25,0.001,0.012728836196241345,0.009678067835070069,17.096505772811415,0.01220307335675333,0.016629672210131372
391,0.25,0.001,0.012807757484777731,0.009667494367621394,17.59803550283209,0.012561053178324118,0.027112143114209175
392,0.25,0.001,0.012664252638745706,0.009513452971411918,17.657082482567834,0.012603199487914229,0.01933000609278679
393,0.25,0.001,0.012676651371745193,0.00959823390820146,17.251452689523628,0.012313670727711369,0.011085292058331626
394,0.25,0.001,0.012707810168796905,0.009653718055165895,17.11513329462675,0.01221636923242452,0.019059165247849057
395,0.25,0.001,0.012704861685989296,0.009590460914398292,17.453102958515323,0.01245760382477896,0.011141699206616198
396,0.25,0.001,0.012653499083740187,0.009559253410731836,17.340152886147145,0.012376982788113593,0.014728434783007418
397,0.25,0.001,0.012698170299995202,0.009603318522699834,17.343549318700532,0.012379407079729145,0.02094926538744143
398,0.25,0.001,0.01270183505654904,0.009557386704660543,17.62148767894663,0.01257779277583628,0.019764166990561143
399,0.25,0.001,0.012688507983874449,0.009611114879585535,17.245710555010593,0.012309572130628546,0.01794925451810871
400,0.25,0.001,0.012722217337826271,0.009675080770168782,17.076154148948504,0.01218854685863562,0.017400238529912064
401,0.25,0.001,0.0126318930023681,0.009568860047543532,17.165235719703546,0.012252131134692038,0.018684804173452512
402,0.25,0.001,0.012709365808682822,0.0096384515843592,17.209404469674414,0.012283657722822566,0.01559695667986359
403,0.25,0.001,0.012709300733907126,0.009610933162769867,17.36325183859304,0.01239347026309282,0.01667798084339925
404,0.25,0.001,0.012668918031390072,0.009619957231749783,17.08637720986596,0.012195843832880773,0.0156022347509861
405,0.25,0.001,0.012754001519098203,0.009660127001474467,17.338074222100378,0.01237549908786608,0.016684243056390966
406,0.25,0.001,0.01271491497532778,0.009545616912244329,17.760746220700213,0.012677192163240694,0.013886213834796633
407,0.25,0.001,0.01264179593312214,0.009549389699994096,17.32984429953491,0.01236962476769087,0.014913137736065047
408,0.25,0.001,0.012676367622873521,0.009662443042903925,16.89003353983804,0.012055698458128507,0.01758224783199174
409,0.25,0.001,0.012698597472543363,0.00954554329775185,17.669716017912,0.012612217000650962,0.022026234306395054
410,0.25,0.001,0.01275040804984177,0.009699643929633434,17.09648204248105,0.012203056418616024,0.026700403275234357
411,0.25,0.001,0.012686556549676136,0.009589872851985594,17.35381540648977,0.012386734765517323,0.020846490881272724
412,0.25,0.001,0.012718297883441454,0.00969650178507575,16.93414533792646,0.012087184395379343,0.02109510265290737
413,0.25,0.001,0.01271686990587552,0.009558277726973582,17.700751757564863,0.012634369562858575,0.022150350867637565
414,0.25,0.001,0.012696259354990252,0.009591271416206349,17.400351426481915,0.01241995105387717,0.01735148472445352
415,0.25,0.001,0.012655688511976763,0.009505103975712257,17.655876146011536,0.012602338433983966,0.020841644278594425
416,0.25,0.001,0.012660461235658081,0.009619969194466003,17.038918301712073,0.012161968809216326,0.02182552231741803
417,0.25,0.001,0.012616154295447903,0.009571874629803944,17.060144428990622,0.012177119506774177,0.01654714612024171
418,0.25,0.001,0.012655045323714009,0.009526297665670123,17.533502173594474,0.01251499084482118,0.015449472436947482
419,0.25,0.001,0.012669839598416286,0.009609753537149589,17.148721981731406,0.012240344026931768,0.018590085341462066
420,0.25,0.001,0.012666814489321237,0.009571619696363913,17.345471197779254,0.012380778870649005,0.01579020864197186
421,0.25,0.001,0.012611533679637106,0.009484784330879304,17.52230413887552,0.012506997957798372,0.017877254502049515
422,0.25,0.001,0.012625121907164345,0.0096062017284636,16.91802778221258,0.012075680072956873,0.02729158928351743
423,0.25,0.001,0.012580238020398737,0.00946236618623351,17.472553462572485,0.012471487125319404,0.02230410064969744
424,0.25,0.001,0.012688702785883427,0.009647421292107116,17.04334137035725,0.01216512588890596,0.02470080235174724
425,0.25,0.001,0.01266418867088801,0.009521058478297083,17.614101009323374,0.01257252034926722,0.02469047637922423
426,0.25,0.001,0.012683994721327875,0.00962224478226573,17.15804679979857,0.01224699985710105,0.02046974202884095
427,0.25,0.001,0.01266958568298518,0.009543473129927543,17.518735102651227,0.0125044504658467,0.02053692258362259
428,0.25,0.001,0.012672032691929534,0.009644976456989678,16.96362446714415,0.012108225886612527,0.02325812341379268
429,0.25,0.001,0.012640109247925885,0.009522542948690121,17.470841287144044,0.012470265015805884,0.018975145449595793
430,0.25,0.001,0.012628816372686041,0.009566889204493854,17.15904025075544,0.012247708958426437,0.025342353486589024
431,0.25,0.001,0.012634488164951807,0.009531509137861341,17.38909440051969,0.012411916060328114,0.015783631508903846
432,0.25,0.001,0.012635405290969659,0.009565092145347509,17.206034689928295,0.012281252455337826,0.019042647177619592
433,0.25,0.001,0.012604281164012262,0.00952132575898509,17.276881484257007,0.012331821187906501,0.015486669859715871
434,0.25,0.001,0.012629895386572812,0.009587311921619003,17.05063763893874,0.01217033378939239,0.015298835800162383
435,0.25,0.001,0.01256581619248541,0.009473864115810195,17.32729843977243,0.01236780759441287,0.02061514263706548
436,0.25,0.001,0.01267105763498027,0.009659032268463,16.879390202160383,0.012048101500471366,0.030878977850079536
437,0.25,0.001,0.012594727763732749,0.00940698046272794,17.86413577860466,0.012750989135335232,0.024052502321345464
438,0.25,0.001,0.012589772992049452,0.009522251246901571,17.190392095889,0.012270087149099928,0.02228869537689856
439,0.25,0.001,0.012627785160764163,0.009596106400691097,16.98952653925857,0.012126714160784133,0.024358837732246945
440,0.25,0.001,0.012649012480580153,0.009572983352658573,17.238066507125527,0.012304115993665616,0.026463989301451614
441,0.25,0.001,0.012607405380054703,0.009515359386499429,17.327826133491318,0.01236818424945847,0.020351826878530637
442,0.25,0.001,0.012579109275220117,0.00949599786810488,17.27775682071513,0.01233244598195227,0.023188515433243344
443,0.25,0.001,0.01259974943727326,0.009457022647388937,17.611841142604344,0.012570907310923873,0.022103628675852503
444,0.25,0.001,0.012672267014022943,0.009653059572319284,16.919638777120586,0.01207682996225595,0.021999914864344255
445,0.25,0.001,0.012543472939288702,0.009273964769444773,18.322323569249992,0.013078032526231258,0.013937043425227915
446,0.25,0.001,0.01262598725920432,0.009557151193408237,17.19775672857972,0.0122753438462382,0.0166820531178798
447,0.25,0.001,0.012557592254069796,0.009414577238741808,17.61345662137489,0.012572060400695853,0.018954459710844924
448,0.25,0.001,0.012622658767890817,0.00953388256232003,17.309500842219606,0.01235510409865782,0.02558831431503807
449,0.25,0.001,0.012539244248022755,0.009512052197800616,16.96438409718807,0.012108768092211328,0.017523870936461856
450,0.25,0.001,0.012596141491396472,0.009440945623651466,17.68171812526366,0.012620783815320244,0.01615381134407861
451,0.25,0.001,0.012500564405485668,0.009414879823001302,17.292176453765652,0.012342738368141079,0.01374125068209001
452,0.25,0.001,0.012630857607274181,0.009594298607996512,17.01687772291088,0.012146236775810764,0.023786642721721103
453,0.25,0.001,0.012652633867286555,0.009472284786100888,17.82267591435471,0.012721396084478738,0.02791321197790759
454,0.25,0.001,0.012643249947711079,0.009540015698226084,17.39052449774913,0.012412936829228501,0.029519162806017057
455,0.25,0.001,0.012619936998782407,0.009536204592887143,17.281236307148717,0.012334929555423781,0.020114007938121046
456,0.25,0.001,0.012570904865683121,0.009367673186616425,17.95091142404051,0.012812927497530699,0.01569236708538873
457,0.25,0.001,0.012665000781950347,0.00958586353942005,17.255485848765954,0.012316549499476056,0.02667690334575517
458,0.25,0.001,0.012619060839844206,0.0094833862334312,17.57232034633154,0.012542698320008238,0.023934900893696716
459,0.25,0.001,0.012601405624433605,0.009523763399135526,17.247107858589555,0.012310569492212388,0.0241284313212548
460,0.25,0.001,0.012559651666118592,0.009458183937734949,17.38062545393987,0.012405871130578066,0.02050229161977768
461,0.25,0.001,0.012552424167285102,0.009483286848642946,17.19944615238891,0.012276549716194796,0.02204935159534216
462,0.25,0.001,0.012501129747183908,0.00939599826691899,17.40115661439008,0.012420525777580356,0.015881110248821124
463,0.25,0.001,0.012415043747403742,0.009387985211941535,16.963637299640084,0.012108235046138532,0.01977593225560018
464,0.25,0.001,0.012546426443236398,0.009505342038655053,17.04223685162164,0.012164337510079688,0.016311899492783204
465,0.25,0.001,0.01254269053052604,0.00939259741028553,17.653122794941105,0.012600373158416205,0.023958250348057066
466,0.25,0.001,0.012598042169625833,0.009521498947197612,17.24094841531467,0.01230617303020319,0.02595696265676192
467,0.25,0.001,0.01254192427654255,0.009421219646948477,17.488429417758113,0.012482818999113571,0.02011613281709807
468,0.25,0.001,0.012521423695071074,0.009397960274629205,17.50388913848804,0.012493853774795175,0.02252379698412759
469,0.25,0.001,0.012506678389265315,0.009433246451054382,17.223513837645903,0.0122937286492833,0.014446347153612546
470,0.25,0.001,0.012513197616169447,0.009420752387520522,17.330063230382514,0.012369781035248047,0.016986820048519542
471,0.25,0.001,0.012544869607523403,0.00936497066187759,17.820154053499135,0.012719596041041495,0.017357020239744867
472,0.25,0.001,0.012545388569801974,0.009436266016668523,17.423524424113637,0.012436491380523652,0.019113092284117426
473,0.25,0.001,0.01252984131079585,0.009394838263531859,17.56855689711104,0.012540012060750207,0.016104142580713545
474,0.25,0.001,0.012440814887815841,0.00939211526525547,17.08491338124423,0.012194798987326361,0.01787830064339297
475,0.25,0.001,0.012467666735832618,0.009320293424255381,17.637880580237486,0.012589493633288712,0.016306296257036074
476,0.25,0.001,0.012470000879150017,0.009396842098517037,17.221981995430085,0.012292635257266298,0.024846226509128298
477,0.25,0.001,0.012675928841022716,0.00944449340253357,18.108964897283222,0.012925742253592592,0.026263043018324033
478,0.25,0.001,0.012552048275269444,0.009444522344660646,17.414575622303673,0.012430103941687132,0.017491716359342848
479,0.25,0.001,0.012552341557416824,0.009459800326969999,17.33060021502875,0.01237016432193344,0.021600642507629737
480,0.25,0.001,0.012486409622651296,0.00935080896191708,17.57190736210716,0.012542403541832378,0.017017138988843987
481,0.25,0.001,0.012512689109598253,0.009390818735313444,17.494961294752315,0.012487481295326421,0.017665746887879714
482,0.25,0.001,0.012491624993505512,0.009360331424060755,17.547769414496592,0.012525174457171015,0.01532856933772564
483,0.25,0.001,0.01242191947747671,0.009410113362964411,16.8781611412977,0.012047224226479443,0.015336193011275359
484,0.25,0.001,0.012472664403922518,0.009352679082096903,17.484397851766435,0.012479941364572759,0.020448883197137287
485,0.25,0.001,0.012521564126957145,0.009404098521695785,17.4702771261939,0.012469862331330406,0.021042247036738054
486,0.25,0.001,0.012493841976887571,0.009328636932042306,17.737808136496167,0.012660819512131454,0.018949941332851137
487,0.25,0.001,0.012479488368908517,0.00942299162262166,17.128607688485012,0.012225986929682377,0.013129679087017263
488,0.25,0.001,0.012474953094697368,0.009412405147775119,17.162519136305924,0.012250192103002088,0.01602275124085801
489,0.25,0.001,0.012408183567528224,0.009268125319111035,17.596887702304596,0.012560233905998997,0.017133325737501894
490,0.25,0.001,0.012511659786994247,0.009429577846960264,17.271987783026866,0.012328328182032024,0.01984555141202041
491,0.25,0.001,0.012454987336883681,0.009356173477746848,17.365752440932827,0.012395255132714366,0.01623117138764688
492,0.25,0.001,0.01249931886489892,0.009373605260203163,17.516500131611608,0.012502855197438692,0.01969243785632508
493,0.25,0.001,0.01252298895491905,0.009444918681318406,17.249505582458934,0.012312280929663764,0.02621607096599681
494,0.25,0.001,0.012492087271802465,0.009369478776588645,17.499097760366652,0.012490433804687118,0.015672716977340833
495,0.25,0.001,0.012439653379642594,0.009338394969897367,17.379453367720355,0.012405034523711889,0.022407203912734985
496,0.25,0.001,0.012477394475697191,0.009342573749830586,17.567535131814086,0.012539282749331967,0.01663449845675911
497,0.25,0.001,0.012528577448271197,0.009355904583359106,17.779659526160337,0.012690692024382824,0.019947270463619913
498,0.25,0.001,0.012492846475296202,0.009377283024154871,17.459618980389507,0.012462254803989655,0.026780744482363974
499,0.25,0.001,0.01258252585986918,0.009526923058781249,17.12359794853411,0.012222411098168528,0.03176841565540859
500,0.25,0.001,0.012495984403340942,0.009385470923276391,17.431316972063378,0.012442053513250092,0.029814431310764382
