epoch,beta,learning_rate,train_loss,train_reconstruction_loss,train_kl_unnormalized,train_kl_normalized,mean_unclipped_gradient_norm
1,0.0,0.001,0.08918266755787664,0.08918266755787664,46.24417384927204,0.03300797562403429,0.14793729409575462
2,0.02,0.001,0.0555301318061055,0.04989573843313451,394.6893085147335,0.28171970629174414,0.11493000015616417
3,0.04,0.001,0.04969003039153285,0.04520763158489065,156.99600254549526,0.11205995899036064,0.10098184552043676
4,0.06,0.001,0.04243002021955751,0.038988761016442074,80.35339513754944,0.05735431487334007,0.07438877411186695
5,0.08,0.001,0.03693320425961522,0.034391993386245864,44.50295490249064,0.031765135547816306,0.08191657951101661
6,0.1,0.001,0.03563098403860919,0.03283093685740257,39.228660330238185,0.028000471327793135,0.05772704165428877
7,0.12,0.001,0.03428811173406874,0.031935306938357375,27.468989835240535,0.019606702237859056,0.05281089851632714
8,0.14,0.001,0.03269341353064256,0.030422097744412444,22.72937535646051,0.016223679769065316,0.0937312999740243
9,0.16,0.001,0.03081990147774645,0.028092563090482688,23.881256396345083,0.017045864665485428,0.09477823926135898
10,0.18,0.001,0.028379498119176175,0.025562019539510067,21.929375438769327,0.015652659128315007,0.05576049676164985
11,0.2,0.001,0.026786856739723832,0.02354818888595985,22.6868693719761,0.01619334002282377,0.08011991926468909
12,0.22,0.001,0.02574054848139959,0.02232154788781746,21.77281900461284,0.015540912922635859,0.05318602581974119
13,0.24,0.001,0.02502705292057447,0.021481396622677562,20.697769062153036,0.01477356820995934,0.05205272987950593
14,0.25,0.001,0.024247049937542543,0.020769437326744383,19.48854242221943,0.01391045140772265,0.07037840591510758
15,0.25,0.001,0.023472239800508585,0.019958518035864434,19.690898024689606,0.014054887954810568,0.1287094452418387
16,0.25,0.001,0.02317381468582203,0.019505989146554124,20.554494240471932,0.014671302098837925,0.1510200658813119
17,0.25,0.001,0.02227758865849853,0.018791660210465494,19.53514363459037,0.013943714228829672,0.0833233903395012
18,0.25,0.001,0.02175527467118012,0.01810709613518349,20.444393893989783,0.01459271512775859,0.03444348159246147
19,0.25,0.001,0.02130980594895193,0.017788077685286396,19.73576204608585,0.01408691081091067,0.02528643317054957
20,0.25,0.001,0.021193192583891365,0.01767896600376768,19.693724501677075,0.0140569054258937,0.07116095419041812
21,0.25,0.001,0.020696710648316564,0.01728754100308626,19.104985795080413,0.013636677940814,0.0443122333381325
22,0.25,0.001,0.020322103377941735,0.016613010378917718,20.785757270591386,0.014836372070372153,0.04260772420093417
23,0.25,0.001,0.019681778377022487,0.016212632624563836,19.441093698082128,0.013876583653163545,0.06583245331421494
24,0.25,0.001,0.018889441452456707,0.015475623317341092,19.131036362707366,0.013655272207499904,0.05235307686962187
25,0.25,0.001,0.018686742633890314,0.015159322084140234,19.767666227095354,0.014109683245606963,0.08719029230996966
26,0.0,0.001,0.01433445487743344,0.01433445487743344,25.477993581304908,0.018185577145827914,0.09504961594939232
27,0.02,0.001,0.01319669045245128,0.012430012079257194,53.7058228931981,0.03833392069464533,0.03301729809027165
28,0.04,0.001,0.01380813597890846,0.011701452974771069,73.78657772333295,0.05266707903164379,0.05570941627956927
29,0.06,0.001,0.014227186534476478,0.011505618405478129,63.54861470772518,0.045359468028354874,0.030778444721363485
30,0.08,0.001,0.014341788165487689,0.011959814424027547,41.71431550148612,0.02977467202104648,0.04027836676687002
31,0.1,0.001,0.014697228732259936,0.012446733813779235,31.529432083066567,0.022504947953652082,0.04051914776209742
32,0.12,0.001,0.015015879661401279,0.012269072389206945,32.068978289845575,0.022890063019161723,0.03675948712043464
33,0.14,0.001,0.015255167241753137,0.012213756218243436,30.435836799906497,0.02172436602420164,0.07023692352231592
34,0.16,0.001,0.015470891781305871,0.012487406950614018,26.124140482225854,0.01864678121500775,0.018254786846227944
35,0.18,0.001,0.015771881341006745,0.012465733130504976,25.7328543128809,0.018367490587352535,0.03898291476070881
36,0.2,0.001,0.016086597374304203,0.012555258955296392,24.737026610315095,0.017656692798226334,0.037132208002731204
37,0.22,0.001,0.016330220833173432,0.01268404920457928,23.219484265909156,0.01657350768444622,0.04817732097581029
38,0.24,0.001,0.016331199981674118,0.012614053786110087,21.698842195059747,0.015488110060713595,0.03369374526664615
39,0.25,0.001,0.016413351404963687,0.012722591510143023,20.683017873170463,0.014763039167145227,0.03087694721762091
40,0.25,0.001,0.016041786413778902,0.012433505091522492,20.220808511947695,0.014433125276193929,0.04721253283787519
41,0.25,0.001,0.016246430374898358,0.012797276999538618,19.329056482592065,0.013796614191714537,0.04232080839574337
42,0.25,0.001,0.016139365717212195,0.012597370429034055,19.849342211648143,0.014167981592896605,0.07300667301751673
43,0.25,0.001,0.0159447621863289,0.012411360223139965,19.80118726200088,0.014133609751606624,0.05549644841812551
44,0.25,0.001,0.015696340932267336,0.012339448502202251,18.812025426334365,0.013427569897454935,0.04675783310085535
45,0.25,0.001,0.015444893188990992,0.012125157217854534,18.603801323665127,0.013278944556506158,0.02840743598062545
46,0.25,0.001,0.015307879454120066,0.012036344098290467,18.333684319777113,0.013086141555872314,0.029764187172986567
47,0.25,0.001,0.015278581970398357,0.011977326063075996,18.500238640179774,0.013205024011548732,0.015013970376458019
48,0.25,0.001,0.015171255711543362,0.011811466574576138,18.828259717379368,0.013439157542740448,0.03361836087424308
49,0.25,0.001,0.015010279765607659,0.011841558476453995,17.757513679409424,0.012674884853254407,0.024669378239195794
50,0.25,0.001,0.014874149365080096,0.011764913982870173,17.424155231333373,0.012436941635498482,0.025233039166778326
51,0.0,0.001,0.011228694990122714,0.011228694990122714,22.585464968226262,0.016120960005871706,0.040049098897725344
52,0.02,0.001,0.010729967114125298,0.010106064761791734,43.70435977476761,0.031195117612253825,0.019697996438480914
53,0.04,0.001,0.011381551959548007,0.009735454967500511,57.654548771648486,0.0411524259612052,0.021674269693903625
54,0.06,0.001,0.011769887098571076,0.00963888839041791,49.75882363220468,0.03551664784597051,0.01567181386053562
55,0.08,0.001,0.011952564669038745,0.010026073477451238,33.73767718239939,0.02408114003026366,0.012834822991862893
56,0.1,0.001,0.012183790933727229,0.01035993298538864,25.55225008256208,0.018238579644940814,0.012509598163887858
57,0.12,0.001,0.01251525836475039,0.010375312599063661,24.98386743157731,0.017832881821254323,0.01631284726317972
58,0.14,0.001,0.012859257571862941,0.01036424583202823,24.967940065376,0.017821513251517488,0.029655252757947892
59,0.16,0.001,0.013192810605113932,0.010609302538373657,22.62184395532885,0.01614692644919975,0.03713796520605683
60,0.18,0.001,0.013359354588655267,0.010534370167343201,21.98779346735151,0.015694356507745547,0.029289569472894073
61,0.2,0.001,0.013504761572602626,0.010589335221967262,20.422561558450408,0.014577131733369313,0.02401024696882814
62,0.22,0.001,0.013809034171904518,0.010843480805792996,18.885182709120123,0.013479787800942273,0.02504131884779781
63,0.24,0.001,0.014033484384726687,0.010795541919180467,18.90149025501552,0.013491427733772677,0.02716820256318897
64,0.25,0.001,0.014112382087686497,0.010921149390954447,17.88366751453194,0.012764930417224797,0.032186595955863595
65,0.25,0.001,0.01392397535307897,0.010862263812223659,17.157831817247065,0.012246846407742373,0.01927779783727601
66,0.25,0.001,0.013942546388945886,0.01082824590264267,17.452539159054577,0.012457201398325894,0.020713388570584357
67,0.25,0.001,0.01391658030790412,0.010833323492641518,17.278571073445047,0.012333027175906529,0.030440583708696067
68,0.25,0.001,0.013842472914776367,0.010774880067997948,17.190790037891183,0.012270371190500487,0.01918235351331532
69,0.25,0.001,0.01392308638829166,0.010859260845666605,17.16967808656178,0.012255301988980572,0.02017799613531679
70,0.25,0.001,0.013746468257545436,0.010720033152222138,16.960142096048568,0.012105740254138877,0.028598319040611386
71,0.25,0.001,0.013708347218938141,0.010650079384353398,17.138533643667134,0.01223307183702151,0.02748319215606898
72,0.25,0.001,0.013667843138404901,0.01071712928070567,16.535799802091606,0.011802854962235265,0.014299814123660326
73,0.25,0.001,0.01357755054916831,0.01062745711847336,16.532323441564788,0.011800373619960591,0.017807442462071776
74,0.25,0.001,0.013539173566886992,0.01057947311874989,16.58616118213448,0.01183880170031012,0.022599076386541128
75,0.25,0.001,0.013547650843673226,0.010640065838810813,16.29410642410215,0.011630340060030086,0.04180333809927106
76,0.0,0.001,0.010203724719305751,0.010203724719305751,20.761640564534673,0.014819158147419466,0.036940598394721746
77,0.02,0.001,0.009829571532448792,0.00926132204544371,39.80588802163532,0.028412482527933845,0.03508137527387589
78,0.04,0.001,0.010365538472982116,0.00891849165589112,50.68282242137862,0.03617617588963499,0.024524231092073023
79,0.06,0.001,0.01071698858143754,0.008897286901613736,42.490037973490985,0.030328364006774435,0.015869514318183064
80,0.08,0.001,0.010889853486072474,0.009240399709906567,28.886061648610223,0.0206181739104998,0.011189827928319573
81,0.1,0.001,0.011135932239723156,0.009482533118351366,23.164121461607113,0.016533991050397653,0.015159665839746594
82,0.12,0.001,0.011375106701094085,0.009399069465418575,23.070233040330816,0.016466975760407433,0.013244127912912518
83,0.14,0.001,0.011671427084728148,0.009446234844192183,22.267817168809565,0.015894230670099617,0.026114187436178327
84,0.16,0.001,0.011922262462157432,0.009589717789124156,20.424345459680833,0.014578405039029858,0.030296048731543124
85,0.18,0.001,0.012268240621537588,0.00972487811091901,19.795837180743078,0.014129790992678857,0.028357660630717874
86,0.2,0.001,0.012505630865940415,0.009760919436657824,19.22670410282879,0.013723557532354597,0.020077329128980637
87,0.22,0.001,0.012698935360272891,0.009881623811957995,17.941152398517023,0.01280596174055462,0.0200435746810399
88,0.24,0.001,0.01300442086617729,0.009943525449863608,17.867977862536165,0.012753731522152865,0.03254619333893061
89,0.25,0.001,0.013139426971001249,0.010091168821414477,17.08243835813277,0.012193032375540877,0.026923109428025782
90,0.25,0.001,0.012989758270410087,0.009981402910905756,16.858823538815827,0.012033421512359619,0.014120178064331412
91,0.25,0.001,0.013022016239240456,0.010028439400045209,16.776005274032656,0.011974307832999754,0.014866166573483497
92,0.25,0.001,0.01292776255733121,0.010035252248814245,16.209628742265505,0.011570041928811923,0.02059331233613193
93,0.25,0.001,0.012992818928729449,0.010051461245818257,16.483368988353682,0.011765431112315263,0.023873520898632705
94,0.25,0.001,0.012952656206902873,0.00993657349782737,16.90212800591813,0.012064331196229927,0.01726296462584287
95,0.25,0.001,0.012947444177978513,0.010038283004336585,16.302940028337026,0.01163664527361672,0.03759670467115939
96,0.25,0.001,0.012926202576561093,0.010011180087583936,16.33578603594135,0.01166008996141424,0.030038008000701666
97,0.25,0.001,0.012889197718398452,0.009924215403737122,16.61576146011036,0.011859929664604111,0.01995109743438661
98,0.25,0.001,0.012835311390366791,0.009992788360295702,15.929497667368022,0.011370091125887239,0.027975789620541036
99,0.25,0.001,0.012755124756285758,0.009783940988735787,16.65051359358665,0.011884734899062561,0.01363163418136537
100,0.25,0.001,0.012764784287182127,0.009922554561891497,15.92785481892186,0.011368918500301113,0.01336108084069565
101,0.25,0.001,0.012744487924076215,0.009821959728707417,16.377848455025447,0.011690113101374338,0.018994576996192336
102,0.25,0.001,0.01266459993925332,0.009756405957630561,16.29751969966651,0.01163277637378052,0.018966984120197594
103,0.25,0.001,0.012660741894911681,0.00983705014546877,15.823969512559566,0.011294767674917607,0.02362338302191347
104,0.25,0.001,0.012712712581288765,0.009797854824339453,16.334864086135294,0.011659431895885293,0.014228529471438378
105,0.25,0.001,0.01265374663057911,0.009720920770587515,16.435556110999396,0.0117313034339753,0.014005760138388723
106,0.25,0.001,0.012719534805114091,0.009880176432337998,15.911764065754364,0.011357433308889624,0.020341848488897085
107,0.25,0.001,0.012658451996836425,0.009780609273038712,16.127430247073352,0.0115113706260338,0.02326489274855703
108,0.25,0.001,0.012605591549603772,0.00975125593314898,15.995697045227304,0.011417342644701858,0.022908771294169128
109,0.25,0.001,0.012635294456204933,0.009807027389461568,15.849608251168025,0.011313067987985743,0.01906191324815154
110,0.25,0.001,0.01256413599360286,0.00968133222651803,16.15523241763293,0.011531215144634498,0.027035087579861283
111,0.25,0.001,0.012621725789615228,0.009793114724773837,15.851536121605838,0.011314444055393174,0.019857699633575976
112,0.25,0.001,0.012527171904955415,0.009662503654840577,16.053600627851683,0.011458672825019046,0.013853872776962817
113,0.25,0.001,0.012569824442329248,0.009728254383252121,15.924158757158335,0.011366280340584107,0.026684494223445654
114,0.25,0.001,0.012510638336237535,0.009683171476535036,15.845123936031865,0.011309867192028455,0.014467055560089648
115,0.25,0.001,0.012460322432312728,0.009647997490350637,15.760268971138474,0.011249299765266577,0.020506087108515203
116,0.25,0.001,0.012582443387892979,0.009726476430491045,16.004838231193574,0.011423867402707762,0.025604760041460395
117,0.25,0.001,0.012555904137704877,0.009679160451833391,16.121271299623356,0.011506974517932445,0.028523886459879577
118,0.25,0.001,0.01242755128928611,0.009595837424744956,15.868924572260052,0.011326855511962922,0.019427715218625963
119,0.25,0.001,0.012542033123617598,0.009717206003074824,15.83033201209737,0.011299309073588415,0.01948797341901809
120,0.25,0.001,0.012382010956337343,0.00947983870166837,16.263774301995873,0.011608689723052016,0.013704805169254541
121,0.25,0.001,0.012425141099886775,0.00960572788113133,15.79999199546719,0.011277653101689643,0.011374322522897273
122,0.25,0.001,0.012345595095940397,0.009472735771036,16.099503323250293,0.011491437061563378,0.015519953798502684
123,0.25,0.001,0.0124479523121816,0.009679758596655244,15.512957026849644,0.011072774465988327,0.022703764028847218
124,0.25,0.001,0.01254315900759331,0.009627924540323587,16.336973736394985,0.01166093771334403,0.03340374329127371
125,0.25,0.001,0.012356577294248763,0.009574476992750068,15.590889930725098,0.011128401092594645,0.03494934178888798
126,0.25,0.001,0.012403513301024793,0.009599363697978718,15.714454128534467,0.011216598235927527,0.035541645251214504
127,0.25,0.001,0.01239235463061397,0.009574723623198346,15.790004073336906,0.011270523963837906,0.0401229253038764
128,0.25,0.001,0.012353207502529582,0.009589724323839815,15.486560489132197,0.01105393325419857,0.02416728192474693
129,0.25,0.001,0.012276327809419375,0.009419170142580365,16.011511454443713,0.011428630588468032,0.016983772278763354
130,0.25,0.001,0.012320939482371342,0.009496438788458766,15.82850256797189,0.01129800326050813,0.02124019747134298
131,0.25,0.001,0.012267113817832529,0.00939519857964575,16.094213279945723,0.011487661156278176,0.024673252482898533
132,0.25,0.001,0.012340886120325054,0.009530047306412236,15.751940699533803,0.011243355245919916,0.028171745012514293
133,0.25,0.001,0.012301276542277258,0.009470393235845437,15.864270301280675,0.011323533405625036,0.02879631775431335
134,0.25,0.001,0.012306858928433593,0.00947025224674663,15.89634405428938,0.011346426876723326,0.017848070128820837
135,0.25,0.001,0.0122569874470041,0.009416977148425777,15.915417667246459,0.011360041161489264,0.015560700150672346
136,0.25,0.001,0.012209676901705532,0.009434964109784092,15.549489365573741,0.011098850368004098,0.01664105709642172
137,0.25,0.001,0.012231428605114029,0.009436910477354813,15.660479763236777,0.01117807263614331,0.016936154337599874
138,0.25,0.001,0.012181864406032434,0.009360791748211838,15.80929108774019,0.011284290569407702,0.019511033198796213
139,0.25,0.001,0.012154311185153935,0.00934402224572986,15.74885935803172,0.011241155858695017,0.017623139661736786
140,0.25,0.001,0.012226254601974457,0.009392524625008532,15.880223222787944,0.01133492021612273,0.01996615994721651
141,0.25,0.001,0.012175302229883512,0.009360811959071031,15.77240262486628,0.01125796047456551,0.011423081392422318
142,0.25,0.001,0.01216869448075898,0.009314037917405985,15.99749458281331,0.011418625683664033,0.018659070134162903
143,0.25,0.001,0.012092671550315693,0.00923903441613084,15.991782406059043,0.01141454846970667,0.01735793228726834
144,0.25,0.001,0.012220147131513263,0.009417555650456565,15.705722056978471,0.011210365493917539,0.022036783513613045
145,0.25,0.001,0.012245428562937189,0.009350236926490587,16.224654272878812,0.011580766790063392,0.033753544790670276
146,0.25,0.001,0.012153901723967053,0.009327768066055547,15.837653298595635,0.011304534831260267,0.021479118790011853
147,0.25,0.001,0.012123926191038116,0.009312709975075672,15.754056123282405,0.01124486518435575,0.014800800359807909
148,0.25,0.001,0.012132658565192796,0.00929787625168369,15.886120293644948,0.011339129403029941,0.015636050316970795
149,0.25,0.001,0.012194209828725494,0.009392578815616266,15.700339934637933,0.011206523864837925,0.013454791973344982
150,0.25,0.001,0.012137403835337686,0.009282355818943858,15.999688983458206,0.011420191993903074,0.0141073705162853
151,0.25,0.001,0.012086840616964205,0.009211424108270045,16.113834602704188,0.0115016663830865,0.016877322224900126
152,0.25,0.001,0.012092052031447531,0.009306690717479253,15.60916505314997,0.011141445434082776,0.011677982052788138
153,0.25,0.001,0.012043666933118308,0.009180468170907487,16.045366607760986,0.011452795580129184,0.017415198497474194
154,0.25,0.001,0.012091573026355867,0.009289210121228486,15.70444158498677,0.011209451523902047,0.020760019891895354
155,0.25,0.001,0.012042585644422725,0.009236691121583904,15.724232891288535,0.011223578080862624,0.023300656815990806
156,0.25,0.001,0.012122673206649628,0.009303608561452494,15.798038720095306,0.011276258900853181,0.030406465637497604
157,0.25,0.001,0.012006465395858427,0.00928609725474322,15.244943575245712,0.010881472930225348,0.033250982756726444
158,0.25,0.001,0.012077725828621398,0.009199435277784019,16.129941057862087,0.01151316278219992,0.03012698411475867
159,0.25,0.001,0.01203769225920879,0.009263219609392876,15.548144961788447,0.011097890765016737,0.03070454322732985
160,0.25,0.001,0.011961095344228864,0.009203350523108021,15.454401847237868,0.01103097919146172,0.02688750554807484
161,0.25,0.001,0.012083456488287549,0.00927189175286852,15.756009881427179,0.011246259729783853,0.019032217795029283
162,0.25,0.001,0.012005014043625955,0.009233697232523647,15.53045853737479,0.011085266621966303,0.01808621536474675
163,0.25,0.001,0.011966481484101768,0.009115555822169137,15.97658671778762,0.011403702154023998,0.012320103123784065
164,0.25,0.001,0.012006576277346533,0.009218461483067745,15.624596659078637,0.011152460142097528,0.01603904110379517
165,0.25,0.001,0.011939872805941155,0.009154300870087879,15.610345484310166,0.011142287997366286,0.016174462740309536
166,0.25,0.001,0.012060049712596098,0.009243881820674012,15.781804987009135,0.011264671653825222,0.02491403033491224
167,0.25,0.001,0.011921182212987876,0.009050608546902036,16.08669512895133,0.011482294881478465,0.013688226696103811
168,0.25,0.001,0.012021953912444134,0.009209787743591174,15.759377863397242,0.011248663714059417,0.021052027703262866
169,0.25,0.001,0.012069301957967866,0.009237124263869282,15.871524074760215,0.011328710974132915,0.022186626214534044
170,0.25,0.001,0.011994797732541918,0.009172477577793648,15.81628096647777,0.011289279776215397,0.016637533786706626
171,0.25,0.001,0.011973893803184952,0.009135851976596963,15.90438715748767,0.011352167849741378,0.013307038811035454
172,0.25,0.001,0.011901085423421562,0.009089546100356272,15.755866038848751,0.011246157058421663,0.015706466045230627
173,0.25,0.001,0.011860420583472954,0.009055662996819652,15.717861935310838,0.011219030646189034,0.01618296094238758
174,0.25,0.001,0.01187401860024919,0.009163113759204559,15.191911748830709,0.010843620091956252,0.015016767429187894
175,0.25,0.001,0.011865389235781437,0.00903381552562674,15.86813959936878,0.011326295217251092,0.018941437592729926
176,0.25,0.001,0.011920788487674538,0.009059729526028099,16.033374754719713,0.011444236084739266,0.01693051599431783
177,0.25,0.001,0.011934622044045154,0.0091665731704334,15.512146261223124,0.011072195761044342,0.020623328164219856
178,0.25,0.001,0.011856051358970122,0.009013669051353614,15.928710280612297,0.011369529108217199,0.01393110933713615
179,0.25,0.001,0.011823272958583358,0.009059042638917434,15.490746688051342,0.011056921261992392,0.017028942704200745
180,0.25,0.001,0.011865782362111376,0.009046859324318491,15.797244143189236,0.011275691751027292,0.018400102388113737
181,0.25,0.001,0.011829034046606157,0.009034519338848928,15.660459767733371,0.011178058363835383,0.01554346946068108
182,0.25,0.001,0.01187850832088978,0.009069684633977433,15.740648863226546,0.0112352954055864,0.011274138931185007
183,0.25,0.001,0.011799305615583396,0.008945714736442349,15.991523604175361,0.011414363743165854,0.015236626903060824
184,0.25,0.001,0.011868504784166565,0.009080120234815907,15.626106962623439,0.011153538160330791,0.01581810141215101
185,0.25,0.001,0.011760111921370277,0.008948726390190885,15.755004336725133,0.011245541996234927,0.01654707989655435
186,0.25,0.001,0.011821769019472897,0.009043485150359479,15.569502561418842,0.011113135304367482,0.018023933982476592
187,0.25,0.001,0.011833901544144045,0.008972206632162277,16.036938588154268,0.011446779863065144,0.014334839186631143
188,0.25,0.001,0.011796818524444499,0.009019021872291921,15.56677268253817,0.011111186782682492,0.015919690718874335
189,0.25,0.001,0.011746628766423439,0.008946450056191302,15.692202089238464,0.011200715267122387,0.018570263404399157
190,0.25,0.001,0.011736010792529929,0.008947658974723697,15.625923413953346,0.011153407147718305,0.019074253388680518
191,0.25,0.001,0.011869923184583296,0.009095464334572005,15.5480679436838,0.011097835791351748,0.015953716589137912
192,0.25,0.001,0.011870466505034335,0.009026062415905018,15.94004136793841,0.01137761696498102,0.0160046600503847
193,0.25,0.001,0.01184724800721491,0.009038601468676601,15.739654845716547,0.011234585899869056,0.016709718154743314
194,0.25,0.001,0.011828125033264834,0.009011138052799395,15.78639520352312,0.011267948039631064,0.018933843006379902
195,0.25,0.001,0.011734073811608726,0.008934155330680218,15.690744277352614,0.01119967471616889,0.020397433661855757
196,0.25,0.001,0.01178812820278881,0.009050791847415238,15.340032965315823,0.010949345442766469,0.014472728944383562
197,0.25,0.001,0.011762468252501053,0.008910922175157368,15.980065325978385,0.01140618510062697,0.016222254023887217
198,0.25,0.001,0.01177344589467118,0.009015068894878216,15.457944110221389,0.011033507573320049,0.015624004416167736
199,0.25,0.001,0.011867628718776575,0.008990360980397438,16.1242080981306,0.011509070733854819,0.039579469710588455
200,0.25,0.001,0.011846761114864428,0.009046769148333933,15.69115567504123,0.011199968361913797,0.025540716014802456
201,0.25,0.001,0.011866429240995423,0.00909110984119637,15.552890354172323,0.011101277911614792,0.025081503205001354
202,0.25,0.001,0.011847330995398685,0.008934272329527808,16.32478048791529,0.011652234466748958,0.02273812994826585
203,0.25,0.001,0.011769143594003812,0.009008457818497514,15.470882973730317,0.011042743021934559,0.01640840561594814
204,0.25,0.001,0.01180743724030454,0.008971177996039638,15.894396247705483,0.011345036579375791,0.01357214362360537
205,0.25,0.001,0.011676695549481884,0.008865181202092112,15.755726177168091,0.011246057228528259,0.01079552888404578
206,0.25,0.001,0.011769290731377374,0.008988989806923382,15.580807191207695,0.01112120427637951,0.014630531892180443
207,0.25,0.001,0.011747252157429442,0.008923408745390004,15.82481969144829,0.011295374512097282,0.018512717681005597
208,0.25,0.001,0.011692645793386514,0.008923446717073067,15.518591920369888,0.01107679651703775,0.020642285351641476
209,0.25,0.001,0.011785523954361554,0.008975424517827162,15.747798326104508,0.011240398519703432,0.028950429405085742
210,0.25,0.001,0.01172734836031416,0.008861876966207601,16.058102643341446,0.011461886255061704,0.02170776843558997
211,0.25,0.001,0.011673281432991206,0.008857652506331191,15.778784565905813,0.011262515750111215,0.012270623759832233
212,0.25,0.001,0.011619935067239144,0.008885347709461614,15.324627037364912,0.010938349063072743,0.01015423861099407
213,0.25,0.001,0.011690637970119096,0.00884625991164896,15.939895178767161,0.011377512618677489,0.01623702817596495
214,0.25,0.001,0.011760862776043504,0.008952108289103538,15.740260697993994,0.011235018342608132,0.02749986364506185
215,0.25,0.001,0.011719507308236296,0.008860421687735561,16.022315947346666,0.01143634257483702,0.021203037700615823
216,0.25,0.001,0.011738707558773612,0.008879083861824882,16.025331687135814,0.011438495137141909,0.012234266381710768
217,0.25,0.001,0.011670056262915313,0.008903374443317597,15.50448632537082,0.011066728283633705,0.0163244636496529
218,0.25,0.001,0.011655884818077335,0.008888272858414165,15.509696873391812,0.011070447447103364,0.012490078283008188
219,0.25,0.001,0.01166164347538686,0.008865427705014889,15.669992549785439,0.011184862633679828,0.012146069086156785
220,0.25,0.001,0.011753695464356806,0.008964425057203691,15.631071518070964,0.011157081740236234,0.017554142279550433
221,0.25,0.001,0.011694016653843441,0.00885490480331217,15.910382927700692,0.011356447485867732,0.011149487225338817
222,0.25,0.001,0.011607665429471439,0.008854017202661246,15.431444369905718,0.01101459269800551,0.015291593153961003
223,0.25,0.001,0.011689502707222686,0.008896511531129666,15.651922233866458,0.011171964478134516,0.022202385240234435
224,0.25,0.001,0.011616385109042478,0.00879842203682389,15.791865831588808,0.011271852841962034,0.016928036813624203
225,0.25,0.001,0.011580707153684124,0.008798034351581854,15.594098110911263,0.01113069101421218,0.014913827297277749
226,0.25,0.001,0.01164982261143903,0.008839210966810646,15.750668355538142,0.011242447077471907,0.016540996730327606
227,0.25,0.001,0.011608278521827395,0.008796840175769883,15.755300197363889,0.011245753174421048,0.016412375727668405
228,0.25,0.001,0.011588058090494381,0.008793918852582265,15.658356500364437,0.011176557102330077,0.011796841979958117
229,0.25,0.001,0.011514604910899,0.008770501855528948,15.377952828941503,0.010976411726582086,0.018992407713085413
230,0.25,0.001,0.011627408478764577,0.00884046448062317,15.61803456856502,0.01114777628020344,0.01362492551561445
231,0.25,0.001,0.01155907224044513,0.008716019357388445,15.932468750664802,0.01137221181346524,0.013173326035030186
232,0.25,0.001,0.011566451816390658,0.008791644504888918,15.550019576836423,0.011099228820011723,0.010152053146157414
233,0.25,0.001,0.011555479093613218,0.008807241128317054,15.401125456782298,0.010992951789280727,0.015952219953760505
234,0.25,0.001,0.011608308556014324,0.008828329687543924,15.579002752343648,0.011119916311451568,0.017150834086351097
235,0.25,0.001,0.011567405803724196,0.00873704020830482,15.86136939021067,0.011321462805289558,0.011464261158835143
236,0.25,0.001,0.011553941422076393,0.008730426249074986,15.82297928996106,0.011294060877916531,0.01691905630286783
237,0.25,0.001,0.011566142300414346,0.008768672695483905,15.677020171865882,0.011189878780775077,0.014321619528345764
238,0.25,0.001,0.01156765267376583,0.00877294508948984,15.661541325422737,0.011178830353620798,0.011785350041463971
239,0.25,0.001,0.011576501389818568,0.0087858623809556,15.63874058703664,0.011162555736642855,0.011854472337290645
240,0.25,0.001,0.011576552233848087,0.008763182185652097,15.766125698801888,0.01125348015617551,0.015067272703163326
241,0.25,0.001,0.011592618695989683,0.00883121267965844,15.474920359884555,0.011045624810766992,0.01318044273648411
242,0.25,0.001,0.011632480183268484,0.008822963808767528,15.744529728078248,0.011238065473289257,0.019739295705221593
243,0.25,0.001,0.011504890876377766,0.008681258634969406,15.823636383436527,0.01129452989538653,0.013547403155826032
244,0.25,0.001,0.011585762558110769,0.00886278521053153,15.259565891566613,0.010891909986842693,0.018771177623420954
245,0.25,0.001,0.011579086354844798,0.008716540983047229,16.041705365002898,0.011450182273378228,0.013153457781299949
246,0.25,0.001,0.01153886888593559,0.008753317330975502,15.610231466807765,0.011142206614423816,0.021333930199034512
247,0.25,0.001,0.011566622808761123,0.008751307092452445,15.777028562617005,0.01126126235732834,0.01545331277884543
248,0.25,0.001,0.011472251258512256,0.008698025814941562,15.546759288835327,0.011096901705093025,0.012802194920368493
249,0.25,0.001,0.011456401396496415,0.008735359916888579,15.248716342498653,0.01088416584047013,0.02015407115686685
250,0.25,0.001,0.011534711481284552,0.008768850153010663,15.499885808382786,0.01106344454559799,0.017420583055354655
251,0.25,0.001,0.011495057705990753,0.008743954385742854,15.417182388147378,0.011004412839505623,0.01273761794436723
252,0.25,0.001,0.01144635402191724,0.008669287476425844,15.562680806361788,0.011108266100186857,0.012826556339859962
253,0.25,0.001,0.01157735504936504,0.008795399612967405,15.590078417196313,0.01112782185381607,0.0188905542017892
254,0.25,0.001,0.011552752896030414,0.008711539251397506,15.922161592982121,0.01136485481297796,0.01913061481900513
255,0.25,0.001,0.011494147537191132,0.008656557703475735,15.901853462472497,0.011350359359366522,0.0139707614434883
256,0.25,0.001,0.011536524233048882,0.008761793583693346,15.549591032795886,0.01109892293561448,0.012072375509887934
257,0.25,0.001,0.011498027716867656,0.008614636416628152,16.15852484960279,0.011533565203142606,0.014050162280909717
258,0.25,0.001,0.011566890106068855,0.008807661004086254,15.462720281355608,0.011036916689047544,0.014302983414381742
259,0.25,0.001,0.011487869874292142,0.008653092916853943,15.88609108192792,0.01133910855241108,0.017702810815535486
260,0.25,0.001,0.011531680466846807,0.008797896975705485,15.320122995811873,0.010935134186874999,0.016262410441413522
261,0.25,0.001,0.01145714042607803,0.008687290834471645,15.522238082410883,0.011079399059536676,0.01640827558003366
262,0.25,0.001,0.011461703442964565,0.008649388229652189,15.760215561419601,0.011249261642697787,0.016342955525033176
263,0.25,0.001,0.011538791350432946,0.008726066469187806,15.762510030596088,0.011250899379440463,0.026532095507718623
264,0.25,0.001,0.011540884662156779,0.008779409125107206,15.475309894292682,0.011045902851029752,0.02499553735833615
265,0.25,0.001,0.011558683824829788,0.008733261952416284,15.833663667386004,0.011301687128755178,0.02563810080755502
266,0.25,0.001,0.011490131484893348,0.008664363749804463,15.835602855286657,0.011303071274294545,0.022330308333039284
267,0.25,0.001,0.011578991800484816,0.008798838146726497,15.579980945191442,0.01112061452190681,0.022464341018348932
268,0.25,0.001,0.011464875199178937,0.00866918620185857,15.667040963390557,0.011182755862520027,0.01617967407219112
269,0.25,0.001,0.011455270998890963,0.008691152743222307,15.490119510666464,0.011056473597906112,0.013678777497261763
270,0.25,0.001,0.011447101329062985,0.008603823421468874,15.933730097727162,0.011373112132567567,0.012459626770578325
271,0.25,0.001,0.01132286368594872,0.008632166311144829,15.078667581328713,0.010762789137279596,0.015158312977291644
272,0.25,0.001,0.011415567086754497,0.008699303705446205,15.221940329460683,0.010865053768351665,0.01843977509997785
273,0.25,0.001,0.01149134943454963,0.008646152067264828,15.944485794953785,0.011380789289760017,0.0199200336355716
274,0.25,0.001,0.011531911125692589,0.008775961894495607,15.444339942140697,0.011023797246353103,0.019097968470305204
275,0.25,0.001,0.011540806396280828,0.00872249474663952,15.793818465901609,0.011273246585225988,0.013750483049079776
276,0.25,0.001,0.0115304020353249,0.00873437266085776,15.668948976825382,0.011184117756477789,0.018639255198650062
277,0.25,0.001,0.011467270220772855,0.00863840471937696,15.852962786725943,0.01131546237453672,0.017497085849754512
278,0.25,0.001,0.01145650167404616,0.00870418969031686,15.42395721134803,0.011009248544859409,0.02000145334750414
279,0.25,0.001,0.01140200112525111,0.008642167764951579,15.466105401763283,0.011039332906326398,0.013714279513806105
280,0.25,0.001,0.011412788862633012,0.00865971182059512,15.42824390617149,0.011012308284205203,0.019371034228242934
281,0.25,0.001,0.01136048340250224,0.008584798738762304,15.554936761183363,0.011102738587568425,0.013014110154472291
282,0.25,0.001,0.011409143225533339,0.008711371219164356,15.118314723256217,0.010791088310675387,0.01438310369849205
283,0.25,0.001,0.011442412023289569,0.008602974685179494,15.912207923984132,0.011357750124185675,0.014067616313695908
284,0.25,0.001,0.01144039751459454,0.00862424259742575,15.781732487975315,0.011264619905763966,0.011520743719302118
285,0.25,0.001,0.011369047539610091,0.00864529763097214,15.263895311790877,0.010895000222548806,0.01579111989121884
286,0.25,0.001,0.01145719305160011,0.008707242380224817,15.410722819601352,0.010999802155318596,0.021520151291042566
287,0.25,0.001,0.011433254908074729,0.008545336317410113,16.18389543557068,0.011551674115325252,0.016389133990742266
288,0.25,0.001,0.011356771726516767,0.008596179945031143,15.470357376510178,0.011042367863319184,0.011907202540896833
289,0.25,0.001,0.01137561981345979,0.0086061357910826,15.520189158649366,0.011077936587187271,0.020098248263821006
290,0.25,0.001,0.011398952666871033,0.00860633971208235,15.649802417675984,0.011170451404479646,0.015856334124691784
291,0.25,0.001,0.011393141179225751,0.008723368717519822,14.961405425645504,0.010679090239575664,0.0171368308365345
292,0.25,0.001,0.011385796421605521,0.008554792472188403,15.864945653068574,0.011324015455437954,0.01231815293431282
293,0.25,0.001,0.011466911487683222,0.008695979861550312,15.528300198281949,0.011083726051593112,0.012136865349020809
294,0.25,0.001,0.011405985462344038,0.008672762237087324,15.316983195261342,0.01093289307299168,0.018644888885319233
295,0.25,0.001,0.011392601955048277,0.008599857884725842,15.650537957788998,0.01117097641526695,0.014224982412997633
296,0.25,0.001,0.011468372473887389,0.008668091217697408,15.692776735392844,0.011201125435683686,0.02060984924901277
297,0.25,0.001,0.011357719778118044,0.008570591961632625,15.619064418112094,0.011148511361964378,0.012010742211714387
298,0.25,0.001,0.011399518841437037,0.008630962930310564,15.51498707893973,0.011074223468193955,0.009949600673280656
299,0.25,0.001,0.011312664273925343,0.008522992404912022,15.633320313766289,0.011158686876349957,0.014001038740389049
300,0.25,0.001,0.011283806644967483,0.008581068134901434,15.146148095981708,0.010810955100629342,0.01598476094659418
301,0.25,0.001,0.01137695287226765,0.008535079271590562,15.925860389139642,0.01136749492443943,0.011746926582418382
302,0.25,0.001,0.011364411052579206,0.008574505993532195,15.634627579653412,0.011159619971201578,0.013933561160229146
303,0.25,0.001,0.011331134784920335,0.008568505089946431,15.481776898332651,0.01105051884249297,0.012461187085136771
304,0.25,0.001,0.01136479930202496,0.008580542014934958,15.602977285741275,0.011137028754990204,0.017774159205146134
305,0.25,0.001,0.011361134242405535,0.008568386083538354,15.650560557100288,0.011170992546110127,0.014023577445186675
306,0.25,0.001,0.011356466581187061,0.008549422684562281,15.730674351894015,0.011228175840038554,0.013593055657111108
307,0.25,0.001,0.011334120025433199,0.008578658745434769,15.441605524403426,0.011021845484941775,0.013966678990982473
308,0.25,0.001,0.011442605050520284,0.008691468716626098,15.41736893634084,0.011004545993105524,0.01666308520361781
309,0.25,0.001,0.01147153533423219,0.008623646595418701,15.959568272982395,0.011391554798702637,0.01798096625134349
310,0.25,0.001,0.011356927098945958,0.008600675817810896,15.446033351154249,0.011025005960852426,0.01683703251183033
311,0.25,0.001,0.011384242109923441,0.008594445824329413,15.63401936891168,0.011159185845047595,0.015566991758532822
312,0.25,0.001,0.011395530110511047,0.008563681664061249,15.869679249173872,0.011327394182136954,0.01506882649846375
313,0.25,0.001,0.011384394070079466,0.008605021627859456,15.575602519561642,0.011117489307324513,0.015826555783860385
314,0.25,0.001,0.011424652946131358,0.008577935652675965,15.953003847747423,0.011386869270340773,0.01721720048226416
315,0.25,0.001,0.011315377803975369,0.008571669946258494,15.375739378553208,0.010974831819095794,0.01042120112106204
316,0.25,0.001,0.011358891007069235,0.008558458822520442,15.693623261827652,0.011201729665829873,0.012360864668153226
317,0.25,0.001,0.01136533320877562,0.008530434414249733,15.886773683223486,0.01133959577674767,0.011696948204189539
318,0.25,0.001,0.011375010512089086,0.008611633701257686,15.485964968986037,0.011053508186285537,0.013938747346401215
319,0.25,0.001,0.011361353648092242,0.008502210683626011,16.022636991318826,0.011436571728278963,0.013784012291580439
320,0.25,0.001,0.011259671061056284,0.008528289914563978,15.306660284145245,0.010925524828083687,0.01272652018815279
321,0.25,0.001,0.011260153254285393,0.008506504084559397,15.431449395492363,0.011014596285148011,0.013833950273692608
322,0.25,0.001,0.011288898050228589,0.008479222624381054,15.745422007137314,0.011238702360554829,0.010357649996876717
323,0.25,0.001,0.011270820943800988,0.008470626973017618,15.692287065181494,0.011200775920900425,0.010882428148761392
324,0.25,0.001,0.01123509243424379,0.00849928082782327,15.331488759685849,0.01094324679492209,0.01385511492844671
325,0.25,0.001,0.011411411355392568,0.008622790172819774,15.627433697712371,0.01115448515182896,0.020627710851840675
326,0.25,0.001,0.01128492012419023,0.008454968294909387,15.859050074058944,0.011319807333375407,0.012757509655784816
327,0.25,0.001,0.011314541862744266,0.008583012207013196,15.307491532005216,0.01092611815275176,0.01112594548612833
328,0.25,0.001,0.011362655269932697,0.008508444918296396,15.99499461858599,0.01141684126951177,0.012379472609609365
329,0.25,0.001,0.011201512068510056,0.008354359789446182,15.955442052659157,0.011388609602183552,0.01487909839488566
330,0.25,0.001,0.01132664932285849,0.008612388107322805,15.210719832740878,0.010857044848494559,0.01943673158530146
331,0.25,0.001,0.011242980129738567,0.00840447956301983,15.90695660143967,0.011354001856844875,0.014066824922338128
332,0.25,0.001,0.011216633365763916,0.0085354488424153,15.025357420513739,0.010724737630630792,0.011165565578266978
333,0.25,0.001,0.01123759438789979,0.008473053242222897,15.492488584083146,0.011058164585355565,0.0118588472250849
334,0.25,0.001,0.011286978799215986,0.008514818804980066,15.535185125358867,0.01108864034643745,0.011620365374255925
335,0.25,0.001,0.011281811353978526,0.008555160047045882,15.280153757309023,0.010906605108714506,0.016489600879140198
336,0.25,0.001,0.011350311122494615,0.008534047091804846,15.782343298567776,0.011265055887628677,0.02192883112002164
337,0.25,0.001,0.011274468586528944,0.008465696025747977,15.740361621271031,0.011235090379208446,0.014990205876529217
338,0.25,0.001,0.011259963929158524,0.008517062896282965,15.371216493028824,0.010971603492525926,0.013945457059890032
339,0.25,0.001,0.011331171566365417,0.008562378770830225,15.516314150386826,0.011075170699776465,0.01397259917575866
340,0.25,0.001,0.011247772483842997,0.008419291607077191,15.850807146412704,0.011313923730487297,0.014470058493316174
341,0.25,0.001,0.011326248823236133,0.008610555121512828,15.21874851210978,0.010862775526131178,0.013763228431344032
342,0.25,0.001,0.011281632721671426,0.008388086739942988,16.21543199293841,0.011574184149135195,0.013075569178909063
343,0.25,0.001,0.011309128903872739,0.008534629693973608,15.548293822039213,0.011097997017872386,0.019339431659318507
344,0.25,0.001,0.01134778053743216,0.008612960221485479,15.325933828393453,0.010939281818981765,0.019716120208613575
345,0.25,0.001,0.011294978620538573,0.008480972113837469,15.769692013372524,0.011256025705476463,0.014125869784038514
346,0.25,0.001,0.011233991970350634,0.008477710912011842,15.44620020458807,0.011025125056808045,0.014294596738182008
347,0.25,0.001,0.011222459074434404,0.008411592085115395,15.75209843964003,0.011243467837002162,0.011680525378324091
348,0.25,0.001,0.0112941586663676,0.008446520959564264,15.958163779800858,0.011390552305353931,0.012701297411695123
349,0.25,0.001,0.011198805753311676,0.008476696471795749,15.254700466804978,0.01088843716402925,0.013919540331698954
350,0.25,0.001,0.011177916848776993,0.008394258722848418,15.599620146375473,0.011134632509903979,0.013844335451722145
351,0.25,0.001,0.011179493458099137,0.008460636640980035,15.236473989684551,0.010875427544385833,0.01741035864688456
352,0.25,0.001,0.011294667040967842,0.008565625067630249,15.29355213750942,0.01091616854925726,0.02001666312571615
353,0.25,0.001,0.011226068865275976,0.008394816330019617,15.866339236374218,0.011325010161580456,0.013294176082126796
354,0.25,0.001,0.011239776391675116,0.008470131273678972,15.521091294981137,0.011078580510336286,0.015338137047365308
355,0.25,0.001,0.011279058716109186,0.008551983325065914,15.282530899364424,0.010908301855363615,0.017298869672231376
356,0.25,0.001,0.011299605118072133,0.008411579058192578,16.184498236881748,0.011552104380358136,0.014275793568231165
357,0.25,0.001,0.011160980144909804,0.008407513622611884,15.430426763795719,0.011013866355314575,0.014362295740284026
358,0.25,0.001,0.011218502213289629,0.008508458845626517,15.18708424944106,0.010840174339358358,0.014688204741105437
359,0.25,0.001,0.011233776398157678,0.008413685972636172,15.80378664974355,0.011280361634363705,0.013106559752486646
360,0.25,0.001,0.011277038271681897,0.008520617485973846,15.446982834843679,0.011025683679403054,0.01598597737029195
361,0.25,0.001,0.011233922766513844,0.008446282027018763,15.621938167271278,0.01115056257478321,0.01670874690171331
362,0.25,0.001,0.011253098041375644,0.00850245069434163,15.414627589625441,0.011002589285956774,0.018457693280652165
363,0.25,0.001,0.011303314448361327,0.008515906582018399,15.620634253094305,0.01114963187230143,0.018628045916557312
364,0.25,0.001,0.011191555573237881,0.008456883132766886,15.325103922008973,0.010938689451826532,0.015822747722268105
365,0.25,0.001,0.011259401541713362,0.008448247569787057,15.7537073238262,0.011244616219718916,0.010629327734932303
366,0.25,0.001,0.01122334077799716,0.008432615764779173,15.63922268721078,0.011162899848116187,0.009344632911961526
367,0.25,0.001,0.011171290457743331,0.008422778606322049,15.402660615216647,0.010994047548334508,0.010139527381397784
368,0.25,0.001,0.011207233782069318,0.00841999366585768,15.619694199304858,0.01114896088458591,0.013505798880942166
369,0.25,0.001,0.011153796529281437,0.008427551962991721,15.277875065308884,0.010904978633339673,0.012675025500357151
370,0.25,0.001,0.011252463188532477,0.008515596443872234,15.337401568147651,0.010947467214951928,0.013683549128472805
371,0.25,0.001,0.011206291762810525,0.008340801241811503,16.058210135495514,0.011461962980367961,0.013643995975144207
372,0.25,0.001,0.011245272535815278,0.00848459748404402,15.470822638990473,0.011042699956452871,0.014881406910717487
373,0.25,0.001,0.011187545522367311,0.008351934671834791,15.890763175932697,0.011342443380394501,0.018711007898673415
374,0.25,0.001,0.011245098034561422,0.008492378637782023,15.426240109803766,0.011010878022700761,0.014479547156952322
375,0.25,0.001,0.01113326938753306,0.008391522064310387,15.364752037396569,0.010966989320054653,0.013402597047388554
376,0.25,0.001,0.011203164451164328,0.008504808188659521,15.12158909477139,0.01079342547806666,0.011957427253946662
377,0.25,0.001,0.011220791241872854,0.008407079950902473,15.768038318364948,0.01125484533787648,0.01882203936111182
378,0.25,0.001,0.011286698409290481,0.008465322662005781,15.810989585654864,0.011285502916241873,0.020274618291296065
379,0.25,0.001,0.011178380249385023,0.008424170527808151,15.434591712793374,0.011016839195427106,0.01604595431126654
380,0.25,0.001,0.011171957408367846,0.0084159815977656,15.444487888288696,0.011023902846744251,0.01392808009404689
381,0.25,0.001,0.011101792369393392,0.008340848339296476,15.47233030707015,0.01104377609355471,0.013518377672880888
382,0.25,0.001,0.011101775029790104,0.008366230065659987,15.329994043373963,0.01094217990247963,0.011666636448353529
383,0.25,0.001,0.01121757438414077,0.008485394506811848,15.311136233856075,0.010928719653002196,0.012554757064208388
384,0.25,0.001,0.011213553706145386,0.008345684701290863,16.0715384344837,0.011471476398632191,0.015800483408384025
385,0.25,0.001,0.011244164111239534,0.008451846561537616,15.648148034123464,0.011169270545412894,0.012669122661463916
386,0.25,0.001,0.011245267272490188,0.008410513014590592,15.885962866153955,0.011339017035084907,0.011698648100718856
387,0.25,0.001,0.011142476658912616,0.008466982201545565,14.993471240601599,0.010701978044683511,0.01376262737903744
388,0.25,0.001,0.011144084813405617,0.008381272921207288,15.482798236039665,0.011051247848707826,0.013496383908204734
389,0.25,0.001,0.011159350755489218,0.008435812152736661,15.262710492145965,0.010894154526870781,0.014730787952430546
390,0.25,0.001,0.011171167094214082,0.008369661647347246,15.699636269407154,0.01120602160557256,0.013596703065559268
391,0.25,0.001,0.011145159861080627,0.008334264939813199,15.752255297300726,0.011243579798216078,0.012171061418484896
392,0.25,0.001,0.011212509797878285,0.008448262822609472,15.49084079315059,0.01105698843194189,0.016118997358717024
393,0.25,0.001,0.01114018375046273,0.00829686868657586,15.933938441929481,0.011373260843632748,0.012669302523136139
394,0.25,0.001,0.011105075536519907,0.008367582052343243,15.340913614296815,0.010949974028762894,0.014133993943687528
395,0.25,0.001,0.011152443588089152,0.008382934949426483,15.520326234493018,0.011078034428617429,0.011219760519452393
396,0.25,0.001,0.011164687913977754,0.008371375620952533,15.653721441371808,0.01117324870904483,0.013775041326880455
397,0.25,0.001,0.011158048662190863,0.008371415007009298,15.616294765868128,0.011146534451012225,0.01232630992308259
398,0.25,0.001,0.011119087562892448,0.008364713951728898,15.43551004971706,0.01101749468216778,0.01254624081775546
399,0.25,0.001,0.011113860176806628,0.008360472975368322,15.429981520561757,0.011013548551435944,0.014177595963701606
400,0.25,0.001,0.011195945912871617,0.008502179683336825,15.09586609250777,0.010775065019634383,0.01586945098824799
401,0.25,0.001,0.011145973238027441,0.008349871780738791,15.669351846845318,0.011184405315378529,0.016255781520158052
402,0.25,0.001,0.011145644701429917,0.008329664975311993,15.7807520712065,0.011263920107927552,0.012640061788260937
403,0.25,0.001,0.011136131786211893,0.008404046613954904,15.310605393405773,0.010928340751895627,0.010773985763080418
404,0.25,0.001,0.011127223720565377,0.008347448711264183,15.577858208620697,0.011119099363754959,0.013440041802823544
405,0.25,0.001,0.011128847514321695,0.008409810101775708,15.237485715462459,0.010876149689837586,0.017468439415097237
406,0.25,0.001,0.011177043596676772,0.00837059721304297,15.727325890568777,0.01122578578912832,0.015768095734529197
407,0.25,0.001,0.011066780545404838,0.008338997148255589,15.286498129120506,0.01091113356825161,0.012234184774570167
408,0.25,0.001,0.011106760507735474,0.008349731336521657,15.450391571551437,0.01102811675342715,0.012905331910587847
409,0.25,0.001,0.011108440806880532,0.008363243826197391,15.384083498563015,0.010980787650651688,0.014431399875320494
410,0.25,0.001,0.011131191170190874,0.008332816010565184,15.68209428905946,0.011193500563211606,0.015265196678228676
411,0.25,0.001,0.01112627820015201,0.008361936743946986,15.491370003253097,0.011057366169345537,0.011703551397658885
412,0.25,0.001,0.011141164672727159,0.00839105619434499,15.411607948081622,0.011000433938673535,0.011486258241347969
413,0.25,0.001,0.011123093869150674,0.008308869118017774,15.770915340091182,0.01125689888657472,0.011763603775762022
414,0.25,0.001,0.011150316304345596,0.008463081018806,15.059267186524957,0.010748941603515316,0.012762226280756295
415,0.25,0.001,0.011141992483241677,0.008294973889543556,15.954692282617339,0.011388074434416372,0.013145796488970518
416,0.25,0.001,0.011157389904113479,0.008429806115283512,15.28537887953129,0.010910334674897423,0.011526855058036745
417,0.25,0.001,0.011079948681456914,0.008248962156660083,15.864848318930978,0.011323945980678785,0.012163092149421573
418,0.25,0.001,0.01108080608948014,0.00834487586116024,15.332153692285054,0.010943721407769488,0.016590052051469684
419,0.25,0.001,0.01113213380775511,0.00829734326498699,15.886165745525439,0.01133916184548568,0.013972226181067526
420,0.25,0.001,0.011078258017966856,0.00835497741861833,15.261265200698029,0.010893122912703803,0.017573640448972583
421,0.25,0.001,0.011110910372924507,0.008367331489858786,15.375016489464217,0.010974315838304223,0.013883877545595169
422,0.25,0.001,0.011099214356438994,0.00825811852990839,15.921502006499104,0.011364384016059317,0.009808831382542849
423,0.25,0.001,0.011067982639390898,0.008302953977261465,15.49522086891396,0.011060114824349722,0.00969101837836206
424,0.25,0.001,0.011081093416019842,0.008291577352249523,15.632448683141178,0.011158064727438384,0.011220504995435476
425,0.25,0.001,0.01105385155830517,0.008292201593425511,15.476286425135442,0.011046599875185897,0.010757790936622769
426,0.25,0.001,0.011208042680166074,0.008398767765534122,15.743176575023604,0.011237099625284514,0.012527117389254272
427,0.25,0.001,0.011130139911817811,0.008320117570243436,15.74736435284753,0.011240088760062477,0.01732522714883089
428,0.25,0.001,0.011084367810937874,0.008368719226189916,15.218494470683371,0.010862594197489915,0.01988149166572839
429,0.25,0.001,0.011165238194229444,0.008285657321083596,16.137171191298616,0.01151832347701543,0.019511841936036944
430,0.25,0.001,0.011088630393209299,0.008374003741766532,15.212767640584731,0.010858506524328859,0.015624761348590255
431,0.25,0.001,0.011169343703731708,0.008391188890422034,15.568780689318645,0.011112620049477976,0.015587600180879235
432,0.25,0.001,0.011075157065454607,0.008284861998655737,15.636813840430802,0.011161180471399574,0.014196377131156623
433,0.25,0.001,0.011062270934651007,0.008364624343812466,15.11761143395515,0.010790586319739578,0.016164940199814737
434,0.25,0.001,0.011081654671193158,0.008256823319122504,15.830355228724816,0.01129932564505697,0.012352759018540382
435,0.25,0.001,0.011060939027437036,0.008286854646388921,15.54596847518351,0.011096337241387231,0.012280787457711995
436,0.25,0.001,0.01109597784045821,0.008324595805860407,15.530825175685012,0.011085528319546761,0.011235529382247478
437,0.25,0.001,0.010987856927718117,0.008261242813790117,15.279944708733144,0.010906455894884471,0.011532561504282057
438,0.25,0.001,0.01102569281544799,0.008259774521920692,15.500206306267575,0.011063673309255942,0.011011924361810088
439,0.25,0.001,0.011100619652644727,0.008322345533435275,15.569447647981129,0.011113096108480464,0.015424942597746849
440,0.25,0.001,0.011035427230862413,0.008312899704357895,15.257046189050952,0.01089011148397641,0.011282306862995028
441,0.25,0.001,0.011030338905535298,0.008251853225389457,15.570633884287474,0.01111394281533724,0.010993246221914887
442,0.25,0.001,0.011015938196903195,0.008312278268742859,15.151310054098422,0.010814639581797588,0.012506163446232677
443,0.25,0.001,0.011004179321940508,0.008199662773935627,15.716511207992111,0.011218066529616069,0.012115475605241954
444,0.25,0.001,0.011025377584010733,0.008287148488322234,15.345035715221863,0.010952916284954935,0.012064525741152465
445,0.25,0.001,0.01104798035008284,0.00824524212968671,15.706544978984658,0.011210952875792046,0.014749512076377869
446,0.25,0.001,0.011008975099911333,0.008271265829067013,15.34212291685872,0.010950837199756402,0.015962102683261037
447,0.25,0.001,0.011071933889413771,0.008308625930757938,15.485578228329228,0.011053232140135066,0.014751619310118258
448,0.25,0.001,0.011142776011493195,0.008334306088040479,15.738666562123912,0.011233880486883592,0.019960832316428423
449,0.25,0.001,0.011100522176791524,0.008320331337757378,15.580189032178696,0.011120763049378084,0.016052598133683205
450,0.25,0.001,0.011179136869756513,0.008357086016012054,15.814773357755415,0.011288203681481382,0.018875589361414313
451,0.25,0.001,0.011072413516675289,0.008343080460592425,15.295182192473986,0.010917332043164873,0.018107043812051415
452,0.25,0.001,0.011113372310625072,0.008285856836657059,15.845396825386775,0.011310061973866364,0.017115580732934177
453,0.25,0.001,0.011061709861104914,0.008305160993424194,15.447699400399236,0.011026195146609019,0.02004553854931146
454,0.25,0.001,0.011030633361909646,0.008280127738212155,15.413834939853778,0.011002023511672933,0.013984759454615414
455,0.25,0.001,0.011044476212183964,0.00834536157486597,15.125837310221184,0.010796457751763872,0.01114003371912986
456,0.25,0.001,0.01101587906758073,0.008261126829349895,15.437631880099348,0.011019009193504174,0.011120350391138345
457,0.25,0.001,0.011049462103621099,0.008329584383061812,15.242195513238551,0.010879511429863348,0.016148167196661234
458,0.25,0.001,0.01102116908027918,0.008205881199308698,15.776873046431799,0.011261151353627265,0.015086069470271468
459,0.25,0.001,0.011106201111342896,0.008366056229084482,15.35577294440685,0.010960580260104817,0.015126342128496617
460,0.25,0.001,0.011073235743118767,0.008238428730239389,15.886258608078066,0.011339228128535378,0.016952470294199884
461,0.25,0.001,0.011131999743677274,0.008391406802514653,15.358283078522108,0.010962371933277737,0.013895686250180006
462,0.25,0.001,0.01104829735914825,0.008276366323418143,15.533901645929486,0.0110877242297855,0.012428119429387152
463,0.25,0.001,0.011025705807591128,0.008299980664247052,15.274963636121315,0.010902900525425635,0.01243892649654299
464,0.25,0.001,0.011055188585861095,0.008267088603862093,15.624513301611936,0.011152400643548848,0.012002920324448496
465,0.25,0.001,0.010981891083983217,0.008218581533190867,15.485585873552377,0.011053237597110905,0.012276106979697943
466,0.25,0.001,0.011012391314776111,0.008291518508893326,15.247771464937456,0.010883491409662709,0.013687738450244069
467,0.25,0.001,0.011063010424097297,0.008266503532335967,15.67162467038483,0.011186027601987744,0.012130176881328225
468,0.25,0.001,0.011096085073944197,0.008352746425729817,15.373670483031214,0.010973355091385592,0.018189009744673967
469,0.25,0.001,0.011067267978772583,0.0082484528661949,15.796639347472132,0.011275260062435498,0.012282777111977339
470,0.25,0.001,0.010981513202746875,0.008211377613957491,15.523839455917168,0.011080542081311326,0.012983194494154304
471,0.25,0.001,0.01106872505033041,0.008299566484616753,15.51836441958099,0.011076634132463233,0.01692072581499815
472,0.25,0.001,0.01101537483562696,0.008268763174020774,15.39201100931128,0.010986446116567652,0.017001394415274262
473,0.25,0.001,0.011039873132969086,0.008317829898067777,15.254329887168536,0.010888172653225222,0.0180685791419819
474,0.25,0.001,0.01103873935400574,0.008271128596173778,15.509690906002314,0.011070443187724707,0.020053402637131512
475,0.25,0.001,0.011011196999845416,0.00825629785610556,15.438454390561432,0.011019596281628432,0.015659283264540136
476,0.25,0.001,0.010956792717343544,0.008223811659142684,15.315625982165832,0.010931924327027717,0.01234276092145592
477,0.25,0.001,0.0110050902481643,0.008296350395902064,15.179778399803826,0.010834959600145487,0.012096153339371085
478,0.25,0.001,0.011088874299249214,0.00825214437769409,15.897034862724082,0.01134691995911783,0.010964330052956939
479,0.25,0.001,0.011036666079242695,0.008238931350734596,15.678506384252017,0.011190939603320498,0.01439954829402268
480,0.25,0.001,0.011057537095428008,0.008278452404832692,15.573992183099644,0.011116339888008312,0.015961563331075013
481,0.25,0.001,0.011151182059492313,0.00835255831789179,15.683486566504008,0.011194494337261962,0.016897648689337075
482,0.25,0.001,0.011023314781796141,0.008195994039263221,15.844305402510393,0.01130928294254846,0.01396167278289795
483,0.25,0.001,0.011010266291711835,0.008212611794131673,15.678056257888985,0.011190618313982145,0.01430179295130074
484,0.25,0.001,0.011041159540631217,0.008267471230592717,15.543749164248897,0.011094753150784366,0.01249279745388776
485,0.25,0.001,0.011026418060682622,0.008209671991340105,15.785044329789665,0.011266983818550796,0.01190623186994344
486,0.25,0.001,0.01096907362759237,0.008222799373334621,15.39012128188897,0.010985097274724461,0.011984899581875652
487,0.25,0.001,0.01098799370074668,0.008176419968983445,15.756059555591884,0.0112462951860042,0.011394998989999294
488,0.25,0.001,0.010992699059275177,0.008204588009608731,15.624575294399657,0.011152444892505109,0.017168436374049634
489,0.25,0.001,0.010978304267053287,0.008304615678938098,14.983350207696812,0.010694753895572314,0.020188712631352246
490,0.25,0.001,0.011055458375712647,0.008284746085707083,15.527072653236232,0.01108284985955477,0.016726239467971027
491,0.25,0.001,0.011027533850821964,0.008255208575812118,15.5361099599308,0.011089300471042684,0.014740973128937185
492,0.25,0.001,0.011010401086162977,0.008253422299114006,15.450109786512446,0.011027915622064559,0.010589653509669006
493,0.25,0.001,0.010976234064495416,0.008183121290908068,15.652604597732735,0.01117245153299981,0.011254167999140918
494,0.25,0.001,0.011005484039172592,0.00829381165307216,15.196213029726907,0.01084669024248887,0.012186346342787147
495,0.25,0.001,0.010984025238646016,0.008212956777654,15.52906880042365,0.011084274661258851,0.012766382074914873
496,0.25,0.001,0.01101809294113727,0.008234818717194297,15.597467802372217,0.011133096218681096,0.012757326243445277
497,0.25,0.001,0.011022846535219196,0.008214377778818003,15.738659755817588,0.011233875628706345,0.014209110289812088
498,0.25,0.001,0.011029510716308697,0.008254314826886437,15.552196890486721,0.011100782933966253,0.014330798760056496
499,0.25,0.001,0.011025733353098645,0.008294435260485069,15.306195635023949,0.010925193172750855,0.014880226808600128
500,0.25,0.001,0.011025014986512077,0.008214410858159243,15.750626152481775,0.011242416953948448,0.012956738122738898
