epoch,beta,learning_rate,train_loss,train_reconstruction_loss,train_kl_unnormalized,train_kl_normalized,mean_unclipped_gradient_norm
1,0.0,0.001,0.09548221528530121,0.09548221528530121,15.740123764090582,0.011234920602491493,0.1109859783734594
2,0.02,0.001,0.07371998092996965,0.0718391201023115,131.75435253458286,0.09404307818314266,0.19038900307246617
3,0.04,0.001,0.05756116405539556,0.047581048631066575,349.5535919469431,0.2495029207330072,0.14769662278039114
4,0.06,0.001,0.0523910910711376,0.04298035151094472,219.7407703224672,0.15684566047285312,0.11433198249765805
5,0.08,0.001,0.0471046681114293,0.04323145678830803,67.82962606587542,0.048415150653729776,0.14456516717161452
6,0.1,0.001,0.041851291552596134,0.03773867851550426,57.61770615883923,0.041126128593033,0.08402592263051442
7,0.12,0.001,0.03931032319407944,0.03556719005381295,43.70109043646296,0.031192784037446797,0.06915130173521382
8,0.14,0.001,0.03820082227434587,0.034512006737496874,36.914502380091115,0.02634868121348402,0.04743547870644501
9,0.16,0.001,0.03716018642170714,0.034342413682729826,24.67313001790178,0.01761108495210691,0.033315325688038556
10,0.18,0.001,0.036508364517480955,0.03392326223467468,20.120712280273438,0.014361679000908949,0.043001967881407054
11,0.2,0.001,0.03583900582626325,0.03314797802392496,18.85065353463549,0.01345514170923304,0.0528310513389962
12,0.22,0.001,0.034419958915458904,0.031625135639391906,17.797946369976078,0.012703744732316972,0.06848439334758691
13,0.24,0.001,0.0316259200009731,0.028492691012424066,18.29022307789654,0.013055119969947565,0.05384601466357708
14,0.25,0.001,0.029078489391628756,0.02521006626273514,21.678643585345068,0.015473692780403331,0.03276903568101781
15,0.25,0.001,0.027034564661460186,0.02289038717131549,23.223971690606632,0.016576710699933356,0.03514106598283563
16,0.25,0.001,0.02536902176814342,0.02114791270994812,23.655094531697966,0.01688443578279655,0.04471305531582662
17,0.25,0.001,0.023986744668779023,0.020115473094063068,21.694607095980864,0.0154850871491655,0.03083853144198656
18,0.25,0.001,0.023090497035225598,0.019133449865317127,22.175293406215282,0.015828189440553378,0.06457339759383883
19,0.25,0.001,0.021892061884250115,0.017806659204834097,22.894595819875736,0.016341610149804238,0.0321102999150753
20,0.25,0.001,0.020472438817997592,0.016415114044596297,22.737247677024353,0.016229298841559138,0.03514337719285062
21,0.25,0.001,0.02052938297322584,0.016452211980631046,22.84846855303563,0.016308685619582892,0.035598425061575005
22,0.25,0.001,0.020006300232142483,0.015932917945223665,22.82723404070653,0.01629352893697825,0.042955407207565646
23,0.25,0.001,0.019647893538578935,0.015648133796426135,22.414652868148384,0.015999038449784713,0.04213652114516923
24,0.25,0.001,0.019461678990393604,0.015631520522570393,21.464210895223356,0.015320635899517028,0.04844346855367933
25,0.25,0.001,0.01918108530615995,0.01540053326534022,21.18621210220757,0.015122207067956866,0.0441356578043529
26,0.0,0.001,0.014481357922521206,0.014481357922521206,28.01396193198108,0.019995690172720255,0.05596513833318438
27,0.02,0.001,0.013722552738468582,0.013057597511268537,46.580114907080976,0.03324776224631047,0.05049990476774318
28,0.04,0.001,0.013968986459076405,0.01216685709569159,63.11958445977727,0.045053236587992346,0.03936948919934886
29,0.06,0.001,0.014605081161706272,0.01180000097379772,65.49863066367053,0.046751342372355835,0.032460894036505906
30,0.08,0.001,0.01491331464585361,0.011850795546256074,53.63236873521717,0.038281490888805975,0.02590852403747184
31,0.1,0.001,0.015151233062011386,0.012389510494033132,38.69173217913426,0.027617224967262145,0.029412852733262947
32,0.12,0.001,0.015452401157160964,0.012682822028841448,32.33483946214029,0.023079828309878862,0.020525067911616394
33,0.14,0.001,0.015866249936436295,0.012697230614380006,31.71283025479098,0.022635853144033533,0.023041932045349052
34,0.16,0.001,0.01618188245375769,0.012428378498335496,32.866618357667136,0.02345939925600795,0.030446370265313556
35,0.18,0.001,0.0162631787376803,0.01261256027693322,28.41397915411433,0.020281212815213653,0.03481059521436691
36,0.2,0.001,0.01640830147977269,0.012702361672023021,25.960111775529494,0.01852970148146288,0.0267656377649733
37,0.22,0.001,0.01650617690329705,0.012630857467446306,24.678738795289206,0.017615088362090796,0.0192277513976608
38,0.24,0.001,0.01686872953737001,0.01271864826526117,24.226101674071145,0.01729200690511859,0.023100994527339935
39,0.25,0.001,0.016803423438323747,0.012844798061142275,22.18413650442701,0.01583450143071164,0.025849793971117054
40,0.25,0.001,0.01680607587919323,0.01289820428425019,21.89971309626868,0.015631486863860587,0.025417725688644817
41,0.25,0.001,0.01664460534144432,0.012764558042271421,21.74378321586399,0.015520187877133468,0.04070863473628249
42,0.25,0.001,0.01655007039256599,0.01274961969652854,21.297726132454127,0.015201803092401232,0.040154103455798965
43,0.25,0.001,0.01645127834256636,0.01260242148071801,21.568994242116947,0.015395427724565987,0.02976812262620245
44,0.25,0.001,0.016301696197292128,0.012505946552739778,21.2713817981405,0.015182999142141685,0.027724235451647213
45,0.25,0.001,0.015936286966188238,0.01217287230313918,21.09017708104685,0.01505365958675721,0.02630073337682656
46,0.25,0.001,0.01575457270539135,0.012218471633595063,19.816307662823878,0.014144402328924966,0.020517195042754923
47,0.25,0.001,0.015921983372317542,0.012251308153665394,20.570463548012828,0.014682700605291098,0.022790900830711638
48,0.25,0.001,0.015619892515925639,0.011860172571870713,21.06947030933625,0.015038879592673983,0.016951305326074362
49,0.25,0.001,0.01544987577774109,0.011901031308081171,19.887723870233657,0.01419537749481346,0.022452236818415777
50,0.25,0.001,0.015517594318392627,0.01201418216485496,19.633121472979905,0.014013648446095579,0.03488626064998763
51,0.0,0.001,0.011117525825943423,0.011117525825943423,25.18796528807474,0.01797856194723393,0.03415035004062312
52,0.02,0.001,0.010695379295753777,0.010086989209671085,42.61773013193673,0.030419507588819936,0.027416502391653403
53,0.04,0.001,0.011128076779391241,0.00946533124586311,58.237665718848554,0.04156864077005607,0.015140278930110591
54,0.06,0.001,0.011694987928238483,0.009213125777490642,57.95147904562294,0.04136436762713986,0.011961171137435096
55,0.08,0.001,0.011928243408782766,0.009326359128938356,45.56549782709244,0.0325235530528854,0.015351501093911273
56,0.1,0.001,0.012081908677285964,0.009806037607064487,31.884951460252115,0.02275870910796011,0.018278267234563828
57,0.12,0.001,0.012415194866854117,0.010142877065670599,26.529312116290452,0.018935982952384335,0.017730529686169966
58,0.14,0.001,0.01278962082135568,0.010045838097981903,27.457425406219762,0.0195984478274231,0.013699790995035852
59,0.16,0.001,0.013017019120241525,0.01000205226618489,26.39980365158221,0.018843542934748186,0.019241970498114824
60,0.18,0.001,0.013299132910890316,0.010147350968434176,24.53136832560968,0.01750989887623817,0.019873856167708124
61,0.2,0.001,0.013453901668480777,0.010239081961367654,22.519811262778187,0.01607409797485952,0.015575382060238294
62,0.22,0.001,0.013688386520456284,0.010277600634262102,21.72050449826302,0.015503572090123496,0.012913670590413468
63,0.24,0.001,0.013743311807581591,0.010312466617297688,20.02755837046772,0.01429518798748588,0.015152199193835258
64,0.25,0.001,0.014032084828054686,0.010561239700593533,19.450615961617284,0.013883380415144387,0.02709728466080768
65,0.25,0.001,0.013976270144959108,0.010421313849542665,19.921974462106686,0.014219824740975507,0.023185482315186943
66,0.25,0.001,0.013935116999739901,0.010493389817826245,19.2874403087371,0.013766909570833048,0.02235261324260916
67,0.25,0.001,0.013776040653091504,0.010410742612060058,18.85913057939722,0.013461192419269965,0.023980286637587205
68,0.25,0.001,0.01379236598593106,0.010414984171201876,18.926847860353803,0.013509527380695076,0.022967999135809287
69,0.25,0.001,0.01365796747455083,0.010349442080141755,18.54097693557039,0.013234102023961735,0.014485770969518594
70,0.25,0.001,0.013540661500749784,0.010219655555049214,18.610917082620322,0.013284023613576246,0.015025320595928602
71,0.25,0.001,0.01346837275516276,0.01024550617322189,18.0609454233712,0.01289146711161399,0.019766192617160932
72,0.25,0.001,0.013443198584772031,0.010123119057250132,18.605726067079317,0.013280318391919569,0.022489604806261405
73,0.25,0.001,0.013383065581048301,0.010067715745316733,18.579219853112455,0.01326139889586899,0.021911356465092728
74,0.25,0.001,0.013360951070186741,0.01014952645252604,17.996824492008315,0.012845699137764678,0.016026721069855348
75,0.25,0.001,0.013229839572119057,0.00997181872435666,18.257949479129337,0.013032083853768264,0.015175435958164079
76,0.0,0.001,0.009559330316858555,0.009559330316858555,21.59691637371658,0.015415357868462942,0.02341352083853313
77,0.02,0.001,0.00919451034807284,0.008661117156916255,37.364200487049345,0.026669664872983116,0.018654961870717152
78,0.04,0.001,0.00961812448884369,0.008197998179447486,49.73992223477145,0.035503156484490685,0.010144324574087347
79,0.06,0.001,0.010154938068958598,0.008109390248604324,47.763545465031896,0.03409246642757451,0.009782302991620131
80,0.08,0.001,0.010396077186552756,0.008314449540894785,36.454507145312945,0.026020347712571695,0.014111486064004046
81,0.1,0.001,0.010579606945361567,0.008624542743787853,27.390450906316076,0.019550643045193487,0.009664543039564575
82,0.12,0.001,0.010876784724858375,0.008823170130132535,23.975951798465275,0.017113455958933103,0.011591985089970487
83,0.14,0.001,0.011208068545258373,0.008774705709667381,24.351010733788165,0.01738116397843552,0.010397368709423713
84,0.16,0.001,0.011479448356212826,0.008803770236602617,23.428907254420288,0.016722988761185074,0.008032078921262707
85,0.18,0.001,0.011795006196843375,0.009012530412559115,21.656937100471705,0.01545819921518323,0.012183262035250664
86,0.2,0.001,0.012141860884810807,0.009153792104863246,20.931420614959997,0.01494034305136331,0.01160642910482628
87,0.22,0.001,0.012275547805934324,0.009098398131788324,20.232667433012516,0.01444158988794612,0.010619718514915024
88,0.24,0.001,0.012590186559347384,0.009340105902984602,18.972345229682574,0.013542002305269503,0.00921014416962862
89,0.25,0.001,0.012670696345627855,0.00930119415215396,18.88269153210001,0.013478009658886517,0.01228580650474344
90,0.25,0.001,0.012599281778712884,0.009311921621134521,18.422365748554196,0.013149440220238541,0.015670125306184803
91,0.25,0.001,0.012605163140581289,0.009332776881344275,18.338451875459164,0.013089544522097905,0.011601349338889122
92,0.25,0.001,0.012617519338948464,0.00932787188730382,18.43518411128893,0.013158589658307587,0.011844516864844732
93,0.25,0.001,0.012625589983862474,0.00936320781229286,18.28239017451575,0.013049529032488044,0.012333670631051064
94,0.25,0.001,0.01255309804761355,0.00935734813571523,17.908983003108872,0.012783000002219038,0.016335147033844675
95,0.25,0.001,0.01257064531839222,0.009357093876108117,18.008741168800842,0.012854204974161915,0.011861725045101983
96,0.25,0.001,0.012415509295026097,0.009181781321627284,18.12181243546512,0.012934912516391948,0.014282326413584607
97,0.25,0.001,0.012523065586019,0.009361973220328673,17.714760859078222,0.012644368921540488,0.01636351684906653
98,0.25,0.001,0.012429932952610724,0.0092081057608401,18.055120100668812,0.012887309136808574,0.014028773776122503
99,0.25,0.001,0.01233014900134791,0.009197241310542876,17.556816171068665,0.012531631813753509,0.01007690912644778
100,0.25,0.001,0.012382952137551176,0.009238346479833126,17.62236974873674,0.012578422375971978,0.013886430167726107
101,0.25,0.001,0.012379630067206304,0.009156862316533513,18.060391032367672,0.012891071400690702,0.01686738577804395
102,0.25,0.001,0.012202292484222749,0.00910785145750013,17.34124754109514,0.012377764126406237,0.011169282120785542
103,0.25,0.001,0.012307409111649618,0.009223078480075806,17.284588245076872,0.012337322087849302,0.01290001520620925
104,0.25,0.001,0.012264492468686279,0.009090235960934686,17.78853309701342,0.012697025765177316,0.015729384563331093
105,0.25,0.001,0.012214488016629438,0.00913606831000759,17.251464091309714,0.012313678866031201,0.016349164303392172
106,0.25,0.001,0.012232798100406424,0.009142240586289025,17.31948525315031,0.012362230730300008,0.015213159711233206
107,0.25,0.001,0.01215288084034526,0.009024442276071519,17.531770338705922,0.01251375470285933,0.011793990087296282
108,0.25,0.001,0.01212302109209496,0.009096373598851742,16.96133391354062,0.012106590944711363,0.013432191551796027
109,0.25,0.001,0.01223217543863922,0.009096181105583086,17.57411374083353,0.012543978401736993,0.01691964514819639
110,0.25,0.001,0.012224277985547113,0.009099360145286683,17.51203995450921,0.012499671630627558,0.020700301176735332
111,0.25,0.001,0.012083899520269227,0.0089631908564666,17.488451896457498,0.01248283504386688,0.014111103689564126
112,0.25,0.001,0.012061802593461417,0.009025880118507312,17.01330940876532,0.01214368979926147,0.015513163192995958
113,0.25,0.001,0.012133740392778444,0.009038651849083397,17.34487577315864,0.012380353870919802,0.015097766715501035
114,0.25,0.001,0.012073859709118484,0.008964960540243245,17.422270258632274,0.01243559618746058,0.012823651611272777
115,0.25,0.001,0.012090267733149572,0.009009810788300605,17.262880762782665,0.012321827810694264,0.011890229902097158
116,0.25,0.001,0.012031708809829086,0.008875457270908247,17.687633531902907,0.012625006089866457,0.013562281083847796
117,0.25,0.001,0.011955382738159884,0.008881004903157916,17.22881451877979,0.012297512147594425,0.010677320683108909
118,0.25,0.001,0.011949826049011781,0.008820634036230932,17.535992403642847,0.012516768310951354,0.013386425096541643
119,0.25,0.001,0.01208629297656477,0.009015795766213619,17.207066964665685,0.012281989268141103,0.013596619479358196
120,0.25,0.001,0.012029447225392412,0.008851343415540839,17.810094133429573,0.012712415512797696,0.01766981982759067
121,0.25,0.001,0.011913453015165592,0.008884787670584447,16.972639748809534,0.012114660777165977,0.017032004626733915
122,0.25,0.001,0.011860485932012216,0.008806772743684983,17.11300841165245,0.012214852542221592,0.014327668318791049
123,0.25,0.001,0.011844362431299795,0.008828105234088154,16.903104510876016,0.012065028201910076,0.013951717277190514
124,0.25,0.001,0.011874085514370454,0.008779572041004623,17.341653246398366,0.012378053709063787,0.016334890121860162
125,0.25,0.001,0.012047951588185009,0.008978302727256892,17.20231337941021,0.012278596273668958,0.028245073543595418
126,0.25,0.001,0.011975531175800967,0.008922810358670326,17.10744835039891,0.012210883904638765,0.020529006474784443
127,0.25,0.001,0.011886182881960082,0.008767174283435585,17.478923675117144,0.012476034029348425,0.01835582298891885
128,0.25,0.001,0.011891985491533344,0.008844657818180158,17.07722457395781,0.01218931090218259,0.015258180110582284
129,0.25,0.001,0.011883257922434479,0.008807704348219644,17.23540295592142,0.012302214815075959,0.017802367186439887
130,0.25,0.001,0.011843972694162928,0.008747794289449487,17.350984783347595,0.01238471433500899,0.014381511669073786
131,0.25,0.001,0.011668198528366352,0.00858417331933155,17.282878105793525,0.012336101431687027,0.009495525155216455
132,0.25,0.001,0.011723634710005664,0.008762174576452566,16.596022772132805,0.011845840665333908,0.016879843547940254
133,0.25,0.001,0.011768210653659947,0.00871813844103332,17.092605783305036,0.01220028963833336,0.013017453918499606
134,0.25,0.001,0.011730293828754797,0.008643702432991715,17.297257677130744,0.012346365222791394,0.010604043225092548
135,0.25,0.001,0.011675932812034537,0.008697186212200638,16.69289511934333,0.011914985809666902,0.011519733949431352
136,0.25,0.001,0.011662182970604765,0.008633577461362979,16.97230540284323,0.012114422129081533,0.01309238447408591
137,0.25,0.001,0.011777479791108075,0.008644314568250551,17.55825728670173,0.012532660447324574,0.014233756278242384
138,0.25,0.001,0.01165364464796191,0.008649240726382908,16.836679686100112,0.01201761576452542,0.015296202818197864
139,0.25,0.001,0.011691684962822756,0.008668287879351628,16.943117054230576,0.012093588190028962,0.015588428625570876
140,0.25,0.001,0.011635717935860157,0.008564164733873048,17.21298462753996,0.012286213153133448,0.011894142787371362
141,0.25,0.001,0.011503942908907156,0.008509661258975848,16.779955417738048,0.01197712735027698,0.009516036004892417
142,0.25,0.001,0.011523019693313388,0.008551683862172409,16.651366890023606,0.011885343961472953,0.014614262618124485
143,0.25,0.001,0.011496650037962363,0.008519311495330355,16.685005800439676,0.01190935460416822,0.014855418088180678
144,0.25,0.001,0.01159755396870298,0.008640077349584583,16.573699723689927,0.011829907011912867,0.016586685287100927
145,0.25,0.001,0.011607825260506858,0.008557964364117985,17.09141974492904,0.01219944307275449,0.014910901098379068
146,0.25,0.001,0.011650641969994668,0.008584005664179632,17.18543070171951,0.01226654582563848,0.015077744078423296
147,0.25,0.001,0.011611981197781519,0.008585550241309022,16.960119859887918,0.012105724382503867,0.010586575072790896
148,0.25,0.001,0.011694659325166033,0.008625242474634167,17.20101134273984,0.012277666911306094,0.012153270920472485
149,0.25,0.001,0.011472400927215541,0.008416019448446572,17.12796134248786,0.012225525583503113,0.008118551024901015
150,0.25,0.001,0.011541680253426964,0.008506791221849415,17.00751798087304,0.012139556017753775,0.017744380315499648
151,0.25,0.001,0.011526158284566818,0.00863181832972743,16.219880987744812,0.011577359734293228,0.015690236751522337
152,0.25,0.001,0.01151267467322973,0.008447853925236322,17.175255871694024,0.012259283277440417,0.010452702242348875
153,0.25,0.001,0.011584532677853874,0.00855407277720237,16.982697460629524,0.012121839729214507,0.01023476111835667
154,0.25,0.001,0.011622493642322514,0.008582111037925843,17.038303865205258,0.012161530239261425,0.014697634215865816
155,0.25,0.001,0.011580785762074344,0.008558241009643865,16.93834136822902,0.012090179420577458,0.018579086155763695
156,0.25,0.001,0.011535820935707573,0.008506208854735992,16.977944592817114,0.012118447246835912,0.014567626507154532
157,0.25,0.001,0.011554442021414774,0.00849192764678406,17.1623310824053,0.012250057874664738,0.014872885309159756
158,0.25,0.001,0.011502571164741428,0.008447823900763594,17.11880312928366,0.012218988671865567,0.01175469599132027
159,0.25,0.001,0.011554830750330872,0.008542739675132506,16.879759884755547,0.01204836537098897,0.012491119094192982
160,0.25,0.001,0.011444636654758126,0.008372079444314362,17.2186123034276,0.012290230052410851,0.013465370849839278
161,0.25,0.001,0.011509131076275755,0.008482372012296948,16.96195840398106,0.012107036690921528,0.015465689956077508
162,0.25,0.001,0.011485897038781315,0.008468636388488866,16.90872881828098,0.01206904269684581,0.00899084344772356
163,0.25,0.001,0.011523175172917887,0.008484198011184505,17.030427784001063,0.01215590848251325,0.010547390540263482
164,0.25,0.001,0.011399588086257835,0.008339872079636526,17.146648284492144,0.012238863871871623,0.009902661134089743
165,0.25,0.001,0.011392022414696872,0.008415615767103816,16.679782814935805,0.011905626563123344,0.00896896654739976
166,0.25,0.001,0.011331831011066744,0.008323367821787475,16.859427198357537,0.012033852389976828,0.010839425027370453
167,0.25,0.001,0.011378686678587296,0.008399883695288535,16.69321166922193,0.011915211755333284,0.013185834778206689
168,0.25,0.001,0.011456804768686447,0.008437046695739851,16.92272455757911,0.012079032517900863,0.013648811993854386
169,0.25,0.001,0.011382057758714629,0.008326563488589515,17.122989514552124,0.012221976812671037,0.010464458992438657
170,0.25,0.001,0.01137341558933258,0.008364960517084926,16.859382524402864,0.01203382050278577,0.011313911793487412
171,0.25,0.001,0.011362027530686571,0.008401120671096746,16.592921895718355,0.011843627334559854,0.012627662159502506
172,0.25,0.001,0.011485270549192888,0.008401585289986309,17.280972961985736,0.012334741585999811,0.012777053218867098
173,0.25,0.001,0.011388039088235536,0.008334940222493552,17.109566837275793,0.012212396029461664,0.012888591603509017
174,0.25,0.001,0.011382192920107361,0.008444999225027517,16.460033959205,0.011748775131481084,0.014051382163805621
175,0.25,0.001,0.011404404792627063,0.008329960564578619,17.229184964381226,0.012297776562727498,0.012600697443953581
176,0.25,0.001,0.011366010464112694,0.008318268967399357,17.079542912474466,0.012190965676284415,0.013120991310903005
177,0.25,0.001,0.011334535520557963,0.00839497238705191,16.47331233418316,0.011758252915191406,0.008921570942870207
178,0.25,0.001,0.01126138193515736,0.008259322989834558,16.823537966526978,0.012008235522146308,0.01116499597472804
179,0.25,0.001,0.011366732999545718,0.008393095652444647,16.664264906437026,0.01189455025441615,0.011279026445533549
180,0.25,0.001,0.011332086748828034,0.008264028586857363,17.193399096847674,0.012272233473838453,0.011673142069152423
181,0.25,0.001,0.01121194041205929,0.008214148445003623,16.799626420397278,0.011991168037399913,0.008513326490564006
182,0.25,0.001,0.011224286904165505,0.008294635413881016,16.41776709600326,0.011718606064242156,0.010781584972781795
183,0.25,0.001,0.011224822901667805,0.008270932220503551,16.55360393349184,0.011815563121692962,0.010715031530708075
184,0.25,0.001,0.011253157314425761,0.00823745657818033,16.899988174438477,0.012062803836144522,0.0126101446471044
185,0.25,0.001,0.011190119720653657,0.00822591952501087,16.611378381011683,0.011856801128487996,0.01160261154706989
186,0.25,0.001,0.011308574724361437,0.00834234072100542,16.622775541533024,0.011864936146704514,0.016523695018674647
187,0.25,0.001,0.011276361122385625,0.008195856107621018,17.263149821430172,0.012322019858265648,0.014220274585698332
188,0.25,0.001,0.011235364106133443,0.008312384751753523,16.380376255840336,0.011691917384611231,0.013570140581578016
189,0.25,0.001,0.011336878258222287,0.008359368608563865,16.68596421687975,0.01191003869870075,0.013754028560859817
190,0.25,0.001,0.011277685967197111,0.008194074222664221,17.28056086968938,0.012334447444460658,0.01112287092421736
191,0.25,0.001,0.011203500655812954,0.008215650779391648,16.743910395770992,0.011951399283205563,0.013451512038175548
192,0.25,0.001,0.011294979696085146,0.008286492796529323,16.859559802834045,0.012033947039852994,0.017760550337178365
193,0.25,0.001,0.01127837591488427,0.008256302616738398,16.9356989641802,0.01208829333631706,0.018784351513854096
194,0.25,0.001,0.01127248831571789,0.008293279207422646,16.69548745111588,0.011916836153544526,0.016428752270128046
195,0.25,0.001,0.011269623926336613,0.00822995456550783,17.034306902404225,0.012158677303643273,0.01836977739419256
196,0.25,0.001,0.011296710195959708,0.008336837873409648,16.587124360810726,0.011839489194011938,0.01639561794166054
197,0.25,0.001,0.011234074933539838,0.008199648453144852,17.00492715398106,0.012137706748023598,0.014449525624513626
198,0.25,0.001,0.011256970550625696,0.008277593505218488,16.696428316448806,0.011917507720520203,0.013188947923481464
199,0.25,0.001,0.011281281487520682,0.008287578509317352,16.7767117351567,0.01197481208790628,0.015299896709620953
200,0.25,0.001,0.011203834889542073,0.008179596172423538,16.947832632502283,0.012096954056033036,0.01650068842406784
201,0.25,0.001,0.011217622547794919,0.008240461870686177,16.68400869457,0.011908642894054248,0.01087867162589516
202,0.25,0.001,0.011127968216229469,0.008103723919719731,16.94786463746237,0.012096976900401407,0.012410266724015986
203,0.25,0.001,0.011132082543036806,0.0081148986755913,16.90829877240942,0.012068735740477817,0.012382052705756255
204,0.25,0.001,0.011217614140259017,0.008257280949742422,16.589706945856776,0.011841332580911332,0.013104576750525407
205,0.25,0.001,0.01118583160392735,0.008133706585461394,17.104109020408142,0.012208500371454777,0.015379181397812707
206,0.25,0.001,0.01111872284032336,0.008114152818644813,16.837610454734314,0.012018280124721137,0.01463677454739809
207,0.25,0.001,0.01107698746469863,0.008144559368593703,16.433327508628913,0.011729712711369675,0.01287303785128253
208,0.25,0.001,0.011146009455375168,0.00820288784938668,16.49325383037602,0.011772486674072819,0.011877303277807576
209,0.25,0.001,0.011146113139773728,0.008152981280186855,16.773511291643896,0.01197252768853954,0.01572951102363212
210,0.25,0.001,0.011038370507367707,0.008111972583953393,16.399534085474976,0.011705591781209832,0.008645007785941874
211,0.25,0.001,0.01105859140874049,0.008123273474224117,16.449522525892345,0.011741272323977404,0.009318930562585592
212,0.25,0.001,0.011061829420814821,0.008058050579024017,16.833174854243566,0.012015114100102474,0.011143689842096396
213,0.25,0.001,0.01103272541947321,0.008013533821346563,16.9195499420166,0.012076766553901929,0.009989931647266661
214,0.25,0.001,0.01103324036395878,0.008115418725262542,16.351472574636478,0.011671286634287278,0.011200577153691224
215,0.25,0.001,0.011043359790373287,0.008082266204879372,16.593969117610825,0.011844374816281818,0.009989091993442603
216,0.25,0.001,0.011101037844878817,0.008124451110259109,16.68079267729313,0.011906347378510443,0.011138764476137502
217,0.25,0.001,0.011140233640550473,0.008062355694523371,17.24842774977378,0.012311511598696487,0.012637870253196784
218,0.25,0.001,0.01107853907374067,0.008108579152084272,16.643655199523366,0.01187983954284323,0.012009413048092808
219,0.25,0.001,0.011081583627046795,0.008070749136696169,16.872717988600424,0.012043339035403586,0.011635111644864082
220,0.25,0.001,0.011058406630923988,0.00804913546804578,16.86395632017643,0.012037085167863263,0.011595838703215122
221,0.25,0.001,0.010993722005995042,0.008024865992093852,16.63746839050853,0.011875423547829073,0.011840839338089739
222,0.25,0.001,0.011008424274281624,0.007994675197117372,16.88905016872861,0.012054996551555038,0.014561609631138188
223,0.25,0.001,0.010988795916216636,0.007981187621251159,16.854636673533587,0.012030433028931897,0.011951772562627281
224,0.25,0.001,0.011028178429248137,0.00811746656689622,16.311629391591485,0.011642847531471438,0.012378085870295763
225,0.25,0.001,0.01102038771939387,0.0079977640096064,16.938783523139605,0.01209049502008537,0.011756281767572676
226,0.25,0.001,0.010962795756688905,0.007975055643895624,16.743295809544556,0.011950960606384408,0.011603726872376032
227,0.25,0.001,0.011045766532967944,0.00810190759291616,16.49738645991054,0.011775436445332292,0.014329268863158566
228,0.25,0.001,0.011059916296273196,0.008068371529972881,16.764618357387157,0.011966180126614673,0.01610628967838628
229,0.25,0.001,0.011049389266708029,0.008095071044400198,16.55600049080105,0.011817273726481834,0.010537912669990743
230,0.25,0.001,0.011021460859327141,0.008046367564537657,16.672423738952077,0.011900373832228464,0.012864139596266406
231,0.25,0.001,0.011072959161337909,0.008040443421640528,16.994217776377265,0.012130062652660431,0.01429009171468871
232,0.25,0.001,0.011118850149556037,0.008106503122990284,16.88119435091631,0.012049389258327131,0.015735198078410968
233,0.25,0.001,0.011011134790376239,0.008072558055640361,16.467784041658454,0.011754306953360782,0.013382734331701483
234,0.25,0.001,0.010949372288283951,0.008014000619018297,16.449822592079094,0.011741486503982223,0.012745220746312822
235,0.25,0.001,0.010981870883511841,0.007970696097291117,16.874622922424876,0.012044698731209762,0.0093980581233544
236,0.25,0.001,0.010925258637978396,0.007967849672182437,16.57332068627034,0.01182963646414728,0.0107852493944977
237,0.25,0.001,0.010990965376616618,0.00806739082166908,16.383712051111623,0.011694298394797732,0.009681553313774722
238,0.25,0.001,0.01100146505605737,0.007983525813377778,16.912531266518688,0.012071756792661446,0.014320249536207743
239,0.25,0.001,0.011038729032381959,0.008088236324352408,16.534561104730727,0.011801970809943416,0.01687044503965548
240,0.25,0.001,0.011113775321581495,0.008107956823542577,16.84460585707918,0.012023273274146453,0.01772565926824297
241,0.25,0.001,0.011023348727084081,0.007958827412114778,17.173578139838824,0.012258085752918504,0.014074674807488918
242,0.25,0.001,0.010870321901566391,0.00793711628354744,16.437684549104183,0.011732822661744599,0.011773251396204745
243,0.25,0.001,0.0109540509367618,0.008035317678517158,16.356580576765428,0.011674932602973183,0.015740551320569857
244,0.25,0.001,0.010953296215162365,0.007945072691921793,16.858085982296444,0.012032895062310096,0.01341685067330088
245,0.25,0.001,0.01088561085180952,0.007901193941473414,16.72467294745489,0.011937668056712985,0.016016157743121897
246,0.25,0.001,0.010952413295728897,0.0080594260399358,16.212300536829396,0.011571948991312916,0.011645153697047914
247,0.25,0.001,0.010881665718117986,0.007880590249433977,16.818027706321228,0.012004302431349912,0.009210568187492234
248,0.25,0.001,0.01096455494813416,0.008012726321953153,16.542047430615906,0.01180731436874797,0.009941450852368559
249,0.25,0.001,0.01089904765777905,0.007838822709003447,17.14950045314404,0.012240899681044996,0.010331279199038233
250,0.25,0.001,0.010986409500377988,0.008010358870063626,16.677786695847818,0.011904201781475958,0.013490663708320685
251,0.25,0.001,0.010903483752263795,0.007910479355705987,16.772795545945474,0.011972016806527819,0.013197426817246847
252,0.25,0.001,0.010886757916540181,0.00792703263188174,16.58630117363886,0.011838901622868565,0.01187170549694981
253,0.25,0.001,0.010951383107709229,0.008015936727575753,16.450242121285253,0.011741785953808174,0.011079540875341212
254,0.25,0.001,0.010885528809980515,0.007920278244814194,16.617263986430036,0.01186100213164171,0.010357677537415708
255,0.25,0.001,0.010825515169342723,0.007863477060417517,16.599261135136317,0.011848152130718284,0.014245553873479366
256,0.25,0.001,0.010892839692191247,0.00800453379340128,16.18606737119342,0.011553224390573462,0.013771782363099712
257,0.25,0.001,0.010889770386210822,0.007934042551648725,16.563899985147177,0.011822912194965866,0.013415479566901922
258,0.25,0.001,0.01095000776641686,0.007951540787012205,16.803408683986838,0.01199386772590067,0.012786815209048135
259,0.25,0.001,0.01094533398815798,0.007934945789293959,16.870215205971252,0.012041552609544077,0.01452134336744036
260,0.25,0.001,0.010825190975100075,0.0077995806462515934,16.955521697298103,0.0121024423249808,0.00997996483264225
261,0.25,0.001,0.010907507450277106,0.007954939670108874,16.546190611813046,0.011810271671529654,0.010708676784166269
262,0.25,0.001,0.010801147225253079,0.0077962379073809596,16.839511783844834,0.012019637247569475,0.010580648268972124
263,0.25,0.001,0.01092208249477345,0.007996856875785994,16.392964301853006,0.011700902428160603,0.012975645650710379
264,0.25,0.001,0.010842462702560316,0.007819542259729783,16.940446836139085,0.012091682252775935,0.01306251103856734
265,0.25,0.001,0.010811683115199072,0.007852180937834836,16.58505042539824,0.011838008868949493,0.010606853291392326
266,0.25,0.001,0.010810462475985015,0.00785345846889626,16.571050696416734,0.011828016200154699,0.01481509514685188
267,0.25,0.001,0.010800217073239865,0.007869551513651643,16.423451117419322,0.011722663181598375,0.015148579142987728
268,0.25,0.001,0.010922151600617335,0.007997008621555949,16.39250263599081,0.011700572902206144,0.010571076468165432
269,0.25,0.001,0.010817316241152243,0.007767086007008585,17.093490548090102,0.012200921162091436,0.010494875322495188
270,0.25,0.001,0.01086225055602439,0.007933929425860764,16.41031064024759,0.01171328382601541,0.012276844254561834
271,0.25,0.001,0.010816266358650605,0.007883998061265421,16.432432454660397,0.011729073843440683,0.009927559111799513
272,0.25,0.001,0.01091821893297751,0.007914167111141419,16.834707295129057,0.012016207919435444,0.011472527869045734
273,0.25,0.001,0.01090948032471565,0.007823422405902945,17.2942685118509,0.01234423162873012,0.011894594744912215
274,0.25,0.001,0.010947905395419226,0.007977150756558147,16.648110240971278,0.011883019443948092,0.01752555343721594
275,0.25,0.001,0.010860614999786977,0.007943700289849294,16.34639001548837,0.011667658826187274,0.012716248498431273
276,0.25,0.001,0.010828812290495688,0.007837047057072504,16.765852866916482,0.011967061289733393,0.016476254777184556
277,0.25,0.001,0.010944701483421916,0.008010867282474807,16.44120709830468,0.011735336972380214,0.014498226610677583
278,0.25,0.001,0.010883804709744562,0.00787707155895069,16.849732862700016,0.012026932807066392,0.012431554097150053
279,0.25,0.001,0.010860165589651383,0.007872708244334668,16.741710522852905,0.01194982906698994,0.011005655795867954
280,0.25,0.001,0.010819105833016951,0.007836881931016752,16.712383427751174,0.01192889609404081,0.009500693130706037
281,0.25,0.001,0.01080177590216792,0.007863429255373434,16.466496021375743,0.011753387595557276,0.010918537553931986
282,0.25,0.001,0.010826242985118419,0.00782982554765196,16.79192355794644,0.011985669920018873,0.013525978262935365
283,0.25,0.001,0.010823228849320236,0.007859030114743142,16.611369360477553,0.011856794689848361,0.011802068512354578
284,0.25,0.001,0.010824227415093588,0.00794139562533536,16.155389925755493,0.0115313275701324,0.013921074569225311
285,0.25,0.001,0.010733303263646746,0.007734613663969783,16.804655407546857,0.011994757607099827,0.014339588050331389
286,0.25,0.001,0.01078163690591624,0.007834907014503938,16.513475313099153,0.011786920280584692,0.014532503272805895
287,0.25,0.001,0.010715082176713221,0.007724803735698582,16.757520588166123,0.011961113910182815,0.010422206816396542
288,0.25,0.001,0.010708540165369663,0.0077945539095533,16.329979100358596,0.011655945110891217,0.010911825578659773
289,0.25,0.001,0.010747670785549585,0.007824426247746846,16.3818617741996,0.011692977711777016,0.009452880027570896
290,0.25,0.001,0.010669536427210231,0.0077552391780078955,16.331721349593696,0.01165718868636238,0.010753530676343612
291,0.25,0.001,0.010861430197544054,0.00792322670528238,16.465692170169376,0.011752813825959583,0.010054456735295909
292,0.25,0.001,0.010758873135056517,0.007774150186995847,16.726387566382733,0.011938891910337425,0.013798658736050129
293,0.25,0.001,0.010712352974357409,0.007789311238453476,16.38072638555404,0.011692167298753777,0.013235976387347494
294,0.25,0.001,0.010785611559970116,0.0077955529794370365,16.756289490866006,0.011960235182630983,0.012973939999938011
295,0.25,0.001,0.01074127993042316,0.007791931241101354,16.52814989352445,0.011797394642058852,0.013948944131178516
296,0.25,0.001,0.01072691296389617,0.007822313260526285,16.277377102353157,0.011618399073770989,0.014693272300064564
297,0.25,0.001,0.010695591047747966,0.007740009533361011,16.563078241610746,0.011822325654254636,0.010967804784221309
298,0.25,0.001,0.010796257311802938,0.00785598770604221,16.477270703796947,0.011761078303923587,0.013089500101549285
299,0.25,0.001,0.010782925668386144,0.007802629792088762,16.701578857701854,0.011921184052606604,0.015791981747107848
300,0.25,0.001,0.010784060685733043,0.007830841620580866,16.54983942224345,0.011812876104385047,0.01446609731231417
301,0.25,0.001,0.010757558850930372,0.007753492401348888,16.83478864617304,0.012016265985847993,0.01897436406995569
302,0.25,0.001,0.010812382666616265,0.007870602447095268,16.485737319386335,0.011767121569868904,0.01623411543135132
303,0.25,0.001,0.010760333739357805,0.007828562443546199,16.429645783310637,0.011727084784661411,0.013606507464178972
304,0.25,0.001,0.010623287187393653,0.0076649697506031315,16.578411539760204,0.011833270192548324,0.014303104020655155
305,0.25,0.001,0.010747224553872685,0.00785955411612714,16.18250608881679,0.011550682433131185,0.013692849714841162
306,0.25,0.001,0.010839583420562088,0.007896200941721781,16.494715419384317,0.011773529921045195,0.016752858380121843
307,0.25,0.001,0.010768555660108361,0.00779696384769514,16.652800603744087,0.011886367311737393,0.014706554356962442
308,0.25,0.001,0.01074184831915372,0.007759661811036528,16.712173680646703,0.011928746381617918,0.011340398474463395
309,0.25,0.001,0.010658481406099206,0.007700994828664655,16.573754949307222,0.01182994643062614,0.010811650925981147
310,0.25,0.001,0.010649807631559328,0.007708911578931393,16.48078070649313,0.011763583659167118,0.013154579725648676
311,0.25,0.001,0.010743238612872744,0.007776515985574197,16.625511729389157,0.01186688917158398,0.013525778161627906
312,0.25,0.001,0.01063916627146782,0.007667326667440047,16.65419055343768,0.011887359424295274,0.012559132251356329
313,0.25,0.001,0.010715150983508575,0.0077648350900603,16.533570595837514,0.011801263808592087,0.012236961163580418
314,0.25,0.001,0.010619988989665968,0.007664834926708029,16.56068296170016,0.011820615961242084,0.013497383200696536
315,0.25,0.001,0.01074102581606819,0.007817920006879973,16.3810858770248,0.011692423895092646,0.011482242428298508
316,0.25,0.001,0.010705854726630614,0.0076989059447558645,16.850941964245717,0.012027795834579384,0.012038551670100008
317,0.25,0.001,0.01067354302819169,0.007744338367681164,16.415263657176165,0.011716819170004401,0.011815300743494715
318,0.25,0.001,0.010738977350704714,0.007757441764441105,16.708525158943385,0.011926142154848954,0.010481559139277254
319,0.25,0.001,0.010677122587867833,0.007659020021967932,16.913446356397156,0.012072409961739583,0.009733935818076134
320,0.25,0.001,0.010626435126049803,0.007738620525550678,16.183313194764864,0.011551258525884985,0.012029338894145829
321,0.25,0.001,0.010681469574433947,0.007686832748831959,16.781944939849573,0.011978547423161724,0.01194435344742877
322,0.25,0.001,0.010586006413085745,0.007645741942415543,16.477240746174385,0.01176105692089535,0.013808887851025377
323,0.25,0.001,0.010660122225590802,0.007807813482273609,15.984337902944022,0.011409234762986454,0.016156538921807493
324,0.25,0.001,0.010732273750622337,0.007730219795137917,16.82350932130026,0.012008215075874561,0.018828742738280977
325,0.25,0.001,0.010709059296534696,0.0077371697599461315,16.65446836139084,0.01188755771690995,0.012727630058569568
326,0.25,0.001,0.010672378259787866,0.007752882555947391,16.36085384263905,0.011677982757058565,0.013130573422781058
327,0.25,0.001,0.010654167690818462,0.00766069418109885,16.775425937197625,0.011973894316343773,0.011346950994006224
328,0.25,0.001,0.010618015602572795,0.007683969205330818,16.44239612894321,0.01173618567376389,0.011155006475746632
329,0.25,0.001,0.01068251313419517,0.007746177088947745,16.45522705568086,0.011745344079715104,0.01225994953087398
330,0.25,0.001,0.010669056010013873,0.007688824582947503,16.70121728389635,0.011920925969947432,0.014502258173057012
331,0.25,0.001,0.010634436810372072,0.007733370514945426,16.257575866279254,0.011604265429178626,0.014248928454305445
332,0.25,0.001,0.010676832681675569,0.007806118697338148,16.087480772525893,0.011482855654907847,0.018403529854757444
333,0.25,0.001,0.010630179256405851,0.007665812388199185,16.61231270186398,0.011857468024171293,0.01475586582507406
334,0.25,0.001,0.010638837181373473,0.0077413498005325645,16.23751892299827,0.011589949266950943,0.014229161398751395
335,0.25,0.001,0.010658046469912617,0.007695300931777429,16.6032255330217,0.011850981822285295,0.014696345398468631
336,0.25,0.001,0.010551251787179654,0.007603430052484394,16.519593440064597,0.011791287252008991,0.009970046446791716
337,0.25,0.001,0.010624272757372178,0.007732597598378812,16.204947830340185,0.011566700806809554,0.011782184642340456
338,0.25,0.001,0.010702005578973972,0.007733301626979758,16.636617511784266,0.011874816211123672,0.012472385673650674
339,0.25,0.001,0.010620073774197233,0.0076504979718374005,16.64150248536276,0.011878302987410964,0.011750377714633942
340,0.25,0.001,0.010665490608149713,0.007667549146732332,16.80046552255613,0.011991766968277038,0.011911936636481966
341,0.25,0.001,0.010532865762163739,0.007614874238267951,16.35242579398899,0.011671967019264089,0.011499682374830757
342,0.25,0.001,0.010590742863372925,0.007697831130150808,16.21187680795652,0.011571646543866183,0.011531998270324298
343,0.25,0.001,0.010621582747462693,0.00762923298096028,16.76912872944403,0.011969399521373327,0.013777982709663255
344,0.25,0.001,0.010676993142574205,0.007716983343141341,16.587894859663937,0.011840039157504595,0.01266809752477067
345,0.25,0.001,0.010588409652540444,0.007672367677297614,16.341499118629944,0.01166416782200567,0.01065915756459747
346,0.25,0.001,0.01062419203135672,0.007757303903067331,16.066041220218764,0.011467552619713607,0.013763064385524817
347,0.25,0.001,0.010473332530178061,0.007534534439717958,16.469024938180905,0.011755192675361103,0.01170122397265264
348,0.25,0.001,0.010622498075212908,0.007710147708859466,16.320810895447337,0.01164940106741423,0.010406738679323877
349,0.25,0.001,0.010646756994751615,0.007673018146306276,16.664832666379596,0.011894955507765592,0.011585699660437447
350,0.25,0.001,0.010610993080046198,0.007613240117463497,16.79940682157464,0.011991011293058271,0.011131413014871734
351,0.25,0.001,0.010700473356821122,0.007697878431084506,16.82654221560977,0.01201037988266222,0.011719590718192714
352,0.25,0.001,0.010606036043016735,0.007631828551343001,16.667460100366434,0.011896830906756911,0.011175135682736124
353,0.25,0.001,0.010599838569760323,0.00769044179469347,16.304260358897917,0.011637587693717285,0.013717081929956163
354,0.25,0.001,0.01057654322731659,0.007617186118395777,16.5842374924126,0.01183742861699686,0.011225525422820024
355,0.25,0.001,0.010575457134309713,0.007627205701049315,16.522001651448942,0.011793006175195533,0.012015752959996462
356,0.25,0.001,0.010599146827781966,0.007676948571082102,16.375999625669706,0.011688793451584373,0.011915907396801881
357,0.25,0.001,0.01059572303821461,0.007591489548666761,16.835724419410077,0.012016933918208478,0.014151148631104402
358,0.25,0.001,0.010547681241680722,0.007659485238954562,16.18545086011974,0.011552784339842784,0.012857228783624513
359,0.25,0.001,0.01057070937998798,0.00765139296001524,16.359850069798462,0.0116772662882216,0.013314810847597463
360,0.25,0.001,0.01055740955533511,0.007542667132930472,16.894616468237082,0.012058969641853734,0.01149448792317084
361,0.25,0.001,0.010538216731553777,0.007667261521853165,16.08883285522461,0.01148382073891835,0.013492672171975886
362,0.25,0.001,0.010549396054323661,0.007558464534033876,16.761180947679993,0.011963726586495355,0.01212105035249676
363,0.25,0.001,0.010581606520561997,0.0075909371163115046,16.759710644363263,0.01196267711945986,0.010167704961661781
364,0.25,0.001,0.010511157085794375,0.007636959673067845,16.107002363292448,0.011496789695426444,0.011141742446592875
365,0.25,0.001,0.010544519486982342,0.007598721516241721,16.50825162765083,0.011783191739936352,0.010570615263921874
366,0.25,0.001,0.010544615789154254,0.007570428466168019,16.667345536958187,0.01189674913416002,0.011438828227775437
367,0.25,0.001,0.010580394493945695,0.007653576732023593,16.401887193732307,0.01170727137311371,0.013004509865173272
368,0.25,0.001,0.01053154603535429,0.007522787411757019,16.861084089366667,0.012035035038805614,0.010402054525911808
369,0.25,0.001,0.010535823753735888,0.007660146589057708,16.11529460522013,0.011502708497658908,0.010225192776748113
370,0.25,0.001,0.010500793123122203,0.007562792697630891,16.464554445459207,0.011752001745509784,0.009414109600973981
371,0.25,0.001,0.010524676138654761,0.007546557651815612,16.689376271099125,0.0119124741406846,0.014313989185861178
372,0.25,0.001,0.010539277909545723,0.007639234932566728,16.25184060017997,0.011600171734603834,0.012899796145835094
373,0.25,0.001,0.0105089233555925,0.007596605670971608,16.320629137371657,0.011649271332884837,0.010531929521156209
374,0.25,0.001,0.010464204432562404,0.0074860555196710685,16.689546655077454,0.011912595756657712,0.009433919231274299
375,0.25,0.001,0.010452199676031367,0.007554545481646553,16.23845555366726,0.011590617811325669,0.009461912326514721
376,0.25,0.001,0.010459821970296015,0.007498720686438433,16.59401191921409,0.011844405367033612,0.009912700192736728
377,0.25,0.001,0.010540259318477517,0.007659753096725689,16.14235697755026,0.01152202496613152,0.013469821108239037
378,0.25,0.001,0.010482075572902457,0.0075388719934389135,16.493711944020124,0.011772813664539703,0.014841307087668352
379,0.25,0.001,0.010579998374258706,0.007638429522240927,16.4845526109048,0.011766275953536616,0.011721628185893809
380,0.25,0.001,0.010516889700922398,0.007580555146645515,16.45521839386826,0.011745337897122243,0.009930031507142953
381,0.25,0.001,0.010472185644876519,0.007560189138380213,16.318828722752563,0.011647986240365855,0.011576387099921703
382,0.25,0.001,0.01049693665304862,0.007586059468123344,16.312555505595075,0.011643508569304122,0.012036188239497798
383,0.25,0.001,0.010500676434384574,0.007552239949891873,16.523037166770447,0.01179374530104957,0.012172660258199488
384,0.25,0.001,0.010568301210504605,0.0076021697508906,16.622200607159815,0.011864525772419568,0.01243571937084198
385,0.25,0.001,0.010472764226889938,0.0075392118407362095,16.439627131190868,0.011734209229972068,0.010089367628097534
386,0.25,0.001,0.010601691987126245,0.0076148825261844405,16.738081940817178,0.011947239072674646,0.011847761725740773
387,0.25,0.001,0.010469402733404156,0.007491990163443832,16.685420360040226,0.011909650506809583,0.011094363406300545
388,0.25,0.001,0.010451007634401321,0.007587603412978693,16.046517695855655,0.01145361719904044,0.011011762278420585
389,0.25,0.001,0.010505562571278953,0.007593418685121274,16.319654832192516,0.011648575897353687,0.009803239123097487
390,0.25,0.001,0.010483803817096654,0.007525533817947731,16.578145420879398,0.01183308024331149,0.011736220946269376
391,0.25,0.001,0.01054856389624263,0.0076054456054207385,16.493235736811926,0.011772473759323287,0.011803600271897656
392,0.25,0.001,0.010484334175398043,0.007506085610991225,16.690104668293525,0.011912994053028926,0.010035051165946893
393,0.25,0.001,0.010461181256954276,0.007488345885392996,16.659770685598392,0.011891342388007417,0.010852258918540818
394,0.25,0.001,0.010447895086003006,0.007586595166577111,16.03472588040413,0.011445200485656054,0.010636088571378164
395,0.25,0.001,0.010532373425747277,0.007587959144025221,16.500498220461225,0.011777657544940203,0.011488185796354498
396,0.25,0.001,0.010551784324263213,0.007583473522831267,16.634413920411276,0.011873243340764651,0.011893198160188538
397,0.25,0.001,0.010534210711580897,0.007556947477913778,16.68458257902653,0.011909052518933996,0.010429598258009978
398,0.25,0.001,0.010514393636803015,0.007559897762578015,16.55699374697624,0.011817982688776759,0.009911666823817151
399,0.25,0.001,0.010472587027817691,0.007508553150152668,16.610446194989965,0.011856135756595264,0.009810106097055333
400,0.25,0.001,0.0104315040479286,0.0074999901175567315,16.428205087644244,0.011726056450852423,0.008712194194751126
401,0.25,0.001,0.0104709508905717,0.0074985613832848335,16.657271358944953,0.01188955842894001,0.01250516317252602
402,0.25,0.001,0.010498598183787197,0.007515382542864445,16.717940846714406,0.01193286284562056,0.012008990161120892
403,0.25,0.001,0.010484182301464431,0.007562797508040153,16.371441044938674,0.01168553964663717,0.014169591345957347
404,0.25,0.001,0.010538826585499518,0.007601810029682216,16.459041315481205,0.01174806660633919,0.011264958019767488
405,0.25,0.001,0.010507059838930402,0.007577909865852343,16.41495571661433,0.011716599369460621,0.010304558889142104
406,0.25,0.001,0.01060353125522443,0.007647950612350341,16.563073551982914,0.01182232230691143,0.01494686957448721
407,0.25,0.001,0.010509192311298956,0.007547345849762269,16.598187752819936,0.011847385976316871,0.010775035114160605
408,0.25,0.001,0.01047048477643947,0.007577873659619224,16.210193161570697,0.011570444797695001,0.01186637646917786
409,0.25,0.001,0.010489711162010465,0.007535206367594934,16.557045647857386,0.01181801973437358,0.010493559230651175
410,0.25,0.001,0.010484462749178804,0.007513558957725763,16.648944907232163,0.011883615208588268,0.013896423924182142
411,0.25,0.001,0.010480904046001785,0.00757071753502439,16.308684515296868,0.01164074554981932,0.012490380555391312
412,0.25,0.001,0.010507535402996277,0.007525837437651299,16.709436302885003,0.011926792507412564,0.012797698245516844
413,0.25,0.001,0.010478112333958301,0.007536473051738849,16.484946697130116,0.01176655724277667,0.013403355676148618
414,0.25,0.001,0.010457428274761647,0.007498152451504261,16.58378203855742,0.011837103525023141,0.012835683633706399
415,0.25,0.001,0.010458009420048207,0.007539419269343035,16.355779980300763,0.011674361156531594,0.01334406209311315
416,0.25,0.001,0.010536211500063949,0.007601188042910274,16.447871234438836,0.011740093671976329,0.01875538272517068
417,0.25,0.001,0.010612107847535282,0.007638353858689923,16.664917062181946,0.011895015747453209,0.021097599528729916
418,0.25,0.001,0.010530444451633397,0.007632073830949877,16.242469831344184,0.0115934831058845,0.019829553551971912
419,0.25,0.001,0.010471134420928604,0.007551270622520818,16.362915809001397,0.011679454538901781,0.014835993626288005
420,0.25,0.001,0.010469162828126632,0.007465269912136804,16.83381595086614,0.012015571699404811,0.010196442183639323
421,0.25,0.001,0.010495109534865125,0.007568746450604922,16.399339833390822,0.011705453128758618,0.010377725586295128
422,0.25,0.001,0.010429202818200676,0.0074788045582421326,16.534032069214987,0.011801593197155595,0.011632683953004224
423,0.25,0.001,0.010467984269313309,0.007528177565049141,16.474676928388963,0.011759226929613821,0.011256213432976179
424,0.25,0.001,0.0104572017070487,0.007538567233078797,16.356028688063315,0.011674538678132274,0.010923960246145725
425,0.25,0.001,0.010403170002573127,0.007490457001424164,16.322844977772565,0.011650852946304472,0.009719864199204105
426,0.25,0.001,0.01042123207258522,0.007458343529441488,16.604028220570417,0.011851554761292231,0.009714253778968538
427,0.25,0.001,0.01040952911583382,0.007484019537447789,16.39455620301973,0.0117020386888078,0.009403640670435769
428,0.25,0.001,0.010350781621052584,0.007481687548442171,16.078403385407334,0.011476376434980253,0.010481262246945075
429,0.25,0.001,0.010485317933996883,0.0075500858007767875,16.449041611557707,0.0117409290589277,0.011629539275807994
430,0.25,0.001,0.01047594458240708,0.007491657147269457,16.72394721004941,0.01193715004286182,0.016027602101010934
431,0.25,0.001,0.010468771928972607,0.007492693944261709,16.677941628552357,0.01190431236870261,0.01201259225074734
432,0.25,0.001,0.010392137042699603,0.007507804875185184,16.163796643598364,0.011537328082511324,0.011394526144223554
433,0.25,0.001,0.010442161360123289,0.007463936040331738,16.689975423550386,0.011912901801249383,0.011660325074834483
434,0.25,0.001,0.010468908201117035,0.007532341051163203,16.456522355385875,0.011746268633394629,0.01183012207703931
435,0.25,0.001,0.010438804087493944,0.00757019384977741,16.07569213307232,0.011474441208474176,0.012846640976411956
436,0.25,0.001,0.010380753503958567,0.007353652217382684,16.96387640926816,0.012108405716822384,0.010270283690520696
437,0.25,0.001,0.010343685421511668,0.007439836180435681,16.27317148611086,0.011615397206360357,0.011062964663973876
438,0.25,0.001,0.010386432888447691,0.007480595363389461,16.284314636790423,0.01162335091847996,0.010249483133000987
439,0.25,0.001,0.01034857825709319,0.0074412921922059234,16.292430877685547,0.011629144095421519,0.01115448639861175
440,0.25,0.001,0.010456054838835646,0.007580922916531563,16.112239207696476,0.011500527628619897,0.011762075791401523
441,0.25,0.001,0.01043937437304663,0.0074626610853598205,16.681502315976203,0.011906853901481943,0.011619352203394686
442,0.25,0.001,0.010341870196915548,0.007401676532393748,16.476845977503224,0.011760775144541916,0.010406935853617532
443,0.25,0.001,0.010326007475068262,0.007419956173030062,16.285512320492245,0.011624205796211453,0.012578213853495461
444,0.25,0.001,0.010408844576652991,0.007521505783730691,16.180646791370638,0.011549355311470834,0.012116901177380766
445,0.25,0.001,0.010400040519483593,0.007444996848155599,16.560064648269513,0.011820174624032486,0.00958908868155309
446,0.25,0.001,0.010437070844917122,0.0074697016362408435,16.62913833408181,0.011869477754519492,0.01038283109664917
447,0.25,0.001,0.010310185158949926,0.007421448664449224,16.188479274784754,0.011554945949168276,0.009777743236294814
448,0.25,0.001,0.010395628109642672,0.007465726392634145,16.41916992467478,0.011719607369503768,0.01030864699610642
449,0.25,0.001,0.010436096681504074,0.007467182814528089,16.637793147235836,0.011875655351346064,0.009364687970706395
450,0.25,0.001,0.010382314383505134,0.00743709983936417,16.504982869559473,0.011780858579271573,0.011877515353262424
451,0.25,0.001,0.010420376409289486,0.007516423240303993,16.27375423361402,0.011615813157468966,0.01253563232187714
452,0.25,0.001,0.01035242477312274,0.007406214969830775,16.5105603944271,0.011784839681960813,0.010349055086927754
453,0.25,0.001,0.01032939651519607,0.007391188857615541,16.46571530333353,0.011752830337854053,0.008958150033972092
454,0.25,0.001,0.010356308123387328,0.007485189304234238,16.08975077987811,0.011484475931390513,0.010615044672574316
455,0.25,0.001,0.010330756895517537,0.007432426475501115,16.242242743115906,0.0115933210157858,0.011588665058038064
456,0.25,0.001,0.01039365443204521,0.007516671390776788,16.122613784370074,0.01150793275115637,0.009431594650128059
457,0.25,0.001,0.010344457334129635,0.007396138905453572,16.522377539118494,0.011793274474745536,0.010417740126805646
458,0.25,0.001,0.010413185479717518,0.00748537969989104,16.407423736852245,0.01171122322402016,0.010568022594920226
459,0.25,0.001,0.010362811583102843,0.007449035284989471,16.328802843706324,0.011655105527270752,0.011728735507598944
460,0.25,0.001,0.01032964041063545,0.007420507648430013,16.30277962640885,0.011636530782590184,0.011330686243517058
461,0.25,0.001,0.010308767395487072,0.00739080450335227,16.352263949332983,0.011671851498453236,0.008998697024903126
462,0.25,0.001,0.010307221382924723,0.007362769258746861,16.500709901162242,0.011777808637517661,0.013499623563672816
463,0.25,0.001,0.010276563756099534,0.007447508590962362,15.854025097068297,0.01131622062603019,0.013466415394629751
464,0.25,0.001,0.01040541392605786,0.007482580233946306,16.379560715561613,0.011691335271635699,0.015479889033096177
465,0.25,0.001,0.010368297577177712,0.007518794631089913,15.968615680659584,0.011398012620028253,0.012942787259817123
466,0.25,0.001,0.010334451605967425,0.007413689598201885,16.367950474450346,0.011683048161634794,0.00953703692981175
467,0.25,0.001,0.010387495920540543,0.007433682393897838,16.55317110534108,0.011815254179401198,0.009145175905099936
468,0.25,0.001,0.010344109925176573,0.007379124829665237,16.615777671883958,0.011859941236176987,0.009480686725250312
469,0.25,0.001,0.010369094456076075,0.007476621995244278,16.20941536579657,0.011569889625836239,0.01039012601333005
470,0.25,0.001,0.010400904513417034,0.007423038466261068,16.68796196333859,0.01191146464192619,0.010703515128365584
471,0.25,0.001,0.010344984915551789,0.007400244320614622,16.50232656286397,0.01177896257163738,0.010091664934796947
472,0.25,0.001,0.010432775106725342,0.007488605301451246,16.49912804419841,0.011776679546180165,0.013886803361986364
473,0.25,0.001,0.01026864674523336,0.0073482427370110785,16.365944153671965,0.011681616098266926,0.0119553395946111
474,0.25,0.001,0.010341569337002728,0.007445680797783607,16.22856026395745,0.01158355479226085,0.010306018404662609
475,0.25,0.001,0.010322796505525571,0.00736522279389271,16.574243405543335,0.011830295078903166,0.00993357811655317
476,0.25,0.001,0.010327041866855884,0.007440780844846996,16.17460690069636,0.01154504418322367,0.009323039491261755
477,0.25,0.001,0.010375054493341425,0.0074266131813509745,16.52306562826174,0.011793765616175404,0.010966353384511811
478,0.25,0.001,0.010411341572094947,0.007472933581902073,16.466837786753242,0.011753631539438432,0.014465710148215294
479,0.25,0.001,0.010350150423585822,0.007384175708124397,16.62132387423734,0.011863899981611236,0.012907844702047961
480,0.25,0.001,0.010350157600750616,0.0074243059535639006,16.396473473365155,0.011703407190125022,0.01234373397060803
481,0.25,0.001,0.010334591372707569,0.007406915016814109,16.40669862939677,0.011710705659812115,0.012805642294032233
482,0.25,0.001,0.01029217685786409,0.007394718001981121,16.237359755629793,0.011589835657123336,0.009428049703793866
483,0.25,0.001,0.010376074804215256,0.007528253096164367,15.959192276000977,0.011391286421128462,0.013202176030193056
484,0.25,0.001,0.010370055922742831,0.007419437511798439,16.535266596242923,0.0118024743727644,0.013368706751082624
485,0.25,0.001,0.010400652646198185,0.007486414172848977,16.331392620681623,0.011656954047595734,0.01346783246845007
486,0.25,0.001,0.010347351662541202,0.007481462860462863,16.06044233829603,0.011463556272873683,0.010587098742169994
487,0.25,0.001,0.010323446577226897,0.007345108229906187,16.690608855781207,0.011913353929893795,0.01117459631391934
488,0.25,0.001,0.010327408244030192,0.007405620627959661,16.37369687841573,0.0116871498061497,0.010752277714865548
489,0.25,0.001,0.010302649144459209,0.007363541504590336,16.470759155553417,0.011756430517882525,0.011479039144303118
490,0.25,0.001,0.010303307931289214,0.00741960110843455,16.160293395366143,0.011534827548441215,0.013049934059381485
491,0.25,0.001,0.01030135927123761,0.007403530419693081,16.23943236114782,0.011591315032939201,0.009801435816500868
492,0.25,0.001,0.010358870892418087,0.007376386980534694,16.713840362128863,0.011929936018650153,0.010929577518254519
493,0.25,0.001,0.010405741478188322,0.007478650838751859,16.403417604778884,0.011708363743596633,0.0146916305114116
494,0.25,0.001,0.0103674243041955,0.0074127205698793636,16.558159189486723,0.011818814553523713,0.012567463863108839
495,0.25,0.001,0.010279149526234614,0.007371496332279586,16.29448943181869,0.011630613441697852,0.013708043710461684
496,0.25,0.001,0.010370275074052155,0.007475299047254915,16.223446032322876,0.011579904377104122,0.013802185920732362
497,0.25,0.001,0.010364246802455788,0.007403281145652227,16.593250869610987,0.011843862148187714,0.0133870760910213
498,0.25,0.001,0.010334372588800728,0.00738272983837155,16.54100666571101,0.011806571495867958,0.011522345910114902
499,0.25,0.001,0.010361621703166481,0.007486853261538055,16.110202019367744,0.011499073532739289,0.012245256187660354
500,0.25,0.001,0.010340770586914972,0.00741492575376269,16.396434932673742,0.011703379680709308,0.011161070317029953
