epoch,beta,learning_rate,train_loss,train_reconstruction_loss,train_kl_unnormalized,train_kl_normalized,mean_unclipped_gradient_norm
1,0.0,0.001,0.05675448963338842,0.05675448963338842,43.63854770516268,0.031148142544727107,0.08666596402015005
2,0.02,0.001,0.0492607223372015,0.04661301362049069,185.4719912627482,0.1323854327357232,0.07896747386881284
3,0.04,0.001,0.045154090032394345,0.043766990867009394,48.58315331869822,0.03467748273997018,0.0670817361346313
4,0.06,0.001,0.04212534863980351,0.03991129306574312,51.69818415990104,0.036900916602356205,0.060865234051431925
5,0.08,0.001,0.03790460414339974,0.036297890603992744,28.137585627942602,0.020083929784398716,0.06793174200824328
6,0.1,0.001,0.0355668495636743,0.033182678955327956,33.402223851278386,0.02384170153553061,0.06169538439384529
7,0.12,0.001,0.034356206036184535,0.03223395189012328,24.77731379934162,0.01768544882179987,0.027235101642353193
8,0.14,0.001,0.033225188852857884,0.03142838481747984,17.980871705024008,0.01283431242328623,0.023447354457208087
9,0.16,0.001,0.031668998333871816,0.029612844434545683,18.004198775783895,0.012850962723614487,0.031474149120705466
10,0.18,0.001,0.029096837833486214,0.025997260421214235,24.125043840192127,0.017219874261379105,0.031794587416308265
11,0.2,0.001,0.026995660807533888,0.023025957839352358,27.80776803139175,0.019848513941036223,0.028426737125430788
12,0.22,0.001,0.025754042546867723,0.021887085670300333,24.62548360656431,0.017577076093193655,0.030841602411653315
13,0.24,0.001,0.0250815264176887,0.021366930273490528,21.683955920433217,0.01547748459702585,0.09357638683702264
14,0.25,0.001,0.025114076216740333,0.021920647415841557,17.895972316751553,0.012773713288188118,0.11064320483378001
15,0.25,0.001,0.024359966067583196,0.020745237411870163,20.256937992662866,0.014458913627882132,0.06359383942825454
16,0.25,0.001,0.024172323082646434,0.020800229659308715,18.897212583412152,0.013488374434983692,0.07568773361189025
17,0.25,0.001,0.023662565412088967,0.020540452010985887,17.496322012067743,0.012488452542518019,0.02539671039474862
18,0.25,0.001,0.02362339721255999,0.02040369161674448,18.04322994385919,0.012878822229735324,0.044694031322641034
19,0.25,0.001,0.02336626505990623,0.020310598371611435,17.12395575304776,0.012222666490398116,0.04044522178758468
20,0.25,0.001,0.023756485347933974,0.0204046314361714,18.783789142253116,0.013407415519095729,0.08318167020167623
21,0.25,0.001,0.023363329249642958,0.020009025448102794,18.797516229470972,0.013417213582777282,0.0647098251751491
22,0.25,0.001,0.023130729208027084,0.01998805059518862,17.611571436865205,0.012570714801474094,0.061821073692824156
23,0.25,0.001,0.02298905421752173,0.019945308068762498,17.057153259777003,0.012174984482353322,0.04909032516713653
24,0.25,0.001,0.02261794478602013,0.01947823499495947,17.594934804613704,0.012558839974742116,0.02517673892102071
25,0.25,0.001,0.02261063580868076,0.019621440310322067,16.751450934998633,0.011956781538186034,0.04087833541312388
26,0.0,0.001,0.01906194909937886,0.01906194909937886,21.290393651582733,0.015196569344455912,0.04786976692931993
27,0.02,0.001,0.018560990179778646,0.01801339462774827,38.35908258471741,0.02737978771214662,0.05716511061681168
28,0.04,0.001,0.018909744810434972,0.017469475125560834,50.44543859640357,0.03600673704240084,0.062220366937773566
29,0.06,0.001,0.019315850946780115,0.017099999440294368,51.74012985037316,0.036930856424249224,0.04680329454796655
30,0.08,0.001,0.019534861007400362,0.017022891340763204,43.99087018029816,0.03139962182747906,0.022456703973667964
31,0.1,0.001,0.019802504540503175,0.017381351098643444,33.92035862420608,0.0242115336361214,0.016168800182640553
32,0.12,0.001,0.019899256198997763,0.017485059215980453,28.185749683332084,0.02011830812514781,0.04167997358100755
33,0.14,0.001,0.020242590063089688,0.017742621771034126,25.017540285509238,0.017856916692012306,0.02948147603975875
34,0.16,0.001,0.02073627242569809,0.017929868371476906,24.573577390810105,0.017540026688658176,0.0627726088943226
35,0.18,0.001,0.020857155318336762,0.01794437852967296,22.671113559521114,0.016182093904012214,0.06513029603021485
36,0.2,0.001,0.02080511898083861,0.017810782910294136,20.975321820160605,0.014971678672491509,0.026782443214740072
37,0.22,0.001,0.021148533651825764,0.01819192304250125,18.82823334412851,0.013439138718150256,0.028480993317706243
38,0.24,0.001,0.02132959631025341,0.01796167310073934,19.660252587921374,0.014033013981385706,0.030180211844188825
39,0.25,0.001,0.021287909049719046,0.018225895151758674,17.159525148213962,0.012248055066533878,0.0311326908745936
40,0.25,0.001,0.021137553396205457,0.017984755083881036,17.66828109635514,0.012611192788262057,0.04241011877145086
41,0.25,0.001,0.0209934813784487,0.018012663213446998,16.704505358294817,0.011923272918126207,0.02480621143643345
42,0.25,0.001,0.021032994317467926,0.017937019134235923,17.34984656365152,0.012383901901250194,0.026659253585551466
43,0.25,0.001,0.020897933758175943,0.01785903105451268,17.030011246726854,0.012155611168256142,0.027031119646770612
44,0.25,0.001,0.020781229501144412,0.017823566267412317,16.574743842598174,0.011830652278799553,0.02448135827268873
45,0.25,0.001,0.020767848361611968,0.01780851846396623,16.58408466214197,0.011837319530436808,0.028338662947395017
46,0.25,0.001,0.020769817806236088,0.01774251838719064,16.964986762712225,0.012109198260322787,0.033741853931652646
47,0.25,0.001,0.020636145912242176,0.01755043745078428,17.292310772374535,0.01234283424152358,0.021354503264384612
48,0.25,0.001,0.0204961146474335,0.0176629760497313,15.876910356190102,0.011332555571870165,0.027124394063970873
49,0.25,0.001,0.020602988018196836,0.017467811103131368,17.569532658651433,0.012540708535796882,0.012554536307496684
50,0.25,0.001,0.020563642088539655,0.017487081893783073,17.241043902764694,0.012306241186841324,0.022987941280007362
51,0.0,0.001,0.017048813233747892,0.017048813233747892,20.63235597106011,0.014726877923668887,0.01810162394706692
52,0.02,0.001,0.01657844936798892,0.016073723612188992,35.35605521406275,0.025236299224884188,0.018357130299721445
53,0.04,0.001,0.01691472313134586,0.015584222475062089,46.600784032711154,0.03326251536952973,0.021972525598747388
54,0.06,0.001,0.01735405608429867,0.015318875151782553,47.52147332486938,0.03391968117406808,0.013857804504888398
55,0.08,0.001,0.017609614541083198,0.01539963867365188,38.70220205945993,0.0276246981152462,0.019617888677333082
56,0.1,0.001,0.017841251993960038,0.015720400443155157,29.713134731994167,0.02120851872376457,0.018531658287559236
57,0.12,0.001,0.018050766322452116,0.01595127098825326,24.51160670167553,0.017495793505835494,0.03141603785167847
58,0.14,0.001,0.018481941884313183,0.01617503662591317,23.085534424865877,0.016477897519533102,0.022598813953144208
59,0.16,0.001,0.018760993138368542,0.01627185507689225,21.79551818809221,0.015557115052171456,0.030323020914303406
60,0.18,0.001,0.01887435046134878,0.01613503362823944,21.321015893662306,0.015218426762071595,0.03380139098901834
61,0.2,0.001,0.018984099432488234,0.016258534372453424,19.09258713710218,0.013627828077874504,0.023835741382624422
62,0.22,0.001,0.019188452573019252,0.016296139409207277,18.41877662985391,0.013146878393900007,0.015524299017020635
63,0.24,0.001,0.019515958814048946,0.01641639087686986,18.09372782286829,0.012914866397479149,0.023847733491233418
64,0.25,0.001,0.019589006943013566,0.016491337817734673,17.359336958724246,0.012390675916291395,0.038503602014056275
65,0.25,0.001,0.019434815849780435,0.0164543519627012,16.702521052708853,0.011921856568671558,0.036059849097260406
66,0.25,0.001,0.01949943756445379,0.016613844162796248,16.170864081202588,0.011542372648966872,0.0308849604002067
67,0.25,0.001,0.019380657532503384,0.01623733321049952,17.61518981414718,0.012573297511882355,0.024747498000838926
68,0.25,0.001,0.01935407511833633,0.016463365358879944,16.1995368808583,0.01156283860161192,0.023555513870503222
69,0.25,0.001,0.019371324760712665,0.016436471531087866,16.446916830029235,0.011739412441134358,0.022999740072659085
70,0.25,0.001,0.019197084919856836,0.016357424516484177,15.913458283662196,0.01135864260075817,0.018220153903322562
71,0.25,0.001,0.01910112487147527,0.01612064107004506,16.702628762655955,0.01192193344943323,0.01608954050711223
72,0.25,0.001,0.019236874745534708,0.01630429939251928,16.434152305276328,0.011730301431317864,0.018686792946287563
73,0.25,0.001,0.01900027116633933,0.016051320157363373,16.525924134915062,0.011795805949261287,0.01974053188626255
74,0.25,0.001,0.019215328525048057,0.016504340427423304,15.192378402056562,0.010843953177770566,0.028335636215550557
75,0.25,0.001,0.019074283615317694,0.016057394172817995,16.90664965920244,0.01206755864325656,0.027209750775779997
76,0.0,0.001,0.01565966987395917,0.01565966987395917,18.612821444456163,0.013285382901110752,0.020510090914155756
77,0.02,0.001,0.015290239591254695,0.014855777499939242,30.434065811580012,0.021723101935460395,0.014039922106478895
78,0.04,0.001,0.015561194869898428,0.01438332881581423,41.25476019448537,0.029446652529968146,0.01000076878283705
79,0.06,0.001,0.016050091398040055,0.014243836918146695,42.17604849981121,0.03010424589565397,0.01164340234494635
80,0.08,0.001,0.016308096751232893,0.014313983179685151,34.92191605844185,0.024926421169480264,0.01136605255305767
81,0.1,0.001,0.016502339003480953,0.014624956408773622,26.302128553991054,0.01877382480656035,0.012470308026032788
82,0.12,0.001,0.01674317340988206,0.014838203496911964,22.240526223362842,0.01587475105165085,0.011087621229567699
83,0.14,0.001,0.016954831891606376,0.014779587297393032,21.767986537827653,0.015537463624430873,0.01093625689723662
84,0.16,0.001,0.017206230001425564,0.014762451095736448,21.398339370035703,0.015273618394029766,0.013800033235124179
85,0.18,0.001,0.017555906533519326,0.015093323481398205,19.167105590666573,0.013681017552224534,0.02183677296021155
86,0.2,0.001,0.017699207397417097,0.015006021411165181,18.865769263779185,0.013465930952019404,0.017819170440946306
87,0.22,0.001,0.017859533781030917,0.015038858728497395,17.962571574098217,0.012821250231333488,0.012861822465700763
88,0.24,0.001,0.01807640947082481,0.015217472559840463,16.689043647996726,0.011912236722338848,0.012503050999449832
89,0.25,0.001,0.018138897340153566,0.015280457009427643,16.018700659725468,0.011433762069754081,0.014195050711610488
90,0.25,0.001,0.01812268690832466,0.015317365935339736,15.7210202181069,0.01122128495225332,0.01857233446623598
91,0.25,0.001,0.01803430947252275,0.015234402664737677,15.69067758516941,0.01119962711289751,0.012175840059561389
92,0.25,0.001,0.018002643679228776,0.015169287825317616,15.87812729025968,0.011333424190049736,0.023424264775323018
93,0.25,0.001,0.01802972502424675,0.015213209889378746,15.783750882376951,0.011266060586992827,0.02305505963574563
94,0.25,0.001,0.018034115794961638,0.015281574845182656,15.425239293941623,0.011010163664483671,0.01390520529821515
95,0.25,0.001,0.017871301968391956,0.015026353576434049,15.943088802943002,0.011379792150566026,0.014292113283382995
96,0.25,0.001,0.017835783753403337,0.015107760546020506,15.287842731331699,0.010912093312870592,0.017209194733628204
97,0.25,0.001,0.01802817066798282,0.015273710229534946,15.435994217918262,0.011017840269748938,0.036399794343326776
98,0.25,0.001,0.017848388603900183,0.0151037634549761,15.38088031259532,0.010978501293786809,0.021879984864166806
99,0.25,0.001,0.017865984285395754,0.01514197147500605,15.265367587207246,0.010896051097221447,0.019490558387977735
100,0.25,0.001,0.017615637326758516,0.0148693326607309,15.390292393470592,0.010985219410043249,0.01624009877975498
101,0.25,0.001,0.017684275969412525,0.01498160716756165,15.145754590743135,0.010810674226083608,0.018402244496558393
102,0.25,0.001,0.017626079076183233,0.01501169099803235,14.651031309171048,0.010457552683205602,0.012380420829036407
103,0.25,0.001,0.01753759366326428,0.014841321189547667,15.10991176489919,0.01078509048172676,0.018119833831276213
104,0.25,0.001,0.017527604902571336,0.014859381575203062,14.952726832565192,0.010672895669211415,0.01911027536594442
105,0.25,0.001,0.017453644316765462,0.014821519230677739,14.750429259139285,0.010528500541855307,0.02314791562301772
106,0.25,0.001,0.01741755627076932,0.014783166039275283,14.763122032511445,0.01053756033726727,0.025845887804669992
107,0.25,0.001,0.01733961374374571,0.01468264051626251,14.889678071067676,0.010627892984345237,0.015391744407159942
108,0.25,0.001,0.017401367135026893,0.014827069880379838,14.42636178542745,0.01029718899745,0.018762219763760055
109,0.25,0.001,0.017512156273841256,0.014732298218370686,15.578321661096377,0.011119430164951018,0.02286571277571576
110,0.25,0.001,0.017385009512004983,0.01466391225268018,15.249031665042907,0.010884390910094865,0.017638372190828835
111,0.25,0.001,0.01722978332762604,0.014618291704908427,14.634801088712678,0.010445967943406622,0.01182091934606433
112,0.25,0.001,0.017253285222299755,0.014678461097124541,14.429314695017164,0.010299296713074349,0.015723205969801972
113,0.25,0.001,0.017251604389145934,0.01462516578979396,14.718562671459592,0.010505754940370872,0.014866903557309083
114,0.25,0.001,0.017243070382465343,0.014488612932694949,15.435979019184257,0.011017829421259284,0.022941049986651967
115,0.25,0.001,0.017082508648710526,0.014529874569429108,14.304960406997642,0.01021053562241088,0.014342040488762515
116,0.25,0.001,0.01706732118441266,0.014511462275210947,14.323033306400482,0.010223435621984642,0.013273734931967087
117,0.25,0.001,0.01710315053855592,0.014523881764364633,14.454222912151808,0.010317075597538763,0.011264140318546976
118,0.25,0.001,0.016953177454527138,0.014281689862647945,14.971017349877345,0.010685950999198677,0.013723795169166155
119,0.25,0.001,0.01701516297268177,0.014479512240859664,14.209785353326678,0.010142601965258157,0.018617831702743257
120,0.25,0.001,0.016995475550067213,0.01436319599111074,14.751294270570693,0.010529117966146105,0.011392823486988033
121,0.25,0.001,0.01693154686606801,0.014357674608865672,14.423978860792646,0.010295488123335222,0.01503917867583888
122,0.25,0.001,0.016904361940150898,0.014298431145998483,14.60363782022702,0.010423724354194875,0.011250400583126716
123,0.25,0.001,0.016913022630160642,0.01435687291137968,14.324664118307965,0.010224599656179846,0.014450805328254188
124,0.25,0.001,0.01685106667973833,0.014246980563481748,14.593299875331466,0.010416345378537806,0.016553626861423254
125,0.25,0.001,0.01690408595431812,0.014254919354163429,14.845928062419746,0.010596665283668627,0.01713006930159671
126,0.25,0.001,0.01693158749237619,0.014324498170475364,14.610130298047583,0.010428358528228111,0.02639006996261222
127,0.25,0.001,0.016893209683091874,0.014279283088179169,14.648446039829206,0.010455707380320632,0.02145663635539157
128,0.25,0.001,0.01676828955635616,0.014157949057724373,14.628350723900782,0.010441363828622971,0.01831327671451228
129,0.25,0.001,0.016773992994570313,0.014224167838129648,14.289219563193525,0.010199300187861188,0.020430304509188448
130,0.25,0.001,0.016656679995076484,0.014098072710730868,14.3384354132549,0.010234429274271878,0.015419018720941884
131,0.25,0.001,0.016696642495466568,0.014057316029120602,14.790785414746185,0.010557305792110054,0.01593560492619872
132,0.25,0.001,0.016688052011226827,0.014138368185919238,14.288427232795158,0.0101987346415383,0.014427855876939637
133,0.25,0.001,0.016653052364623815,0.013945828086370486,15.171283637846747,0.01082889624400196,0.009127092148576463
134,0.25,0.001,0.016634459140468905,0.014083333472986365,14.29650772728908,0.010204502303561085,0.01164791639894247
135,0.25,0.001,0.016633469329898242,0.014100807528914672,14.193037986755371,0.010130648099040237,0.010696172980325562
136,0.25,0.001,0.01652631892703042,0.013929495282977895,14.552598679396008,0.010387293846820848,0.010713958647102118
137,0.25,0.001,0.016557078226762695,0.01398673782157958,14.40418940527313,0.010281362887418365,0.014300503368888582
138,0.25,0.001,0.016578882388414002,0.01403083332746245,14.27926625893158,0.010192195759408693,0.014640273925449167
139,0.25,0.001,0.016541591951018318,0.013969806661027054,14.412286669541366,0.010287142519301474,0.012696206835763795
140,0.25,0.001,0.01654398671212965,0.013987534538718404,14.326358312323352,0.010225808930994541,0.013718044651406152
141,0.25,0.001,0.016460466102441253,0.013864823767178755,14.545978462065497,0.010382568495407207,0.013110036762165172
142,0.25,0.001,0.01645180362016338,0.013810284672685023,14.803071579344627,0.010566075359989028,0.012283917649516038
143,0.25,0.001,0.016369239800147505,0.013809516880501728,14.344686899737686,0.010238891434502274,0.012385370276336159
144,0.25,0.001,0.01631232564541645,0.013757991240892362,14.314490409582028,0.010217337908338349,0.010260534140148334
145,0.25,0.001,0.016296872221665357,0.013735264267594147,14.35524838877565,0.010246429970575054,0.010972243866750173
146,0.25,0.001,0.01633614564891576,0.013786958643148469,14.285643548749256,0.010196747715024452,0.015193673915096692
147,0.25,0.001,0.01625937494151388,0.013685014300630134,14.426717390641757,0.010297442819872774,0.015424811547355992
148,0.25,0.001,0.016228765896720912,0.01369095446837489,14.221895715151385,0.010151246049358591,0.015491205799792494
149,0.25,0.001,0.016251823604482248,0.013759181879329441,13.968765169907577,0.009970567573096058,0.014281194058379956
150,0.25,0.001,0.016261504564237233,0.013655121998875508,14.606167915786244,0.010425530275364914,0.015546298585832119
151,0.25,0.001,0.0162252754592325,0.013549892156753191,14.992848994449645,0.010701533900392322,0.013017417996057443
152,0.25,0.001,0.016202172667951667,0.013653182591163842,14.28454282842295,0.010195962047411099,0.01850692169474704
153,0.25,0.001,0.016333496467836706,0.013848210865589473,13.927541201901375,0.009941142899287206,0.013933355653924602
154,0.25,0.001,0.016194428802850266,0.013546645078310738,14.838177680969238,0.010591133248372048,0.012697638544653143
155,0.25,0.001,0.016164732637160673,0.013538715197359885,14.71620113363194,0.010504069331643068,0.012882720812090806
156,0.25,0.001,0.016226029272193573,0.013717545114307469,14.057544614566064,0.010033936198833736,0.02178621105849743
157,0.25,0.001,0.016205155588592632,0.013635526296286199,14.400200543535746,0.010278515734144001,0.012385096201407058
158,0.25,0.001,0.01607398979684868,0.013430038612495442,14.816703056508407,0.010575805179520633,0.010586359804230077
159,0.25,0.001,0.016103495949274047,0.013511919953698475,14.523191759508263,0.010366303896865284,0.012732785860342639
160,0.25,0.001,0.01607627452114217,0.013477327834617732,14.564498178304293,0.010395787422058739,0.009835129537220513
161,0.25,0.001,0.016078051883417654,0.013562371093376307,14.097875270795463,0.01006272324824801,0.02084729527788503
162,0.25,0.001,0.016053560121871664,0.013481777177781092,14.412269746026103,0.01028713043970457,0.021212862538439885
163,0.25,0.001,0.016040850625436764,0.013513944285361082,14.16078382535305,0.010107625856783048,0.017716610870723213
164,0.25,0.001,0.0160439257047864,0.013499573473666116,14.258550975424818,0.010177409689810719,0.0218536164611578
165,0.25,0.001,0.0160277495512584,0.013457838560851004,14.401782895816064,0.010279645179026456,0.01473886173750673
166,0.25,0.001,0.015873740349781302,0.013390376854228133,13.916768230178794,0.009933453411976299,0.010619953141680785
167,0.25,0.001,0.01591630046366144,0.01336003944831396,14.325284126723744,0.010225042203228939,0.012700854268457209
168,0.25,0.001,0.015878920023439814,0.013344230050554204,14.204403096542551,0.010138760240215953,0.011192760962460722
169,0.25,0.001,0.015911721837910956,0.01325606565537771,14.882297614359436,0.010622624992405022,0.012006424300904785
170,0.25,0.001,0.015892043794207368,0.013265605208930801,14.718560889025479,0.010505753668112405,0.013565025358859981
171,0.25,0.001,0.015954405228872443,0.013417342217915905,14.217701236907422,0.010148252131982456,0.02556692755648068
172,0.25,0.001,0.01597742644849442,0.013519815511776308,13.772451650585875,0.00983044371919049,0.02720365141119276
173,0.25,0.001,0.016012531674703963,0.013404840922513296,14.613501897086424,0.010430765094280103,0.02102434714990003
174,0.25,0.001,0.01591550454178295,0.013350022346794756,14.37696275062465,0.010261929158190328,0.01924550692949976
175,0.25,0.001,0.015924562378704397,0.013321583095928584,14.587094182031281,0.010411915904376361,0.015281612652220897
176,0.25,0.001,0.015963103352419527,0.013264228697744214,15.124495412600732,0.01079549993761651,0.020620712345199927
177,0.25,0.001,0.01589816352188287,0.013324305321317476,14.423901692445693,0.0102954330424309,0.024913599049406394
178,0.25,0.001,0.01598525721983285,0.013495354253977012,13.953417364836339,0.009959612680111592,0.022658682029162134
179,0.25,0.001,0.01586075430449746,0.013274944955084276,14.490875371457347,0.010343237238727586,0.017922836488911083
180,0.25,0.001,0.01587307797768329,0.013290147573900613,14.474744431618179,0.010331723363039386,0.01961223821022681
181,0.25,0.001,0.015785134850205943,0.013179611686795425,14.601352434614743,0.010422093101081187,0.01253526657819748
182,0.25,0.001,0.01569492277930906,0.013147533446625437,14.275570487495633,0.01018955780692051,0.01847028998391969
183,0.25,0.001,0.015758697590990092,0.01316386330356676,14.541451600696938,0.010379337330975687,0.011563278269022703
184,0.25,0.001,0.015607552190008632,0.01307448549125747,14.195304719266723,0.0101322660380205,0.011089992909026998
185,0.25,0.001,0.015600252518857306,0.013065020809470857,14.20743792123098,0.010140926424861514,0.017218143013971194
186,0.25,0.001,0.015748949824675205,0.01325224195454523,13.991550762647345,0.009986831379477049,0.018478465133479664
187,0.25,0.001,0.01566374171478322,0.01303022286340932,14.758238458513313,0.010534074559966676,0.01843018297638212
188,0.25,0.001,0.015623176080979389,0.012998263567442107,14.71000892389331,0.010499649481722563,0.009888046554156713
189,0.25,0.001,0.015674070762446906,0.013166195220344463,14.054133134164498,0.010031501166427193,0.016573064228785888
190,0.25,0.001,0.015686345171718213,0.01295142204873733,15.32650995614847,0.010939693045073855,0.016660425878529037
191,0.25,0.001,0.015592293410329734,0.013023255329569732,14.396890118980888,0.010276152832962803,0.013999244730387415
192,0.25,0.001,0.01569236162111576,0.013176492720335647,14.098928557234988,0.01006347505869735,0.012436136603355408
193,0.25,0.001,0.015664296661050854,0.013041464907471418,14.698349325722951,0.010491327141843648,0.017884643881448677
194,0.25,0.001,0.0155969801633349,0.013049153432775506,14.278022830972743,0.010191308230530152,0.021445400613759245
195,0.25,0.001,0.015559486153368987,0.013042635425118266,14.104432084398246,0.010067403343610453,0.025707332217799767
196,0.25,0.001,0.015548659127290063,0.012957712299934112,14.519665035853158,0.010363786606604681,0.01879659594435777
197,0.25,0.001,0.015434428765637899,0.012941741194547874,13.969022661973007,0.009970751364720205,0.013962453630353724
198,0.25,0.001,0.015474614989885154,0.012920212441637774,14.31487309722516,0.010217611061545439,0.012000192755034991
199,0.25,0.001,0.01552460593422429,0.01292581663183136,14.56361496058159,0.010395157002556454,0.01524947490543127
200,0.25,0.001,0.015458384599133162,0.012870703000453317,14.50136791488686,0.010350726563088409,0.014729096022035395
201,0.25,0.001,0.015521104388896104,0.012969089120682752,14.301493745606852,0.010208061203145505,0.012065615970641375
202,0.25,0.001,0.015454823428047094,0.012846483018540165,14.617141598718293,0.010433363025494856,0.015289164946547576
203,0.25,0.001,0.015401141795444698,0.012886837446212919,14.090162161915968,0.010057217817213396,0.011917170004120894
204,0.25,0.001,0.015476400140550935,0.012872783089483565,14.590669663186638,0.010414467996564338,0.021349652271185602
205,0.25,0.001,0.015425371057740988,0.012759339228572713,14.94044270743651,0.010664127557056752,0.013646349111305816
206,0.25,0.001,0.01547042998750354,0.012881455025741225,14.50861551058983,0.010355899722048416,0.013576117477246694
207,0.25,0.001,0.015415999339306985,0.012797266460711169,14.675379193399655,0.010474931615560068,0.011078148814184325
208,0.25,0.001,0.01538299990381567,0.012772734506848626,14.627926771226397,0.010441061221432117,0.014988751150667667
209,0.25,0.001,0.015416868045100337,0.012821935938309962,14.542000890678963,0.010379729400912894,0.015953396180910722
210,0.25,0.001,0.015409277674627095,0.01286066248684521,14.282439736335043,0.010194460911017162,0.011555859752531563
211,0.25,0.001,0.01526870291389206,0.012675022131643758,14.534986397481385,0.01037472262489749,0.009130886955452817
212,0.25,0.001,0.015240195660056636,0.012734209081763285,14.043548223654028,0.010023945912672397,0.00865891801991633
213,0.25,0.001,0.015251507124012003,0.012772004169315775,13.895134279649865,0.009918011620021316,0.01029067107343248
214,0.25,0.001,0.01532086689653865,0.012649538624159035,14.970122591974754,0.0106853123425944,0.012260542583784886
215,0.25,0.001,0.015207193712105679,0.01261567541161172,14.522869086085398,0.01036607358036074,0.009251095021941833
216,0.25,0.001,0.015253188897872002,0.012701589403021846,14.299161898999731,0.010206396787294597,0.011309835926762648
217,0.25,0.001,0.015269169213264355,0.012698641682620764,14.405235379408829,0.010282109478521649,0.011690716791365827
218,0.25,0.001,0.015268093772626643,0.012708889775597478,14.341779840983431,0.010236816446098095,0.014264169415192944
219,0.25,0.001,0.015265269420797038,0.012629878170018833,14.768732368795938,0.010541564859954274,0.01180890721401998
220,0.25,0.001,0.015299961988999501,0.012674175205192428,14.714910718595952,0.01050314826452245,0.019100456232471124
221,0.25,0.001,0.015236826172516088,0.012676156606872376,14.349992970675606,0.010242678779925487,0.019327660091221333
222,0.25,0.001,0.015230542081654521,0.012725268657171456,14.039551482693074,0.01002109313539834,0.019146407954394817
223,0.25,0.001,0.015265466849453353,0.012710597110391414,14.3174898978745,0.010219478870716989,0.01413523159655077
224,0.25,0.001,0.015201642203803926,0.012583664278276922,14.671149229823191,0.0104719123696097,0.013037214055657387
225,0.25,0.001,0.0152027341337776,0.012574790327127093,14.726995972602133,0.010511774427267761,0.010690208524465561
226,0.25,0.001,0.01519937616695535,0.012643878190996365,14.321011576904757,0.01022199256024608,0.016255686857870648
227,0.25,0.001,0.015227804401471872,0.012659188847923159,14.394522611680499,0.010274462963369377,0.01434507713254009
228,0.25,0.001,0.015215193048138313,0.012574132100235605,14.800506154596055,0.010564244221695971,0.009012536544884955
229,0.25,0.001,0.015274135775920426,0.012702505094860152,14.411418249384882,0.010286522661944955,0.00949587652991925
230,0.25,0.001,0.015194039805897838,0.01252808850915441,14.939991626691459,0.010663805586503539,0.015347064605781011
231,0.25,0.001,0.01517499378068321,0.012569172371188249,14.603024369823542,0.010423286488096747,0.013158444581287248
232,0.25,0.001,0.015080630288973112,0.012465361289923978,14.655967217548667,0.010461075815523675,0.010656563631658043
233,0.25,0.001,0.015042209971968264,0.012445913219557,14.549647278389342,0.010385187207986682,0.012807088438421488
234,0.25,0.001,0.01497739838478472,0.012444118359208257,14.196499620336729,0.010133118929576537,0.010530739889613219
235,0.25,0.001,0.015020866505332497,0.012462336724853936,14.338003259461832,0.010234120813320365,0.009541627884443318
236,0.25,0.001,0.015093772362457866,0.012461700624497772,14.750130545282245,0.01052828732711081,0.012326510090913092
237,0.25,0.001,0.015030873756414697,0.012420914325891274,14.62621317942737,0.010439838100947445,0.010153266401695353
238,0.25,0.001,0.015054411318162526,0.012458220032754564,14.549056324610483,0.010384765399436462,0.012095614269907986
239,0.25,0.001,0.015029366590289084,0.012411578337870707,14.670086598816686,0.010471153889233895,0.009975782462528773
240,0.25,0.001,0.01499635379254743,0.012416283445202883,14.458714677344641,0.010320281711166767,0.012081319466233253
241,0.25,0.001,0.015002224547436615,0.012409688799315947,14.528569454510206,0.01037014236581742,0.010515248602522271
242,0.25,0.001,0.015020890283381909,0.012406786842745557,14.64943553098203,0.010456413655233426,0.012780373516891683
243,0.25,0.001,0.014952982060367274,0.012345881654085681,14.610191037732948,0.01042840188275014,0.012532486979450499
244,0.25,0.001,0.014950407844890726,0.012433693448658705,14.103665291812618,0.010066856025562183,0.013283252849110536
245,0.25,0.001,0.014998515448544728,0.012355264323184113,14.812779527467203,0.010573004659148611,0.010761246617351259
246,0.25,0.001,0.015028151326932445,0.012510918155875555,14.106574611039246,0.010068932627437006,0.013351199350186757
247,0.25,0.001,0.014933852202045527,0.012340135065374206,14.535191615222383,0.01037486910437001,0.01703214113201414
248,0.25,0.001,0.014944844773644465,0.012301778882948367,14.81174196824619,0.010572264074408417,0.015880338182406768
249,0.25,0.001,0.015102856454699855,0.012587472399982907,14.096212444737816,0.01006153636312478,0.01496738794126681
250,0.25,0.001,0.014934968782743668,0.012339150237496615,14.546967083621086,0.010383274149622474,0.012361894029059581
251,0.25,0.001,0.014972132041825155,0.01235419902152919,14.670897904211088,0.010471732979451169,0.014816731746707643
252,0.25,0.001,0.0149266444292079,0.012356549944794298,14.402810987957778,0.010280379006393846,0.012689597172928708
253,0.25,0.001,0.014916249360861045,0.01241947338688809,13.99193373375035,0.009987104735010957,0.014290060847997665
254,0.25,0.001,0.014843422253276,0.01224895641536121,14.539386999096617,0.010377863668163182,0.01052102419946875
255,0.25,0.001,0.01485014035922454,0.012289745758946806,14.348452491183725,0.01024157922282921,0.009423200905855213
256,0.25,0.001,0.014891991434004204,0.012307324775163863,14.484472553435742,0.010338667061695747,0.017834222077258995
257,0.25,0.001,0.014890135073522926,0.012290379520439982,14.569030170776982,0.010399022248948595,0.008443255576172046
258,0.25,0.001,0.014868226784377615,0.012253388361325042,14.653554560855895,0.010459353719383222,0.013003230760140079
259,0.25,0.001,0.014897948961414078,0.012332004173576681,14.379554983950982,0.010263779431799416,0.015210815705358982
260,0.25,0.001,0.014816638077574053,0.012159556126977394,14.890287394487588,0.010628327904702061,0.016020847351423333
261,0.25,0.001,0.014960347067198766,0.012432789864013867,14.164429417184978,0.010110227992280498,0.014640474292848791
262,0.25,0.001,0.014930996757648153,0.012290810333372513,14.795605339991956,0.010560746138466779,0.021627480031124184
263,0.25,0.001,0.01486508724202287,0.012167085694050608,15.119600108648727,0.010792005787757835,0.01009514941168683
264,0.25,0.001,0.014876729370064339,0.012281779767546606,14.54209639984054,0.01037979757304821,0.013150324645851339
265,0.25,0.001,0.01478051839006938,0.012165290624916704,14.655737245112883,0.01046091166674724,0.012286782530801637
266,0.25,0.001,0.014851523945647612,0.012256718909260007,14.54128795787129,0.010379220526674726,0.0156502683780023
267,0.25,0.001,0.014799239693364358,0.012221224122781597,14.447198423390425,0.010312061686931067,0.0173476424866489
268,0.25,0.001,0.01489335990344322,0.012319720842845043,14.422674078184652,0.010294556800988331,0.016159499330180033
269,0.25,0.001,0.014883832729208079,0.012277977276002279,14.603215265634379,0.010423422744921041,0.012168959780995334
270,0.25,0.001,0.014898953133588773,0.012247161960853287,14.860638265345498,0.010607165071624196,0.01585022173821926
271,0.25,0.001,0.014869475694987876,0.01225644160268514,14.643442336498039,0.010452135857600313,0.01842293994767325
272,0.25,0.001,0.014869514543103332,0.012230206836925196,14.790680690736554,0.010557231042638511,0.012831029216093677
273,0.25,0.001,0.014959604495793807,0.012368068598698758,14.522966925383214,0.010366143415691087,0.021211770496198108
274,0.25,0.001,0.014819563185838368,0.012181995696944163,14.780927552384153,0.01055026948778312,0.017628997697361877
275,0.25,0.001,0.014742107996224456,0.01208628065208494,14.88325664558699,0.010623309525758023,0.012811329415334123
276,0.25,0.001,0.01473872607071844,0.012128898848120302,14.625471951078708,0.010439309030034767,0.013111031880336148
277,0.25,0.001,0.014761131585244868,0.012180301869846411,14.462970082645752,0.01032331911680639,0.012236881136362041
278,0.25,0.001,0.014783076754294956,0.012166144096430964,14.6652900710214,0.010467730243412847,0.01696950489921229
279,0.25,0.001,0.014698123514783622,0.012125111651848486,14.419157804109588,0.010292046969385859,0.011226111424288579
280,0.25,0.001,0.014690103835100192,0.012089138735620591,14.57580999283106,0.010403861522363354,0.01427664840593934
281,0.25,0.001,0.014653603192090388,0.012060009618700301,14.534498301200962,0.010374374233548153,0.008480032639844077
282,0.25,0.001,0.014723586495637294,0.012117040268513807,14.607086354599192,0.010426185834831686,0.010850582138768263
283,0.25,0.001,0.014567875732627864,0.01199493557449327,14.418757224863663,0.010291761045584342,0.012793756356196744
284,0.25,0.001,0.014653819099406452,0.012045629803438481,14.616293880741303,0.010432757944854605,0.015912569926253388
285,0.25,0.001,0.014660652018426647,0.012017921478926235,14.809861894218388,0.01057092212292533,0.015885465911456516
286,0.25,0.001,0.014803990477728905,0.01212749637485076,14.999073011749037,0.010705976453782325,0.01880172546952963
287,0.25,0.001,0.014742915624147397,0.01207138308011915,14.971269295257645,0.010686130831732794,0.024221046162503108
288,0.25,0.001,0.014805726383247363,0.012214758569463824,14.519784442123298,0.010363871835919556,0.01890194495873792
289,0.25,0.001,0.014692510405475607,0.011965604318348077,15.28158209726252,0.01090762462331372,0.014225690625607967
290,0.25,0.001,0.014709698435116174,0.012181102898750707,14.170248706635059,0.010114381660695974,0.017238834739795754
291,0.25,0.001,0.014740706756898678,0.011951931871905436,15.62829431778838,0.011155099441676218,0.013585662336221762
292,0.25,0.001,0.014641079676316428,0.011955408400548645,15.050501309353999,0.010742684731872947,0.01436233932950667
293,0.25,0.001,0.014636496210972818,0.01213218413424732,14.034165250264127,0.01001724857263678,0.012306779489985533
294,0.25,0.001,0.014665779636548809,0.011967652399909287,15.120305563400615,0.010792509324340196,0.013052466924169235
295,0.25,0.001,0.014647666139701752,0.01200064921502953,14.833882459164867,0.010588067422672995,0.010134666559419461
296,0.25,0.001,0.014595866942266823,0.012071163027596563,14.148441540504283,0.010098816231623328,0.011560452104146992
297,0.25,0.001,0.014524320079487577,0.011833476507918961,15.079487613226364,0.010763374456264357,0.011974778358957596
298,0.25,0.001,0.014574812438986463,0.012006886664693541,14.390657290403428,0.010271703990295096,0.013553998566099576
299,0.25,0.001,0.014586830169187685,0.012045741184457424,14.240263129361631,0.010164356266496526,0.012727841468794006
300,0.25,0.001,0.014548871318999707,0.011918622695416287,14.739914903712814,0.010520995648617283,0.014340926161301988
301,0.25,0.001,0.014500829984694343,0.011942065323254925,14.339316793292836,0.010235058382079111,0.011004015803337097
302,0.25,0.001,0.01462878770094074,0.01202346818751517,14.600210737521461,0.010421278185240157,0.013262902253440447
303,0.25,0.001,0.014604279412524375,0.011921609866829302,15.03368063477485,0.01073067854016763,0.013037960244608777
304,0.25,0.001,0.014537247920629359,0.011979909367408951,14.331325862509779,0.010229354648472362,0.011929659438984734
305,0.25,0.001,0.014635492737876529,0.012087982434131938,14.276247798045276,0.010190041254850304,0.013442661347133773
306,0.25,0.001,0.014597147224607036,0.011867837330575103,15.295052797428006,0.010917239684102789,0.015437850595584937
307,0.25,0.001,0.0145682821435014,0.011894862894766427,14.981841558172961,0.010693677057939301,0.01264789913381849
308,0.25,0.001,0.01453245564431928,0.011913148127965423,14.678601113614867,0.010477231344478848,0.010893870810312884
309,0.25,0.001,0.014554868783022956,0.011972472681581824,14.471748431323457,0.010329584890309391,0.009924689773470163
310,0.25,0.001,0.014472563056655284,0.01187072978624769,14.580673974467164,0.01040733331510861,0.010822417414081948
311,0.25,0.001,0.014502145800392333,0.01186587653294093,14.773653256202525,0.010545077270665615,0.017556737576212202
312,0.25,0.001,0.014543478337283098,0.01195161293263099,14.524812410099981,0.010367460678158445,0.012318818297769343
313,0.25,0.001,0.014550845253677752,0.011886288285236664,14.93217690225212,0.010658227624733847,0.010896396889750446
314,0.25,0.001,0.014489937789494204,0.011852897607465685,14.777972730641402,0.010548160407310065,0.01483161554538778
315,0.25,0.001,0.01456836055523202,0.011975064969877302,14.532828530376444,0.010373182391417875,0.016486000269651413
316,0.25,0.001,0.014496757121057595,0.011847850371630726,14.844473939698648,0.010595627365951927,0.011521535792521067
317,0.25,0.001,0.014452961956148484,0.011898628428991255,14.314483998104066,0.010217333331980062,0.012925476767122746
318,0.25,0.001,0.014444168103431874,0.011887354297699496,14.328385446774268,0.01022725585065972,0.011956205857651574
319,0.25,0.001,0.01450881305190568,0.011866179442675949,14.80931833589107,0.010570534144104976,0.01166940959436553
320,0.25,0.001,0.014459777395862626,0.011820124975999146,14.792612135860722,0.010558609661570822,0.011453299117939813
321,0.25,0.001,0.014565203193415623,0.011983889497591356,14.46568279842886,0.010325255387886409,0.012814727212701525
322,0.25,0.001,0.014494295497084746,0.011780959256087202,15.20553550912391,0.010853344403371813,0.012646760392401899
323,0.25,0.001,0.014507127069499842,0.0119091489467235,14.559069940965783,0.010391912877206127,0.012472801775272404
324,0.25,0.001,0.014418390091574312,0.01181734603142333,14.576251416722833,0.010404176600087675,0.014334958977997303
325,0.25,0.001,0.014406801818375023,0.011834182750705809,14.416958359687094,0.010290477059020052,0.009410909510084562
326,0.25,0.001,0.014482880079232026,0.011791892537392056,15.080294155053588,0.010763950146362304,0.009796633185552699
327,0.25,0.001,0.014453344262892413,0.011807486217853705,14.82738882108059,0.010583432420471512,0.010006322392395564
328,0.25,0.001,0.014427602990185584,0.011815453175764991,14.638488786346667,0.010448600133009755,0.009545358496585063
329,0.25,0.001,0.014466421580134472,0.011780612522581363,15.051273228239353,0.010743235708950288,0.01309879164078406
330,0.25,0.001,0.014449425135511595,0.011784423682228744,14.934668735532977,0.01066000623521269,0.01822321116924286
331,0.25,0.001,0.014423335186893153,0.011863972860334502,14.342665958164321,0.010237448935163684,0.01318946573883295
332,0.25,0.001,0.014443573851598149,0.01186005351478492,14.478049506468496,0.010334082445730548,0.01275510507236634
333,0.25,0.001,0.014394154751049331,0.011699607799894714,15.100241694702609,0.010778188218916922,0.012526985390910081
334,0.25,0.001,0.014378808574840163,0.011810369071754761,14.393534742014234,0.01027375784583457,0.010482988918998412
335,0.25,0.001,0.014404367932331952,0.011790039564391378,14.650697198862993,0.010457314203328332,0.010067266877740622
336,0.25,0.001,0.014411306961132237,0.011800166287504006,14.632832971568071,0.010444563148870857,0.013796998387468713
337,0.25,0.001,0.014323840119526428,0.011622499163152288,15.138316096827126,0.010805364808584673,0.008868536246674401
338,0.25,0.001,0.014279570529045025,0.011649212518458253,14.740526112861538,0.01052143191496184,0.011659671219864063
339,0.25,0.001,0.014356263835799484,0.011778406125566071,14.446315013491537,0.010311431130258057,0.010748000615941626
340,0.25,0.001,0.014339576665340203,0.011686388177970795,14.868470160726936,0.010612755289598099,0.011830857954919338
341,0.25,0.001,0.014359311794191223,0.011644790251680675,15.212178463299269,0.010858085983796766,0.012045370547899179
342,0.25,0.001,0.014376418547756425,0.011720588792030997,14.883269485358326,0.010623318690477035,0.011126318813434668
343,0.25,0.001,0.014439885333293032,0.011775255290045396,14.932586965392758,0.010658520317910605,0.012506310561937945
344,0.25,0.001,0.014421563328100693,0.011739671406258714,15.029321771424723,0.01072756728866861,0.011700376269540616
345,0.25,0.001,0.014379302863153613,0.011719604036876326,14.904953046169329,0.010638795893054482,0.012752835705344166
346,0.25,0.001,0.014402804886851863,0.011752549054509296,14.852033706395993,0.010601023345036398,0.014893200913710254
347,0.25,0.001,0.014347159406944397,0.011713677724021057,14.758030065060863,0.01053392581374794,0.011121469416788645
348,0.25,0.001,0.014389385495062738,0.011741495817918472,14.838774457686494,0.010591559213195214,0.011226324031927757
349,0.25,0.001,0.014326301607437038,0.01166781939106339,14.898135043511763,0.010633929367246083,0.011943272913673095
350,0.25,0.001,0.014333701908344435,0.011725252027381727,14.617753439646224,0.010433799742788168,0.0182665776727455
351,0.25,0.001,0.014390660811131186,0.01172470134126975,14.940038056457674,0.010663838726950517,0.014340384331132685
352,0.25,0.001,0.014411260603788667,0.011735657262862178,14.994081146470846,0.01070241338077862,0.016872914907123362
353,0.25,0.001,0.014329501439439559,0.011708553047658363,14.687793265662206,0.01048379248084383,0.009946237983448165
354,0.25,0.001,0.014297817090071118,0.011612910857091022,15.046214682629486,0.010739625041134538,0.011299783031323127
355,0.25,0.001,0.014252350820458356,0.011650159940949315,14.582678360062221,0.010408763997189308,0.010830741774822985
356,0.25,0.001,0.01424147596850203,0.011631323270950119,14.627296325241588,0.010440611224298063,0.014251454866358213
357,0.25,0.001,0.014235956758561001,0.011589208641265442,14.832375725811014,0.010586991952755899,0.013803304971328803
358,0.25,0.001,0.014354373706077748,0.011707091136302996,14.835372799890168,0.010589131191927314,0.011632106067346675
359,0.25,0.001,0.014319949199255527,0.01171913580448186,14.574958277589428,0.01040325358857204,0.014746480355305331
360,0.25,0.001,0.014342066411970545,0.01166056986588525,15.02710700815811,0.010725986444081449,0.011133099107870035
361,0.25,0.001,0.014408171439651278,0.011680450726779042,15.28614843402161,0.010910883964326632,0.011560822504439525
362,0.25,0.001,0.014360576891516258,0.011715912426674096,14.820699319431103,0.010578657615582516,0.012239695992320776
363,0.25,0.001,0.014287787341801285,0.01165790991477612,14.737833719709958,0.010519510149685909,0.0108281913479524
364,0.25,0.001,0.014273178306236976,0.011577166874965733,15.108447903649934,0.010784045612883607,0.011570640041359834
365,0.25,0.001,0.014245192883935023,0.011682451636969142,14.361603105098235,0.010250965813774614,0.012771988620183297
366,0.25,0.001,0.014269005282024292,0.011633217011013018,14.770957226116652,0.010543152909433726,0.013737654845629419
367,0.25,0.001,0.014272360970976972,0.01155536866955628,15.226025393988083,0.01086796958885659,0.016375717307840074
368,0.25,0.001,0.01426393307407647,0.01161680417252653,14.834510301162373,0.010588515561143735,0.012852723909808057
369,0.25,0.001,0.014255649189673533,0.01150382979202931,15.421194780383363,0.0110072767882822,0.016149199102073908
370,0.25,0.001,0.014190528785777031,0.011569961842140113,14.6856585389721,0.010482268764434048,0.016651870283697332
371,0.25,0.001,0.01427245744848882,0.011706981148749065,14.37692947051387,0.010261905403650157,0.015812197434050695
372,0.25,0.001,0.014162617963117076,0.01146880681075212,15.096118307233757,0.010775245044420954,0.014109767175146512
373,0.25,0.001,0.01424346836072672,0.011629018153741918,14.651380036880147,0.010457801596631082,0.013644040961350714
374,0.25,0.001,0.014235086947848424,0.01158738818244835,14.837703796117673,0.010590795000797768,0.016642660168664797
375,0.25,0.001,0.014324462822443743,0.011595168688172657,15.2949643339258,0.01091717654098915,0.018711491354874203
376,0.25,0.001,0.014254159089975453,0.011573922426277954,15.020047488080465,0.010720947528965357,0.011334211499031101
377,0.25,0.001,0.01417340955202015,0.011550917566967401,14.696444989451834,0.010489967872556627,0.010162732497389828
378,0.25,0.001,0.014172709683045482,0.011540789699055237,14.749279384949345,0.01052767978939996,0.010474189982882567
379,0.25,0.001,0.014251303931777964,0.011586449679071718,14.933844816174254,0.010659418141452002,0.013576674075531108
380,0.25,0.001,0.01417386304277467,0.011547764627173806,14.716655637515283,0.010504393745549808,0.015839878602751663
381,0.25,0.001,0.014145072981227256,0.011476973843495702,14.952027152707656,0.010672396254609319,0.010376728538955961
382,0.25,0.001,0.014242080303016928,0.01155999517983168,15.030404516071156,0.010728340125675343,0.010251696687191725
383,0.25,0.001,0.014216683959818307,0.011482369243835923,15.323099885839659,0.010937259019157501,0.010907874775252171
384,0.25,0.001,0.01425235364492279,0.011565160315943604,15.059032156725674,0.010748773844914829,0.016633738364492143
385,0.25,0.001,0.014263686834264462,0.011596243216255,14.948354754700167,0.01066977498551047,0.018057885579764843
386,0.25,0.001,0.014287907400306887,0.011686122188020863,14.580405850254317,0.010407141934514145,0.019034538018916334
387,0.25,0.001,0.014216442376619173,0.011555038887528839,14.914504531648959,0.010645613512954288,0.014180145825126342
388,0.25,0.001,0.014237438666373867,0.011510938493961877,15.279307636866342,0.010906001168355705,0.015996939901794707
389,0.25,0.001,0.01417264846207513,0.011529252022242066,14.813594042203889,0.01057358604011698,0.015059223132474082
390,0.25,0.001,0.014112340964339392,0.011531936314416772,14.460587460688439,0.010321618458735502,0.01347076946071216
391,0.25,0.001,0.014112665491549284,0.011381999127360376,15.302655068692992,0.010922666001922193,0.01411506048004542
392,0.25,0.001,0.014181201383752997,0.011590487628668471,14.518360219614332,0.010362855260252914,0.013907499012670346
393,0.25,0.001,0.014212643516529117,0.01158271986118492,14.738092163047503,0.010519694620305142,0.01472794943089996
394,0.25,0.001,0.014148490151545262,0.011420814939762844,15.285892078197874,0.010910700983724392,0.009744576843721526
395,0.25,0.001,0.014136098191536193,0.011473867669232396,14.919141012715453,0.010648922921281551,0.01097908875505839
396,0.25,0.001,0.014115032571032455,0.011524272022266833,14.518622436811702,0.010363042424562242,0.014284400535481316
397,0.25,0.001,0.014125022621970783,0.011481428303068471,14.814703648276533,0.010574378050161693,0.010821573702352387
398,0.25,0.001,0.014035556376243118,0.011387740348651067,14.838360711969717,0.010591263891484452,0.012116658102188791
399,0.25,0.001,0.014060371097937339,0.011437946707667122,14.696066082875134,0.010489697418183536,0.013077095017901488
400,0.25,0.001,0.014175337887080551,0.011511895505322016,14.925931301164987,0.010653769665356878,0.010392674244940281
401,0.25,0.001,0.014033341320508373,0.011366271174580835,14.946261410749228,0.01066828080710152,0.009835723521453994
402,0.25,0.001,0.01411391631641451,0.011487611738369057,14.717810520297034,0.010505218073017155,0.015430385313395942
403,0.25,0.001,0.014141685341107154,0.011405987102041016,15.330852993789788,0.010942793000563732,0.01076339983514377
404,0.25,0.001,0.014031951116299448,0.011345996380659284,15.05209004668805,0.010743818734252713,0.011681053920515947
405,0.25,0.001,0.014041199909537205,0.011434899385014468,14.60570849939918,0.010425202355031535,0.01173073026750769
406,0.25,0.001,0.014084447958795189,0.011304400119958657,15.579388522381146,0.011120191664797392,0.01182930450886488
407,0.25,0.001,0.014091447783957801,0.011453185563611443,14.78482196673338,0.010553049226790422,0.013848409322755677
408,0.25,0.001,0.01415013709112589,0.011497669691402906,14.864428448136568,0.010609870412659934,0.018324175849556923
409,0.25,0.001,0.014127851578803446,0.01131507846754354,15.762781085535622,0.011251092851916932,0.013895380310714245
410,0.25,0.001,0.014124523360347868,0.011440409701645974,15.041772852016036,0.010736454569604594,0.016751706334097043
411,0.25,0.001,0.014199228994829829,0.011479690750727726,15.24029347398119,0.010878153800129329,0.017803967132100036
412,0.25,0.001,0.01417769831828116,0.01148406600565544,15.095116300606907,0.010774529836264745,0.021229975457702364
413,0.25,0.001,0.014154488565658293,0.011503821825350561,14.854336265352572,0.010602666856068931,0.02244343009910413
414,0.25,0.001,0.014106224591301881,0.01141426690926855,15.085731064342431,0.010767830881043848,0.012395920897168773
415,0.25,0.001,0.014051991847979482,0.011375263009586321,15.000388234328263,0.01070691522792881,0.015307173931172915
416,0.25,0.001,0.014077041776714757,0.01140648133874465,14.96582094668141,0.01068224193196389,0.011963587054716689
417,0.25,0.001,0.014160472346042806,0.01142443667262117,15.332743012935149,0.010944142050631798,0.009403186185019357
418,0.25,0.001,0.014130642093361475,0.011444208798672,15.054772840639206,0.010745733647850968,0.01298495608248881
419,0.25,0.001,0.014076850055634825,0.01135371024169084,15.260476383814584,0.010892559874243101,0.010844935263906206
420,0.25,0.001,0.014136829861540638,0.011483237264626273,14.87073301127936,0.010614370457729736,0.014588708191045694
421,0.25,0.001,0.014077750736054606,0.01148099003251764,14.552247201165263,0.010387042970139374,0.01434096906866346
422,0.25,0.001,0.014020808733136438,0.011249841197912279,15.528501436151846,0.011083869690329654,0.012563355865755252
423,0.25,0.001,0.014008447506772331,0.011386218192220035,14.694973525232271,0.010488917576896696,0.013140611816197634
424,0.25,0.001,0.01397473104908049,0.011394516173140228,14.459524097010231,0.010320859455396311,0.013094681381647075
425,0.25,0.001,0.013932110486031329,0.011222395154480971,15.185244065388023,0.01083886086037689,0.013976864516735077
426,0.25,0.001,0.014090016571058885,0.011469435575476822,14.685735390228349,0.010482323619006672,0.013679033677492822
427,0.25,0.001,0.014016982435391892,0.01135090669565447,14.940688885129068,0.01066430327275451,0.017882563040724823
428,0.25,0.001,0.013980926403902489,0.01130757194659872,14.981478299542099,0.010693417772692433,0.01560685211526496
429,0.25,0.001,0.013978872527966571,0.011332325665491354,14.831249184212096,0.01058618785454111,0.013279726396181754
430,0.25,0.001,0.013983990307381232,0.011409741204691773,14.426091210968249,0.0102969958679288,0.01591973033334528
431,0.25,0.001,0.013977789449076208,0.011257465067847399,15.24469840196278,0.01088129793145095,0.01027402707508632
432,0.25,0.001,0.013988672014354008,0.011244517530523409,15.378242790548867,0.010976618694181919,0.011164116407079356
433,0.25,0.001,0.013959863004966707,0.011392410028190997,14.388005835583588,0.010269811445812696,0.01182891455079828
434,0.25,0.001,0.01401167517288656,0.011280047885548107,15.308040537221606,0.010926510019430126,0.010338759515434504
435,0.25,0.001,0.014028248046372338,0.01124373924512632,15.60438736259787,0.011138035233831457,0.012427635490894318
436,0.25,0.001,0.013953336469960453,0.011254969379050605,15.121648865322623,0.010793468140844129,0.012189131030546767
437,0.25,0.001,0.014008098415636296,0.011358691219906663,14.847277684536028,0.010597628611374752,0.014637325225131852
438,0.25,0.001,0.013945202096846302,0.011270786863130046,14.987423305847782,0.01069766117476644,0.010712697769382171
439,0.25,0.001,0.013897714280155054,0.011269090422698923,14.730809451951188,0.010514496396824545,0.011497986569468464
440,0.25,0.001,0.013975180005208972,0.011281903352241222,15.093122691291406,0.01077310684603241,0.013174873311072588
441,0.25,0.001,0.013954854999629016,0.011241261192810926,15.206979336005915,0.010854374972166963,0.011592351698449679
442,0.25,0.001,0.013974574889509143,0.011313914426928503,14.910342170849855,0.010642642520235442,0.009282110192413841
443,0.25,0.001,0.014000872994587764,0.011246069475201426,15.437920289315866,0.011019215053044871,0.010756174634609903
444,0.25,0.001,0.014024042264002397,0.011310665666475254,15.205763552591241,0.010853507175297103,0.010883332097104617
445,0.25,0.001,0.013959597463083808,0.011276839922653789,15.034173160716328,0.010731030093302162,0.010463087154286248
446,0.25,0.001,0.013941555933778172,0.011276497956018153,14.93498477887747,0.010660231819327244,0.012277476090405668
447,0.25,0.001,0.013983160782821233,0.011323680549916303,14.903727971036128,0.010637921463980106,0.011717312836221285
448,0.25,0.001,0.014005696236786975,0.011269659728224692,15.33274854040266,0.010944145996004753,0.012080075485365731
449,0.25,0.001,0.013992817983294013,0.011331107629280097,14.91622543334961,0.010646841851070385,0.011802272006337131
450,0.25,0.001,0.013942317234854253,0.011193081992267812,15.40671531379373,0.010996941694356695,0.010412679785596473
451,0.25,0.001,0.013856988456522487,0.011160309170783317,15.112189936697934,0.010786716585794385,0.010593165776559285
452,0.25,0.001,0.0139905453826153,0.01136168202746575,14.73214982318638,0.010515453121474932,0.012961779454989093
453,0.25,0.001,0.013938911324859566,0.011137682702908437,15.69808597228389,0.011204915040887858,0.013879357038864068
454,0.25,0.001,0.013907769150675394,0.011202865106614321,15.158282020530413,0.010819616003233699,0.00956448061125619
455,0.25,0.001,0.013889515087458889,0.011242990980220382,14.831120668790803,0.010586096123333907,0.013435324387890952
456,0.25,0.001,0.013938373984576622,0.011298575546470487,14.793429674970113,0.010559193201263464,0.015806517164622034
457,0.25,0.001,0.013984874632181388,0.01126381215318024,15.248832959672367,0.010884249078995266,0.017045086116663048
458,0.25,0.001,0.013915569007734508,0.011285880939467278,14.736770985408754,0.010518751595580838,0.018117876590362618
459,0.25,0.001,0.014021975480920872,0.011379376705970511,14.809123392369345,0.010570394998122302,0.01876867442790951
460,0.25,0.001,0.01389049943208094,0.011116381028493496,15.546159660185614,0.011096473704629274,0.012587066074567181
461,0.25,0.001,0.013923841627122322,0.011168228546790872,15.44245550314185,0.011022452179258993,0.01656896554465805
462,0.25,0.001,0.013807475634895134,0.01117978025443608,14.72560617845665,0.010510782425736366,0.01121250240664397
463,0.25,0.001,0.01388195912196519,0.011259040708468303,14.698834044506928,0.010491673122417507,0.01502476739031928
464,0.25,0.001,0.013878589627386941,0.01107407316696884,15.716510537289253,0.011218066050884549,0.011316431686282158
465,0.25,0.001,0.013887952086550913,0.011179402742713165,15.178710341753828,0.010834197246076965,0.012394987978041172
466,0.25,0.001,0.013943766888878507,0.011223622853457177,15.243687865115533,0.010880576634629217,0.011455164424010686
467,0.25,0.001,0.014022178774328917,0.011328888942091081,15.093197380565575,0.010773160157434387,0.011847538208322865
468,0.25,0.001,0.013947157118872972,0.011201692010822615,15.385586174068884,0.010981860224174793,0.01018038485199213
469,0.25,0.001,0.013898118776773626,0.011171662272130062,15.279063179150636,0.010905826680335929,0.01013105349349124
470,0.25,0.001,0.013854415965282947,0.01116719159534581,15.059205941649468,0.010748897888400763,0.01120139951152461
471,0.25,0.001,0.013974281168667136,0.0113099034434602,14.931172358899634,0.010657510605924079,0.01838704664260149
472,0.25,0.001,0.013961277038834858,0.011178978193335479,15.59200400969844,0.011129196295287967,0.01673479937016964
473,0.25,0.001,0.013904575530617904,0.0111737480968875,15.303557434370296,0.010923310088772517,0.011769158166966267
474,0.25,0.001,0.013881583055317101,0.011127339694789734,15.434779993532887,0.01101697358567658,0.011085956889603819
475,0.25,0.001,0.01384848962896867,0.011110544401767572,15.343446210289482,0.010951781734682,0.014637588855943509
476,0.25,0.001,0.013820617499594725,0.011120572866829726,15.131050032992807,0.010800178467518063,0.00930606753432325
477,0.25,0.001,0.01384418998007435,0.011184145412607217,14.906890393504568,0.010640178724842662,0.011043106870991843
478,0.25,0.001,0.013771465073998838,0.011138312105718128,14.756188507944872,0.01053261135470726,0.009565784662429775
479,0.25,0.001,0.01388495482072722,0.011099507121993252,15.609647827724967,0.011141790026927171,0.014102608697222812
480,0.25,0.001,0.013863838510001336,0.011190348222701615,14.982239165894631,0.010693960860738495,0.017159005693559135
481,0.25,0.001,0.013915587610726993,0.011253278998080969,14.919577629800408,0.010649234568023132,0.021836175583302975
482,0.25,0.001,0.013808516170876452,0.011083677636285873,15.269995610119414,0.010899354468322209,0.014121574549270528
483,0.25,0.001,0.013801494613289833,0.011069626413679843,15.309390272241396,0.01092747342772405,0.011216666815536363
484,0.25,0.001,0.01379746592765491,0.011090557330219962,15.169515107680928,0.010827633909836494,0.011586272423820836
485,0.25,0.001,0.013841082041693724,0.011205078996436421,14.772160421991229,0.010544011721621149,0.01265605419342007
486,0.25,0.001,0.013833343147555887,0.01104695655367987,15.614909964784868,0.011145546013408185,0.014383513546947922
487,0.25,0.001,0.013794842544445763,0.011037396881682447,15.452724711420554,0.01102978209237727,0.011363967388336147
488,0.25,0.001,0.013772221877983295,0.01107295913391885,15.126667791409817,0.010797050529200441,0.008658804997269596
489,0.25,0.001,0.013807257792211,0.011066017583275321,15.36190945315421,0.010964960352001578,0.01058007390903575
490,0.25,0.001,0.0137925914791354,0.011096751232929435,15.107488761921074,0.010783361000657441,0.010486116566296135
491,0.25,0.001,0.013829484413042476,0.01114671158672355,15.034259534302526,0.010731091744684174,0.012217923333602292
492,0.25,0.001,0.01378734003968293,0.0109669179596964,15.805646855524865,0.01128168940437178,0.009890870457249028
493,0.25,0.001,0.013896116444967705,0.011176823704064793,15.238917271496367,0.010877171499997408,0.014862224592694215
494,0.25,0.001,0.013778037612117659,0.01101755049849112,15.469770155265289,0.011041948718961662,0.012468832145844187
495,0.25,0.001,0.013798156607736568,0.011104415930920195,15.0957231065188,0.010774962959685082,0.009952223593635219
496,0.25,0.001,0.013855174465353602,0.011095230774930503,15.46672519328312,0.011039775298560399,0.014170687246535505
497,0.25,0.001,0.013729532584735669,0.010936776309811349,15.650606717510849,0.011171025494297536,0.00963916682771274
498,0.25,0.001,0.013763600765664121,0.011104663585310318,14.900684005967916,0.010635748755151974,0.009240930367793356
499,0.25,0.001,0.013831377559592501,0.011117030172057505,15.211203570329873,0.010857390128715113,0.010101482937378543
500,0.25,0.001,0.013761398595961876,0.01097022339241856,15.64174695339251,0.011164701608417208,0.012926738975303513
