epoch,beta,learning_rate,train_loss,train_reconstruction_loss,train_kl_unnormalized,train_kl_normalized,mean_unclipped_gradient_norm
1,0.0,0.001,0.06317194195894095,0.06317194195894095,120.57776360144982,0.08606549864486068,0.1490814456982272
2,0.02,0.001,0.0508506664289878,0.045832750831659025,351.5050016745543,0.25089578991759764,0.09841109439730644
3,0.04,0.001,0.04394036002266102,0.0410926857819924,99.73977852845803,0.07119184762916347,0.0799201141510691
4,0.06,0.001,0.03898021930303329,0.03623245904843012,64.16019946367312,0.04579600247228631,0.06533737746732575
5,0.08,0.001,0.03591408993189151,0.03290109269512005,52.76512333796575,0.03766247204708476,0.04034110611038549
6,0.1,0.001,0.03542808098479723,0.0328632348909592,35.93349801087991,0.02564846396208416,0.03947907127439976
7,0.12,0.001,0.03455748917200627,0.03259600200332128,22.90036469483987,0.016345727833575924,0.02898163055734975
8,0.14,0.001,0.03409487521037077,0.03245522519334769,16.408204856285682,0.011711780768226755,0.023611420499426976
9,0.16,0.001,0.033496605289670134,0.03157488761995083,16.827044286483375,0.012010738248739026,0.021413797113512243
10,0.18,0.001,0.03287960348220972,0.031102959525126678,13.828205685737805,0.009870239604381017,0.037647834579859464
11,0.2,0.001,0.03144643335388257,0.029523644347985586,13.46913636525472,0.009613944586191806,0.04210852326026985
12,0.22,0.001,0.03009312664851164,0.027581823970644903,15.992431493905874,0.011415011772952087,0.06311681613858257
13,0.24,0.001,0.029205170894662538,0.026252941643962493,17.23364001543094,0.012300956470685895,0.09005870497120279
14,0.25,0.001,0.02873092264128037,0.025511262164666103,18.04297697605231,0.012878641667417779,0.12079368478485517
15,0.25,0.001,0.027525827154899256,0.024524265671005616,16.82074940999349,0.012006245117768372,0.08379865517573697
16,0.25,0.001,0.026072287349364696,0.022955155697388527,17.46840711740347,0.012468527564170927,0.06433346840952124
17,0.25,0.001,0.025425583315201294,0.0222126763409529,18.00513079716609,0.012851627977991498,0.06768885254859924
18,0.25,0.001,0.024516590082874663,0.020985131959120433,19.790289864173303,0.014125831451943828,0.04676226792590959
19,0.25,0.001,0.02399829030992129,0.020642015032279186,18.808565853803586,0.013425100538046814,0.02565249115494745
20,0.25,0.001,0.023888948187232018,0.020584480330730095,18.518238478440505,0.013217871861841902,0.050299225242010186
21,0.25,0.001,0.024023897009782302,0.02063433889968273,18.995085584200346,0.013558233821699035,0.08315603328602654
22,0.25,0.001,0.023908532076539136,0.020708014328892414,17.935702201647636,0.012802071521518656,0.09480719374758857
23,0.25,0.001,0.023702103892962137,0.02021902513045531,19.51917468339969,0.013932315976730685,0.06696085818111897
24,0.25,0.001,0.023399106460886124,0.020442836359143256,16.56693616524721,0.011825079347071527,0.0824765610907759
25,0.25,0.001,0.023363317109835455,0.020118041274448235,18.186524963378908,0.012981102757586658,0.09549613829169955
26,0.0,0.001,0.019474036561755035,0.019474036561755035,20.67901980082194,0.014760185439558845,0.06547037565282413
27,0.02,0.001,0.018954248707263897,0.018489292512337368,32.57018074622521,0.02324780924070322,0.03207462400730167
28,0.04,0.001,0.0191302491686283,0.01786943457256525,44.1600345318134,0.031520367260395005,0.028819835212613856
29,0.06,0.001,0.01963465039928754,0.017620150520442388,47.038582669771635,0.03357500547449795,0.04717811436525413
30,0.08,0.001,0.020114404689042995,0.017710885969110024,42.091624587621446,0.030043986143912522,0.06320991713021483
31,0.1,0.001,0.02041863277554512,0.01795578443278105,34.504505763909755,0.024628483771527307,0.05928289464541844
32,0.12,0.001,0.02050665738299871,0.018007958890535893,29.17230699979342,0.020822488936326496,0.03783804577376161
33,0.14,0.001,0.02070426863546555,0.018090778168959494,26.15357236617651,0.018667788983709143,0.04162060323038271
34,0.16,0.001,0.020923647962701627,0.018094269076410013,24.774752494616386,0.017683620624280076,0.016896153933235576
35,0.18,0.001,0.02127992699925716,0.018198831025988627,23.981197122427133,0.01711719994463036,0.03259713122887271
36,0.2,0.001,0.0215010871585363,0.01844579997735146,21.402285786164114,0.015276435250652472,0.035820417904428074
37,0.22,0.001,0.02155497944316803,0.01838678846565577,20.175617237580127,0.014400868834818078,0.025472411486719335
38,0.24,0.001,0.02185805161985067,0.018562227038618845,19.23937528561323,0.013732601916925933,0.031237458810210228
39,0.25,0.001,0.022024990026003274,0.018638373070802444,18.978601641532702,0.013546467981108281,0.04409346849258457
40,0.25,0.001,0.021773104407848454,0.018446358837760413,18.643083865825947,0.013306983487384688,0.026984837039240768
41,0.25,0.001,0.021746057405685765,0.018509089259000924,18.13997010451097,0.01294787302249177,0.028258375956543853
42,0.25,0.001,0.021574835154490594,0.01837843300249332,17.912639608138647,0.012785609998671411,0.015292969266218799
43,0.25,0.001,0.02165740680618164,0.018686184736016468,16.65072737473708,0.011884887490890136,0.037480672023126056
44,0.25,0.001,0.021561721597726527,0.018301803102860083,18.268585058359,0.013039675273632405,0.03853118898613112
45,0.25,0.001,0.021677597210957453,0.018471399178871743,17.96753432445037,0.012824792522805403,0.042597306958798854
46,0.25,0.001,0.021361538576774107,0.01812105064208691,18.159695238944813,0.01296195234756946,0.03599275774987681
47,0.25,0.001,0.02144251277622504,0.018287194338746558,17.68240290421706,0.01262127259401646,0.040528901520052125
48,0.25,0.001,0.021523195199477367,0.018386394745455337,17.578629126915565,0.012547201375385843,0.04599530489317009
49,0.25,0.001,0.021502733010894212,0.01822596200956748,18.36302689772386,0.013107085580102684,0.044585236481257846
50,0.25,0.001,0.021212016036495186,0.01817755212959571,17.00513756580842,0.012137856934909649,0.029769493666078364
51,0.0,0.001,0.017767135951763543,0.017767135951763543,20.38996362930689,0.01455386411799207,0.0397177418427808
52,0.02,0.001,0.017202021515904328,0.016742038765014747,32.22182108561198,0.022999158519351876,0.018218913381653174
53,0.04,0.001,0.017397448133963805,0.016141112229953975,44.00316901573768,0.031408400439498704,0.019104938954114914
54,0.06,0.001,0.01792603639455942,0.01586290880655631,48.17403098864433,0.034385461091109445,0.026299229423914636
55,0.08,0.001,0.018245543998021346,0.015735443285069404,43.95813537988907,0.03137625651669455,0.02625880004572017
56,0.1,0.001,0.018536705141648267,0.016020476665252293,35.25236372336363,0.02516228674044513,0.027383371788476194
57,0.12,0.001,0.018778654111501498,0.016371306347159238,28.105789282383064,0.020061234320045012,0.018249712884426117
58,0.14,0.001,0.019022919466862312,0.01652908951808245,24.956113384931516,0.017813071652342267,0.020000600389071872
59,0.16,0.001,0.019168001967362867,0.016521116842826207,23.176788965861004,0.01654303280932263,0.016528957523405552
60,0.18,0.001,0.019692150321908485,0.016713559474700535,23.183361738156048,0.016547724295614595,0.03295074562941279
61,0.2,0.001,0.019817500771620335,0.01678442533295124,21.246692383595,0.015165376433686652,0.03314453469855445
62,0.22,0.001,0.020147664348284404,0.01695729448245122,20.31685390472412,0.014501680160402656,0.03932029088693006
63,0.24,0.001,0.020674705065977877,0.017363800891698936,19.32740409068572,0.013795434754236774,0.04201472297843013
64,0.25,0.001,0.020644536127264683,0.017309030441519543,18.69217482346755,0.01334202342859925,0.0347907692193985
65,0.25,0.001,0.020587809804158332,0.017463478684807434,17.50874935052334,0.01249732287689032,0.05083785365734782
66,0.25,0.001,0.020244944687837208,0.017301564071422967,16.494705787071815,0.011773523045732917,0.020921003871730397
67,0.25,0.001,0.02030606009066105,0.017315502073138186,16.75908885857998,0.011962233303768721,0.031377588997461965
68,0.25,0.001,0.020132197458774616,0.01704779599721615,17.284986818753755,0.012337606580124021,0.030565297231078148
69,0.25,0.001,0.020501152855845597,0.017174692280017414,18.641485732640977,0.013305842778473216,0.06716252038521427
70,0.25,0.001,0.020213038684465945,0.01721688056221375,16.790470617245404,0.011984632845999574,0.03999678897006171
71,0.25,0.001,0.020031070069242745,0.016999504562371818,16.98889396863106,0.012126262647131378,0.027887192953910147
72,0.25,0.001,0.019862785324072225,0.016784023512632418,17.253380966186523,0.012315047085072464,0.020997086140726293
73,0.25,0.001,0.019748746918944213,0.016637131915642665,17.43749235104292,0.012446461349780814,0.01523756528539317
74,0.25,0.001,0.019705349799150076,0.01670493858938034,16.81430445451003,0.012001644864032854,0.021154508127697876
75,0.25,0.001,0.019629425822924346,0.01666253511913312,16.626456573681953,0.01186756357864522,0.034196042588778904
76,0.0,0.001,0.01621034016402868,0.01621034016402868,19.66122538248698,0.014033708338677358,0.028963894716330936
77,0.02,0.001,0.015824125840877876,0.015381512265556898,31.005094655354817,0.022130688547719355,0.018944467417895794
78,0.04,0.001,0.01600903773154968,0.0147832745160812,42.93235465807793,0.03064407898506633,0.015748237326209034
79,0.06,0.001,0.016506110437405415,0.01455511807058102,45.55566519712791,0.03251653475883505,0.022677240361060415
80,0.08,0.001,0.01688920095180854,0.014652681345931994,39.167053653032355,0.027956497967903178,0.016993882400648936
81,0.1,0.001,0.01708819690423134,0.014837076395559005,31.538192915305114,0.022511201224343406,0.025927105585911443
82,0.12,0.001,0.017208482907750667,0.015062215857398815,25.057665546123797,0.017885557134992004,0.011859125457704067
83,0.14,0.001,0.01734322111767072,0.015103726595258101,22.410941295134716,0.015996389218511573,0.016159263971660818
84,0.16,0.001,0.017648868864545454,0.015177560817354765,21.63939480903821,0.01544567795077674,0.026026957601841007
85,0.18,0.001,0.017731166874560025,0.01498388443619777,21.3830135345459,0.015262679182402497,0.016797425424946204
86,0.2,0.001,0.01795733316968649,0.015101691813041003,20.003768109052608,0.01427820707284269,0.020645263737865856
87,0.22,0.001,0.018154853419997754,0.014932068824194945,20.52327876946865,0.014649021248728515,0.018396264208214625
88,0.24,0.001,0.01823641479206391,0.015048861799713893,18.60733892978766,0.013281469614409463,0.014304195796804768
89,0.25,0.001,0.018234427865499104,0.015081601160076948,17.668440207456932,0.01261130635792786,0.016233688885612146
90,0.25,0.001,0.01809898949204347,0.014999311374357114,17.37059553097456,0.012398712013543582,0.016061686777642796
91,0.25,0.001,0.018027362370720276,0.014785840725287413,18.16548636020758,0.012966085910212406,0.015113194340041705
92,0.25,0.001,0.017908544819324444,0.014887958850998145,16.927363009330556,0.0120823433328555,0.023894977489752427
93,0.25,0.001,0.017874748059190235,0.01494185093503732,16.43595463679387,0.011731587892072712,0.0263663451852543
94,0.25,0.001,0.017718949417273203,0.01465075813138332,17.194143461569762,0.012272764783418816,0.0185750082933477
95,0.25,0.001,0.017804115953353735,0.014699121650594931,17.400387661273662,0.012419976917397331,0.020444998384586403
96,0.25,0.001,0.01766831016120238,0.014601460123100343,17.186628028674004,0.012267400448732337,0.013780237375093358
97,0.25,0.001,0.017749425606467785,0.014675344507663678,17.227149689503204,0.012296323832621844,0.02119810400264604
98,0.25,0.001,0.017664607556966635,0.01459062384107174,17.22660632011218,0.012295935988659657,0.01868294152830328
99,0.25,0.001,0.017602640485916383,0.014604993546620393,16.798810381767076,0.011990585568713116,0.014449068744267737
100,0.25,0.001,0.017421685120998284,0.014458798282803633,16.604017208784054,0.011851546901344791,0.01738545817456075
101,0.25,0.001,0.01741079539538194,0.014302888168738438,17.41671181703225,0.01243162870594736,0.015736123813050135
102,0.25,0.001,0.017318732472948538,0.014350675261364533,16.63299319927509,0.011872229264293427,0.022111118837658848
103,0.25,0.001,0.017285035407313933,0.014379456968834766,16.282862423627805,0.011622314363760032,0.01999717059412173
104,0.25,0.001,0.01743994613106434,0.014148109960250366,18.447448128920335,0.0131673434182158,0.028716644405254295
105,0.25,0.001,0.01752354342203874,0.014397855934042197,17.516354448367387,0.012502751212253667,0.02445818976100002
106,0.25,0.001,0.017281405121470108,0.014215448575142103,17.181618724725187,0.012263824928426257,0.01877225542973195
107,0.25,0.001,0.01712777263078934,0.014080141427425238,17.07892637008276,0.012190525603199685,0.017187154585761682
108,0.25,0.001,0.017155204608272284,0.014309561988100027,15.946979170579176,0.011382569001127179,0.019643025073621954
109,0.25,0.001,0.01725546368994774,0.014250075860092273,16.842194640330778,0.012021552205803553,0.017829699574836662
110,0.25,0.001,0.017064974991939007,0.014068189435280286,16.793986560136844,0.011987142441211166,0.018180145749023983
111,0.25,0.001,0.017097368807746816,0.014104782054439569,16.770456294524365,0.011970347105299333,0.01838427209960563
112,0.25,0.001,0.017113202600142895,0.014069016554798836,17.05962036328438,0.012176745441316474,0.024137431622615883
113,0.25,0.001,0.01704142003869399,0.014031676484797246,16.86660122993665,0.012038973040640007,0.017310778743454387
114,0.25,0.001,0.017016558153315996,0.014029935470376259,16.737033848884778,0.011946490969939171,0.02108083346060344
115,0.25,0.001,0.017218502458089438,0.01428297597150772,16.450689892891127,0.011742105562377678,0.04112336438681398
116,0.25,0.001,0.01688830910775906,0.013973640091717244,16.333805426573143,0.011658676250230652,0.01727280459765877
117,0.25,0.001,0.01691678848881752,0.01399242268063319,16.388146111904046,0.011697463320416877,0.022060437793178216
118,0.25,0.001,0.016850374973355196,0.013913817536563445,16.456470205844976,0.011746231410310476,0.01946707655276571
119,0.25,0.001,0.016716701919451737,0.013610340234560845,17.40804985731076,0.012425446008073349,0.01454974857292005
120,0.25,0.001,0.016693200963811997,0.013792632138117766,16.254789186135316,0.01160227636412228,0.021975411102175713
121,0.25,0.001,0.01674787649550499,0.013866912372983419,16.14492414425581,0.011523857347791442,0.03522300094898258
122,0.25,0.001,0.016671258478592604,0.013632611022927822,17.028578626192534,0.01215458859828161,0.025757875027401105
123,0.25,0.001,0.01665893451621135,0.013718562262753645,16.47784642928686,0.011761489242888551,0.029045695305934975
124,0.25,0.001,0.016553467015425365,0.013602037622760504,16.539810924040964,0.011805718004311894,0.026645457239023278
125,0.25,0.001,0.016582047710051902,0.013709035324744689,16.100361868051383,0.011492049870129467,0.0216372726219041
126,0.25,0.001,0.01652648410258385,0.01369130529749852,15.888341346153846,0.011340714736726513,0.02223149181476661
127,0.25,0.001,0.016441013453862605,0.013622820840623134,15.793153596535706,0.011272772017512995,0.017283783560352668
128,0.25,0.001,0.016428906499193263,0.013548816129183157,16.140025212214542,0.01152036060829018,0.01687446649053267
129,0.25,0.001,0.016533144816565207,0.01367979193918216,15.990190946138823,0.01141341252401058,0.02274417957024915
130,0.25,0.001,0.016398152403342418,0.013422474494347206,16.675701928750062,0.011902713725017888,0.02372828804488693
131,0.25,0.001,0.01630200549769096,0.01340093586880427,16.257594651442307,0.011604278837574809,0.023373887608093873
132,0.25,0.001,0.016455763143797715,0.01377360063772171,15.030840360201323,0.010728651220700445,0.02128144952335528
133,0.25,0.001,0.016287022852935852,0.013412587425838679,16.108337725125825,0.01149774284448667,0.020549644050853594
134,0.25,0.001,0.01626600264452207,0.013491684551804493,15.547278907971505,0.011097272596696291,0.02099259104579687
135,0.25,0.001,0.016177806239097547,0.013400711396183724,15.562840153620794,0.011108379838415984,0.01576472319928663
136,0.25,0.001,0.016184666007757188,0.013421093796690304,15.48706173040928,0.011054291028129394,0.02165657454835517
137,0.25,0.001,0.01630855416640257,0.013358769861933512,16.530591099078837,0.011799137115687964,0.025923001979078566
138,0.25,0.001,0.016196083205823716,0.013321769495423023,16.10765248812162,0.011497253738844838,0.02681763523391315
139,0.25,0.001,0.01608900136481493,0.013333539984738215,15.441606149917995,0.011021845931418982,0.023048076512558118
140,0.25,0.001,0.016215984575832502,0.013298661376421269,16.348679420275566,0.011669292948091053,0.029639547491180047
141,0.25,0.001,0.016105633162153073,0.013257198398694013,15.9626280662341,0.01139373880530628,0.0265907065144607
142,0.25,0.001,0.016096808321965046,0.013245045942946886,15.981278130947015,0.0114070507715539,0.03163023592372026
143,0.25,0.001,0.016040892927692486,0.013253065227315976,15.622985590421237,0.011151310200157914,0.01725214852818421
144,0.25,0.001,0.016253475352930716,0.01344697695129957,15.727617400731797,0.011225993862049819,0.022199459373950958
145,0.25,0.001,0.015949942324406063,0.013074250595691877,16.11537594917493,0.01150276655901137,0.029709433072379658
146,0.25,0.001,0.015970447860085047,0.013090235501145705,16.140711173033104,0.011520850230573237,0.022114805078932216
147,0.25,0.001,0.016125450264184903,0.013364963443615497,15.469767453120305,0.011041946790235764,0.024722368190331117
148,0.25,0.001,0.015900480422454004,0.013071629653374354,15.852879416636931,0.011315402866978538,0.019731139498097554
149,0.25,0.001,0.015886144139445744,0.013061568489632545,15.828921508789062,0.011298302290356218,0.016776394764227525
150,0.25,0.001,0.01581925331399991,0.013015194595433198,15.71394535945012,0.011216235088829494,0.018165999158684696
151,0.25,0.001,0.015951350522346985,0.013233970898466233,15.228193361331256,0.010869517031642581,0.021451403652983054
152,0.25,0.001,0.01577319159435156,0.012851389846167504,16.373778954530373,0.011687208390100194,0.01296723507610815
153,0.25,0.001,0.015809381304261013,0.012996363721023767,15.764151284633538,0.011252070866976115,0.011705141115401472
154,0.25,0.001,0.015794276092679072,0.013027714565396309,15.503811684632913,0.011066246741351116,0.016360709377165352
155,0.25,0.001,0.015790140428222143,0.013035901301564314,15.43475596110026,0.011016956431905967,0.015234229886638266
156,0.25,0.001,0.015759854830610445,0.012936144699461949,15.824072275406275,0.01129484102455837,0.012245621798293931
157,0.25,0.001,0.01567711585129683,0.012791022032690355,16.173670470408904,0.011544375781876448,0.020142545524452413
158,0.25,0.001,0.015636701657412908,0.012828838447920788,15.735265726920886,0.011231453052762946,0.01450882459591542
159,0.25,0.001,0.01570482172836096,0.012953605693884386,15.417813149476663,0.011004863061724955,0.021988128578024253
160,0.25,0.001,0.015690371088492566,0.012882570874614594,15.734914046067457,0.011231202031454288,0.021347232029906342
161,0.25,0.001,0.015676151044093645,0.012935360912711193,15.359388547065931,0.010963160990054198,0.02123997247378741
162,0.25,0.001,0.015696044170703645,0.012890283257151261,15.72348532065367,0.011223044482979066,0.031374530999788215
163,0.25,0.001,0.01571821600962908,0.012954702170995565,15.486732649191833,0.011054056137895668,0.02508505859545299
164,0.25,0.001,0.01575952091564735,0.012934682353471335,15.830395723000551,0.01129935454889404,0.020821718632110527
165,0.25,0.001,0.015751504506438207,0.01298573003269923,15.499399253649589,0.011063097254567873,0.01771255795444761
166,0.25,0.001,0.015769979930841005,0.012944289955955285,15.835167361528445,0.011302760429356492,0.02448552700557879
167,0.25,0.001,0.015741278250248004,0.01285624928199328,16.167703100351186,0.01154011641709578,0.030067782582981244
168,0.25,0.001,0.015676879429091246,0.012955196101505024,15.252314249674479,0.010886733939810477,0.018240360410085747
169,0.25,0.001,0.01555383012462885,0.01280063898422015,15.428882491282927,0.011012764090851482,0.013420966852988516
170,0.25,0.001,0.015490141248282715,0.012729326157997815,15.471608186379457,0.011043260661227306,0.014071434337113584
171,0.25,0.001,0.015433830882494266,0.012666271741573627,15.509401292067308,0.011070236468285016,0.011974566815687078
172,0.25,0.001,0.015609496053403768,0.012810733422445946,15.684263327182867,0.011195048770294695,0.01363714285460966
173,0.25,0.001,0.01554130636728727,0.012732353233374082,15.741374597793971,0.011235813417411828,0.018250689043530395
174,0.25,0.001,0.015516586754566583,0.012734340981413156,15.591704911452073,0.011128982806175641,0.017122882551380565
175,0.25,0.001,0.015479770856790054,0.012713010446765484,15.504927102113381,0.01106704289943853,0.014797230384179525
176,0.25,0.001,0.015547453526120919,0.012787391531925934,15.467388764405863,0.011040248939618746,0.01262732089630195
177,0.25,0.001,0.01551399616858898,0.012714516572081126,15.688282756316356,0.011197917741838941,0.012977584996925933
178,0.25,0.001,0.015425727903269805,0.0125885636283037,15.899469072390826,0.011348657439251125,0.014183663363967623
179,0.25,0.001,0.015535375265738904,0.01271857760177973,15.785334944113707,0.011267191252044045,0.01985258688884122
180,0.25,0.001,0.015474035261342159,0.012672477951034522,15.699925936185396,0.011206228362730476,0.02484327707705753
181,0.25,0.001,0.015399769359292128,0.012732796877240523,14.945714984795986,0.010667890781438961,0.025045997330120633
182,0.25,0.001,0.015402361635978405,0.012657890220483144,15.38001772073599,0.010977885596528188,0.021336821173982962
183,0.25,0.001,0.015298654320530403,0.012512756349184573,15.612174322666267,0.011143593378063003,0.024796855902033194
184,0.25,0.001,0.015519364445637434,0.012671186822729233,15.961187978891227,0.011392710905703944,0.023986546522272483
185,0.25,0.001,0.015585238596376701,0.012842351336700794,15.371141453278371,0.010971549930962434,0.022720151713916233
186,0.25,0.001,0.015382208512761654,0.012581105358325517,15.697384535960662,0.011204414372562928,0.021801402925380638
187,0.25,0.001,0.015360608544105139,0.012522794325382282,15.903108763083434,0.011351255362657698,0.015984649370823587
188,0.25,0.001,0.01528778310196522,0.01250564217662964,15.591117614354843,0.011128563607676547,0.013756903021463327
189,0.25,0.001,0.015383471901982259,0.01266154563293243,15.253674399547087,0.01088770478197508,0.01371854091329234
190,0.25,0.001,0.015448652131435198,0.012620685106286635,15.847927866226588,0.011311868569754881,0.015867945405521562
191,0.25,0.001,0.015377847907634882,0.012503491227443401,16.107896071213943,0.011497427602579546,0.023487022146582603
192,0.25,0.001,0.01542435384904727,0.012676185694260475,15.400733947753906,0.01099267233958166,0.017270150993551527
193,0.25,0.001,0.015426915989090234,0.01256081012961192,16.061657440968048,0.011464423583845858,0.0209428213004555
194,0.25,0.001,0.015379913022311835,0.012510448288268004,16.080480966812527,0.01147785936246433,0.014407267261828696
195,0.25,0.001,0.015345767436501307,0.012559577703284912,15.613806426219451,0.011144758334203747,0.013922374695539474
196,0.25,0.001,0.015341438782902865,0.012526525404208746,15.774773974296375,0.011259653086578426,0.01507059604461704
197,0.25,0.001,0.015177005682236108,0.01235345690869368,15.823168250841972,0.011294195753634526,0.015039657375642232
198,0.25,0.001,0.015227335538619604,0.0125579823859227,14.95905509361854,0.010677412629278044,0.010520396155438252
199,0.25,0.001,0.015159762555207961,0.01242472635438809,15.327143713144155,0.01094014540552759,0.016451526632798568
200,0.25,0.001,0.015183659681142905,0.012439653033820483,15.377412463457157,0.010976026026736014,0.017230807404432977
201,0.25,0.001,0.015221179386553091,0.01237023757913938,15.976676887120956,0.01140376651471874,0.013514308857598476
202,0.25,0.001,0.015289414645387576,0.012435375392819062,15.994035221980168,0.011416156475360576,0.01418918730424983
203,0.25,0.001,0.015291177519620993,0.012485646255887472,15.722197239215557,0.01122212508152431,0.011200994386204652
204,0.25,0.001,0.01520667364104436,0.012406620335502503,15.691498917799729,0.011200213360313868,0.013846871975277151
205,0.25,0.001,0.015155483295138066,0.0123485015036586,15.730328310452975,0.011227928844006406,0.014548477251082659
206,0.25,0.001,0.015147631443463839,0.012448330701161654,15.126882298787434,0.010797203639391458,0.015785815327295234
207,0.25,0.001,0.015324962578522854,0.012533810359831804,15.641617349477915,0.011164609100269746,0.022861883310335025
208,0.25,0.001,0.01526792735243455,0.012321310509473849,16.51284264295529,0.011786468695899565,0.020574729357446944
209,0.25,0.001,0.015304604870004531,0.012429476395631448,16.1122192969689,0.011500513416822912,0.018802665639668703
210,0.25,0.001,0.015231130916911821,0.01244676156112781,15.603606766920823,0.011137478063469538,0.014125095414263862
211,0.25,0.001,0.015152298477597725,0.012342543217043082,15.745869494707156,0.011239021766386264,0.01355317740568093
212,0.25,0.001,0.015167176169462693,0.012339327914210467,15.84726083217523,0.011311392456941636,0.012487748238657202
213,0.25,0.001,0.015222452724209199,0.012374745877698446,15.958550370045197,0.01139082824414361,0.019383304619363377
214,0.25,0.001,0.015079450841324452,0.012284359249931116,15.663692229833359,0.011180365617297187,0.016944245967481817
215,0.25,0.001,0.015333001439770063,0.012424933165311814,16.296814815814678,0.011632273244692846,0.020460720972291062
216,0.25,0.001,0.015262211209688431,0.012414883038936517,15.956427593720266,0.011389313057616177,0.015620924798505647
217,0.25,0.001,0.015196388300794821,0.01237044241756965,15.83660036722819,0.011303783274252813,0.01687127597896116
218,0.25,0.001,0.015151966993625348,0.012282780877863749,16.078919669909354,0.011476744946402108,0.02447136850761516
219,0.25,0.001,0.015158400388482289,0.01239450911585337,15.488846221336951,0.011055564754701607,0.024873886856117418
220,0.25,0.001,0.015152118450556046,0.012308905861125543,15.933363518348107,0.011372850477050755,0.028031440052602972
221,0.25,0.001,0.015002362162638934,0.012159514484497216,15.931318664550782,0.011371390909743598,0.014861356733100755
222,0.25,0.001,0.01510268248235568,0.012367695617752198,15.326866854154147,0.01093994779025992,0.016198808061225072
223,0.25,0.001,0.015132142164004155,0.012387969058293563,15.378344692328037,0.010976691429213445,0.013840050569602422
224,0.25,0.001,0.01516910349138272,0.012382371494403252,15.616848212022047,0.01114692948752466,0.015830897859164646
225,0.25,0.001,0.01521186570230967,0.012338116784126331,16.10448836302146,0.01149499526268484,0.013855379740042346
226,0.25,0.001,0.01504282163312802,0.012202713199150868,15.915967276157478,0.01136043345907029,0.014538012711065156
227,0.25,0.001,0.0151719009073881,0.012313714809715747,16.01727465116061,0.011432744219243831,0.02458204302404608
228,0.25,0.001,0.015305815837704219,0.012494501194510704,15.754608760735927,0.01124525964363735,0.022245155913489207
229,0.25,0.001,0.015062683620131932,0.01223296667329776,15.857733702048277,0.011318867738792489,0.023316312448254654
230,0.25,0.001,0.014960053505805822,0.012275921376660849,15.041878812741011,0.010736530201813713,0.01155696130756821
231,0.25,0.001,0.014898725995459617,0.012166380519286181,15.312064518072667,0.010929382239880561,0.01364854590169021
232,0.25,0.001,0.014904787506048496,0.012077585999400188,15.843638219588842,0.011308806723475262,0.016163046471774578
233,0.25,0.001,0.014921585265069436,0.012174119432576192,15.396798745179789,0.010989863486923475,0.015156872038330351
234,0.25,0.001,0.014957039211040888,0.012241044865013697,15.220431973383977,0.010863977140174145,0.012266547618699926
235,0.25,0.001,0.014784238253457423,0.011953710105556709,15.862280068030724,0.01132211282514684,0.012129627168178558
236,0.25,0.001,0.014819202806131962,0.012126270404610878,15.091193844721868,0.010771730081885702,0.011508124880492687
237,0.25,0.001,0.014866506513685752,0.012123620032499997,15.37113621051495,0.01097154618880439,0.015544272427048002
238,0.25,0.001,0.014845587107806634,0.012037689191026565,15.735459958589994,0.011231591690642393,0.012816223781555891
239,0.25,0.001,0.01499081140336318,0.01209286171465348,16.24011110159067,0.011591799501492271,0.016223547448004996
240,0.25,0.001,0.014970863811098613,0.012194706853001546,15.557582649817833,0.011104627159041994,0.018807641097477505
241,0.25,0.001,0.01493607201637366,0.012128837903340657,15.731739924504208,0.011228936420060105,0.013657752424478531
242,0.25,0.001,0.015012226903285736,0.012216683725516002,15.66622298803085,0.011182172011442434,0.026162750220724514
243,0.25,0.001,0.015090158285620886,0.012244012574545849,15.949799611018253,0.011384582163467704,0.02227527874388865
244,0.25,0.001,0.014919969219809924,0.012146572658839899,15.542114458328639,0.011093586337136788,0.01979319498475109
245,0.25,0.001,0.014937080772450336,0.012199180991126176,15.343190559974083,0.010951599257654591,0.01597660287682499
246,0.25,0.001,0.014892961294987263,0.011938211221534472,16.558419922070627,0.011819000658151767,0.01692309556528926
247,0.25,0.001,0.014977457909247814,0.01207649847253775,16.25697745298728,0.011603838296207907,0.01621877441981009
248,0.25,0.001,0.014941956752385849,0.012251695890266161,15.076222762083395,0.010761044084285078,0.015318039538604873
249,0.25,0.001,0.01490295094748338,0.012175695946774421,15.283536671369504,0.010909019751155963,0.01320622515465532
250,0.25,0.001,0.014922039057963934,0.012067895669203538,15.994619878133138,0.011416573788817372,0.013345222720610244
251,0.25,0.001,0.014849774969311861,0.012134001127038246,15.219195639781463,0.01086309467507599,0.020543456875852177
252,0.25,0.001,0.01475552593668302,0.01206577585484737,15.073359098189917,0.010759000070085593,0.018548568910253898
253,0.25,0.001,0.014745110569474024,0.012016292503820017,15.292296135731233,0.010915272045489817,0.011129227999065603
254,0.25,0.001,0.014765686618211942,0.011939347363435306,15.838805223122622,0.011305357047196731,0.014913000365985292
255,0.25,0.001,0.01473679207265377,0.011972115036004628,15.493250069251427,0.011058708115097378,0.01436898039121713
256,0.25,0.001,0.014696977984828826,0.011963787961464661,15.316796606014936,0.010932759890089176,0.02128507788958294
257,0.25,0.001,0.014607452754026804,0.011928645282601699,15.012037042471079,0.01071522986614638,0.014227258440639292
258,0.25,0.001,0.01454387818200466,0.011801922818024953,15.365918149703589,0.010967821662886216,0.012802669246281897
259,0.25,0.001,0.014721970537152046,0.011965922992198895,15.444891396546975,0.011024190861204122,0.01661934131490333
260,0.25,0.001,0.014612113947096543,0.011907748667857586,15.155263289427145,0.01081746130580096,0.013178850457604443
261,0.25,0.001,0.014638475462412223,0.011870512457039111,15.511664571517553,0.01107185194255357,0.012022280866014106
262,0.25,0.001,0.014650976681747498,0.011896484058636886,15.436175194764749,0.01101796944665578,0.015220519887017352
263,0.25,0.001,0.014721548452209203,0.012010260337056258,15.194058364476913,0.010845152294416068,0.012121490402413266
264,0.25,0.001,0.01470396091731695,0.011894023848267703,15.746887559157152,0.01123974843622923,0.013185280242136546
265,0.25,0.001,0.014789041628440221,0.011926515586674213,16.041596285502116,0.011450104415062182,0.01437804741518838
266,0.25,0.001,0.014808078377674788,0.012178039226012353,14.738739404922876,0.010520156605940668,0.020020325535110066
267,0.25,0.001,0.014782927147088907,0.012061227447329423,15.252406394175994,0.010886799710332615,0.013455430577908243
268,0.25,0.001,0.014763355226470874,0.012014001751175294,15.407376264914488,0.010997413465320833,0.018776034670216695
269,0.25,0.001,0.014801237502923378,0.01194265256038843,16.01951107122959,0.01143434052193404,0.033776311070791314
270,0.25,0.001,0.014903053684303393,0.012124685336573002,15.569977158766527,0.011113474060504301,0.023820430705589906
271,0.25,0.001,0.014887079157126256,0.012026531328088962,16.030510604075896,0.011442191723109134,0.016733452079019377
272,0.25,0.001,0.014741538961728414,0.012075172097255022,14.942319136399488,0.010665466906780505,0.01263250523645963
273,0.25,0.001,0.01472842585390959,0.011918547119085606,15.746559377817007,0.011239514188306215,0.012197392194398813
274,0.25,0.001,0.014813495436922099,0.011974140858420959,15.911743672688802,0.011357418752811422,0.013351538617696081
275,0.25,0.001,0.014664427831004828,0.01204753485150062,14.665067687401404,0.010467571511350039,0.016030252977673496
276,0.25,0.001,0.014634499192619934,0.011925930033127467,15.178822091909556,0.01083427701064208,0.01636037210534726
277,0.25,0.001,0.014598658060034115,0.01178480146978146,15.768852121402055,0.01125542621085086,0.014549751632979937
278,0.25,0.001,0.01468410889307658,0.011845156015493932,15.909491162422375,0.011355810965326464,0.0184577719441482
279,0.25,0.001,0.014661266435033236,0.011962219246495993,15.125460834992237,0.01079618903282815,0.01930610223540238
280,0.25,0.001,0.014670372572846901,0.011947999097024783,15.256180269290239,0.010889493411342068,0.016550779342651367
281,0.25,0.001,0.01471041521200767,0.011887488762537639,15.819680052537185,0.011291705961839532,0.015898788015225103
282,0.25,0.001,0.01467079223635105,0.011884946204148806,15.61188244941907,0.011143385045980779,0.01497801679319569
283,0.25,0.001,0.01465147379785776,0.011899895562479893,15.41984610924354,0.011006314139360129,0.02207850824509348
284,0.25,0.001,0.014662563084409786,0.011943753340687507,15.236209497696315,0.010875238756385663,0.016099729176078523
285,0.25,0.001,0.014665008126161037,0.01190145931755885,15.486927678034856,0.011054195344778627,0.013662430258201701
286,0.25,0.001,0.014732323969021821,0.011912126896473078,15.804385581383338,0.011280789137318585,0.010846616168107306
287,0.25,0.001,0.014634576124640612,0.01192125260638885,15.205465678679637,0.010853294560085394,0.015200714048530375
288,0.25,0.001,0.014595415806158994,0.01181180673914078,15.599345696278107,0.011134436614045758,0.01811485498079232
289,0.25,0.001,0.01463328120418084,0.011901868373537674,15.306836998768341,0.010925650962718303,0.015428290502833468
290,0.25,0.001,0.014594089641020849,0.011844692207299745,15.407624239799304,0.010997590463811066,0.009608356548207147
291,0.25,0.001,0.014561712312010618,0.01174874098923726,15.763891836313102,0.011251885679024342,0.011782445678753512
292,0.25,0.001,0.014493358980577726,0.01179828683917339,15.103184323433117,0.010780288596312004,0.013833683915436268
293,0.25,0.001,0.014505271565837738,0.01184199278553327,14.925014681693835,0.010653115404492387,0.018370068365974084
294,0.25,0.001,0.014516862004231183,0.011850357361328908,14.943091998956142,0.010666018557427654,0.017918007847453867
295,0.25,0.001,0.014615405188539089,0.011912824156192632,15.145265554770445,0.0108103251640046,0.01596197339573077
296,0.25,0.001,0.014625477332335253,0.011893763082722823,15.308525672325722,0.010926856297163256,0.020128340061221803
297,0.25,0.001,0.014633845786253612,0.011832591800544506,15.698226464100372,0.01120501532055701,0.015756231865712574
298,0.25,0.001,0.01456591862325485,0.011799612923119313,15.502378062712841,0.011065223456611593,0.016496736955429827
299,0.25,0.001,0.014612825735448262,0.011824715672395169,15.62456908592811,0.0111524404610479,0.02503900828638247
300,0.25,0.001,0.014577148563395708,0.011866627261042595,15.189760853694036,0.010842084834899384,0.023517012862222537
301,0.25,0.001,0.014768681847132169,0.011997121954575564,15.531820688492212,0.011086238892571171,0.037537568914038796
302,0.25,0.001,0.014716133527839795,0.011974035618970027,15.36671730432755,0.010968392080176696,0.029899614064821174
303,0.25,0.001,0.014674444038134355,0.01202926242676301,14.823598431318235,0.010580726931704665,0.02887667582503387
304,0.25,0.001,0.014649279320087189,0.011878007019941624,15.53021033360408,0.01108508946010284,0.019303275272250175
305,0.25,0.001,0.014479222626258165,0.01172618137863584,15.428043502416367,0.011012165240839662,0.01464024159525122
306,0.25,0.001,0.014505282827676871,0.011953244224572793,14.301624043782551,0.010208154206839794,0.018646197127444402
307,0.25,0.001,0.014585625590422214,0.011788728900062733,15.673809530796149,0.011187587102638221,0.01761956685887916
308,0.25,0.001,0.014546052404703238,0.011769573672268635,15.559387647188627,0.011105915522618578,0.022808400315365622
309,0.25,0.001,0.014583082038622635,0.011853231403690118,15.29808393136049,0.010919403234375796,0.020604723133146763
310,0.25,0.001,0.014493495230682385,0.0118170209420033,14.998961742107685,0.010705897032196777,0.013616150577685662
311,0.25,0.001,0.014504902666577927,0.011639349578091731,16.058559202536557,0.011462212136000398,0.01139243399458272
312,0.25,0.001,0.014463003968390134,0.011741880604471917,15.249175966702975,0.010884493909138454,0.012483625539711543
313,0.25,0.001,0.014447285540592976,0.011782699966659912,14.932336298624675,0.01065834139801904,0.01391587100390877
314,0.25,0.001,0.014502970038507229,0.01174517889530995,15.45466172634027,0.011031164686895268,0.012801915939365114
315,0.25,0.001,0.014638000363722826,0.011808805258419269,15.85480943337465,0.011316780466363061,0.013211331995470183
316,0.25,0.001,0.01462787365875183,0.011804413002652999,15.822673411247058,0.011293842549069991,0.011651753181857722
317,0.25,0.001,0.014579579157707018,0.011900529900613504,15.013391817533053,0.010716196871900823,0.013286313308136804
318,0.25,0.001,0.014523553131864621,0.011668558046221734,15.999392822461251,0.011419980601328516,0.016813917750758783
319,0.25,0.001,0.014591488433189881,0.01182766842822998,15.488446592673277,0.011055279509402768,0.028488343581557274
320,0.25,0.001,0.014617002998980192,0.011852756873346292,15.490836275540865,0.01105698520738106,0.029237086019877876
321,0.25,0.001,0.01459184838220095,0.011858204062072894,15.319342402922802,0.01093457701850307,0.01851814359958683
322,0.25,0.001,0.014550682147726035,0.011789694643364502,15.472573544428899,0.011043949710513134,0.014352841036660331
323,0.25,0.001,0.014525817926877585,0.01187553740082643,14.852172191326435,0.010601122192238712,0.015831502686653818
324,0.25,0.001,0.014535702335146757,0.011777479621844413,15.457079745561648,0.011032890610679264,0.018553187139332294
325,0.25,0.001,0.014485961514023635,0.011653714211514362,15.871915113008939,0.011328990087800812,0.017529009508767297
326,0.25,0.001,0.01445446032553147,0.011812547565652774,14.805279247577374,0.010567651140312188,0.018692737644804374
327,0.25,0.001,0.014395719384535766,0.011737598106265068,14.896111786671174,0.010632485215325605,0.014150147725428854
328,0.25,0.001,0.014318211868596383,0.01153655315343386,15.588416163126627,0.011126635376964046,0.01078958942421845
329,0.25,0.001,0.014439640117761417,0.011694443268844714,15.384083224565554,0.01098078745507891,0.012611949483730964
330,0.25,0.001,0.014379617877495594,0.011696073938256654,15.038580566797501,0.010734175993431478,0.013641475566795893
331,0.25,0.001,0.014435879313028775,0.011748331469985156,15.06101941817846,0.010750192304195903,0.01562807516061834
332,0.25,0.001,0.014448598757959329,0.011633583440039402,15.77534660926232,0.011260061819601942,0.014641743818564075
333,0.25,0.001,0.014390065134144746,0.011694669403517858,15.104997532184308,0.010781582820973811,0.013361747642712933
334,0.25,0.001,0.014362544972354022,0.011701859963627962,14.910477354587652,0.01064273901112609,0.014083813476775373
335,0.25,0.001,0.014303496919381313,0.011641310394192353,14.91889386299329,0.010648746511772512,0.012255154017891203
336,0.25,0.001,0.014310604037764746,0.011644388658878131,14.941472068199744,0.010664862289935578,0.011913161059575421
337,0.25,0.001,0.014441136581202349,0.01163957505606306,15.699951690282576,0.01120624674538371,0.012272627492036139
338,0.25,0.001,0.014400701960309958,0.011614767719919865,15.612377597124148,0.011143738470466916,0.011413117405027151
339,0.25,0.001,0.014372966285699453,0.011611671191759598,15.47429711757562,0.011045179955442984,0.009977204059915883
340,0.25,0.001,0.014381707134919288,0.011598881045117592,15.594957870092147,0.011131304689573266,0.013478290356163467
341,0.25,0.001,0.014484378265646788,0.011784257692022201,15.131476656595867,0.010800482981153367,0.014485575391777925
342,0.25,0.001,0.014413817737920161,0.011589885035004372,15.825320199819712,0.011295731762897724,0.018850412485854968
343,0.25,0.001,0.014385997532651974,0.011621913762810902,15.48992659739959,0.011056335901070372,0.017185325202132975
344,0.25,0.001,0.014425885753753857,0.011730450812058571,15.105218408046625,0.010781740476835564,0.013898536030735289
345,0.25,0.001,0.01437156831797881,0.011650413723710255,15.249351834028195,0.010884619438992287,0.017300379861678396
346,0.25,0.001,0.014410185059293722,0.011633708509497154,15.559374731014936,0.011105906303365408,0.012844863347709179
347,0.25,0.001,0.014314730966893527,0.011684431756536166,14.740196032401842,0.010521196311493106,0.017713806059743677
348,0.25,0.001,0.01434013575124435,0.01169572423856992,14.819282864301632,0.010577646584083963,0.012824265552418572
349,0.25,0.001,0.014329122923887693,0.011604938531915347,15.266330352196327,0.010896738295643346,0.012031099892088346
350,0.25,0.001,0.014363028448170577,0.011613473329597558,15.408505963056516,0.01099821981659994,0.01522216693099056
351,0.25,0.001,0.014299974098610573,0.011572321867331481,15.285762698833759,0.010910608635855645,0.012752889189869165
352,0.25,0.001,0.014329152310696931,0.011678563139568537,14.853902220114684,0.010602357045049738,0.013528750810239996
353,0.25,0.001,0.01435168383595271,0.011672919100293746,15.011797161591359,0.010715058644961712,0.01818857648010765
354,0.25,0.001,0.014302891516723693,0.01146568679370177,15.899696120237692,0.011348819500526547,0.014478524282042469
355,0.25,0.001,0.014334684333358055,0.011701433035807732,14.756740912412985,0.010533005647689497,0.018216356369001523
356,0.25,0.001,0.014405011887160632,0.01163435114117769,15.526783840472882,0.011082643711972078,0.015565156670553344
357,0.25,0.001,0.014434214862875449,0.011613607449600329,15.806685022207407,0.01128243042270336,0.018992186523973942
358,0.25,0.001,0.014320509670636593,0.011583831624533886,15.33634309035081,0.01094671169903698,0.016775106013353382
359,0.25,0.001,0.014348323127398125,0.011680691746565011,14.949407254732572,0.010670526234641379,0.0161516150193555
360,0.25,0.001,0.014285302663651796,0.011610913400848707,14.987278542151818,0.010697557845932775,0.01562504856181996
361,0.25,0.001,0.014276095097645734,0.011540212090580891,15.331887817382812,0.010943531632678668,0.013560406797166382
362,0.25,0.001,0.014224629696363058,0.011633318056089756,14.521709774702023,0.0103652460918644,0.013062596387628998
363,0.25,0.001,0.014303375771030401,0.011563012908953122,15.356993973560822,0.010961451801256832,0.013496151460068566
364,0.25,0.001,0.014256608830048487,0.011446800684699646,15.746165627699632,0.0112392331389719,0.015054586742605482
365,0.25,0.001,0.014292506009149246,0.011630813123132938,14.916127268473307,0.01064677178334997,0.014433944065655981
366,0.25,0.001,0.014300675785694366,0.011546017683278292,15.437103745876215,0.01101863222403727,0.014103633085531848
367,0.25,0.001,0.014326537782565141,0.011594609710841607,15.309725805429311,0.010927712923218638,0.015656574496201107
368,0.25,0.001,0.014245474486587903,0.011522699300295267,15.258432026398488,0.010891100661240891,0.013435740356466599
369,0.25,0.001,0.014319983392189711,0.011528625558966245,15.642769182645358,0.011165431250995972,0.01251084337543164
370,0.25,0.001,0.014309177447396975,0.011591541413695384,15.229633316626916,0.010870544836992803,0.010189963903810297
371,0.25,0.001,0.014259020024194166,0.011573550752244699,15.04937026195037,0.010741877417523462,0.01780859806707927
372,0.25,0.001,0.014287725339333217,0.011560980431162394,15.280678993616348,0.010906980009719021,0.019938127802950994
373,0.25,0.001,0.014415975430837044,0.011587771033056271,15.849256857847555,0.011312817171911174,0.021908089385500977
374,0.25,0.001,0.014425942292198157,0.011862760419264817,14.364072168790377,0.010252728171870363,0.017812853612537895
375,0.25,0.001,0.014373483847922239,0.011622407956001087,15.41702900421925,0.011004303357758208,0.016913320869207382
376,0.25,0.001,0.01424558675633027,0.01151705723351393,15.2906797849215,0.010914118333277302,0.01493551249482802
377,0.25,0.001,0.014319168403744698,0.01158876898817909,15.30115799048008,0.010921597423611764,0.015041836870035954
378,0.25,0.001,0.014350266897907624,0.011684094889996907,14.941228514451247,0.010664688447145786,0.014287023672035761
379,0.25,0.001,0.014334621700720909,0.01149473735728325,15.914712945008889,0.01135953814775795,0.015593468743775572
380,0.25,0.001,0.014302392523640241,0.011646600626409053,14.883057990440955,0.010623167730507463,0.015528528152831964
381,0.25,0.001,0.014259709828557112,0.011518322948652964,15.362731552124023,0.010965547146412579,0.01937043560402734
382,0.25,0.001,0.01425226774926369,0.011512798815965652,15.351984454423953,0.010957876127354712,0.013370120299181767
383,0.25,0.001,0.014235068743045514,0.011493973787396382,15.361096333234737,0.010964379966620084,0.01731690631381103
384,0.25,0.001,0.014300134071172812,0.0115773528527755,15.25846665211213,0.010891125376239921,0.016170440773878778
385,0.25,0.001,0.014279586458817507,0.011596220426070385,15.03758436349722,0.010733464927549764,0.014052650226014
386,0.25,0.001,0.0141382303662025,0.01151510931026095,14.699970030173278,0.010492483961579785,0.011385127968553985
387,0.25,0.001,0.014126713769749189,0.011434416797680733,15.087632771027394,0.010769188273395713,0.01349988313657897
388,0.25,0.001,0.014213405243861369,0.011497519432734221,15.219825950035682,0.010863544575328824,0.011674405009086643
389,0.25,0.001,0.014236159890125959,0.011561219040782023,14.9903685936561,0.01069976345014711,0.01430295327944415
390,0.25,0.001,0.014307836414529727,0.011591834632249979,15.220475416917067,0.010864008149119963,0.01793733478656837
391,0.25,0.001,0.01424615330612048,0.011481709778308868,15.491942743154672,0.011057774977269574,0.01673551755292075
392,0.25,0.001,0.014256783536611459,0.011580267450652826,14.999196844834549,0.010706064842851212,0.02029879204928875
393,0.25,0.001,0.014297710569241107,0.011656534752975671,14.801149524786533,0.010564703443816227,0.015142492816916533
394,0.25,0.001,0.014270376065411629,0.011431976617910924,15.906390224358974,0.011353597590548875,0.014468024152198009
395,0.25,0.001,0.014149866377313932,0.011437588127759787,15.19960710574419,0.010849112852065803,0.009995416671569859
396,0.25,0.001,0.014197510036711509,0.011579543719880092,14.67108280475323,0.010471864956997309,0.011026861079569374
397,0.25,0.001,0.014214721551308264,0.011484494795783971,15.300191986866487,0.01092090791353782,0.01276012443538223
398,0.25,0.001,0.014138755522286281,0.011479074756304422,14.904851223872258,0.010638723214755359,0.010668075843048947
399,0.25,0.001,0.014151056884573056,0.01150528284219595,14.826918264535758,0.010583096548562283,0.010901003011635371
400,0.25,0.001,0.014082814519030925,0.0113242778640527,15.458839905567658,0.011034146970426593,0.013187664161835397
401,0.25,0.001,0.014190875003353143,0.01154370808448547,14.83472300798465,0.010588667386141792,0.015345517279846328
402,0.25,0.001,0.014422133287940269,0.01157529996946836,15.95365489079402,0.011387333969160614,0.015664898524326936
403,0.25,0.001,0.014391242712736129,0.011526733101942601,16.05271155528533,0.011458038226470615,0.014951462591333049
404,0.25,0.001,0.01449751419803271,0.011727417167276145,15.523624459291115,0.011080388621906578,0.010981400829872914
405,0.25,0.001,0.014411649542550246,0.011678167074345625,15.318436588385167,0.010933930469939448,0.012142099240528685
406,0.25,0.001,0.014361108782199712,0.011516339632754143,15.942085530207708,0.011379076038692154,0.012209359689482622
407,0.25,0.001,0.014284782966551108,0.011499690350431663,15.60765931056096,0.011140370671349722,0.01240167414237346
408,0.25,0.001,0.014204386956034562,0.011462798986870509,15.363858814728566,0.010966351759263786,0.013695817440748215
409,0.25,0.001,0.014184593485716062,0.011479824652465491,15.157524309402858,0.010819075167311105,0.013720729920480932
410,0.25,0.001,0.014317567355166642,0.011612900676062474,15.156951967875163,0.010818666643736733,0.010139589996210166
411,0.25,0.001,0.014187853635312655,0.011405812815213814,15.590556042010968,0.011128162770885774,0.012556113236184632
412,0.25,0.001,0.014175035603917563,0.011466725065540044,15.17737301557492,0.01083324269491429,0.014467354730835982
413,0.25,0.001,0.014395409516799145,0.011652787641072885,15.369653149140186,0.010970487615374865,0.014757191695805107
414,0.25,0.001,0.014248685529216742,0.011478113478574997,15.52628554319724,0.011082288039398458,0.017129383981227875
415,0.25,0.001,0.014202691972828828,0.011533694996092563,14.957060329730695,0.010675988814939825,0.012204805788184916
416,0.25,0.001,0.014187544584274292,0.011489135313492554,15.121885094275841,0.010793636755371764,0.020807540576372827
417,0.25,0.001,0.01418172279611612,0.011462596049293493,15.237985904400166,0.010876506712633951,0.015342238226107188
418,0.25,0.001,0.014162020781674447,0.011462564432086089,15.12775413806622,0.010797825937234988,0.01904688456228801
419,0.25,0.001,0.01427345871925354,0.011585537544809855,15.063109696217072,0.010751684294230601,0.015632176904806068
420,0.25,0.001,0.014318246637972501,0.011546868415406118,15.530802643604767,0.011085512236691483,0.015813180511551245
421,0.25,0.001,0.014191384417697406,0.01141859946342615,15.538686370849609,0.011091139450999007,0.018481991519885405
422,0.25,0.001,0.01416996044990344,0.011446677745343784,15.261276210882725,0.010893130771508013,0.017979211306997707
423,0.25,0.001,0.014231396772158452,0.011566628257815655,14.933363185784756,0.010659074365299613,0.017799540422856808
424,0.25,0.001,0.014131518329183261,0.011398448651799788,15.316122504992363,0.010932278733042372,0.020240623503923416
425,0.25,0.001,0.01423222708205382,0.011642692973598455,14.511748235653608,0.010358135785619992,0.017416395113936493
426,0.25,0.001,0.014156682817981794,0.011480878049937578,14.995209855299729,0.010703219025909871,0.015689239970275333
427,0.25,0.001,0.014074875089602593,0.011444045799091841,14.74316790654109,0.010523317563555382,0.018160344633672918
428,0.25,0.001,0.014077712557254693,0.011363632981784832,15.209703464997121,0.010856319389719572,0.020258289562272176
429,0.25,0.001,0.01417335648662769,0.011483453204616523,15.074218930953588,0.0107596137979683,0.016772879287600517
430,0.25,0.001,0.014106471464037896,0.01142128476490959,15.047787632086338,0.01074074777450845,0.016443770777966295
431,0.25,0.001,0.014135487172275018,0.011432677325912011,15.146545302562224,0.010811238617103657,0.01897262768553836
432,0.25,0.001,0.0141557682878696,0.01141597783813874,15.353786145723783,0.010959162131137604,0.01752508365150009
433,0.25,0.001,0.0141353828784747,0.011440861110503856,15.100098600143042,0.01077808608147255,0.012906127476266452
434,0.25,0.001,0.014073245633298006,0.011399189392343545,14.985412954672789,0.010696226234598708,0.012632320368928569
435,0.25,0.001,0.014092134899244858,0.011464401038411336,14.72582086905455,0.010510935666705603,0.011393892445734568
436,0.25,0.001,0.01399502806747571,0.011339215079370217,14.883175962399214,0.01062325193604512,0.01172772901398795
437,0.25,0.001,0.013989951676474167,0.011254178154735993,15.33127447275015,0.010943093842077195,0.011938446267907108
438,0.25,0.001,0.014063522066825476,0.01142069022051799,14.810429313855293,0.0105713271333728,0.012146717003945793
439,0.25,0.001,0.01411190658616714,0.011552229007849326,14.344433153592623,0.010238710316625713,0.011657943683011191
440,0.25,0.001,0.014185428800873267,0.011416784215431948,15.515484897906964,0.011074578799362573,0.01034185104072094
441,0.25,0.001,0.01418224570269768,0.011397556540293572,15.605397860209147,0.0111387565026475,0.012261222914925643
442,0.25,0.001,0.014167727023745195,0.01127443743439821,16.21399475488907,0.011573158283289845,0.011015758716634341
443,0.25,0.001,0.014156734952941919,0.011461286989446633,15.105290945982322,0.01078179225266404,0.013990010600537062
444,0.25,0.001,0.014150343572673125,0.01152896083986912,14.69023019350492,0.010485531901145553,0.019305310478167876
445,0.25,0.001,0.01411441951417006,0.011493914407224227,14.685311615772736,0.01048202113902408,0.015882494327213083
446,0.25,0.001,0.014163901986410985,0.01142885477688068,15.327204132080078,0.010940188531106409,0.014490644447505474
447,0.25,0.001,0.014179693659146626,0.011473165032191155,15.167385384975336,0.010826113765150133,0.015488850618047374
448,0.25,0.001,0.014176419167182385,0.011391212003162274,15.60830099643805,0.011140828691247716,0.022533753753772805
449,0.25,0.001,0.01412280480353496,0.011405922367404668,15.225408837734125,0.01086752950587732,0.015645737360630716
450,0.25,0.001,0.01415124434309128,0.011463388776740966,15.062743201622595,0.010751422699230975,0.01774079871496984
451,0.25,0.001,0.01412843079903187,0.011408601734691706,15.24192223671155,0.010879316371671343,0.02181517585579838
452,0.25,0.001,0.014169027742284995,0.011450620812292282,15.233952654325044,0.010873627876035007,0.021671492074217116
453,0.25,0.001,0.014153351658620895,0.011286391341724458,16.06644626030555,0.011467841727555711,0.022491215329085077
454,0.25,0.001,0.014162463217209547,0.011500403748299831,14.918181786170372,0.010648238248515612,0.01924527157098055
455,0.25,0.001,0.014125372856282271,0.011361546644893212,15.488483213767028,0.01105530564865598,0.014168715104460716
456,0.25,0.001,0.014127153798173635,0.011461005121087416,14.941097186161922,0.010664594708181244,0.017784154707831994
457,0.25,0.001,0.01409276247693178,0.011461604682680888,14.745009221786107,0.010524631849954395,0.012337787010307823
458,0.25,0.001,0.014088195734299147,0.011454470097445525,14.759398064246545,0.010534902258562845,0.01729994872584939
459,0.25,0.001,0.014140515487927658,0.011380322325306062,15.468124555930114,0.011040774129857326,0.015173410131995167
460,0.25,0.001,0.014170192535489033,0.01153986113002667,14.74037734789726,0.010521325730119387,0.014798442966171674
461,0.25,0.001,0.01417250354320575,0.011448013462508335,15.268043224628155,0.010897960902661067,0.019970391876995564
462,0.25,0.001,0.01411790987237906,0.01147149718629244,14.830498211200421,0.01058565182812307,0.019141468485551223
463,0.25,0.001,0.014075059080735232,0.011304009648469778,15.528960565420297,0.011084197405724694,0.014014489682657378
464,0.25,0.001,0.014027168897864145,0.011335487042864164,15.084186182266627,0.010766728181489384,0.010583254575197185
465,0.25,0.001,0.013997441711716163,0.01133004734531427,14.948078634800055,0.010669577897787334,0.012654149239616734
466,0.25,0.001,0.014074485467221492,0.011395113590436105,15.015199719942533,0.010717487309023934,0.014410951573933874
467,0.25,0.001,0.014020792146523794,0.01135493652560772,14.939454362331293,0.010663422100165092,0.012113231433821576
468,0.25,0.001,0.014045594756801923,0.011329863507014055,15.218958233564328,0.010862925220245772,0.012267643585801125
469,0.25,0.001,0.013993869143991899,0.01134268790961076,14.857220639937964,0.010604725653060644,0.011477319590215172
470,0.25,0.001,0.013955067279629219,0.01132178300848374,14.756923655974559,0.010533136085634946,0.011500064483178514
471,0.25,0.001,0.01402969815983222,0.011271008003789645,15.45969997308193,0.011034760865868616,0.011995219492486544
472,0.25,0.001,0.014006479824773776,0.011249781251908878,15.448539352416992,0.011026794684094926,0.015585153097552913
473,0.25,0.001,0.013979780793381044,0.011255479541917641,15.266983330555451,0.010897204375842578,0.017066769834075655
474,0.25,0.001,0.014043107581062194,0.011359334426621596,15.039864955804287,0.010735092759317836,0.02067524553941829
475,0.25,0.001,0.014028312686162118,0.011272247632344563,15.44498858818641,0.011024260234251541,0.016087711389575685
476,0.25,0.001,0.014128226309250563,0.01138472169255599,15.374600317539313,0.010974018784824634,0.015088621660002641
477,0.25,0.001,0.014093826844906196,0.01137446316006856,15.23931383964343,0.010877454560773325,0.011964655281709773
478,0.25,0.001,0.01409089980312647,0.011402784741650789,15.064195222121018,0.010752459116431847,0.018030960778040544
479,0.25,0.001,0.01397200000878328,0.011366060579147859,14.603683965634078,0.010423757291673146,0.01920182364327567
480,0.25,0.001,0.014117920895417531,0.01135835975695115,15.464579792511769,0.011038243963248942,0.010918905293302876
481,0.25,0.001,0.014082568325102329,0.011233669868073403,15.965227029262445,0.011395593882414307,0.012282734603754111
482,0.25,0.001,0.014145276055504113,0.011398005495086695,15.395705169286483,0.010989082918834036,0.01634137039738042
483,0.25,0.001,0.014150959410919593,0.011488126777112483,14.92251483232547,0.010651331072323677,0.014875361828931741
484,0.25,0.001,0.014107179125914207,0.011293114024477127,15.770020705003004,0.011256260317632409,0.011537216071571623
485,0.25,0.001,0.014002586500002788,0.011269646477049741,15.315394866160858,0.010931759361999185,0.011828358817313398
486,0.25,0.001,0.013952963082836225,0.011339896640334374,14.643623831333258,0.010452265404235016,0.017121891025453806
487,0.25,0.001,0.014035864231678156,0.011296257706215748,15.352755267803486,0.01095842631534867,0.013786113820970058
488,0.25,0.001,0.014177264483311237,0.011348036963206071,15.854990758651342,0.01131690989197098,0.013632872474512883
489,0.25,0.001,0.01416088464932564,0.011439303619166214,15.251740093720265,0.010886324121142231,0.014900206987346922
490,0.25,0.001,0.01407080044826636,0.011294968970693075,15.555759063133827,0.011103325526862117,0.01965379063040018
491,0.25,0.001,0.01404962798055166,0.01133427472355274,15.216838993170322,0.01086141255758053,0.01239328964480332
492,0.25,0.001,0.013997183095377225,0.011316031590104103,15.02517351981921,0.010724606366751757,0.013198079341756446
493,0.25,0.001,0.01401198723186285,0.011357755223527933,14.874316797501002,0.010616928477873664,0.01444887010646718
494,0.25,0.001,0.013974056521860453,0.011384322866797447,14.512867482503255,0.01035893467701874,0.0126621339337102
495,0.25,0.001,0.013973718012372653,0.011283583991611616,15.075511697622446,0.010760536543627727,0.012675693458212274
496,0.25,0.001,0.01402239984808824,0.011294668320661935,15.286208030505058,0.010910926502858714,0.01270818297884294
497,0.25,0.001,0.014109577343632013,0.011349725458197868,15.466210335951585,0.011039407805818404,0.015564665597464358
498,0.25,0.001,0.014060112079366659,0.011304312294874436,15.443501213269355,0.011023198581919597,0.014136279667062419
499,0.25,0.001,0.014087216083246928,0.01138044475362851,15.168746224427835,0.010827085099520226,0.013497026371104377
500,0.25,0.001,0.014132536231325222,0.011337170133797023,15.665232232900767,0.011181464834333167,0.015234463981219701
