epoch,beta,learning_rate,train_loss,train_reconstruction_loss,train_kl_unnormalized,train_kl_normalized,mean_unclipped_gradient_norm
1,0.0,0.001,0.084569222346664,0.084569222346664,14.533550811126242,0.010373697937991607,0.15551365539431572
2,0.02,0.001,0.055771138844401554,0.052735139400287484,212.67174380106698,0.15179995988655745,0.12177473679184914
3,0.04,0.001,0.04323625850885716,0.040704976799836846,88.65816066358808,0.06328205614817137,0.15107407607138157
4,0.06,0.001,0.03800451197543519,0.035337853981548,62.266469630612036,0.044444303804862265,0.1071309291291982
5,0.08,0.001,0.03661672984083147,0.03380062422963209,49.317055548122354,0.03520132444548348,0.07760700630024076
6,0.1,0.001,0.03505776611087624,0.03216112945960859,40.581884142613305,0.028966369837696862,0.06716382829472423
7,0.12,0.001,0.03328412984331102,0.030852573830227666,28.3884237614261,0.020262971992452604,0.043480976950377226
8,0.14,0.001,0.030566614007325153,0.027881232167565665,26.87299533494175,0.01918129574228533,0.04070574161596596
9,0.16,0.001,0.028153657783066863,0.025020287498246113,27.436574636067885,0.01958356505072654,0.03767723962664604
10,0.18,0.001,0.026058062683286625,0.02263153710414749,26.669790143008836,0.019036252778735784,0.04595301044173539
11,0.2,0.001,0.02472891177835683,0.021120615856616256,25.276114101493203,0.018041480443606855,0.036303135100752115
12,0.22,0.001,0.023295509096186235,0.0196281632807057,23.35432415758158,0.016669753146025396,0.061916429782286286
13,0.24,0.001,0.022567415512349927,0.018586256667385975,23.24001561293956,0.016588162464624953,0.08261049934662879
14,0.25,0.001,0.021477406836362907,0.017273975731438945,23.5560262255273,0.016813723215936688,0.0827773679047823
15,0.25,0.001,0.020722751875761815,0.016815142437620455,21.89824179270382,0.015630436682872107,0.07209627679549158
16,0.25,0.001,0.019875518961374416,0.01599004314032965,21.77420582833769,0.015541902803952668,0.06446529051754624
17,0.25,0.001,0.019611775696147478,0.015719745625379825,21.810936032424326,0.015568119937490597,0.11076573189347982
18,0.25,0.001,0.019170113111232047,0.015524644347712984,20.42920814747373,0.014581875908261049,0.08403101959265769
19,0.25,0.001,0.018738557417840418,0.014935028336649378,21.31497581348669,0.015214115498562948,0.04190373851452023
20,0.25,0.001,0.01844394704790615,0.014740568166802023,20.75373467191338,0.014813515112000986,0.0452765126246959
21,0.25,0.001,0.018180950890461952,0.014547826893074543,20.36002868752292,0.014532497278745839,0.03377084084786475
22,0.25,0.001,0.01782141903244512,0.014285656660144506,19.814413620394912,0.014143050407134128,0.02730872342363
23,0.25,0.001,0.017812387741223693,0.014203890609070985,20.22201618877561,0.014433987286777736,0.035338793066330254
24,0.25,0.001,0.017712046192983354,0.013920418552110809,21.2482824950239,0.01516651141686217,0.04897249094210565
25,0.25,0.001,0.0177062422476351,0.014044695720889943,20.51930655766783,0.01464618597977718,0.05624116747640073
26,0.0,0.001,0.013308696033978046,0.013308696033978046,23.95365659222332,0.01709754217860337,0.04351987550035119
27,0.02,0.001,0.012547158103387428,0.011917680485670223,44.09490073924502,0.03147387633065312,0.043357569025829434
28,0.04,0.001,0.012918988486760048,0.01116435114278023,61.4561743590509,0.04386593458890142,0.030616779811680317
29,0.06,0.001,0.013618962920584012,0.01107118937174696,59.49051188173252,0.0424628921354265,0.037252850946970284
30,0.08,0.001,0.013818444732950765,0.01106370405159793,48.24239401005241,0.03443425696648994,0.02663055039010942
31,0.1,0.001,0.014038691053158851,0.011458740175160778,36.14510841869371,0.0257995063659484,0.032145044300705194
32,0.12,0.001,0.014327884794062402,0.011650480354391852,31.25869694339136,0.022311703742606253,0.02441422373522073
33,0.14,0.001,0.014804881895733712,0.011841579722687928,29.65418878080543,0.02116644452591394,0.02586806402541697
34,0.16,0.001,0.015064533564005876,0.011770116079875215,28.846745378585883,0.020590110905485997,0.024659479677211493
35,0.18,0.001,0.015337377030190943,0.011800717005270278,27.52700036894286,0.019648108757275417,0.03714901814237237
36,0.2,0.001,0.015563479653157,0.012044125480585484,24.6530762968105,0.0175967710898005,0.014371508383192122
37,0.22,0.001,0.015695446349810564,0.012002107683227573,23.519852709041412,0.016787903432577737,0.01744509133277461
38,0.24,0.001,0.016022023244651126,0.012281508953615567,21.83525438600232,0.0155854777915791,0.024935610010288656
39,0.25,0.001,0.01615204765384114,0.012199886781712547,22.147910030648177,0.015808643847714614,0.046026292722672224
40,0.25,0.001,0.016057305607342823,0.012361747306246946,20.70991042191285,0.014782234419638007,0.032899673911742866
41,0.25,0.001,0.016054362806951116,0.012388148174242943,20.545468634393018,0.01466485983896718,0.03963629447389394
42,0.25,0.001,0.016008103534774488,0.01237336347310694,20.36908532021868,0.014538961684667152,0.04466893622884527
43,0.25,0.001,0.015819320174576674,0.012276485822606816,19.85404361075189,0.01417133733815267,0.030434612999670208
44,0.25,0.001,0.015650015039670416,0.011953560834726132,20.714929222540043,0.014785816718443999,0.04456820501945913
45,0.25,0.001,0.015702971493150208,0.012214943636452787,19.546908549346256,0.013952111741146507,0.029659132356755435
46,0.25,0.001,0.015488128661784022,0.012005665168719261,19.515726122793673,0.013929854477368789,0.03197831870056689
47,0.25,0.001,0.015489505872325606,0.011888414084520923,20.18051666359714,0.014404365926907308,0.025771145010367036
48,0.25,0.001,0.015399143441405359,0.011966070367682189,19.238942800130385,0.01373229321922226,0.039048349019140005
49,0.25,0.001,0.015338622127134988,0.01181639602415947,19.738555133603025,0.01408890444939545,0.03689491259865463
50,0.25,0.001,0.015153221916163332,0.011714933407553939,19.268168745082537,0.01375315399363493,0.03544280503410846
51,0.0,0.001,0.011417284140192526,0.011417284140192526,22.41286998232379,0.015997765868896355,0.03535196161828935
52,0.02,0.001,0.010720514013192019,0.01012297988946521,41.85726892063191,0.029876708722792227,0.02714933454990387
53,0.04,0.001,0.011084650675705167,0.009461945144451471,56.83526521374565,0.040567641123301676,0.02363813400734216
54,0.06,0.001,0.011667813467244133,0.009305620846627321,55.157199393193274,0.03936987822497735,0.03935935185290873
55,0.08,0.001,0.011969643738527486,0.009553075975465983,42.32014210463611,0.030207096434429773,0.029180979006923735
56,0.1,0.001,0.012117161175569593,0.009915022106279973,30.85196616660039,0.022021389126766874,0.029609620454721153
57,0.12,0.001,0.012520859465328367,0.0102063207663433,27.022241034361993,0.01928782372188579,0.018964065238833427
58,0.14,0.001,0.012849702105316533,0.010195609027576758,26.559889506044346,0.018957808355492038,0.01959853561129421
59,0.16,0.001,0.013248011551179219,0.010267000055697027,26.102483332937982,0.01863132286433832,0.023554658517241478
60,0.18,0.001,0.01347487623189214,0.01040296292737712,23.909723764944285,0.01706618398639849,0.03111815411830321
61,0.2,0.001,0.013858853375709993,0.010519199809425523,23.39427373294747,0.016698268189113113,0.040528438170440495
62,0.22,0.001,0.014058819715763284,0.010609323960041635,21.96701736117034,0.015679527024389964,0.017161961121018976
63,0.24,0.001,0.014202152199913061,0.010615638973736347,20.9362719756547,0.014943805835585083,0.018868305895011872
64,0.25,0.001,0.014420651131224163,0.010903768534223065,19.708609493538802,0.014067529973974877,0.02451363846193999
65,0.25,0.001,0.014162897290946615,0.01067050003068416,19.571393766778005,0.013969588698628126,0.01884354103822261
66,0.25,0.001,0.014130714316913394,0.010707973661185873,19.18103945203223,0.013690963206304233,0.023310021497309208
67,0.25,0.001,0.014205306231585132,0.010770725281543086,19.24739192146401,0.013738323998189873,0.034840188280213624
68,0.25,0.001,0.014442557062319273,0.010947256198551457,19.587666482384027,0.013981203770438277,0.06547441519796848
69,0.25,0.001,0.014187018138938075,0.0109372347934928,18.211785920322203,0.01299913341921642,0.03690257028210908
70,0.25,0.001,0.014121471477192562,0.010914126882842014,17.973958944129112,0.012829378261334127,0.02821773721370846
71,0.25,0.001,0.014012495405549046,0.010699320954624482,18.567029011822164,0.01325269736746764,0.026707880198955536
72,0.25,0.001,0.013855720134085963,0.010449775238419725,19.0869157366357,0.013623779969047609,0.022420981083996594
73,0.25,0.001,0.013829636757615872,0.010492891553122404,18.69912085887126,0.013346981341092978,0.0234658804256469
74,0.25,0.001,0.013858742857408835,0.010633129598044152,18.076337452018105,0.012902453570319846,0.018219580175355077
75,0.25,0.001,0.013860964248827191,0.010604833252727985,18.24735836795324,0.013024524174127937,0.04628762986976653
76,0.0,0.001,0.009883030293322286,0.009883030293322286,22.197009348973438,0.015843689756583467,0.025813986780121922
77,0.02,0.001,0.009600475942919347,0.009055660472263676,38.1643272799696,0.02724077607421099,0.02940035972278565
78,0.04,0.001,0.009938610807126266,0.008469826094480841,51.44418003465411,0.0367196145857631,0.017873533652164042
79,0.06,0.001,0.010497414437834352,0.008411936791345281,48.69590502743117,0.03475796218945837,0.015684553247410804
80,0.08,0.001,0.010725894942879677,0.008619395625578265,36.890072293677186,0.026331243607192852,0.01579211512580514
81,0.1,0.001,0.010978391499758808,0.008961748128439662,28.2531736532153,0.020166433728205067,0.016505686449818313
82,0.12,0.001,0.011291634071797263,0.009127337253737919,25.268165963185407,0.01803580725423655,0.023789754835888743
83,0.14,0.001,0.011642453813819646,0.009179884445849464,24.643282711245607,0.017589780664700648,0.03252638608682901
84,0.16,0.001,0.011836053539213916,0.00915013752292077,23.5185522387642,0.016786975188268525,0.01622641895664856
85,0.18,0.001,0.012213361111986065,0.009390055075873455,21.9747317701448,0.015685033383401,0.02636625274317339
86,0.2,0.001,0.012557649570130886,0.009504826641824568,21.38502376673003,0.015264114037637423,0.03038693917915225
87,0.22,0.001,0.012849329202130893,0.00960577596955034,20.655536351766127,0.014743423520175679,0.028319967619609088
88,0.24,0.001,0.013165244918040053,0.009811703929083837,19.576296735538666,0.013973088319442302,0.01990750548429787
89,0.25,0.001,0.013142490938435995,0.009705128286473096,19.262980573562555,0.013749450801971845,0.022160559776239097
90,0.25,0.001,0.013160146398705686,0.009853991285356892,18.527693394490203,0.013224620552812422,0.027132615447044373
91,0.25,0.001,0.013014235318227626,0.009666680301413526,18.75969939252695,0.01339022083692145,0.017803039052523673
92,0.25,0.001,0.013070271321974988,0.009786054239848295,18.404752189936076,0.01313686808703503,0.014668849995359778
93,0.25,0.001,0.012992903752878765,0.00972496649437466,18.313519840157188,0.013071748636800277,0.014222555910237134
94,0.25,0.001,0.012974330370505565,0.009734912738854708,18.153696984703362,0.012957670938403542,0.01571042265277356
95,0.25,0.001,0.012913334260666215,0.009795677587877975,17.471348117012123,0.012470626778738132,0.01992767455521971
96,0.25,0.001,0.012957800387132377,0.009755212744478315,17.947300865140022,0.01281035036769452,0.026341856690123677
97,0.25,0.001,0.01300292092021636,0.00979876231938991,17.956104103654752,0.012816633906962707,0.043661911971867085
98,0.25,0.001,0.01291682393855403,0.009777165457248427,17.594646741209072,0.012558634362033598,0.03894241852685809
99,0.25,0.001,0.01306911560759664,0.009813274362624733,18.245735126811866,0.01302336554376293,0.027802490163594484
100,0.25,0.001,0.012836864783416408,0.009654922248169323,17.831606435983982,0.012727770475363298,0.01538378425175324
101,0.25,0.001,0.012934525940550987,0.009756861998817546,17.807628331746596,0.012710655483045393,0.023927405360154808
102,0.25,0.001,0.012867874860373127,0.009652781332782003,18.01738444165892,0.012860374333803654,0.024162964895367622
103,0.25,0.001,0.012708666640858462,0.009605429582623155,17.390540789308506,0.01241294845775054,0.022803147905506194
104,0.25,0.001,0.012697896749334305,0.009459520071972666,18.147863238138925,0.012953506950848626,0.021204068383667618
105,0.25,0.001,0.01271775842331122,0.00963031704736849,17.302022134372763,0.012349765977425242,0.022929913946427405
106,0.25,0.001,0.012770004655889289,0.009605622179318204,17.733201589126253,0.012657531469754641,0.029776523006148636
107,0.25,0.001,0.012652939750800746,0.009551476219498175,17.380600787666687,0.012405853524387356,0.011313045222777873
108,0.25,0.001,0.01262102021904882,0.009527465161830838,17.33628337976714,0.012374220827813804,0.015784282237291336
109,0.25,0.001,0.012424574441004008,0.009364302192843116,17.149766513874436,0.012241089588775471,0.014429372269660234
110,0.25,0.001,0.012467438558433774,0.009478950673738681,16.747486114501953,0.011953951544969274,0.01478659303393215
111,0.25,0.001,0.012446676450069815,0.009356422736167127,17.31778273103539,0.012361015511088787,0.01869362301658839
112,0.25,0.001,0.012505163316610859,0.009498368371196709,16.850079765486406,0.012027180417906071,0.023009859258309007
113,0.25,0.001,0.012443708158281172,0.009432160986920892,16.8767085845814,0.012046187426539188,0.014166569453664124
114,0.25,0.001,0.012434046337275266,0.009326644648500925,17.413879827640983,0.012429607300243386,0.020833882270380855
115,0.25,0.001,0.012375369155576136,0.00933321796390167,17.048215049843602,0.012168604603742757,0.020731565542519093
116,0.25,0.001,0.012366184240865916,0.00935181501162885,16.89252471090925,0.01205747659593808,0.028246825677342713
117,0.25,0.001,0.012291623047638409,0.009233381887938518,17.13838423599843,0.012232965193432142,0.029315751395188272
118,0.25,0.001,0.012398069842380987,0.009323720320018098,17.22865407852106,0.012297397629208466,0.02661850769072771
119,0.25,0.001,0.012191425630717038,0.00918340832645716,16.8569290460978,0.012032069269163313,0.016108581912703812
120,0.25,0.001,0.012440271126553742,0.009423739496439565,16.90464376258017,0.012066126882641094,0.03405783581547439
121,0.25,0.001,0.012277911055231199,0.009239322221207567,17.028252114375086,0.012154355542023616,0.02784866443835199
122,0.25,0.001,0.012211803615288444,0.009254034067703386,16.57534141207366,0.011831078809474418,0.014298903581220657
123,0.25,0.001,0.012122386127027101,0.00918007609698775,16.488706089003117,0.011769240605997941,0.015320321661420166
124,0.25,0.001,0.012206728468490479,0.00923796265292506,16.636964048360632,0.011875063560571471,0.0238949793856591
125,0.25,0.001,0.012154415770389107,0.009130061943669637,16.948478890298237,0.012097415339256415,0.014362323039676994
126,0.25,0.001,0.012166023791226757,0.009221220295469573,16.50267807989662,0.011779213476014717,0.01698024186771363
127,0.25,0.001,0.012162512400102146,0.009170551820938764,16.766948258512404,0.011967843153827554,0.022467752220109105
128,0.25,0.001,0.01207912538005405,0.009044960076111374,17.00346318290744,0.012136661800790463,0.013402096868958324
129,0.25,0.001,0.012044064444388105,0.009076224782353665,16.631774236021084,0.011871359197730967,0.022856411640532315
130,0.25,0.001,0.012142619427179665,0.009135222143806744,16.853454348301785,0.01202958911370577,0.026113147265277803
131,0.25,0.001,0.01208069471959594,0.00908827644622352,16.769512255639487,0.011969673273118835,0.01679724978748709
132,0.25,0.001,0.012098617009883624,0.009021214782931398,17.245762879150924,0.012309609478337561,0.015948312357068062
133,0.25,0.001,0.012182198566543224,0.009137545854634072,17.062233670830206,0.012178610757195008,0.012617686588782817
134,0.25,0.001,0.012038076247645777,0.009030062477531391,16.85690921466944,0.012032055113968194,0.017295662546530366
135,0.25,0.001,0.012095821716346855,0.009109393658937976,16.73594406494407,0.011945713108454012,0.015542545705102384
136,0.25,0.001,0.011973730211174644,0.009016931638544563,16.569899538198413,0.011827194531190873,0.015171620645560324
137,0.25,0.001,0.011957254691870972,0.009031626635828913,16.39521996110808,0.011702512463317686,0.016987673996482044
138,0.25,0.001,0.011938032742963869,0.009030710226616225,16.292635288821558,0.011629289999158856,0.01969350117724389
139,0.25,0.001,0.01193587247314802,0.008985158153626596,16.535802924476858,0.011802857190918527,0.015251606702804565
140,0.25,0.001,0.011961231162714647,0.008901015322606636,17.149449127730325,0.012240863046202944,0.01558146538445726
141,0.25,0.001,0.011957138610035832,0.008995857581854127,16.59501903650542,0.011845124223058829,0.010129992151632905
142,0.25,0.001,0.011891603022488444,0.008942747551655014,16.5253864521543,0.011795422164278587,0.011985023273155093
143,0.25,0.001,0.011883144246568847,0.008970972508452345,16.31981061743857,0.011648687093103904,0.012569069920573384
144,0.25,0.001,0.01195888511641317,0.00900244788880822,16.567874358731064,0.011825749006945798,0.013893351366277784
145,0.25,0.001,0.0119283666842369,0.008908828649279462,16.92149061511177,0.01207815175953731,0.013584249536506832
146,0.25,0.001,0.011803801655443995,0.008784813566466867,16.918409714011645,0.012075952686660703,0.014608081721235067
147,0.25,0.001,0.011793312653248487,0.008866488758686068,16.401922405026365,0.011707296506085913,0.019825882511213422
148,0.25,0.001,0.011971205110991106,0.009055809581481474,16.33787669052724,0.0116615822202193,0.028957484290003777
149,0.25,0.001,0.011854143296754776,0.008905941714008042,16.52172265615005,0.01179280703508212,0.021692820475436747
150,0.25,0.001,0.011923495070057145,0.008969741393547651,16.552835822625973,0.01181501486268806,0.023283840157091618
151,0.25,0.001,0.011834946050263908,0.008851176367739142,16.721044848579506,0.011935078407265886,0.021128654363565147
152,0.25,0.001,0.012000739188075846,0.00911485639046959,16.1724878502725,0.011543531656154533,0.019992392510175705
153,0.25,0.001,0.011849792844994099,0.008878221255462762,16.65268740591524,0.01188628651385813,0.015734415035694838
154,0.25,0.001,0.01183877662474932,0.008937978622906203,16.256073147969474,0.011603192825103121,0.011356063419952989
155,0.25,0.001,0.011828790024313343,0.008926870952071581,16.262353897094727,0.011607675872301732,0.012669799558352679
156,0.25,0.001,0.011724176186271109,0.008790905095278956,16.43805174015495,0.011733084753857924,0.02258222026284784
157,0.25,0.001,0.01177455656897423,0.008778999750726088,16.787100354656904,0.011982227233873592,0.011731993756256998
158,0.25,0.001,0.011769369069698336,0.008883631946803701,16.171670705470454,0.011542948397908962,0.022126462892629206
159,0.25,0.001,0.011828503831733003,0.008904595399787853,16.385582282553592,0.011695633320880508,0.02832403581123799
160,0.25,0.001,0.011715282783660566,0.008868120000677339,15.955500386167301,0.011388651239234333,0.032039295765571296
161,0.25,0.001,0.01178567711361501,0.008807736387939953,16.688379237745526,0.011911762482330853,0.020397273125126958
162,0.25,0.001,0.011795412187818356,0.008745509122526801,17.09165760523367,0.012199612851701406,0.01708226732444018
163,0.25,0.001,0.011739786901393311,0.008851324639173314,16.186943083350837,0.011553849452784324,0.016962125489953905
164,0.25,0.001,0.011624433999010829,0.00872687165784003,16.23794015526251,0.011590249932378666,0.021012575714848936
165,0.25,0.001,0.011804925090751274,0.00890386542183343,16.257539345187393,0.011604239361304348,0.025752150919288397
166,0.25,0.001,0.01180383578089257,0.00880780966960577,16.78972988878275,0.01198410413189347,0.023774124099873006
167,0.25,0.001,0.01175105822675223,0.008855642136755729,16.225912902032444,0.01158166516918804,0.02434095658827573
168,0.25,0.001,0.011743526726830995,0.008764249703737065,16.69586780914573,0.011917107643929859,0.02264821238350123
169,0.25,0.001,0.01166333545275911,0.008747913114173443,16.338027025414345,0.011661689525634792,0.026167743024416268
170,0.25,0.001,0.011572623877546153,0.00867380161960833,16.24500081008178,0.011595289657445954,0.01180200552335009
171,0.25,0.001,0.011591676663298274,0.008649725141613765,16.486697405186284,0.011767806855950238,0.02780074137263
172,0.25,0.001,0.011754062291088323,0.008853597212664165,16.254206836483885,0.011601860696990639,0.03451984579442069
173,0.25,0.001,0.011696150262055179,0.008759084084441308,16.459319143836677,0.011748264913516543,0.02967352990526706
174,0.25,0.001,0.011645683107743096,0.008747358460743876,16.242211021190126,0.01159329837344049,0.023424898623488843
175,0.25,0.001,0.011527324314981569,0.008605412252279869,16.374396928012633,0.011687649484662836,0.016260804259218276
176,0.25,0.001,0.011601454936228205,0.008631583284912021,16.643160024584642,0.011879486098918373,0.013445136253722012
177,0.25,0.001,0.011687961960105657,0.00871571256701863,16.656486336320768,0.011888998098730027,0.011798334831837565
178,0.25,0.001,0.011665602056024897,0.008730444542689484,16.448623415684597,0.01174063056080271,0.014642181573435664
179,0.25,0.001,0.01151648026333886,0.008615147814512513,16.259067831081072,0.011605330357659581,0.01323474757373333
180,0.25,0.001,0.011491079046085933,0.00857160778464058,16.360717915031067,0.011677885735211325,0.014399173203855753
181,0.25,0.001,0.01148533699912015,0.008525082327051323,16.589267122693457,0.011841018645748363,0.01823359652189538
182,0.25,0.001,0.011536449738920516,0.008659023340124491,16.125098457503007,0.011509706250894366,0.02143665309995413
183,0.25,0.001,0.011587843551060519,0.008694051561559913,16.216809959911362,0.011575167708716175,0.01682858617277816
184,0.25,0.001,0.011567435410345486,0.008607688056931356,16.5864233824884,0.011838988852597003,0.009590621979441494
185,0.25,0.001,0.011496565634116334,0.008597668235934457,16.24542228831995,0.011595590498443933,0.01710607053246349
186,0.25,0.001,0.011485948426624574,0.008604264297567341,16.148958435225175,0.011526736927355586,0.012970531126484275
187,0.25,0.001,0.011550365715373032,0.008665475750333877,16.1669233688621,0.011539559863570378,0.02581489202566445
188,0.25,0.001,0.011517830790878644,0.008569566732248105,16.52207167179824,0.011793056154031577,0.019232599646784365
189,0.25,0.001,0.011442668882389777,0.00852060400348108,16.375252128167965,0.011688259905901473,0.01282801479101181
190,0.25,0.001,0.011439814342096382,0.008638617993377182,15.697903837178993,0.011204785037244105,0.011162469105329365
191,0.25,0.001,0.011465162417025805,0.008504340071312465,16.59244855522589,0.011843289475535966,0.012312943348661065
192,0.25,0.001,0.011484826951568303,0.00852855950935569,16.56692292908914,0.011825069899421229,0.013208023912739009
193,0.25,0.001,0.011404250313296067,0.00854477649513941,16.024492617777863,0.011437896229677275,0.015169390360824764
194,0.25,0.001,0.011510912158148258,0.008531143754623082,16.698622116355395,0.011919073601966734,0.016443631844595075
195,0.25,0.001,0.01146382207709759,0.008526013188031563,16.46348107017284,0.011751235596126224,0.016015363042242825
196,0.25,0.001,0.011441003913507192,0.008575105590249644,16.06049414388998,0.011463593250456802,0.0168840317055583
197,0.25,0.001,0.011436726409925643,0.008533579020813824,16.269238809310714,0.011612590156538696,0.014280801638960838
198,0.25,0.001,0.01139438275947321,0.008494896415669846,16.248720085777048,0.011597944386707386,0.01133263431256637
199,0.25,0.001,0.011352319205301819,0.008439236027737633,16.32491912591926,0.011652333423211461,0.01482874492648989
200,0.25,0.001,0.011427765618603042,0.008564114009383984,16.047903481529268,0.011454606339421318,0.017113438167143613
201,0.25,0.001,0.011528067713741652,0.008564637148321716,16.60706589211543,0.011853722977955339,0.014346198760904372
202,0.25,0.001,0.01135690178819749,0.008366212936110111,16.7598202759522,0.011962755371843112,0.018219983554445207
203,0.25,0.001,0.011484030918848566,0.008749020592956173,15.326998406622607,0.01094004168923812,0.02547589340247214
204,0.25,0.001,0.011461586947654532,0.008564232927889413,16.236771962528145,0.011589416104588255,0.020881831645965576
205,0.25,0.001,0.011445137485048397,0.008421922354719004,16.942097884598777,0.012092860731333888,0.026012638118118048
206,0.25,0.001,0.011447899702399579,0.008579098277900156,16.076763411276204,0.011475205861010852,0.015974969835951924
207,0.25,0.001,0.011387210388110715,0.008471988035797032,16.3369057917699,0.011660889216109851,0.01707924046786502
208,0.25,0.001,0.01138651728076966,0.008519416060868049,16.067234447429275,0.011468404316509119,0.010965058289002627
209,0.25,0.001,0.01138276006522137,0.00849371246472977,16.190223335699223,0.011556190817772465,0.012334368075244129
210,0.25,0.001,0.01144062823668838,0.008486016761251282,16.557643053313008,0.011818446147975023,0.014909936697222292
211,0.25,0.001,0.011352147825680446,0.008461936417657996,16.196744473219958,0.01156084544840825,0.015032342402264476
212,0.25,0.001,0.011372073321688644,0.008417568864975954,16.557043475355123,0.011818018183693877,0.017061707738321275
213,0.25,0.001,0.011438531296807606,0.008471008524396273,16.62999816544712,0.011870091481404083,0.01827447267714888
214,0.25,0.001,0.011324543884129764,0.008457788302843747,16.06529851355407,0.01146702249361461,0.012634300044737756
215,0.25,0.001,0.011426914044082425,0.008475450144096492,16.54000450534071,0.011805856177973384,0.01546993397641927
216,0.25,0.001,0.011422239317188616,0.008506056824170346,16.342286888688932,0.01166473011326833,0.017680681601632386
217,0.25,0.001,0.011381431743014588,0.008480602505263023,16.256248732321126,0.011603318152977249,0.013063103193417192
218,0.25,0.001,0.011367601822394732,0.008439855263710803,16.407091844550386,0.011710986327302202,0.012609197292476892
219,0.25,0.001,0.011403163671330855,0.008506689171863955,16.23184219926726,0.011585897358506252,0.012183596903923899
220,0.25,0.001,0.011306369433171364,0.008373254548156366,16.437175559164654,0.011732459357005464,0.01333285728469491
221,0.25,0.001,0.011473534425403354,0.008643772900429876,15.857983714107863,0.011319046191368925,0.035714403609745204
222,0.25,0.001,0.011456327736540392,0.008559470642439403,16.233987429256523,0.011587428571917574,0.029727557091973722
223,0.25,0.001,0.011347709882467595,0.008398181343996109,16.52915809248212,0.011798114270151407,0.02208508615149185
224,0.25,0.001,0.011324053459422558,0.008446042157514386,16.128375386567097,0.011512045243802354,0.01474067207891494
225,0.25,0.001,0.011317075152909912,0.008349182751176139,16.632068579894487,0.01187156929328657,0.011621176381595433
226,0.25,0.001,0.011313787490682571,0.00842292458185007,16.200396408680746,0.011563452111834936,0.015110365813598037
227,0.25,0.001,0.011230117978942966,0.00824883026294573,16.707136374894187,0.01192515087429992,0.016279582399874926
228,0.25,0.001,0.011262726876478007,0.008358383270623122,16.275941086648334,0.011617374080405663,0.01316516607766971
229,0.25,0.001,0.011244403584717923,0.00840543285337598,15.909593348940387,0.011355883903597706,0.012928788433782756
230,0.25,0.001,0.011272140762333526,0.008280799870570415,16.763474285342287,0.011965363515590497,0.016197314485907555
231,0.25,0.001,0.01124997115714321,0.00829852880771764,16.539883667725142,0.011805769926998675,0.014383121975697577
232,0.25,0.001,0.01126884066349294,0.008378841597017503,16.195554799908635,0.011559996288300239,0.016512392670847476
233,0.25,0.001,0.011278101267480174,0.008422100601319272,16.005026734031443,0.011424001951485683,0.019145741709508002
234,0.25,0.001,0.011222698949440077,0.00831914371424497,16.27152321328242,0.011614220708981028,0.01640319440048188
235,0.25,0.001,0.011223079766834147,0.008392992929665282,15.859806822897566,0.011320347482439376,0.013901133090257645
236,0.25,0.001,0.011262460493820204,0.00833311523453182,16.416049973933458,0.011717380423935372,0.01463725685607642
237,0.25,0.001,0.011191162325474372,0.008208639246684104,16.7140599504829,0.011930092755519556,0.01315524138044566
238,0.25,0.001,0.011243162453011915,0.00838811433259967,15.999689918418118,0.011420192661254902,0.013251545373350382
239,0.25,0.001,0.011165653196810114,0.008264952192823178,16.25552774620889,0.011602803530484576,0.013232629979029298
240,0.25,0.001,0.011169141548885007,0.0083497770691868,15.79971794894689,0.011277457493894997,0.010107673122547567
241,0.25,0.001,0.011247815995367333,0.008362669721408441,16.168360022998794,0.011540585312632972,0.018267588224262
242,0.25,0.001,0.011295798913815656,0.008460689315726924,15.887953837365563,0.01134043814230233,0.021820691414177418
243,0.25,0.001,0.011217167178030618,0.00829463085265399,16.37789418083091,0.011690145739351114,0.018569389765616506
244,0.25,0.001,0.011227918138084974,0.00830983732497588,16.352925038233593,0.011672323367761308,0.013447224628180265
245,0.25,0.001,0.011239753682247677,0.008273554164672263,16.622581257049696,0.011864797471127548,0.012986878049559891
246,0.25,0.001,0.01126461641204149,0.008466642724114215,15.67984477713639,0.0111918949158718,0.017062452738173306
247,0.25,0.001,0.01126100211993966,0.008326502049170988,16.444938626351835,0.011738000447074829,0.01092060306109488
248,0.25,0.001,0.011121370012192747,0.008228443050553706,16.211963711867686,0.011571708573781361,0.012084182817488909
249,0.25,0.001,0.011123323178642702,0.008252669845638577,16.087141757448688,0.011482613674124688,0.014192491304129362
250,0.25,0.001,0.01118881392036463,0.008273997990715452,16.334629075495958,0.011659264150960712,0.013982806180138141
251,0.25,0.001,0.01119078083297311,0.008264429293833185,16.39927359335287,0.01170540584821761,0.016429347451776266
252,0.25,0.001,0.011149163496188462,0.008260663871258888,16.187151050984077,0.011553997895063582,0.015656538074836135
253,0.25,0.001,0.011177815179702497,0.008297492949267663,16.141326063064508,0.011521289124243047,0.018032382242381573
254,0.25,0.001,0.011278230672515115,0.008322772671627166,16.562386117127264,0.011821831632496263,0.020294617861509323
255,0.25,0.001,0.011220974180700997,0.008314273706494981,16.28915012559516,0.011626802373729593,0.020985922077670693
256,0.25,0.001,0.011177536250624854,0.00827468193937337,16.267595224505428,0.011611417005357193,0.015576798818074167
257,0.25,0.001,0.011065583261274875,0.008204714029083866,16.03231188095293,0.01144347743108703,0.013007073139306158
258,0.25,0.001,0.01115288261291632,0.008171776102196961,16.706121161515014,0.011924426239482522,0.02315999288111925
259,0.25,0.001,0.011168813812810782,0.008272152861751062,16.23288777613744,0.011586643666050991,0.017480304813943803
260,0.25,0.001,0.011234308808521413,0.0082504672636827,16.721449006592863,0.011935366885505255,0.026819230115506798
261,0.25,0.001,0.011186661589158674,0.00833206036530728,15.997186335934302,0.011418405664478446,0.025156993651762605
262,0.25,0.001,0.01120730103949272,0.00828560423024617,16.373189934476493,0.011686787961796211,0.023464893572963774
263,0.25,0.001,0.011434694390142068,0.008511309926784455,16.38264651902378,0.011693537843700056,0.03551581467036158
264,0.25,0.001,0.011245202114520896,0.008332272576713146,16.32405690022431,0.01165171798731214,0.021540318033657968
265,0.25,0.001,0.011268293411841039,0.00841483937812294,15.990756634541475,0.011413816298744807,0.025521927629597485
266,0.25,0.001,0.011230659646726331,0.008315388609423387,16.337179067353496,0.011661084273628476,0.022326200851239264
267,0.25,0.001,0.011004315941354594,0.008117537522550233,16.177506038715745,0.01154711351799839,0.015242745401337743
268,0.25,0.001,0.011090903058973462,0.00821316234490887,16.12685930676856,0.011510963102618529,0.012892134604044259
269,0.25,0.001,0.011196518324998789,0.008293361927679533,16.2692875841299,0.011612624970827908,0.02214571658987552
270,0.25,0.001,0.011107000497914037,0.008140903635267737,16.622007161769282,0.011864387695766797,0.018497214885428548
271,0.25,0.001,0.011170580173846676,0.008225088060617967,16.50653691687438,0.011781967820752592,0.015441375260706991
272,0.25,0.001,0.01121102349922126,0.008288509932277505,16.37776538898851,0.011690053810841193,0.02374695218168199
273,0.25,0.001,0.011117827301788018,0.008116095257703394,16.821706472005385,0.012006928245542744,0.016214676783420146
274,0.25,0.001,0.01109976837956489,0.008213385292959265,16.175291040578784,0.011545532505766442,0.015411177300848067
275,0.25,0.001,0.011149049964306396,0.008285803738656132,16.045631675220474,0.011452984778886847,0.015967633400578052
276,0.25,0.001,0.010984626468515031,0.008113593566658455,16.08926760577739,0.011484131053374298,0.012871007435023785
277,0.25,0.001,0.011090295987130513,0.008144653817093788,16.50737914872482,0.011782568985528066,0.013881974737159908
278,0.25,0.001,0.011077743666205864,0.008182657512482337,16.224063269436098,0.01158034494606431,0.023139122291468084
279,0.25,0.001,0.011072854653781678,0.00820979966851171,16.044560153411464,0.01145221995247071,0.017287854570895433
280,0.25,0.001,0.011099876177102718,0.008234501596719157,16.057559617221617,0.011461498656118214,0.019870725460350513
281,0.25,0.001,0.011150604118003334,0.008169421486914418,16.706547108279565,0.011924730270006827,0.021503170602954924
282,0.25,0.001,0.011263878674421248,0.008361458684842399,16.265161339372526,0.011609679756868326,0.028040196746587753
283,0.25,0.001,0.011166240304187917,0.008199992817399544,16.62285261695562,0.011864991161281669,0.023137294803746045
284,0.25,0.001,0.011138916694799104,0.008145871840612598,16.77302471727263,0.011972180383492242,0.0152170475339517
285,0.25,0.001,0.011154877904428404,0.008147842067753383,16.851428773205352,0.012028143307070202,0.015838791616261005
286,0.25,0.001,0.011115510207824572,0.00821588701653949,16.249489042956757,0.01159849324979069,0.02613851911155507
287,0.25,0.001,0.011062057692899193,0.008145808913301692,16.342657822188333,0.011664994876651201,0.021300979773513973
288,0.25,0.001,0.011169020651827472,0.008226960269107958,16.4873065865196,0.01176824167488908,0.033006603945977986
289,0.25,0.001,0.011015790616320732,0.008070306653181277,16.50649185680406,0.0117819356579615,0.02171833615284413
290,0.25,0.001,0.01105438025188368,0.008200840471418143,15.991236932413026,0.011414159123778035,0.01093225588556379
291,0.25,0.001,0.011032179022394934,0.008174435422637837,16.014795045144695,0.011430974336291717,0.014275674999225885
292,0.25,0.001,0.011052347784739914,0.008111940249475329,16.478044813897412,0.01176163084503741,0.012758297321852297
293,0.25,0.001,0.010966395121474454,0.008116111090187162,15.972992351482008,0.011401136582071383,0.015243931149598211
294,0.25,0.001,0.011017591647771248,0.008132394098200912,16.16864554226138,0.011540789109394276,0.014727846486493945
295,0.25,0.001,0.011048267973692657,0.008114092938569436,16.44311817035925,0.011736701049506958,0.019182456424459815
296,0.25,0.001,0.010946049143491093,0.008073977426540382,16.095089858275834,0.011488286836742209,0.010619721666444093
297,0.25,0.001,0.011070213109807938,0.0081489485440426,16.370766427319122,0.011685058120855905,0.01093981065787375
298,0.25,0.001,0.01107107046340881,0.00813546053268113,16.451156895233556,0.011742438897382981,0.012973343604244292
299,0.25,0.001,0.011025648694241412,0.00813885523600089,16.177590940717007,0.011547174118998577,0.014672585879452527
300,0.25,0.001,0.010983326927836025,0.008081258091603824,16.263194313215898,0.011608275741053461,0.012904507340863347
301,0.25,0.001,0.011036454972416553,0.008074099041407675,16.601042301894275,0.011849423484578354,0.010397514677606523
302,0.25,0.001,0.010996133857711693,0.008027764321935228,16.634743528074573,0.011873478606762721,0.014910732978023589
303,0.25,0.001,0.011053847193750492,0.008187685332639248,16.06196984453493,0.011464646569974967,0.020058728754520416
304,0.25,0.001,0.01096364944831643,0.00802500328398818,16.468173664209623,0.011754585056537918,0.02089667785912752
305,0.25,0.001,0.011081839484614055,0.008052631704275004,16.975681113363873,0.012116831629810044,0.01521484786644578
306,0.25,0.001,0.010999643134042687,0.008160934840455065,15.908121696205638,0.011354833473380184,0.012668727082200348
307,0.25,0.001,0.011062489676098115,0.008114129829517359,16.52260733691886,0.01179343849887142,0.011747270822525024
308,0.25,0.001,0.010997763346864406,0.008035353372711282,16.601345516188175,0.011849639911626107,0.010930371703580022
309,0.25,0.001,0.010894613991202746,0.0079782900754281,16.34307853831995,0.011665295173675911,0.01567220699507743
310,0.25,0.001,0.010997251351262284,0.008194624450399365,15.705921231398936,0.011210507659813658,0.012577102519571781
311,0.25,0.001,0.010986607664114263,0.00799762691456548,16.7502482634965,0.011955923100283011,0.013177137938328087
312,0.25,0.001,0.010942013970856843,0.007996902634353096,16.504403893083463,0.011780445319831166,0.01857419789303094
313,0.25,0.001,0.011051540746959536,0.008210468362187194,15.921370277238205,0.011364289990890938,0.017287228256464005
314,0.25,0.001,0.010980615677011064,0.008037170871083653,16.49506494780295,0.011773779405997822,0.013880109996534884
315,0.25,0.001,0.011041899520789952,0.008173939430329737,16.07204919923341,0.011471840970188014,0.021479738759808242
316,0.25,0.001,0.01100740779809426,0.00813465384058817,16.09891264719734,0.01149101545124721,0.021381129627116024
317,0.25,0.001,0.011085581152362333,0.00813610347061048,16.528872635687282,0.011797910517978074,0.023040537955239415
318,0.25,0.001,0.011036821767102162,0.008105213796581634,16.428731651805894,0.01172643229964732,0.02003316127229482
319,0.25,0.001,0.01104558140494938,0.008162219488106701,16.15836067699449,0.011533448020695568,0.016736221790779382
320,0.25,0.001,0.011027018974766982,0.008095810858850005,16.426489934130007,0.011724832215653111,0.020133462734520435
321,0.25,0.001,0.011033894331499478,0.008060907391937018,16.660618948624123,0.01189194785769031,0.015331730828620493
322,0.25,0.001,0.01108372081721844,0.008206627819703396,16.123229947152616,0.011508372553285236,0.016901169496122748
323,0.25,0.001,0.01093506337220752,0.00797534307798444,16.586272751920607,0.011838881336131767,0.013068236294202507
324,0.25,0.001,0.010951839631431488,0.008098536016476466,15.989913457345754,0.011413214459204677,0.01639030291698873
325,0.25,0.001,0.01097104072928689,0.008070896696868682,16.252406524258408,0.01160057567755775,0.012186877778731287
326,0.25,0.001,0.010932380740233904,0.007992143092034425,16.477092826210257,0.011760951339193616,0.017362460610456765
327,0.25,0.001,0.010982525693537366,0.008068769312093611,16.32869159082138,0.011655026117645524,0.01793730049394071
328,0.25,0.001,0.010962385529709174,0.008034850844877517,16.40590538208141,0.011710139459015997,0.01579417916946113
329,0.25,0.001,0.010959284184866597,0.008023711529409911,16.450949331558427,0.011742290743439276,0.011538325459696352
330,0.25,0.001,0.010968497933974433,0.007996790847175767,16.653446863832432,0.011886828596597026,0.016625905293039978
331,0.25,0.001,0.010955138176712146,0.008091268129646778,16.049127945212817,0.011455480332057686,0.017872777418233454
332,0.25,0.001,0.010984682144523968,0.00808150353373789,16.269414368675264,0.011612715466577633,0.020945597905665636
333,0.25,0.001,0.010930754040982005,0.008005936137974002,16.39068018817485,0.011699272082922806,0.015025158762000501
334,0.25,0.001,0.010897708332824916,0.00798936133724373,16.298377153654805,0.011633388403750753,0.013402766897343099
335,0.25,0.001,0.01091912143160162,0.008086000807079035,15.87680861210719,0.011332482949398422,0.013477860135026276
336,0.25,0.001,0.011023781071193353,0.008054738089556127,16.638516405263843,0.011876171595477405,0.015646195970475674
337,0.25,0.001,0.010899551204653806,0.008033244199562802,16.06278495288832,0.01146522837465262,0.014345687231980264
338,0.25,0.001,0.010919992653368342,0.007933047091726653,16.738843534711147,0.011947782680022232,0.011491030978504568
339,0.25,0.001,0.010852670569509658,0.007952861740013919,16.250528926932656,0.011599235493884837,0.01620866172015667
340,0.25,0.001,0.010810579462017555,0.007990479396094922,15.803840633042515,0.011280400166340125,0.015545786707662046
341,0.25,0.001,0.010935422655308872,0.007970641676222653,16.614632910516065,0.011859124133130667,0.020140978740528226
342,0.25,0.001,0.010935456056847322,0.008001512302874738,16.44182114413732,0.011735775263481315,0.015092080517206341
343,0.25,0.001,0.01088645735422076,0.0080044988550929,16.15049517102637,0.011527833812295768,0.013211189303547144
344,0.25,0.001,0.010936888036476734,0.008096729258815534,15.916249370991403,0.011360634811557033,0.017427103128284216
345,0.25,0.001,0.010998030347692655,0.007980436554349405,16.91059657267608,0.012070375854872292,0.024698190041817725
346,0.25,0.001,0.010885389106893123,0.008038936443138852,15.951520028593238,0.01138581015602658,0.015443121548742056
347,0.25,0.001,0.010861844125337996,0.0079912184269928,16.086986133625413,0.011482502593594157,0.01569824363104999
348,0.25,0.001,0.010810675066956786,0.007925058471030803,16.17099592050611,0.01154246675268102,0.016597307985648513
349,0.25,0.001,0.010917872296215145,0.00801500985927587,16.267641596398498,0.011611450104495716,0.016818224044982344
350,0.25,0.001,0.010806226875128704,0.007939335060464504,16.066062210949227,0.011467567602390597,0.015034660289529711
351,0.25,0.001,0.010835531249024201,0.007885975348376812,16.529310959395364,0.01179822338286607,0.010893905302509665
352,0.25,0.001,0.01088026134240315,0.008014307349237032,16.060807407162596,0.011463816850223123,0.011190281831659377
353,0.25,0.001,0.010933877843306055,0.00797113425029222,16.60321507183225,0.01185097435534065,0.011175568797625601
354,0.25,0.001,0.010884846442716612,0.00791835061408677,16.62424299914764,0.011865983582546496,0.013567756221164018
355,0.25,0.001,0.010914149470464632,0.007894393377917043,16.922713871085488,0.012079024890139534,0.019611335592344403
356,0.25,0.001,0.010905353462234074,0.008097981993418072,15.732509408975792,0.011229485659511628,0.018899152521044016
357,0.25,0.001,0.010968265457152019,0.00812084761379067,15.95692956083206,0.011389671349630308,0.019165532547049224
358,0.25,0.001,0.010823954807748962,0.00778330727704032,17.0397886501129,0.012162590042907137,0.016008997685275972
359,0.25,0.001,0.010851914608062094,0.008004124304808383,15.959017553704275,0.011391161708568362,0.013976868183817714
360,0.25,0.001,0.010886397082602613,0.00795697047086392,16.416506496579366,0.01171770627878613,0.012047334690578282
361,0.25,0.001,0.010847393724270262,0.00791698111644153,16.422033160013925,0.011721651077811509,0.014654843020252883
362,0.25,0.001,0.010972545892976257,0.008146589918786001,15.836658136292836,0.011303824508417442,0.030903273378498852
363,0.25,0.001,0.011077749929248506,0.00814056674254383,16.45997468873403,0.011748732825648842,0.028992896899580956
364,0.25,0.001,0.011029108858557507,0.008204115880043225,15.83126112259111,0.011299972250243475,0.0297490656375885
365,0.25,0.001,0.010975440667218256,0.008012430476000346,16.60470932539894,0.011852040917486753,0.024631475214846432
366,0.25,0.001,0.010916452008954303,0.00796881922841983,16.51853390656184,0.01179053098255663,0.0190134440199472
367,0.25,0.001,0.010933692872068768,0.007993349829875747,16.477682205266827,0.011761372023745059,0.021182921365834773
368,0.25,0.001,0.010926908410792788,0.007960716412935455,16.622539928386306,0.0118647679717247,0.01688563759671524
369,0.25,0.001,0.011080234413193824,0.008063544584316197,16.905530446481496,0.012066759776218055,0.013432718929834664
370,0.25,0.001,0.010906869537445135,0.007989701843417888,16.34780874627126,0.011668671481992333,0.015223660157062113
371,0.25,0.001,0.010962323663861991,0.008082311559777592,16.13958772717605,0.011520048342024304,0.013435044442303479
372,0.25,0.001,0.010955103042669691,0.00792432889570055,16.98445810293006,0.012123096433212034,0.01037645258475095
373,0.25,0.001,0.010967801113543812,0.00803190735717788,16.452748352783736,0.011743574841387392,0.014944338938221335
374,0.25,0.001,0.010902177863733998,0.00803755934647077,16.05332327097264,0.011458474854370192,0.012404243578203022
375,0.25,0.001,0.010905961737882622,0.007980514366553861,16.394207383867954,0.011701789710112744,0.012322277878411114
376,0.25,0.001,0.0109158062282543,0.007995910527729572,16.36309608726002,0.01167958321717346,0.011037798947654665
377,0.25,0.001,0.010878294954426163,0.00790970083570116,16.636001378688228,0.011874376430184316,0.012493313872255385
378,0.25,0.001,0.010808505524584299,0.00789452951775628,16.329922363747677,0.01165590461366715,0.01128403702750802
379,0.25,0.001,0.010822980005830917,0.007942174943611352,16.144030725071005,0.011523219646731624,0.012467286607716233
380,0.25,0.001,0.010837163881898967,0.007963235235842164,16.105495794371226,0.011495714342877392,0.013263262691907585
381,0.25,0.001,0.010796547826688622,0.007879580867244947,16.3466832856424,0.011667868155347894,0.012934524740558118
382,0.25,0.001,0.010780865712880307,0.00793475527763692,15.949602301984894,0.011384441329039896,0.016079823195468634
383,0.25,0.001,0.01095032397511224,0.007976188857157158,16.667053897307948,0.011896540968813667,0.024013754446059465
384,0.25,0.001,0.010744745485224317,0.007824947008269323,16.3625512518737,0.0116791943268192,0.01446787070017308
385,0.25,0.001,0.010814084866649459,0.007925623566253866,16.186937848553388,0.011553845716312197,0.021414304501377046
386,0.25,0.001,0.010713156930874528,0.0077597017940865855,16.551162369907164,0.011813820392510468,0.010368018294684589
387,0.25,0.001,0.010763242312068502,0.007946229816361545,15.786537803416689,0.01126804982399478,0.012139865488279611
388,0.25,0.001,0.010788064445958648,0.007929270249266812,16.02068358841942,0.01143517743641643,0.014513393514789641
389,0.25,0.001,0.010659684044792922,0.007833764770405783,15.836451617911393,0.011303677100579152,0.011844731168821454
390,0.25,0.001,0.010788037283061373,0.007882272796176667,16.28390332184504,0.011623057331795176,0.014688646770082414
391,0.25,0.001,0.010788739528751009,0.007839925949132338,16.5251511569627,0.011795254216247466,0.016541644698008895
392,0.25,0.001,0.010822771096756625,0.007926969048790797,16.228074531888335,0.011583208088428505,0.01619868481066078
393,0.25,0.001,0.010824725145726225,0.007942965608008824,16.149380246624677,0.011527038006156086,0.018364056129939854
394,0.25,0.001,0.010777899328472833,0.007899570006340352,16.130158811677493,0.01151331820961991,0.012616085587069392
395,0.25,0.001,0.010861750968679069,0.007902953619194342,16.581101263454386,0.011835190052429969,0.013334207935258746
396,0.25,0.001,0.010795663757550665,0.00784327990200582,16.54515941070157,0.011809535625054653,0.017333450261503458
397,0.25,0.001,0.010766702561789725,0.007858993249689127,16.294803036352434,0.011630837285048132,0.013198606378864497
398,0.25,0.001,0.010852884175865931,0.007963585860490409,16.191627802286607,0.011557193292138905,0.014206704101525247
399,0.25,0.001,0.010828331633426216,0.007878217640776172,16.53243895284994,0.011800456069129151,0.012882008566521108
400,0.25,0.001,0.010796882098288515,0.007842282713777243,16.55757488433971,0.011818397490606503,0.014962235814891756
401,0.25,0.001,0.010722510309231072,0.007888621616067454,15.88111244434873,0.011335554921019793,0.01305416866671294
402,0.25,0.001,0.010761586534404339,0.0077397431527553165,16.934410928118176,0.01208737396725066,0.014036609616596252
403,0.25,0.001,0.010768842871207338,0.007903855176048769,16.055391903006875,0.01145995139400919,0.011699728667736053
404,0.25,0.001,0.010753518181922134,0.007888068806981936,16.057977247446384,0.011461796750497062,0.012646400486119092
405,0.25,0.001,0.010761051723432592,0.007849036602051237,16.318933611873977,0.011648061107690205,0.013073908106889576
406,0.25,0.001,0.010805405155800316,0.007866163908882172,16.47150720987778,0.011756964461011979,0.02483957610093057
407,0.25,0.001,0.010751116630421977,0.007890370031859417,16.031623811180413,0.011442986303483522,0.012113361502997577
408,0.25,0.001,0.010773133893200403,0.007834659555853715,16.46721021993712,0.0117538973732599,0.015643776743672788
409,0.25,0.001,0.010806953713427984,0.007850554031543597,16.567663879894273,0.01182559877223003,0.013240583008155227
410,0.25,0.001,0.010771644330180888,0.007926802331882664,15.942494817175719,0.011379368177855616,0.015402806806378067
411,0.25,0.001,0.010761460020942979,0.007806075895489824,16.561972205815877,0.011821536192588064,0.01950046233832836
412,0.25,0.001,0.010784915827344858,0.007791656689661429,16.77422441041105,0.0119730366955111,0.012503767153248191
413,0.25,0.001,0.010774892148883062,0.007866880396893452,16.296497394944904,0.011632046677333979,0.014118026476353407
414,0.25,0.001,0.01079068955147891,0.007847360014004478,16.494418344122874,0.011773317875890702,0.012758778349962085
415,0.25,0.001,0.010736134692245696,0.007734333486275902,16.822095113029647,0.012007205648129656,0.011740542482584715
416,0.25,0.001,0.010766329963622395,0.00793742949517208,15.853159279802481,0.011315602626554233,0.015835877740755677
417,0.25,0.001,0.010766421855472061,0.007901710124613156,16.053844843368864,0.011458847140163358,0.0199693962931633
418,0.25,0.001,0.010718870184111804,0.007825617113162858,16.21379061869659,0.011573012575800562,0.013662245706655085
419,0.25,0.001,0.010715974901505953,0.007902335806639954,15.767634945665385,0.01125455742017515,0.015151935862377286
420,0.25,0.001,0.010786532574866016,0.00780712173413892,16.696619125432843,0.011917643915369624,0.01436370622832328
421,0.25,0.001,0.010810651031513923,0.007837809455544407,16.659805010499912,0.011891366888294013,0.01866034243721515
422,0.25,0.001,0.010748853939524385,0.007856699505894075,16.207633276693684,0.011568617613628611,0.012604344985447824
423,0.25,0.001,0.010814067944233594,0.007910653082531872,16.270737160761804,0.01161365964365582,0.016265656682662666
424,0.25,0.001,0.010711635540211045,0.0078116476039634,16.2515323380716,0.011599951704547893,0.013401702453847975
425,0.25,0.001,0.010645302992688257,0.0077986111457756515,15.952860615659489,0.01138676703473197,0.010612945188768208
426,0.25,0.001,0.010747751570815083,0.007884937696419169,16.043208451250234,0.011451255140078682,0.01201045309426263
427,0.25,0.001,0.010733891176832554,0.007737954858869444,16.78922737321479,0.01198374544840456,0.012564143748022616
428,0.25,0.001,0.010692009832466013,0.007847759301273974,15.939180349158407,0.011377002390548471,0.010499787458684295
429,0.25,0.001,0.010682508654436951,0.0077583631276921675,16.386911487995796,0.011696582075657241,0.01102922298014164
430,0.25,0.001,0.01067094558516444,0.0077333309439592485,16.462392948600403,0.011750458921199431,0.014234998379833996
431,0.25,0.001,0.0107826220245796,0.007955575038528468,15.84277147601265,0.011308188062821307,0.016935371328145266
432,0.25,0.001,0.010750557792141187,0.0077685583016822955,16.711125881911364,0.011927998488159432,0.022028225706890225
433,0.25,0.001,0.010804368715782093,0.007933640271002289,16.08756171980279,0.01148291343312119,0.021855378057807684
434,0.25,0.001,0.010657700990615453,0.00766788267705378,16.754942181849582,0.01195927350595973,0.014289010781794786
435,0.25,0.001,0.010737551181011846,0.007883166536428522,15.99597181711655,0.011417538770247359,0.013040906575042754
436,0.25,0.001,0.010704611517554027,0.007793228851639418,16.315388167268846,0.011645530454867128,0.01151817140635103
437,0.25,0.001,0.010708126349285179,0.007885366578598601,15.818744971762579,0.011291038523742027,0.012022542010527104
438,0.25,0.001,0.01074022588250939,0.007885591863089254,15.997369487212735,0.011418536393442352,0.016142562380991876
439,0.25,0.001,0.010697094247753704,0.007753253515858577,16.497282844443507,0.011775362487111711,0.012280589726287872
440,0.25,0.001,0.010686636357425863,0.007793446177185623,16.213437675909184,0.011572760653753879,0.013121596304699779
441,0.25,0.001,0.010705816173137015,0.007835027910199618,16.087897367352483,0.011483153010244456,0.013566705165430903
442,0.25,0.001,0.010679160330168025,0.0077852036409470455,16.21773389957878,0.011575827194560157,0.018088553566485643
443,0.25,0.001,0.01062645373955434,0.007763315276873164,16.04502776200074,0.011452553720200384,0.016716883168555796
444,0.25,0.001,0.01071998357414939,0.007875984197067643,15.937771618105959,0.01137599687230975,0.01687499147374183
445,0.25,0.001,0.01068236124518787,0.0077658963092810205,16.343868876128216,0.011665859297736057,0.014749554335139692
446,0.25,0.001,0.010643397331823429,0.00766452883398689,16.693579065747656,0.011915473994109676,0.010809577128384262
447,0.25,0.001,0.010594104107583194,0.007688691628096406,16.281931977084632,0.01162165023346512,0.011161617760080844
448,0.25,0.001,0.010615699900127134,0.007710696348521907,16.279639698011906,0.011620014059965671,0.00986106926575303
449,0.25,0.001,0.010655687930770055,0.007709281069661723,16.511664303109114,0.01178562762534555,0.013091114407870919
450,0.25,0.001,0.010603342091412523,0.007688651109464043,16.33392822065728,0.011658763897685425,0.016292050713673234
451,0.25,0.001,0.010653172867722386,0.007789256038982014,16.049389035420646,0.011455666691949069,0.010470236069522798
452,0.25,0.001,0.010725747106604962,0.007775379958924508,16.533857861981122,0.011801468852234919,0.015898242476396263
453,0.25,0.001,0.010747429581285824,0.007793808892759694,16.55209124036231,0.01181448339783177,0.018104584072716534
454,0.25,0.001,0.010636350221313763,0.007770813419991966,16.058467765041833,0.01146214687012265,0.01671695167897269
455,0.25,0.001,0.010666969760959585,0.0077362167831982066,16.423939563301452,0.011723011822484976,0.014171106508001685
456,0.25,0.001,0.010690433745919097,0.007769911879405184,16.36660450098296,0.011682087438246223,0.0178305875742808
457,0.25,0.001,0.010615533274724493,0.007811280422921264,15.715034243321314,0.011217012307866748,0.013670363347046077
458,0.25,0.001,0.010651315123200677,0.0078072724457195755,15.93801465929856,0.011376170349249507,0.013296041171997786
459,0.25,0.001,0.01064725761509228,0.007679195793988142,16.633018756016895,0.011872247506079155,0.013535038393456489
460,0.25,0.001,0.010703057095440975,0.007874067982569271,15.853653487159695,0.011315955379842752,0.015727877034805715
461,0.25,0.001,0.010726951644247536,0.007800129882779835,16.401909440885984,0.011707287252595277,0.012284905766136944
462,0.25,0.001,0.010630611928106656,0.007723383139818907,16.292109805944186,0.011628914922158591,0.014665332739241421
463,0.25,0.001,0.010652515728140502,0.007843702124618808,15.740591640555703,0.011235254561424485,0.015031416900455952
464,0.25,0.001,0.010663893968517604,0.00781685452883876,15.954808664113674,0.011388157504720681,0.014515166054479778
465,0.25,0.001,0.010653007458326078,0.0077705964686015545,16.15303068702398,0.011529643602443953,0.01589232822880149
466,0.25,0.001,0.010629869159717748,0.007709835806462962,16.363866893485124,0.01168013340006076,0.016469673835672438
467,0.25,0.001,0.01064712141018247,0.007765186179884787,16.15036567121614,0.011527741378455489,0.014807412750087678
468,0.25,0.001,0.010580415276233025,0.007650840990896048,16.417333881927892,0.011718296846486717,0.014204353443346918
469,0.25,0.001,0.010678846836415441,0.007692847754724942,16.73353996443436,0.011943997119510608,0.012481517856940627
470,0.25,0.001,0.010694852367238708,0.00778314294740883,16.317219846633844,0.011646837863407455,0.014593427651561797
471,0.25,0.001,0.010663505432126824,0.0078713251887841,15.64737734732149,0.011168720447766945,0.018110719975084066
472,0.25,0.001,0.010746769786011183,0.007840334063631738,16.287665866868466,0.011625742945659148,0.018935358035378158
473,0.25,0.001,0.010698683836444496,0.007791026820749955,16.29451056234701,0.01163062852415918,0.02179016766604036
474,0.25,0.001,0.010737675372267134,0.007771844284275474,16.62051798058389,0.01186332475416409,0.02098582626786083
475,0.25,0.001,0.010694247463059216,0.00782491556698188,16.07973668044311,0.011477328108810213,0.017417340190149844
476,0.25,0.001,0.01095156829120941,0.007888361758768038,17.16620988304438,0.012252826468982427,0.031223523197695613
477,0.25,0.001,0.010815143568937435,0.007875155820206264,16.475692440849205,0.011759951777908069,0.021136342198587954
478,0.25,0.001,0.010674497332244981,0.007780208622459241,16.219595030405635,0.011577155624843422,0.010579296271316707
479,0.25,0.001,0.010730136938262975,0.007757826281231564,16.65682769342281,0.01188924175119401,0.013905542669817805
480,0.25,0.001,0.010705730251512413,0.007750777194203248,16.559556794478905,0.01181981213024904,0.011518500279635191
481,0.25,0.001,0.010618763784654275,0.007679982102724142,16.46893273066225,0.01175512685985885,0.011458815075457096
482,0.25,0.001,0.010782397344025202,0.007796477465422653,16.733094969170583,0.011943679492627111,0.019441549200564623
483,0.25,0.001,0.010750041855702493,0.00785806539618943,16.20663546682966,0.011567905401020456,0.02510357357095927
484,0.25,0.001,0.010761471668575528,0.007809872141181121,16.540764746187037,0.011806398819548206,0.013604269828647375
485,0.25,0.001,0.01070703725903966,0.007826029020056585,16.145170128501658,0.011524032925411605,0.013055189861916006
486,0.25,0.001,0.010660782598739888,0.00771016881935396,16.535240123365643,0.01180245547706327,0.011280609527602792
487,0.25,0.001,0.01066935429243802,0.007867240757726166,15.703044399944455,0.011208454246926805,0.014667337643913925
488,0.25,0.001,0.010669293951682389,0.007748621001465482,16.367449956169295,0.011682690903761096,0.012887615186627954
489,0.25,0.001,0.010653173530628848,0.007755072344110782,16.24095896758367,0.011592404687782776,0.013970824307762086
490,0.25,0.001,0.010500562133259388,0.007752797456547683,15.398474026975673,0.010991059262652158,0.014988655806519091
491,0.25,0.001,0.010623210447323894,0.007724560915154922,16.24403255579253,0.011594598540894025,0.01515606278553605
492,0.25,0.001,0.010662947390960555,0.007711163457629462,16.541797683749138,0.01180713610545977,0.015548283467069268
493,0.25,0.001,0.010658923292524429,0.007750845166517007,16.296869240473452,0.01163231209170125,0.01577308541163802
494,0.25,0.001,0.010567384462917476,0.007648672379846136,16.356461637405328,0.011674847706927428,0.014206937921699136
495,0.25,0.001,0.010602163142772741,0.00775519642962639,15.954401720038668,0.011387867037857722,0.0117766092880629
496,0.25,0.001,0.010572245230646113,0.007617269341699681,16.559684582672787,0.011819903342378863,0.013542357250116765
497,0.25,0.001,0.010535610815323075,0.007720648976018465,15.77504741885256,0.011259848264705611,0.011585975356865674
498,0.25,0.001,0.010534053737517268,0.007672749781029453,16.034747136211813,0.011445215657538766,0.011850732436869293
499,0.25,0.001,0.010673224437965576,0.007717098772330576,16.56612893483524,0.011824503165478402,0.014731577946804464
500,0.25,0.001,0.010758897562116775,0.007916668204257191,15.927853417708883,0.011368917500149097,0.02184920501895249
