epoch,beta,learning_rate,train_loss,train_reconstruction_loss,train_kl_unnormalized,train_kl_normalized,mean_unclipped_gradient_norm
1,0.0,0.001,0.062282092161554385,0.062282092161554385,220.03373622296996,0.15705477246464666,0.09499758202582598
2,0.02,0.001,0.05066740368969256,0.04518580442928322,383.98604453132646,0.2740799746833165,0.11174014396965504
3,0.04,0.001,0.040851381640406886,0.03793410823091336,102.17748550383183,0.07293182405698204,0.05669630225747824
4,0.06,0.001,0.03830840457269692,0.03485433883296174,80.65244841924043,0.057567771890963904,0.044429015601053834
5,0.08,0.001,0.03629466028016893,0.03323980396718471,53.49818046904307,0.038185710541786634,0.02695274306461215
6,0.1,0.001,0.033950877183414455,0.03175808144791639,30.721059213849347,0.021927950902105173,0.023222001967951655
7,0.12,0.001,0.031136404108528304,0.02896477177443609,25.35380833333121,0.018096936711870956,0.022407070733606815
8,0.14,0.001,0.027839953729217885,0.024987963329619556,28.54027654134157,0.020371360843213112,0.020550988847389817
9,0.16,0.001,0.025827608018771344,0.022431856600688246,29.734048556684204,0.02122344650726924,0.024601987679488957
10,0.18,0.001,0.024605197622003288,0.021087695095913645,27.377896032154187,0.019541681678910912,0.02806194289587438
11,0.2,0.001,0.023766241092740368,0.019951779535331907,26.72030291228802,0.01907230757479516,0.03992661496158689
12,0.22,0.001,0.023348487711400728,0.019554812118939915,24.158818533624636,0.017243981822715658,0.025626553688198328
13,0.24,0.001,0.023463941282264127,0.019668473339093256,22.15604637161924,0.015814451371605455,0.05084581929259002
14,0.25,0.001,0.023216251727185815,0.01931022804829298,21.88935652555653,0.015624094593544989,0.03009938250761479
15,0.25,0.001,0.02294876145311711,0.019173539370018405,21.156344770140837,0.015100888486895673,0.05085192364640534
16,0.25,0.001,0.023100788889760016,0.019428745518770996,20.57813221527291,0.014688174314969956,0.0602412992157042
17,0.25,0.001,0.022498782008637468,0.018820251569556294,20.614487646019285,0.014714123944339247,0.029176034266129136
18,0.25,0.001,0.02220430007760485,0.018584509728192537,20.28530493559071,0.014479161267373811,0.031732523115351796
19,0.25,0.001,0.022428370121718697,0.018864829940935267,19.970079692768902,0.014254161094053463,0.04597701597958803
20,0.25,0.001,0.021842793439026915,0.018270343495435656,20.02001147180609,0.014289801193294854,0.017369129927828908
21,0.25,0.001,0.02155510190726571,0.01817697882341194,18.93100324403767,0.013512493393317395,0.01593964791391045
22,0.25,0.001,0.021736946800774225,0.01818425723571245,19.909272669750365,0.01421075850803024,0.020968024618923664
23,0.25,0.001,0.02158713586908417,0.017975712821105327,20.23841618595641,0.014445693209105218,0.025553938350640237
24,0.25,0.001,0.021463770030498007,0.017900950047877735,19.966043034276783,0.014251279824608696,0.0334988534450531
25,0.25,0.001,0.021238365609175476,0.017779870409837348,19.3814061031461,0.013833980087898717,0.025896556791849434
26,0.0,0.001,0.01699726432484102,0.01699726432484102,25.871170346572654,0.01846621723524101,0.02774854050949216
27,0.02,0.001,0.016435000711044836,0.015767846050398087,46.73416734189728,0.033357721157671154,0.029678675113245845
28,0.04,0.001,0.01700110429030744,0.015214960911313153,62.55966376063719,0.04465357870138272,0.0354089317843318
29,0.06,0.001,0.017601562920561167,0.015009084844763444,60.53436264165508,0.043207967624307696,0.03067219420336187
30,0.08,0.001,0.0177636943166465,0.0151182466141864,46.32841114211431,0.0330681021713878,0.023959884187206626
31,0.1,0.001,0.017910285516484544,0.015478230765894335,34.073086342383526,0.024320546996704873,0.012659785978030413
32,0.12,0.001,0.01831752873786058,0.015726424839215387,30.2511401803608,0.02159253403309122,0.019255963736213744
33,0.14,0.001,0.01847733872201846,0.015598139346485844,28.81255471183761,0.02056570643243227,0.01882252376526594
34,0.16,0.001,0.018810412587912943,0.015762314126517678,26.689914874592503,0.019050617326618488,0.011545203276909888
35,0.18,0.001,0.018943529579951768,0.01576093092389669,24.771225381743683,0.017681103056205343,0.01358053379226476
36,0.2,0.001,0.01938319520826504,0.01603073176066537,23.484006821984785,0.016762317503201132,0.0169275357038714
37,0.22,0.001,0.01947058405968242,0.015974123190334047,22.266099682929372,0.015893004770113756,0.029116717516444623
38,0.24,0.001,0.019680295007338356,0.016176622586484245,20.45268765570973,0.014598635014782107,0.02487392711918801
39,0.25,0.001,0.019643930321664303,0.016113284835300265,19.785740523846016,0.014122584242573887,0.016300717019475996
40,0.25,0.001,0.0195664735724819,0.016218029168708587,18.76468153139246,0.013393776967446437,0.016856171190738678
41,0.25,0.001,0.01940774331199849,0.015935291238673543,19.45962142944336,0.013889808300816103,0.01487908756826073
42,0.25,0.001,0.019207361766714642,0.0158067408264741,19.057079203691263,0.013602483371656862,0.01324936468154192
43,0.25,0.001,0.01911997479349686,0.015815121790545842,18.52039589214922,0.01321941177169823,0.015421103336848319
44,0.25,0.001,0.018930856270680595,0.015645566161154208,18.41076280677493,0.013141158320324718,0.01163400721270591
45,0.25,0.001,0.018870244467619316,0.015541330077111845,18.65523746068393,0.013315658430181251,0.01610295008867979
46,0.25,0.001,0.01879387696921079,0.015662829549147092,17.54639206251172,0.012524191336553692,0.012888006400316954
47,0.25,0.001,0.018888791906404346,0.015541573554775163,18.75781210578807,0.013388873737179207,0.01576551899779588
48,0.25,0.001,0.01869023374684295,0.015483458302837323,17.970769304821037,0.012827101573748063,0.015691372216679156
49,0.25,0.001,0.0183662649415169,0.015254399087863326,17.438895362901786,0.012447462785797135,0.01157951750792563
50,0.25,0.001,0.01856361800855286,0.01538085162499628,17.83622491633469,0.01273106703521391,0.016631044913083315
51,0.0,0.001,0.014563080438632433,0.014563080438632433,23.231150159258434,0.01658183451767197,0.01967601291835308
52,0.02,0.001,0.013887285422106004,0.01330166407870537,41.02276857411936,0.02928106250829362,0.017405380494892597
53,0.04,0.001,0.013653636735033765,0.012098449089861862,54.47044921269745,0.038879692514416454,0.019426293903961778
54,0.06,0.001,0.01320783491003364,0.010969636670171841,52.2619296175453,0.03730330450931142,0.018029125523753464
55,0.08,0.001,0.01278846966596573,0.010579370687441561,38.68684656386087,0.027613737732948514,0.0154993204632774
56,0.1,0.001,0.012846177840500385,0.010764547798681483,29.163636599801528,0.0208163002139911,0.016303673619404435
57,0.12,0.001,0.012919781957062774,0.010578912144258525,27.329653522913542,0.019507247339695603,0.011193197104148567
58,0.14,0.001,0.013218563151135574,0.010533487883110634,26.86993170879579,0.019179108999854238,0.010957927734125406
59,0.16,0.001,0.013551201336941291,0.010736384919002683,24.647236642857433,0.0175926028856941,0.015871435462031513
60,0.18,0.001,0.013747655115788316,0.010761516685898967,23.24210949382105,0.016589657026281977,0.016968521405942738
61,0.2,0.001,0.014085141113630665,0.01097868784818806,21.760704096274484,0.015532265593343671,0.01762724295258522
62,0.22,0.001,0.014341133566950458,0.010978154318955472,21.416064232525596,0.015286269973251674,0.01683014346053824
63,0.24,0.001,0.01448748912078976,0.01105896408799919,20.01401603794297,0.014285521797246944,0.016940960893407464
64,0.25,0.001,0.014597818879546726,0.011077102330087496,19.730095287952146,0.014082866015668912,0.012593900493811816
65,0.25,0.001,0.014590221120818423,0.011123041229590867,19.430075611600298,0.013868719208851034,0.013970853993669152
66,0.25,0.001,0.01438798085010624,0.01095859634462503,19.21827168952448,0.01371753867917522,0.017067614011466503
67,0.25,0.001,0.014341207267813742,0.01103585721664364,18.52318338461858,0.013221401416572862,0.023253002378623933
68,0.25,0.001,0.014381623663599283,0.010998306183498313,18.960111669807194,0.013533270285372729,0.02273437345866114
69,0.25,0.001,0.014252554940250323,0.010957580475848253,18.465037606703216,0.013179898363100084,0.013337915181182325
70,0.25,0.001,0.014040933984150966,0.010725801046509957,18.578006202841102,0.013260532621585368,0.012308004137594253
71,0.25,0.001,0.013917710153786523,0.010615589017425674,18.505087245232378,0.013208484828859656,0.013641784433275461
72,0.25,0.001,0.013960805101347368,0.01074103446237914,18.043594897913287,0.012879082725134395,0.013000030536204576
73,0.25,0.001,0.013873194235460618,0.010608356411030247,18.296150802819366,0.013059351036987413,0.014551811036653817
74,0.25,0.001,0.01387284010734277,0.010666294812782822,17.969480056603416,0.012826181339474245,0.01662864431273192
75,0.25,0.001,0.01375695903608595,0.010535256974088001,18.054419419959594,0.012886809007822693,0.01263060700148344
76,0.0,0.001,0.010065622343866461,0.010065622343866461,22.40688515904054,0.01599349404642437,0.01783040224108845
77,0.02,0.001,0.009614802589776122,0.009013735479237764,42.104766272303955,0.03005336636138755,0.010110880073625594
78,0.04,0.001,0.010186082761275868,0.008624113046239463,54.707985298618645,0.03904924004184057,0.008880485664121807
79,0.06,0.001,0.010647877418904687,0.008613748661590457,47.49690812017325,0.03390214712360689,0.011459578992798924
80,0.08,0.001,0.010788918163681827,0.008868014716031904,33.63982212966569,0.02401129345443661,0.010603257571347058
81,0.1,0.001,0.01104480715075776,0.00917912079779614,26.13826387361594,0.018656862151046352,0.010858007706701756
82,0.12,0.001,0.01143198740903856,0.009247777637459789,25.50064933872422,0.018201748278889523,0.011604322702623904
83,0.14,0.001,0.011738729435709423,0.009276798504379447,24.636893999103712,0.017585220556105435,0.010540295683313161
84,0.16,0.001,0.012014804433230193,0.00939648960656749,22.926621156346076,0.01636446906234552,0.009843718551564962
85,0.18,0.001,0.012307314163303325,0.009530340360248139,21.614113375637874,0.015427632673545948,0.011206455121282488
86,0.2,0.001,0.012631577202400858,0.009625738255275192,21.055901250660046,0.015029194325952924,0.012744010193273425
87,0.22,0.001,0.012951608039516498,0.009846194081459514,19.77584128489325,0.014115518404634726,0.019274742691777647
88,0.24,0.001,0.013125593408491143,0.009849581393045773,19.123720404001766,0.01365005025267792,0.01561843859963119
89,0.25,0.001,0.013289872282777674,0.0099976937459599,18.449367837766516,0.013168713660076029,0.019377985852770507
90,0.25,0.001,0.01325782174186194,0.010024998280645537,18.11674278912315,0.012931293925141436,0.015721470001153648
91,0.25,0.001,0.013190797633162868,0.009862600899610614,18.651214241234893,0.013312786753201208,0.013209114666096866
92,0.25,0.001,0.01314956994264509,0.010001326325915303,17.64275694192078,0.012592974262612976,0.012032782775349915
93,0.25,0.001,0.013188019682631861,0.009910140944827573,18.369231536642246,0.01311151430167184,0.01270611910149455
94,0.25,0.001,0.013092668752316268,0.009837016978520815,18.24467215010418,0.013022606816633961,0.010358402330894023
95,0.25,0.001,0.012974394845051035,0.009772829332297554,17.941572710965023,0.012806261749439702,0.01014920457964763
96,0.25,0.001,0.013046297596646998,0.009832095860315016,18.012386628630765,0.012856807015439517,0.018144260509870946
97,0.25,0.001,0.013029574072435653,0.009833593922813029,17.91027217219916,0.012783920180013677,0.009867512970231473
98,0.25,0.001,0.012901548994219005,0.009800758298354258,17.376830951157093,0.01240316270603647,0.013044910738244653
99,0.25,0.001,0.01303006223712062,0.009915797628991165,17.45233951879195,0.012457058899922876,0.013598003832157701
100,0.25,0.001,0.0128572363744729,0.009654793530578156,17.946490162349694,0.012809771707601494,0.010486412968020886
101,0.25,0.001,0.012946349772817159,0.009754801099042802,17.885439755274508,0.012766195399910427,0.011675722314976156
102,0.25,0.001,0.012970439345033408,0.009864476744653287,17.405814443600203,0.012423850423697504,0.019563877256587148
103,0.25,0.001,0.012894068687127627,0.009712360237408157,17.83029370716071,0.01272683348119965,0.019101494108326733
104,0.25,0.001,0.012974406952244505,0.009817104734138183,17.69352198543031,0.012629209125931698,0.017803818336687982
105,0.25,0.001,0.012939910678531282,0.009773872495241977,17.742478965966338,0.012664153437520583,0.015477131470106542
106,0.25,0.001,0.012922248458936966,0.009786571239924257,17.572335643409936,0.012542709238693744,0.014414298173505813
107,0.25,0.001,0.012971818472389015,0.009821485352774379,17.654467708133705,0.012601333125006213,0.022374677238985896
108,0.25,0.001,0.012855401280139707,0.00972403707041061,17.548165140171886,0.012525456916610911,0.019320646300911903
109,0.25,0.001,0.012788262805417335,0.0096847547494295,17.39205973232962,0.012414032642633563,0.015121664619073272
110,0.25,0.001,0.012737614835664973,0.009634629595783657,17.389130172251658,0.01241194159332738,0.01030323829036206
111,0.25,0.001,0.01276102975119753,0.009690232814089365,17.208746278957932,0.012283187922168403,0.01378824410494417
112,0.25,0.001,0.012774728930755548,0.009676280415894965,17.363705959598803,0.01239379440371078,0.011004440020769835
113,0.25,0.001,0.012718188243923954,0.009621324369563315,17.35482576644993,0.01238745593608132,0.009967303078155965
114,0.25,0.001,0.01261130501253682,0.009487416043037662,17.506273349292094,0.012495555566946533,0.012489111628383398
115,0.25,0.001,0.012608560478793057,0.009574887216371135,17.00070526505313,0.01213469326556255,0.01308517495635897
116,0.25,0.001,0.012455732890235606,0.009394361081461194,17.1559280642388,0.012245487554774304,0.009076309390366077
117,0.25,0.001,0.012543141983822765,0.009555624016329242,16.74205128584127,0.011950072295389915,0.012169664492830634
118,0.25,0.001,0.012553213331420636,0.009527754337995435,16.954671815939886,0.012101835700171225,0.012837919755838811
119,0.25,0.001,0.01259733658353944,0.009529775529633236,17.190611626260715,0.01227024384458295,0.016189572867006063
120,0.25,0.001,0.012450959492622562,0.009366789659667986,17.28368791010783,0.012336679450469543,0.01053315628087148
121,0.25,0.001,0.012459691306712234,0.00955149584832856,16.297527392871196,0.011632781865004422,0.010171111556701362
122,0.25,0.001,0.012480467441248744,0.00936874303974538,17.438104227340794,0.012446898092320339,0.01107897562906146
123,0.25,0.001,0.012446043250736215,0.00941296931091766,16.997346973618285,0.012132296198157234,0.013016982120461762
124,0.25,0.001,0.012446388751968337,0.009419083546668228,16.96501913050769,0.012109221363674299,0.011781439010519534
125,0.25,0.001,0.012331777979427314,0.009341962087222828,16.754928752126673,0.011959263920147518,0.01025046524591744
126,0.25,0.001,0.01237723343113208,0.009397721489685313,16.697185540249055,0.011918048208600325,0.011162264039739966
127,0.25,0.001,0.012303731410077817,0.009302021103419192,16.821584665700637,0.012006841303141069,0.010207062645349652
128,0.25,0.001,0.012269416709269138,0.009250731098549226,16.916714650355203,0.012074742791117204,0.00942209002096206
129,0.25,0.001,0.01232141444735649,0.00932601903660499,16.786196758453432,0.011981582268703378,0.010980202234350145
130,0.25,0.001,0.01229828503955008,0.00928289687264874,16.898235253351963,0.012061552643363286,0.010012369835749269
131,0.25,0.001,0.01234058343216248,0.009373946858099457,16.625031003374644,0.011866546040952638,0.014407442649826407
132,0.25,0.001,0.012397339456716634,0.009325455603946101,17.214836729842087,0.012287535139073581,0.011038854718208313
133,0.25,0.001,0.012309350917166359,0.00929718772785462,16.88016225699343,0.012048652574584888,0.011148593621328473
134,0.25,0.001,0.012342362538260059,0.009264781647254878,17.246763239324963,0.012310323511295476,0.011082353885285556
135,0.25,0.001,0.012333870622366355,0.009272720730846012,17.154684823340812,0.012244600159415283,0.013289532857015729
136,0.25,0.001,0.012406340747729472,0.009423694040602957,16.71475193047573,0.01193058667414399,0.013088176725432277
137,0.25,0.001,0.012216904144228624,0.009152384873456274,17.173566595248737,0.01225807751266862,0.010487099760212004
138,0.25,0.001,0.012207940878008253,0.0092166265169458,16.763324805241787,0.011965256820301062,0.012671380653046072
139,0.25,0.001,0.012234172676855188,0.009193746186403989,17.038550697438154,0.012161706422154285,0.010254258173517883
140,0.25,0.001,0.012154519365466587,0.009114479416658584,17.03638439536841,0.012160160168000294,0.01110056770266965
141,0.25,0.001,0.012211059729543384,0.009216533318581934,16.78132691512775,0.011978106292025517,0.011024897801689804
142,0.25,0.001,0.012206676044736625,0.009177626056172778,16.974796486299073,0.012116200204353372,0.012176737189292908
143,0.25,0.001,0.01219119760742516,0.009184852769376714,16.8475559569102,0.012025378984232832,0.008558076748158783
144,0.25,0.001,0.012189924792777397,0.009181332838622413,16.86014957666895,0.012034368006187686,0.011915362323634326
145,0.25,0.001,0.012240781124082388,0.009211755075758334,16.97466244229693,0.012116104526978536,0.012715203920379281
146,0.25,0.001,0.012238481274508484,0.009140071503833589,17.363488219227325,0.01239363898588674,0.011202269583009183
147,0.25,0.001,0.012173015507626384,0.009225395720039877,16.518462376206305,0.011790479925914565,0.013268402079120278
148,0.25,0.001,0.012102173470225115,0.009145793433073666,16.56755417523155,0.011825520467688472,0.010061075212433934
149,0.25,0.001,0.012084028187804779,0.009073625038725972,16.870299241736937,0.012041612592246207,0.01088334945961833
150,0.25,0.001,0.012039541360185266,0.009091935188573687,16.51838489763423,0.011790424623579036,0.010533582360949367
151,0.25,0.001,0.012165052299086385,0.009180298955850536,16.72655693324971,0.011939012800320992,0.012734452378936112
152,0.25,0.001,0.012105774529091624,0.009018231016080165,17.30259335862321,0.012350173703514067,0.012587198056280613
153,0.25,0.001,0.012081807442320538,0.009166408441027545,16.337896179804474,0.011661596131195199,0.009198516549076885
154,0.25,0.001,0.0120434529636063,0.009020477123091888,16.940756349822426,0.012091903176175893,0.011506220092996955
155,0.25,0.001,0.012074244476948128,0.009099170497554453,16.672315589570303,0.011900296637808925,0.011204436072148383
156,0.25,0.001,0.012038436829110526,0.009087559489031675,16.536717396937235,0.011803509919298526,0.011096067493781447
157,0.25,0.001,0.012097891948977193,0.009080261316749274,16.91080305621121,0.012070523237838124,0.013143784599378705
158,0.25,0.001,0.012008555153762,0.00899959801519309,16.8621959965015,0.012035828691293006,0.012220458127558231
159,0.25,0.001,0.012067975206125629,0.009055048036768192,16.88444451748205,0.012051709148809457,0.010584095725789666
160,0.25,0.001,0.012088629224635116,0.009109591106672253,16.694530299909427,0.01191615296210523,0.011618465126957744
161,0.25,0.001,0.012065322260860361,0.009045380319318966,16.923754240127597,0.01207976748046224,0.01074814418097958
162,0.25,0.001,0.012064894517428692,0.009091369803831573,16.663632416774934,0.011894098798554556,0.015382255194708705
163,0.25,0.001,0.012041802224479538,0.009011707284209748,16.980653597566928,0.012120380869069898,0.014548416482284665
164,0.25,0.001,0.012033234593421533,0.009088132322410078,16.504353676559035,0.011780409476487534,0.012706177891232073
165,0.25,0.001,0.011943945435647675,0.008940057690976682,16.833787364601342,0.01201555129521866,0.00972551153972745
166,0.25,0.001,0.012002842901332892,0.009060664203539024,16.487969523929603,0.01176871486361856,0.013224192429333925
167,0.25,0.001,0.011991798792166601,0.008934586960239053,17.132614983895127,0.012228847240467614,0.012492158799432218
168,0.25,0.001,0.012013864386554551,0.009045599969512238,16.634154656237,0.011873058284251965,0.010505457408726215
169,0.25,0.001,0.011947130255541125,0.008949782880167,16.797135152000475,0.011989389830121681,0.00965756515506655
170,0.25,0.001,0.011870094545823297,0.00883561917357069,17.005199519975697,0.01213790115629957,0.009750107128638774
171,0.25,0.001,0.011854182075250248,0.008884557709486724,16.64177527457538,0.011878497697769722,0.010452736110892147
172,0.25,0.001,0.011907079776200721,0.008998994896332256,16.29690811380215,0.011632339838545431,0.011237834172789007
173,0.25,0.001,0.011944689692653295,0.008921541022778428,16.941726003658797,0.01209259529169079,0.011682478711009026
174,0.25,0.001,0.011864016028918279,0.008903578868707436,16.590290041706506,0.011841748780661318,0.011366632184945047
175,0.25,0.001,0.011925723979206822,0.009024423939838912,16.258884696721534,0.011605199640771972,0.011634623631834984
176,0.25,0.001,0.011935247584695234,0.008957278164247505,16.688540277500987,0.011911877428623117,0.01106839207932353
177,0.25,0.001,0.01184451854972476,0.0088444582705769,16.8123379669508,0.012000241232655817,0.009720289090182632
178,0.25,0.001,0.011905406164258158,0.008888396471427727,16.907322407764283,0.012068038834949524,0.011998362722806633
179,0.25,0.001,0.011856615319770288,0.008919895799647791,16.457375301448685,0.011746877445716406,0.012074551195837557
180,0.25,0.001,0.011925240935823863,0.008896393755874704,16.973659648775804,0.012115388757156178,0.012813941109925508
181,0.25,0.001,0.011858644241968749,0.008908088884796628,16.53491159172297,0.011802220979102763,0.014731436443980783
182,0.25,0.001,0.011910892179185265,0.008969847400651347,16.481614811684246,0.011764179023329225,0.012367756338790059
183,0.25,0.001,0.011746240095361788,0.008781236357255869,16.615881790447833,0.011860015553495955,0.010125416971277446
184,0.25,0.001,0.011878072793570216,0.00898001281766217,16.240727625709486,0.01159223956153425,0.01441427378449589
185,0.25,0.001,0.011809184937300413,0.00877055445674317,17.028484651091702,0.012154521521121843,0.01131337194237858
186,0.25,0.001,0.011894426452450936,0.008877038372396676,16.90944256712848,0.012069552153553518,0.013331454014405608
187,0.25,0.001,0.011863699762271192,0.008928820976913597,16.447060407825703,0.011739514923501572,0.010834889253601432
188,0.25,0.001,0.011830511151002195,0.008850429207086563,16.700379831556987,0.011920328216671654,0.011863935273140669
189,0.25,0.001,0.011873485333828687,0.008860174519843996,16.886593737034808,0.012053243209874952,0.015538998181000352
190,0.25,0.001,0.01181492052529015,0.008823853779374185,16.761937264858556,0.01196426642745079,0.012960849911905825
191,0.25,0.001,0.011840747774331703,0.008926019653880148,16.334136994746135,0.011658912915593244,0.011929449159651995
192,0.25,0.001,0.011863462879693832,0.008862298938576015,16.818523008788553,0.012004655966301608,0.010240146424621344
193,0.25,0.001,0.011821479573534775,0.008830321686330692,16.762448396463732,0.011964631260859195,0.01131848234217614
194,0.25,0.001,0.011703358391505941,0.0087046992414804,16.80448621698113,0.011994636842955838,0.010329109034501016
195,0.25,0.001,0.011776540636440782,0.008844243457816961,16.43259361840489,0.011729188878233326,0.009637924435082823
196,0.25,0.001,0.011711647942086725,0.008729197858737506,16.713651033931086,0.01192980088075024,0.011100636678747833
197,0.25,0.001,0.011830216011184117,0.008906229352481306,16.386021980413066,0.011695947166604615,0.011458479915745556
198,0.25,0.001,0.011755474063418106,0.00879201267326799,16.60723806871004,0.011853845873454703,0.010337497049476951
199,0.25,0.001,0.011740138701752357,0.00876196722708067,16.6896740270308,0.011912686671685083,0.011700099159497768
200,0.25,0.001,0.011773018949978162,0.008774953760160036,16.80115805289442,0.011992261279724782,0.01103769545443356
201,0.25,0.001,0.011700938700743036,0.008702132434803908,16.80531096408661,0.01199522552754219,0.01045693998457864
202,0.25,0.001,0.011758790991127118,0.008883190732099318,16.114864281672276,0.011502401343092274,0.01330490707186982
203,0.25,0.001,0.011781417296145555,0.008757980214723527,16.94334200976537,0.012093748757862505,0.017925532185472548
204,0.25,0.001,0.011814474985625649,0.008885272858287198,16.41524905800073,0.011716808749465188,0.016611524391919374
205,0.25,0.001,0.011728021320118909,0.008749425279011557,16.692051889503176,0.011914383932550447,0.013164294534362853
206,0.25,0.001,0.011802853079267733,0.00881623971764006,16.736981280412454,0.011946453447831873,0.011175617924891412
207,0.25,0.001,0.01174045169807675,0.008800591180773767,16.47497902235059,0.011759442556995424,0.01030418451409787
208,0.25,0.001,0.011761437389914078,0.008737698000989901,16.945036595450066,0.012094958312241303,0.010976647085044533
209,0.25,0.001,0.011694599475734915,0.008734129085390204,16.590475807110302,0.01184188137552484,0.010682643216568977
210,0.25,0.001,0.011725103330948158,0.008786226871631464,16.469464738085275,0.011755506593922395,0.01220134977484122
211,0.25,0.001,0.011715427332699672,0.008687854097040064,16.966521770819742,0.012110293912076905,0.010857510904315859
212,0.25,0.001,0.011714689418020228,0.008758708455508461,16.565317432666372,0.01182392393480826,0.011779287597164512
213,0.25,0.001,0.01167646808538096,0.008712062546069538,16.61252929671572,0.011857622624350979,0.010426334163639694
214,0.25,0.001,0.011726359385678191,0.008748755916673108,16.68649092497059,0.01191041465022883,0.015539592131972313
215,0.25,0.001,0.011704285494936533,0.008793004788458347,16.31481654061654,0.011645122441553562,0.017631369060836732
216,0.25,0.001,0.011704687312991983,0.008748700497146999,16.565349929268027,0.01182394713009852,0.012839588802307844
217,0.25,0.001,0.011708826596590075,0.00875889816241716,16.531398299342655,0.011799713275762066,0.010696841462049633
218,0.25,0.001,0.011696720643587302,0.008678445059782778,16.914416108101545,0.01207310214711031,0.01107956503983587
219,0.25,0.001,0.011777430090329966,0.008825018523661477,16.545314486191018,0.011809646314197729,0.012461445410735905
220,0.25,0.001,0.01169956318979659,0.008752576524628975,16.51491279840967,0.011787946322919109,0.010689094429835677
221,0.25,0.001,0.011782120831606284,0.008799394061847246,16.715200726821678,0.011930907014148236,0.016423069522716105
222,0.25,0.001,0.011706572595695986,0.008698034743799795,16.85984688760841,0.012034151954038836,0.0161412104498595
223,0.25,0.001,0.011623027298933903,0.00872379810100184,16.247281287557644,0.011596917407250282,0.013729716185480356
224,0.25,0.001,0.011664206659837407,0.008704042934184595,16.588758034596612,0.011840655270946904,0.013834839221090078
225,0.25,0.001,0.011616138766649993,0.008710688520572878,16.28214363066289,0.011621801306683005,0.011482436559163034
226,0.25,0.001,0.011560882951107677,0.008627330616023197,16.43962725716991,0.01173420931989287,0.010828758822754025
227,0.25,0.001,0.011609642503934762,0.008673820835159069,16.452345778399568,0.011743287493504331,0.010600113891996443
228,0.25,0.001,0.011634576287983853,0.008671577926530718,16.60464366442973,0.011851994050271042,0.012004838208667934
229,0.25,0.001,0.011651844206209721,0.008686974339404907,16.615132226326768,0.011859480532710041,0.014873752137646079
230,0.25,0.001,0.011590621698577743,0.008648821669932074,16.48584735368637,0.011767200109697623,0.011009897105395794
231,0.25,0.001,0.01159913855602883,0.00863699335604906,16.599862021046043,0.0118485810285839,0.009934043337125331
232,0.25,0.001,0.011570904611965685,0.008600566190101657,16.64577701743809,0.011881354045280578,0.012072922312654555
233,0.25,0.001,0.011576519349671605,0.008620197781690228,16.56722728992056,0.0118252871448398,0.011924947728402913
234,0.25,0.001,0.011674882760485304,0.008654452663980471,16.926490837447577,0.012081720797607122,0.01615896401926875
235,0.25,0.001,0.01159980901301156,0.008693417507011856,16.287418608376775,0.011625566458513044,0.013471494836267084
236,0.25,0.001,0.011593414773865135,0.008674647682395011,16.356770449739905,0.01167506812972156,0.010439295088872313
237,0.25,0.001,0.011553815779876983,0.008575960655457541,16.687899949904025,0.01191142037823271,0.009596548858098686
238,0.25,0.001,0.011674763992553214,0.008797151621796642,16.126140088776207,0.011510449742167172,0.013094580266624689
239,0.25,0.001,0.011612068404811035,0.008623749363801923,16.74654090976914,0.011953276880634647,0.009301136713474989
240,0.25,0.001,0.011516135119850552,0.008556046987842916,16.58833316572026,0.01184035200979319,0.010811595129780471
241,0.25,0.001,0.011586995307348342,0.008687419225782592,16.249224258613985,0.011598304253114908,0.01024341193260625
242,0.25,0.001,0.011574527503444282,0.008632822658298907,16.48531416014988,0.011766819529014904,0.015791076933965087
243,0.25,0.001,0.011631298716916918,0.008641676627301722,16.753841216977303,0.011958487663795363,0.017945003462955356
244,0.25,0.001,0.01157604528509376,0.008595104682179545,16.705191156311674,0.011923762424205335,0.013884740066714585
245,0.25,0.001,0.01158585389667737,0.008725839367599105,16.027521328537848,0.011440058050348215,0.014182763639837503
246,0.25,0.001,0.011541522615482264,0.008638731474231828,16.26724250729746,0.011611165244323669,0.013726684264838696
247,0.25,0.001,0.011437419642517363,0.00850142805889591,16.453297228803216,0.011743966615848119,0.010835608001798391
248,0.25,0.001,0.011534948195554394,0.008598278251346318,16.457099118163043,0.01174668031275021,0.010441815480589867
249,0.25,0.001,0.011621638578372484,0.0086435659191647,16.6891204340224,0.011912291530351463,0.01516324223484844
250,0.25,0.001,0.011566756007364622,0.008635742490671746,16.425398940084374,0.01172405349042425,0.013400768744759262
251,0.25,0.001,0.011560015528149795,0.00864336810547213,16.344892794503547,0.011666590145969697,0.012347721611149609
252,0.25,0.001,0.011547746422597536,0.008638862479625888,16.301384876068052,0.011635535243446148,0.012251750275027007
253,0.25,0.001,0.011567383996815672,0.008578493644819753,16.749741548287346,0.011955561419191539,0.00998299999628216
254,0.25,0.001,0.011524599663804369,0.008527048688483014,16.798275778338407,0.011990203981683375,0.012436446966603398
255,0.25,0.001,0.01151939885523598,0.008643545449511118,16.11628370742957,0.011503414494953297,0.012561564915813506
256,0.25,0.001,0.011616791787096504,0.008600218054334903,16.904880137433587,0.01206629560130877,0.012872751452960074
257,0.25,0.001,0.01154169987397179,0.008577510208039232,16.611318640022038,0.011856758486810877,0.011942380922846496
258,0.25,0.001,0.011554537004633712,0.008660386367030209,16.21881916428409,0.011576601830324117,0.010874787403736264
259,0.25,0.001,0.011551533996794443,0.008572983116082582,16.691799633687125,0.01191420387843478,0.009596485295332968
260,0.25,0.001,0.011499368369828187,0.008562741338397864,16.45685882608179,0.011746508798059807,0.01269229396712035
261,0.25,0.001,0.011470671700379794,0.00858741908456687,16.15774754143956,0.011533010379328735,0.011079808929935098
262,0.25,0.001,0.011605550822780501,0.00858419532216852,16.931676880551777,0.012085422470058371,0.012509709922596812
263,0.25,0.001,0.011469586482096564,0.008547562433091732,16.37502296384043,0.011688096333933211,0.010368976625613868
264,0.25,0.001,0.01141240778486079,0.008505957251675194,16.287748898245347,0.011625802211452782,0.01001208322122693
265,0.25,0.001,0.011492168598872511,0.008539009230728563,16.54950586490193,0.01181263801920195,0.011122377123683691
266,0.25,0.001,0.011403830049244496,0.008452365246828887,16.540008990899008,0.01180585937965668,0.009388745296746492
267,0.25,0.001,0.011512423711896938,0.008567838995699966,16.501453861563093,0.011778339658503278,0.01333418081048876
268,0.25,0.001,0.011473241950422213,0.008544873728150491,16.41057595629284,0.011713473202207593,0.011110699968412519
269,0.25,0.001,0.01154752041452364,0.008671026630229891,16.119871916004413,0.011505975671666249,0.01331832876894623
270,0.25,0.001,0.011517775964404073,0.008534556105032967,16.717964459062866,0.01193287969954523,0.013750371406786144
271,0.25,0.001,0.011445911500081887,0.008444499119431839,16.819914955186942,0.012005649504059203,0.01265024021267891
272,0.25,0.001,0.011350966622520215,0.008488830993640274,16.039407411547444,0.011448542049641288,0.011409153346903622
273,0.25,0.001,0.01142666644235929,0.00850431893083086,16.3768356140073,0.011689390159891008,0.013232574332505465
274,0.25,0.001,0.011379046785588803,0.008505244471039428,16.104788324280424,0.011495209367794735,0.010037458268925548
275,0.25,0.001,0.011556657945002295,0.008598715276894838,16.576311228917387,0.011831771041340033,0.016986452916171402
276,0.25,0.001,0.01149675618499393,0.008507569608257185,16.751402331294496,0.011956746846034616,0.012789187952876091
277,0.25,0.001,0.011366164185386734,0.008466735392777805,16.248399240736674,0.011597715375258154,0.011423768068198115
278,0.25,0.001,0.011391868424020506,0.008574161787433764,15.790428758911897,0.01127082709415553,0.011701327282935381
279,0.25,0.001,0.011347806275606404,0.008355594445253278,16.768355367576902,0.011968847514330408,0.01147837401367724
280,0.25,0.001,0.01133955154949041,0.008490038944295527,15.968669604657837,0.011398051109677256,0.013427940080873668
281,0.25,0.001,0.01145676858839822,0.00853440219474206,16.37694211892146,0.011689466180529235,0.015980428084731102
282,0.25,0.001,0.011472382279412358,0.008513819346581596,16.57978675460019,0.01183425178772319,0.013219514163210988
283,0.25,0.001,0.011381686632064538,0.00843720535100253,16.500872554261402,0.011777924735375733,0.010159475146792829
284,0.25,0.001,0.01140687824469954,0.008540043057115566,16.06574413920743,0.011467340570454981,0.010720622376538813
285,0.25,0.001,0.011425726170144151,0.008424983214050344,16.816163397532165,0.012002971732713894,0.011578476871363819
286,0.25,0.001,0.011344739031785464,0.00845456581236114,16.196530879663776,0.011560692990480926,0.010613752296194434
287,0.25,0.001,0.011529027781836175,0.008557215974605905,16.654033316450974,0.011887247192327605,0.014237557305023074
288,0.25,0.001,0.011458481039797463,0.008473616359767063,16.727181177796304,0.011939458371018062,0.012784674880094826
289,0.25,0.001,0.01146344386336699,0.008537784910961084,16.395394000728345,0.011702636688599818,0.012297084496822208
290,0.25,0.001,0.01132715062193557,0.008358386113835277,16.636957144687468,0.011875058632896123,0.00977517751744017
291,0.25,0.001,0.011417229595693268,0.008557036316842775,16.028523152456902,0.011440773128092007,0.012499956414103508
292,0.25,0.001,0.011528064607640647,0.008442075349514942,17.293883467019228,0.012343956793018722,0.017903406522236764
293,0.25,0.001,0.011392613215710275,0.008534487264934686,16.016937898942473,0.011432503853634885,0.012120371917262673
294,0.25,0.001,0.011410177024256337,0.008450407554280783,16.58654800685811,0.01183907780646546,0.01128197752404958
295,0.25,0.001,0.011362407313725894,0.008439594541437194,16.37944270275331,0.011691251036940263,0.011254265322349966
296,0.25,0.001,0.011386771847752539,0.008414979592463418,16.653923108333835,0.01188716852843243,0.013839549734257162
297,0.25,0.001,0.01143763765560498,0.008467364476873133,16.645410438171258,0.011881092389843867,0.012365283910185099
298,0.25,0.001,0.011407734489842223,0.0084346503248761,16.661164138411678,0.011892337001007622,0.013183344271965325
299,0.25,0.001,0.011391927890619555,0.00846854203219267,16.38265548021161,0.011693544239979736,0.011373940738849342
300,0.25,0.001,0.011369309327827615,0.00845809358644585,16.3144533459976,0.011644863201996859,0.010589096695184708
301,0.25,0.001,0.011321425992054457,0.008389661520221785,16.42960721217018,0.011727057253511905,0.009914819442201406
302,0.25,0.001,0.011368287513363088,0.00838879767284264,16.697061431183943,0.011917959622543857,0.010198142845183611
303,0.25,0.001,0.011401410224324478,0.008473644951758964,16.407197096153688,0.01171106145335738,0.01055863976944238
304,0.25,0.001,0.011324193711647286,0.008427483556570489,16.233164132263568,0.011586840922386557,0.009699130372609943
305,0.25,0.001,0.011402411374704822,0.008443877811588363,16.57962165147626,0.011834133941096545,0.010804085759446025
306,0.25,0.001,0.01128848126480873,0.00833091388275703,16.574208396959403,0.011830270090620558,0.010917260369751602
307,0.25,0.001,0.011325090450851056,0.008443500453874563,16.148430400203313,0.011526360028696156,0.011041858815588057
308,0.25,0.001,0.01134610118534968,0.008355308294933996,16.76040313736631,0.011963171404258609,0.012041404144838452
309,0.25,0.001,0.01133796448055227,0.008418158105028198,16.362595253548193,0.011679225734152886,0.01139495347160846
310,0.25,0.001,0.011339497628052076,0.008376192651486845,16.606361942649634,0.011853220515809875,0.01086002797819674
311,0.25,0.001,0.01127601712786579,0.008370565637432832,16.282150638874985,0.01162180630897572,0.01085317594697699
312,0.25,0.001,0.01138339257392729,0.008518161920982262,16.05675301920148,0.01146092292591112,0.011188736301846802
313,0.25,0.001,0.011317792311621857,0.008402740337841197,16.335950933070173,0.011660207661006547,0.012481124373152852
314,0.25,0.001,0.011332112156430216,0.008330297321936657,16.822170842913348,0.01200725970229361,0.01017617533216253
315,0.25,0.001,0.011273679220446217,0.008336357499175318,16.46075116916091,0.011749287058644477,0.011404182761907578
316,0.25,0.001,0.011330848114491131,0.008401033446184964,16.418680987427777,0.011719258377892774,0.010529581340961158
317,0.25,0.001,0.011371695788456652,0.008428812223352445,16.49191863750864,0.011771533645616445,0.012304243282414973
318,0.25,0.001,0.011304548857947481,0.008398042009882862,16.288064508696937,0.011626027486578828,0.011333984090015292
319,0.25,0.001,0.011246525365587068,0.008348479180641489,16.240651122712393,0.011592184955540609,0.01246245758375153
320,0.25,0.001,0.011257300563623238,0.008397754009556422,16.024899375214705,0.011438186563322416,0.011618968099355698
321,0.25,0.001,0.011243500929551358,0.008328415831601507,16.336136768157896,0.011660340305608776,0.010547700570896268
322,0.25,0.001,0.011258082886251752,0.008413391615534376,15.941649590255324,0.011378764875271466,0.010216528840828687
323,0.25,0.001,0.011294466766114649,0.00839268659010125,16.261575895958504,0.01160712055386046,0.012151154573075473
324,0.25,0.001,0.011295603811818648,0.00835113658225611,16.50079550374774,0.011777869738577971,0.013101327116601169
325,0.25,0.001,0.011242175338661497,0.00834291892822264,16.247433807755314,0.011597026272487734,0.012225377256982028
326,0.25,0.001,0.011295965656887017,0.008384820754350103,16.31405781803649,0.011644580883680576,0.011273891956079751
327,0.25,0.001,0.011299338852811706,0.008382791213862333,16.34433241029871,0.011666190157243904,0.013900959282182157
328,0.25,0.001,0.01124645911919299,0.008320249426557774,16.398479660766856,0.011704839158291833,0.013561506406404078
329,0.25,0.001,0.011305419662053501,0.00836913786937399,16.454924191214097,0.011745127902365522,0.011789411772042513
330,0.25,0.001,0.011364601389164716,0.00840458497677255,16.587931965487485,0.011840065642746242,0.014126398717053235
331,0.25,0.001,0.011319795255947835,0.008502965130005227,15.785516945952413,0.011267321160565604,0.014017361681908369
332,0.25,0.001,0.011353975399115389,0.008423249863305893,16.423786450029663,0.011722902533925527,0.014971937518566847
333,0.25,0.001,0.011273354192756288,0.008337501525910016,16.452518566665173,0.011743410825599696,0.010548035148531199
334,0.25,0.001,0.011382716947034903,0.00846941285282529,16.326156934766033,0.011653216941303378,0.012362589011900127
335,0.25,0.001,0.011274754032803726,0.008342862022274595,16.43032369633557,0.011727568662623533,0.013390787644311786
336,0.25,0.001,0.011227548950680363,0.008352995864728112,16.108995298254214,0.011498212204321352,0.011797374172601849
337,0.25,0.001,0.01130065330282818,0.008297126276500227,16.8317654555924,0.012014108105347894,0.010840837843716145
338,0.25,0.001,0.01129186290096577,0.008386148178720524,16.283625588785384,0.011622859092637676,0.012034585000947118
339,0.25,0.001,0.011352323590620326,0.008419118471645861,16.437682115956985,0.01173282092502283,0.01253368123434484
340,0.25,0.001,0.011366843068991673,0.008371041527714012,16.788472265191764,0.011983206470515179,0.012551321648061275
341,0.25,0.001,0.011322050936722308,0.008335921182326334,16.7342714138469,0.011944519210454604,0.013225437607616186
342,0.25,0.001,0.011262752638744785,0.008392672087522788,16.083931373405058,0.011480322179446865,0.010200525633990765
343,0.25,0.001,0.011289980746650123,0.008361957862288818,16.408639812270387,0.011712091229315052,0.011722046416252851
344,0.25,0.001,0.011231864162862674,0.008310620798408549,16.370649094870295,0.01168497437178465,0.009538332466036081
345,0.25,0.001,0.011204722831278479,0.008264123300763163,16.479120676602104,0.01176239876988016,0.010305900941602886
346,0.25,0.001,0.011185659468951703,0.008340784266886607,15.942679892999893,0.011379500280513842,0.011217577964998782
347,0.25,0.001,0.011215797623537777,0.008310717198072247,16.280071652756853,0.011620322378841436,0.009459316963329911
348,0.25,0.001,0.011186877003091237,0.008226592292025343,16.589436051243283,0.011841139222871722,0.011142018949612975
349,0.25,0.001,0.011229498315765862,0.008348864181422179,16.143073776818515,0.01152253660015597,0.01334545377176255
350,0.25,0.001,0.011222764433581297,0.008294856464509738,16.407996948178475,0.011711632368435742,0.011239120562095195
351,0.25,0.001,0.011272078397487425,0.00839884269453725,16.101612791885664,0.011492942749383058,0.011856431025080383
352,0.25,0.001,0.011217748913486219,0.008225621717801173,16.7678815049269,0.01196850928260307,0.012748696957714856
353,0.25,0.001,0.01133990238006528,0.00846730721511709,16.098023627645535,0.011490380890539283,0.01233396353200078
354,0.25,0.001,0.01120927617622691,0.008208951613397216,16.81381963439177,0.012001298811129029,0.010252627544105053
355,0.25,0.001,0.011221734227492067,0.008369420763952872,15.984364591212262,0.011409253812428452,0.009605086641386151
356,0.25,0.001,0.011339483211023077,0.008412102427885777,16.405041708577897,0.011709522989705852,0.012362081790342927
357,0.25,0.001,0.011250160354537606,0.008298817394001873,16.53932617203428,0.011805372000024468,0.010099179693497717
358,0.25,0.001,0.011160491718784254,0.008289561513616919,16.08869231668046,0.011483720425896118,0.011095057474449277
359,0.25,0.001,0.011280232276339746,0.008312974457623192,16.628512798619916,0.011869031262398227,0.012434288510121405
360,0.25,0.001,0.01122001519461701,0.008289831398844346,16.42074984150291,0.011720735076019208,0.013193817343562841
361,0.25,0.001,0.011393263562736034,0.00843058387303651,16.602858417964928,0.011850719784414652,0.01575536886230111
362,0.25,0.001,0.011342005450317407,0.00839918709918079,16.491554698267162,0.01177127387456614,0.016805790131911635
363,0.25,0.001,0.011215653622402403,0.008328175786610437,16.181425785470854,0.011549911338665848,0.013214919832535088
364,0.25,0.001,0.01121249414264907,0.00831363026037159,16.245233304814157,0.011595455606576844,0.012201479636132717
365,0.25,0.001,0.011254205961472556,0.008326129894509196,16.40894026547235,0.01171230568556199,0.015315409866161644
366,0.25,0.001,0.011164639152913103,0.008270104631532707,16.22097189590677,0.011578138398220394,0.011298383004032075
367,0.25,0.001,0.01119349115685655,0.008304307217824434,16.190987196745105,0.011556736043358391,0.013127005891874433
368,0.25,0.001,0.011158415699661525,0.008226346553134147,16.431316310030432,0.011728277166331501,0.010012959479354322
369,0.25,0.001,0.01116656941519214,0.008245235373166881,16.371156656667434,0.011685336657150203,0.012133060721680522
370,0.25,0.001,0.011157838145508149,0.008270686885073687,16.17959647686347,0.011548605622315111,0.012278055655770004
371,0.25,0.001,0.011238963323760008,0.008319810658911075,16.358931965519343,0.011676610967537004,0.013521488173864782
372,0.25,0.001,0.011264918461473103,0.008316533095621366,16.522752196405527,0.011793541896078178,0.013491180608980358
373,0.25,0.001,0.011310559256091745,0.008306416340701141,16.83521696819393,0.012016571711772969,0.012560565490275621
374,0.25,0.001,0.011198893930210823,0.008319549307242689,16.13584713149419,0.0115173783950708,0.013095045113004744
375,0.25,0.001,0.01126347471121893,0.008281489083687298,16.711047883322443,0.011927942814648426,0.014322789153084159
376,0.25,0.001,0.011224156208647442,0.008296570482047466,16.40619111907258,0.01171034341118671,0.01377096853684634
377,0.25,0.001,0.011217942441928362,0.008253898811847408,16.61050130330446,0.011856175091580629,0.010815427755005658
378,0.25,0.001,0.01118589886162811,0.008255430894839676,16.422342368107998,0.01172187178308922,0.008664762950502336
379,0.25,0.001,0.011178696469747946,0.008307405846632846,16.090713039071673,0.011485162768787775,0.009918391413521022
380,0.25,0.001,0.011247869141570959,0.008240612529972588,16.852665433306285,0.01202902600521505,0.012297304812818766
381,0.25,0.001,0.01116124375301388,0.008295386275257098,16.060266379274754,0.011463430677569417,0.012349898344837129
382,0.25,0.001,0.011093235156636894,0.008153947291891858,16.47176881921565,0.011757151191445861,0.009751135890837759
383,0.25,0.001,0.011239801916548504,0.00834214035810471,16.238494287701887,0.011590645458745101,0.010454136063344777
384,0.25,0.001,0.011214299599925884,0.008228970079105308,16.729787153590447,0.011941318453669128,0.012526991544291377
385,0.25,0.001,0.011166201221964678,0.008193059962452827,16.661484172797152,0.011892565433830944,0.011698144604451954
386,0.25,0.001,0.011133671442672828,0.008286014403409028,15.958269764336762,0.011390627954558717,0.01068125234451145
387,0.25,0.001,0.011198353607573066,0.008302455196363195,16.228614138163206,0.01158359324636917,0.010397762525826693
388,0.25,0.001,0.011136637833397174,0.008163381661512035,16.662128384775308,0.011893025256798934,0.008903981593903154
389,0.25,0.001,0.011181826436880486,0.008299681178191074,16.151542683483914,0.01152858150141607,0.009994997119065374
390,0.25,0.001,0.01116099928958742,0.008266937810079911,16.218319695777335,0.011576245321753987,0.01012277347035706
391,0.25,0.001,0.011140233168226817,0.008168818695482357,16.651807649648266,0.011885658565059434,0.010428586043417454
392,0.25,0.001,0.0111383809601122,0.00823836715985284,16.25167708506415,0.011600055021459063,0.010389021597802639
393,0.25,0.001,0.011155347166765707,0.008248913566541075,16.287652714516277,0.011625733557827464,0.011724952957592905
394,0.25,0.001,0.011219636381590167,0.00828001400871914,16.473644344194447,0.011758489895927515,0.01836249604821205
395,0.25,0.001,0.01127853916300799,0.008361936618801448,16.34464099461948,0.01166641041728728,0.01599512214306742
396,0.25,0.001,0.011281975791915972,0.008281282298966838,16.815886423831692,0.01200277403556866,0.01757964678108692
397,0.25,0.001,0.011260454430165146,0.008320398397339286,16.476074533323157,0.011760224506297757,0.013439143891446292
398,0.25,0.001,0.0111743905124622,0.008237924362631955,16.455955507362063,0.011745864030950794,0.01295280212070793
399,0.25,0.001,0.011220850186550791,0.008280410773523292,16.478222777300935,0.011761757871021367,0.014385957387275994
400,0.25,0.001,0.011095329555284255,0.008212081568863919,16.157721832052403,0.01153299202858844,0.010844658012501895
401,0.25,0.001,0.011143447765166676,0.008245838636878512,16.238201252851706,0.01159043629753869,0.011344809317961335
402,0.25,0.001,0.011134646183544759,0.008195573532086699,16.470563609814096,0.01175629094205146,0.011717560584656894
403,0.25,0.001,0.01115037796392819,0.008223167784893126,16.404086453431834,0.011708841151628718,0.010868213896173984
404,0.25,0.001,0.011150230939396986,0.008265975524432227,16.163367651698486,0.011537021878442888,0.011067474028095603
405,0.25,0.001,0.011097749718513518,0.008173181906746922,16.389278901643692,0.011698271878403778,0.009710984420962632
406,0.25,0.001,0.011222615392804768,0.008265694033642279,16.57058717413088,0.01182768534912982,0.011092581669799984
407,0.25,0.001,0.011130746613433565,0.00815076512208749,16.699816287683795,0.011919925972650817,0.009346000268124044
408,0.25,0.001,0.011082389693326145,0.00818324459051725,16.246809127186435,0.011596580390568476,0.009809379349462688
409,0.25,0.001,0.011149219394756757,0.008249428412937297,16.250428751266575,0.011599163990911189,0.012146705412305892
410,0.25,0.001,0.011179812198080947,0.008258590276405558,16.370527942394663,0.011684887896070422,0.013854511315003037
411,0.25,0.001,0.01117463039510372,0.008236822472896917,16.463476117319253,0.011751232060898825,0.012999405502341688
412,0.25,0.001,0.011094937917615028,0.008180293524812806,16.33366691692886,0.011658577385388193,0.009725326672196388
413,0.25,0.001,0.011139764312444749,0.00816272366947508,16.68333503547939,0.011908162052447817,0.009518932201899588
414,0.25,0.001,0.0110835792100162,0.008168345389183852,16.3369691904502,0.011660934468558317,0.009683295560535043
415,0.25,0.001,0.011123928321148259,0.00829729880060464,15.840432595111633,0.011306518626061123,0.012516057351604104
416,0.25,0.001,0.011109648072131616,0.008146051647985405,16.607994993444773,0.011854386148069074,0.012359490501694381
417,0.25,0.001,0.011115737574365542,0.00818108199047613,16.445810927229783,0.011738623074396704,0.013143389485776424
418,0.25,0.001,0.011103624246610107,0.008230566529319904,16.100616359511598,0.011492231519994003,0.010338533786125481
419,0.25,0.001,0.01111954456829079,0.008181934517133584,16.46236786016094,0.011750441013676616,0.010294527281075716
420,0.25,0.001,0.011115802397527625,0.0081507518424775,16.616144379394786,0.011860202983151168,0.010646757553331554
421,0.25,0.001,0.011048771219331935,0.008190171308971024,16.019594096938356,0.01143439978368191,0.010487143590580672
422,0.25,0.001,0.01110352564696417,0.008134707869740207,16.637254977773775,0.01187527121896772,0.010898849926888943
423,0.25,0.001,0.01109420273274121,0.00821657698904796,16.126215283706443,0.01151050341449425,0.012336575891822577
424,0.25,0.001,0.011110880313001744,0.008202881482283979,16.29642454716756,0.011631994680348009,0.010410730261355639
425,0.25,0.001,0.011110946343577854,0.008253522522529755,16.01300328559318,0.011429695421551162,0.011733162100426853
426,0.25,0.001,0.011077785469778272,0.008166851460280398,16.3128748557264,0.01164373651372334,0.008845931210089475
427,0.25,0.001,0.011043281996299927,0.008083066407256683,16.589048990874797,0.011840862948518771,0.010622229136060923
428,0.25,0.001,0.01113116700738855,0.008264763867929733,16.063323405192143,0.01146561270891659,0.010563131945673376
429,0.25,0.001,0.011106429810174945,0.00818744704072871,16.357979093563582,0.011675930830523613,0.010618836735375226
430,0.25,0.001,0.011135861285357485,0.008223409253116192,16.321381973075468,0.011649808688847586,0.010856651060748845
431,0.25,0.001,0.011137467064352275,0.00819722601720025,16.477111442104015,0.011760964626769461,0.013416425441391766
432,0.25,0.001,0.0111119400103244,0.008147209985784424,16.614348039248792,0.011858920798892785,0.011552511248737574
433,0.25,0.001,0.011147028179392064,0.008180258099557462,16.62577976712603,0.011867080490453983,0.011240265215747058
434,0.25,0.001,0.011142722684851145,0.00820677906920305,16.45302830260084,0.011743774662812876,0.012451702903490514
435,0.25,0.001,0.011144567918740135,0.008213788140681815,16.424089065424337,0.011723118533493459,0.011384431854821742
436,0.25,0.001,0.01111896476457537,0.008158253360003045,16.591827356740676,0.011842846079044024,0.011996021727100015
437,0.25,0.001,0.011060797797986511,0.00822724836017151,15.879210517899228,0.011334197371805303,0.014044172246940434
438,0.25,0.001,0.011119771544629073,0.008199241846442098,16.366648351474197,0.011682118737668949,0.013105023768730462
439,0.25,0.001,0.011132837601768199,0.008213318104706005,16.360987330777164,0.011678078037671066,0.01218037202488631
440,0.25,0.001,0.011094149882615484,0.00819881653339293,16.225448821432156,0.01158133391965179,0.010381660598795861
441,0.25,0.001,0.011081471129287509,0.008137986262276426,16.495289055937764,0.011773939368977705,0.011910727596841753
442,0.25,0.001,0.011064219716275286,0.008174942368894255,16.191511984409022,0.011557110624132064,0.013701559510082006
443,0.25,0.001,0.011115793309841375,0.008130990128209795,16.726837679837093,0.01193921319046188,0.013943181838840246
444,0.25,0.001,0.011085972102409488,0.008249157950250987,15.897506689975556,0.011347256738026806,0.0142622230341658
445,0.25,0.001,0.011115064931982869,0.00815795616310922,16.57163718149906,0.011828434819057146,0.014078239561058581
446,0.25,0.001,0.011055929522129216,0.008160572769295323,16.225579697802072,0.01158142733604716,0.012240677839145064
447,0.25,0.001,0.011094984421525967,0.008235035730537518,16.027152115218573,0.011439794514788418,0.01407435885630548
448,0.25,0.001,0.011087518403139393,0.008160616307167457,16.40236041043148,0.01170760914377693,0.013547231210395694
449,0.25,0.001,0.011072211161971341,0.008148951840923326,16.381944489130646,0.011693036751699248,0.010143090970814228
450,0.25,0.001,0.011036090733627312,0.008135512435229374,16.254840496437534,0.011602312988178112,0.010906711453571916
451,0.25,0.001,0.011066950634044122,0.008081095306774396,16.73273387184223,0.01194342175006583,0.01159611321054399
452,0.25,0.001,0.01110616226783625,0.008171881516007142,16.443710271401297,0.011737123676945965,0.014678725739941001
453,0.25,0.001,0.011080108481869569,0.008190405045661275,16.193898921719672,0.011558814362398053,0.01389286550693214
454,0.25,0.001,0.011009987502014712,0.008094074992008026,16.340773433135794,0.011663649845207562,0.011635513277724385
455,0.25,0.001,0.0110629536328149,0.0081516062463624,16.31518983542297,0.011645388890380422,0.011668513994663954
456,0.25,0.001,0.01114090401212644,0.00821603274863361,16.390978401040734,0.011699484940071902,0.013282229367177933
457,0.25,0.001,0.011095497582208886,0.008141988303146806,16.551466804456613,0.01181403769054719,0.010975277575198561
458,0.25,0.001,0.011046783273382451,0.008136994736210787,16.306455030819567,0.011639154197587128,0.011424891417846084
459,0.25,0.001,0.011099881893082178,0.008199038888115849,16.256323282803276,0.011603371365312832,0.012240411655511707
460,0.25,0.001,0.011075827481695655,0.008204841430227044,16.089006599155496,0.011483944753144537,0.01349422987550497
461,0.25,0.001,0.01116514166657636,0.008172535852748816,16.770562603976384,0.0119704229864214,0.012229443294927478
462,0.25,0.001,0.01105432847168662,0.008152560202603175,16.26150872264376,0.011607072607168993,0.012974642333574593
463,0.25,0.001,0.011091861269185961,0.008135870785407706,16.56537050792718,0.011823961818648952,0.012364107184112072
464,0.25,0.001,0.011053694466552804,0.008125425289173092,16.410021222459,0.0117130772465803,0.010869034216739237
465,0.25,0.001,0.010984530547995409,0.008131665646221045,15.98745528442128,0.011411459874676146,0.011359519558027387
466,0.25,0.001,0.011064582646266403,0.008157964308779212,16.288688818945516,0.011626473104172388,0.011860405968036503
467,0.25,0.001,0.01101736325405087,0.0081483426013872,16.077991841979216,0.011476082685210004,0.013404926634393632
468,0.25,0.001,0.011037723013512898,0.008152088189268162,16.171096943116638,0.011542538860183181,0.010774467489682138
469,0.25,0.001,0.011026400516669038,0.008167214604145176,16.02287836214197,0.0114367440129493,0.010287723271176219
470,0.25,0.001,0.011016104341191015,0.008116479970841417,16.24949520565025,0.011598497648572625,0.011473569553345442
471,0.25,0.001,0.011042196216112262,0.008184756525638581,16.01309233966103,0.011429758986196309,0.01222775352653116
472,0.25,0.001,0.011069712285457922,0.008166957439539763,16.267038072574113,0.01161101932375026,0.015013290452770889
473,0.25,0.001,0.011043990052272109,0.008175498930375735,16.07502390596712,0.011473964244087882,0.012034607119858265
474,0.25,0.001,0.011017639917129016,0.008055345509162402,16.60069827595434,0.01184917792716227,0.01378237473545596
475,0.25,0.001,0.011073309675419007,0.008209448286365243,16.049079094649855,0.011455445463704392,0.012037305918056518
476,0.25,0.001,0.011049322095662667,0.008095995172088293,16.55044462884891,0.011813308086259038,0.01063890615478158
477,0.25,0.001,0.011002849787473679,0.008125910817379121,16.122366070996247,0.011507755939326372,0.010035765706561506
478,0.25,0.001,0.011002647149957918,0.008109608161533426,16.21259080492629,0.01157215617767758,0.01127285766415298
479,0.25,0.001,0.010970541149657802,0.008061569106292625,16.301879703625257,0.011635888439418457,0.010014866769779474
480,0.25,0.001,0.010985275919088367,0.008196509666818667,15.6282472391467,0.011155065838077589,0.011481633991934359
481,0.25,0.001,0.011057348163615687,0.008066357696712764,16.76150994509894,0.011963961416915731,0.010462071979418397
482,0.25,0.001,0.011015377682099014,0.008121414971392064,16.21776756812237,0.011575851226354296,0.010169927147217095
483,0.25,0.001,0.011060728448480056,0.00812766473693676,16.436888794311653,0.011732254671171772,0.01214588712900877
484,0.25,0.001,0.011035106650365046,0.00810111659172619,16.44207965157973,0.011735959779857051,0.011470914352685213
485,0.25,0.001,0.01103070248423887,0.008181267616286531,15.968232877568063,0.01139773938441689,0.010030962876044214
486,0.25,0.001,0.011047525798011423,0.008077741822223946,16.64267039448334,0.011879136612764697,0.010586736141704023
487,0.25,0.001,0.011039347183698154,0.008135612865439412,16.272525600202396,0.011614936188581296,0.013378325442317873
488,0.25,0.001,0.011062932959009187,0.008054551860951432,16.858967472466645,0.012033524248727084,0.01135935023194179
489,0.25,0.001,0.010979793713056718,0.008111974658028442,16.071258544921875,0.011471276620215472,0.011407634476199746
490,0.25,0.001,0.011103190959962027,0.008220216095066457,16.156192106593377,0.011531900147461367,0.010668173315934837
491,0.25,0.001,0.010999382003006333,0.008054671513542751,16.502159013130967,0.011778842978680206,0.010849494370631874
492,0.25,0.001,0.011001642225679625,0.008140203715078455,16.035502129158544,0.011445754553289467,0.011979898205026984
493,0.25,0.001,0.01101550828113312,0.008049100958246404,16.623746469772435,0.011865629171857555,0.013829572359099984
494,0.25,0.001,0.011042763963186169,0.008161810833361925,16.144861623489284,0.011523812721976648,0.011958551709540188
495,0.25,0.001,0.011011213035029135,0.008071722926490305,16.47290392061365,0.011757961399438722,0.011580249760299921
496,0.25,0.001,0.011032541348581398,0.00805082393028542,16.70954506581412,0.011926870139767395,0.011653542052954435
497,0.25,0.001,0.01101281443544681,0.008085168865052419,16.406525140017706,0.011710581827278877,0.011941639531869441
498,0.25,0.001,0.01097453714762513,0.008054694634257564,16.36279768933832,0.011679370227935987,0.011569969705305994
499,0.25,0.001,0.010965688542962572,0.008055044900011544,16.3112478813697,0.011642575218679299,0.011263720283750445
500,0.25,0.001,0.01098059489156483,0.00810428793369044,16.11882413055802,0.011505227787693091,0.013921467121690512
