epoch,beta,learning_rate,train_loss,train_reconstruction_loss,train_kl_unnormalized,train_kl_normalized,mean_unclipped_gradient_norm
1,0.0,0.001,0.0892711673986237,0.0892711673986237,12.463446623124417,0.008896107511152333,0.10233942568302154
2,0.02,0.001,0.08247194476659943,0.08150141868951186,67.985301419624,0.048526267965470375,0.09254119545221329
3,0.04,0.001,0.07442252351990286,0.06916132775492638,184.27335995848074,0.1315298786284659,0.16000237464904785
4,0.06,0.001,0.060831458407378046,0.04835822461348659,291.2500000959672,0.20788722348034777,0.16508376896381377
5,0.08,0.001,0.04742064746389599,0.040666043570956344,118.29001056023364,0.08443255571751151,0.1241968885064125
6,0.1,0.001,0.040239871391710244,0.035594713341140144,65.07866426383924,0.046451580488107956,0.059253746271133424
7,0.12,0.001,0.03774838978951832,0.03423225849210841,41.05083364810584,0.029301094681017728,0.04064108394086361
8,0.14,0.001,0.03566188744778903,0.03265065074248134,30.133882438611685,0.021508838285946956,0.02846502885222435
9,0.16,0.001,0.03419838344338555,0.031868215673749554,20.40353571094057,0.014563551542427245,0.04096217639744282
10,0.18,0.001,0.03235526579730916,0.030023992741070454,18.145075336192388,0.012951517013699064,0.057411270961165425
11,0.2,0.001,0.030512000182233517,0.02732624930077754,22.316184973566788,0.015928754442231827,0.06680352054536343
12,0.22,0.001,0.028777244120086514,0.024880359371034604,24.816071552300603,0.017713113170806996,0.05446068868041039
13,0.24,0.001,0.027504421934579155,0.02306983732389954,25.886888875901324,0.01847743674225648,0.045574038103222844
14,0.25,0.001,0.02571472280758357,0.021183622309809212,25.39229057120077,0.018124404404854227,0.03434450253844261
15,0.25,0.001,0.02463978220878532,0.020452491728202352,23.465578115211343,0.01674916353691031,0.024290496483445168
16,0.25,0.001,0.023731132383522747,0.019661289926782344,22.807399665784537,0.016279371638675617,0.019343803636729717
17,0.25,0.001,0.0235451737641351,0.019623381196983956,21.977724951018327,0.015687169843696166,0.01499344389885664
18,0.25,0.001,0.022760984517118468,0.018868705304632395,21.812333340914744,0.015569117302580118,0.020629216358065604
19,0.25,0.001,0.022339054342335875,0.018653072334779135,20.65624467381891,0.014743929103368246,0.03486895281821489
20,0.25,0.001,0.0220351406144646,0.01852137801594704,19.691127201296247,0.01405505153554336,0.051772129535675046
21,0.25,0.001,0.022213552088576293,0.018552759732559043,20.51508040997967,0.014643169457515825,0.056591488793492316
22,0.25,0.001,0.021970845583193708,0.018447565090543818,19.74446477830035,0.014093122611206531,0.07552655395120382
23,0.25,0.001,0.02153387890671784,0.017959248180846748,20.032229597463548,0.014298522196619234,0.05068500973284244
24,0.25,0.001,0.021020145817372785,0.017501559612229937,19.718159381698513,0.014074346453746263,0.042181958258152005
25,0.25,0.001,0.020823503487140127,0.017234159844382754,20.11468241949501,0.014357375031759465,0.02570517249405384
26,0.0,0.001,0.016223689060915942,0.016223689060915942,23.465032121670323,0.016748773819893165,0.024283237010240554
27,0.02,0.001,0.015589917324623972,0.015100641375255285,34.273785717082475,0.02446380136836722,0.027288027480244635
28,0.04,0.001,0.015399895766574257,0.014074119709947574,46.43531029179411,0.033144404205420495,0.04611329883337021
29,0.06,0.001,0.015493196675425055,0.013176653282306853,54.091291823477114,0.0386090591173998,0.032122384011745456
30,0.08,0.001,0.015760377201737848,0.012743785760640723,52.82806158965489,0.03770739585271583,0.03615897372364998
31,0.1,0.001,0.015805696892850805,0.012626081054924795,44.546415508918045,0.03179615668016991,0.03576388284564018
32,0.12,0.001,0.01615691673502607,0.01302288810037217,36.58978844888555,0.026116908243315883,0.047939566895365715
33,0.14,0.001,0.016141497002879403,0.012938827194226612,32.04957636947152,0.02287621439648217,0.029695507884025574
34,0.16,0.001,0.01614148865612048,0.012870013297963067,28.64585733713594,0.020446721868048495,0.015550116077065468
35,0.18,0.001,0.016566819528926094,0.013090731535083468,27.05555597941081,0.01931160312591778,0.01868763007223606
36,0.2,0.001,0.016759914890775142,0.013038325187920025,26.069737488368773,0.018607949670498766,0.022738165967166424
37,0.22,0.001,0.016862801762309466,0.012991563633740323,24.65274819188148,0.0175965368964179,0.014444383420050144
38,0.24,0.001,0.017202685452388518,0.013269314062108033,22.961057543004834,0.01638904892434321,0.016885611414909362
39,0.25,0.001,0.017135392218453328,0.013161958652144333,22.267123324316252,0.015893735420639724,0.019581887125968932
40,0.25,0.001,0.016847130332915287,0.013048488840039046,21.28758563635484,0.015194565050931363,0.017870582453906537
41,0.25,0.001,0.017113403985335392,0.013104706516477672,22.464740249345887,0.016034789614094137,0.023515125270932913
42,0.25,0.001,0.016661535351062722,0.012732877747489596,22.016197108622617,0.015714630341629277,0.03197141941636801
43,0.25,0.001,0.01672840568254579,0.013098886224833675,20.3398265718664,0.014518077495978872,0.027457146160304546
44,0.25,0.001,0.016889231279492378,0.013115191445598062,21.14972073776917,0.015096160412397693,0.034027381986379626
45,0.25,0.001,0.01650407335152791,0.012784542299151045,20.844251980571627,0.014878124183134637,0.02300260839983821
46,0.25,0.001,0.01636267251938394,0.01258981999876739,21.143065398594118,0.015091409991858757,0.015595770440995693
47,0.25,0.001,0.01620987854288809,0.012591819050458242,20.275606395313574,0.014472238683307333,0.01831470225006342
48,0.25,0.001,0.016240268605966238,0.01274151142991189,19.607033987465144,0.013995027828312023,0.021323000825941563
49,0.25,0.001,0.01612472431089893,0.012428557236661326,20.713321014020426,0.014784668818001731,0.02493377048522234
50,0.25,0.001,0.016201963273328054,0.01253130102424689,20.570390989195626,0.014682648814557907,0.017075603641569615
51,0.0,0.001,0.012058737102029083,0.012058737102029083,22.849705222267776,0.01630956832424538,0.028379380330443384
52,0.02,0.001,0.01160526677450669,0.011105320627256384,35.021220920970606,0.02499730258456146,0.019685878418385983
53,0.04,0.001,0.01176535115583138,0.010361066954971859,49.185052595798325,0.03510710392276826,0.0224192475900054
54,0.06,0.001,0.012470055758109633,0.010023098163681585,57.13646405298005,0.04078262958813708,0.016696945764124393
55,0.08,0.001,0.013037769328919972,0.009997741998694602,53.23848002211852,0.03800034262820737,0.017026661336421965
56,0.1,0.001,0.013291204242773776,0.010318385097403196,41.64919477738675,0.029728190419262487,0.018911558762192728
57,0.12,0.001,0.01344278335290135,0.010665303020029323,32.427084185042474,0.023145670367624892,0.016442502941936256
58,0.14,0.001,0.013913670027593398,0.011092250422814733,28.234350432389938,0.020152998167301883,0.02322746915742755
59,0.16,0.001,0.01430894321990463,0.01128148052653989,26.509221562799418,0.018921642799999583,0.022307262010872363
60,0.18,0.001,0.014498444385357998,0.011053555762196111,26.812715542391413,0.019138269480650543,0.02337448261678219
61,0.2,0.001,0.014773430466745634,0.011150761706602274,25.376795918686586,0.01811334469570777,0.01827587215229869
62,0.22,0.001,0.015050896361423363,0.011472128442951344,22.790244156459593,0.016267126450006848,0.02982845576480031
63,0.24,0.001,0.01540913961171729,0.01165481779794648,21.91585428009993,0.01564300805146319,0.049374784156680104
64,0.25,0.001,0.015289520809672913,0.011703343359085749,20.0969374314794,0.01434470908742284,0.018488981761038303
65,0.25,0.001,0.015141058912348447,0.011494908780562427,20.43302642774282,0.01458460130459873,0.018049169145524502
66,0.25,0.001,0.015076741810489751,0.011289639960763589,21.2229182885128,0.015148407058181872,0.013299987651407719
67,0.25,0.001,0.015275134582002208,0.011874985435989293,19.054434218496645,0.013600595445036863,0.015163278207182884
68,0.25,0.001,0.015232524389412793,0.011565230037056425,20.551518446244533,0.0146691780487113,0.01681499872356653
69,0.25,0.001,0.014843981267896088,0.011263508091932573,20.064970052467203,0.014321891543516919,0.018303889967501163
70,0.25,0.001,0.014926918758864299,0.011474562258278049,19.347006144013793,0.013809426226990574,0.020429803431034087
71,0.25,0.001,0.014915813510335467,0.01139007893584247,19.758215826262468,0.01410293777748927,0.01558005977421999
72,0.25,0.001,0.014989465685947886,0.011543834130953319,19.3093179306894,0.013782525289571307,0.022884163446724413
73,0.25,0.001,0.014880887449443716,0.01122909943637608,20.464620326300086,0.01460715226716637,0.021993396058678626
74,0.25,0.001,0.01455546875115273,0.011093354936243978,19.401686842336595,0.013848455990247392,0.015425373055040836
75,0.25,0.001,0.014450776806604938,0.011137658548570654,18.56671501255635,0.01325247324236713,0.013207471277564765
76,0.0,0.001,0.010843621660609665,0.010843621660609665,21.97005775739562,0.01568169718586411,0.022793500684201717
77,0.02,0.001,0.01046308695848258,0.009965350546833104,34.866432981671025,0.02488681868784513,0.022253021970391272
78,0.04,0.001,0.010697884813138525,0.009318851426524936,48.300646895882466,0.03447583647100819,0.0118524513207376
79,0.06,0.001,0.0113212904254408,0.009032368718546891,53.44632171534892,0.03814869501452457,0.013151617906987666
80,0.08,0.001,0.011745849354836926,0.008987330778870942,48.30856004151158,0.034481484683448665,0.011329343635588884
81,0.1,0.001,0.011970676833166266,0.00931272344113146,37.23792897830219,0.02657953531641841,0.01568763703107834
82,0.12,0.001,0.012191005806737352,0.009665157804089898,29.489279800990843,0.021048736474654422,0.008409544732421637
83,0.14,0.001,0.012561544734961207,0.009951646152719762,26.117629968895102,0.018642134167662458,0.01123645445331931
84,0.16,0.001,0.01286013384566367,0.009992120734784962,25.1130406841542,0.017925082572558315,0.0077072146348655226
85,0.18,0.001,0.013272386928727417,0.010032830859458296,25.21454515996969,0.017997534018536536,0.01185892429202795
86,0.2,0.001,0.013449716862033374,0.009994742624555368,24.202093268340487,0.017274870284325828,0.014268216863274574
87,0.22,0.001,0.013758870521150294,0.010354192060588291,21.681612146725445,0.015475811667898248,0.017924432829022407
88,0.24,0.001,0.013966353422721976,0.010360239712087988,21.05068967327382,0.015025474427747194,0.017234865017235278
89,0.25,0.001,0.01398594532771118,0.010521008750224638,19.417505540188003,0.013859746995137761,0.01163114160299301
90,0.25,0.001,0.014002933799517605,0.010396447512994773,20.210749248288714,0.014425945216480166,0.010169653221964836
91,0.25,0.001,0.014032636435245568,0.010380541501601911,20.466339795094616,0.014608379582508648,0.01171010136604309
92,0.25,0.001,0.01380198412580685,0.01036804465213849,19.243796486524666,0.01373575766347228,0.009974151011556387
93,0.25,0.001,0.013984230042394227,0.010561219035829388,19.182553141372008,0.013692043641236265,0.010104858689010144
94,0.25,0.001,0.01377901925746375,0.010330856713296482,19.32350420202099,0.01379265110779514,0.013801916968077421
95,0.25,0.001,0.013740747276717011,0.010342910534368371,19.0414763396641,0.013591346423743112,0.012657111510634422
96,0.25,0.001,0.013663592027886858,0.010337403184681569,18.63996213037263,0.013304755267931928,0.009575997479259968
97,0.25,0.001,0.013681787827620341,0.010372876271652351,18.543140987180315,0.013235646671791803,0.016481020487844944
98,0.25,0.001,0.013770694955714844,0.010346378498482254,19.18986974272338,0.0136972660547633,0.015328069590032101
99,0.25,0.001,0.013491805314830263,0.010052483399990219,19.2739604973943,0.013757288006705424,0.011862162407487631
100,0.25,0.001,0.013486754131626408,0.010182681112731778,18.51602443958978,0.013216291534325325,0.008205023687332868
101,0.25,0.001,0.013413728009792243,0.010215317906589253,17.923891295427048,0.012793641181603888,0.014519607461988927
102,0.25,0.001,0.013435329990051452,0.010096911112514307,18.70849878083235,0.013353675075540578,0.012245096266269684
103,0.25,0.001,0.013429746617498638,0.010154836184386187,18.35259831026665,0.013099641905971912,0.019582411833107473
104,0.25,0.001,0.013450876499215761,0.01017090572196545,18.380955978009684,0.013119882925060446,0.015500440914183854
105,0.25,0.001,0.01350573499528867,0.01019373690744616,18.560437232443373,0.013247992314377854,0.025218414328992366
106,0.25,0.001,0.013592587901080179,0.01020058673812346,19.008774727395494,0.013568004801852602,0.022418849170207977
107,0.25,0.001,0.013395257136028892,0.010066065046959703,18.65679309053241,0.013316768801236552,0.01825381563976407
108,0.25,0.001,0.013319832471978365,0.010036406528977852,18.400319201391447,0.013133703926760491,0.025547680631279945
109,0.25,0.001,0.013361676625391972,0.010154416573778639,17.97348539484372,0.012829040253278887,0.014064959157258273
110,0.25,0.001,0.013377836753128085,0.010039853576406743,18.706059473865437,0.0133519339570774,0.01544884517788887
111,0.25,0.001,0.01322558321902212,0.009982393603514201,18.174834737237894,0.01297275855620121,0.010124472249299288
112,0.25,0.001,0.013203023686864466,0.009975448479208181,18.08733207174817,0.012910301264631097,0.01161680594086647
113,0.25,0.001,0.013086337514174809,0.00992023905610326,17.742817272930026,0.012664394912869397,0.012911875732243061
114,0.25,0.001,0.012961326184559543,0.009720880362503934,18.159457716551966,0.012961782809815822,0.01601401939988136
115,0.25,0.001,0.013027868128188376,0.009848090169845888,17.81947583372488,0.012719111944129108,0.013442681729793548
116,0.25,0.001,0.012948489519503881,0.009764723632039514,17.841823745823508,0.012735063344627772,0.015713082626461983
117,0.25,0.001,0.012986195484562865,0.009859240268292668,17.523457845052082,0.012507821445433321,0.015282825753092765
118,0.25,0.001,0.012873117888123734,0.009745334620651958,17.528096984767313,0.01251113275143991,0.012793037854135037
119,0.25,0.001,0.012892885795507417,0.009815786490744015,17.244065014821178,0.012308397583741026,0.009334482625126839
120,0.25,0.001,0.01294190443044751,0.009709285824038323,18.11559547568267,0.012930475000487274,0.010696221608668566
121,0.25,0.001,0.01280644452843651,0.009581528363878248,18.07242950103568,0.01289966416919035,0.011132135894149542
122,0.25,0.001,0.012774029442068166,0.009664323585072779,17.426792432677072,0.012438824006193484,0.009871259331703186
123,0.25,0.001,0.012679832753192328,0.009610859437043187,17.19852710220049,0.012275893720342962,0.007607774902135133
124,0.25,0.001,0.012739533915787749,0.00962337682831962,17.462942339339346,0.01246462693742994,0.009736474044620991
125,0.25,0.001,0.012756581142919618,0.009453253703391028,18.511848041846317,0.013213310522374245,0.011550145968794823
126,0.25,0.001,0.012713313957898872,0.009574704604375662,17.5887669617275,0.012554437517293005,0.016419116221368314
127,0.25,0.001,0.012783595618540011,0.009707304198037154,17.2395366692693,0.01230516535993526,0.011440727300941944
128,0.25,0.001,0.012711500719705093,0.009513460667862458,17.921817311700785,0.012792160822056234,0.012904183007776737
129,0.25,0.001,0.012613439598595197,0.009488175617261502,17.513980037761183,0.012501056415247097,0.011552974302321672
130,0.25,0.001,0.012725581133843592,0.00954649067899716,17.815622305720108,0.012716361388808071,0.01395138967782259
131,0.25,0.001,0.012783514370895782,0.009663984595370368,17.481844980011946,0.01247811918630403,0.011452843993902206
132,0.25,0.001,0.012605045857669422,0.00932118241563908,18.40276899277789,0.013135452528749387,0.015558844618499278
133,0.25,0.001,0.012618499614720075,0.009472494634489218,17.630212172022407,0.012584020108509926,0.013984172232449054
134,0.25,0.001,0.012604215656811336,0.009576304891855462,16.968411115730333,0.012111642480892458,0.014007459301501513
135,0.25,0.001,0.01247636791693527,0.00930833460985677,17.753657982784247,0.012672132750024444,0.009156868420541286
136,0.25,0.001,0.012556003939664964,0.009502258924943096,17.11318699818737,0.012214980012981706,0.01071166954934597
137,0.25,0.001,0.012461452862048673,0.009429619366408518,16.99039543199839,0.012127334355459237,0.010124561004340648
138,0.25,0.001,0.012555713607174045,0.00947521133758362,17.263135082316847,0.012322009337842147,0.014602302201092243
139,0.25,0.001,0.012462520163576558,0.009355349401773521,17.41258363303898,0.012428682107807981,0.01354010496288538
140,0.25,0.001,0.012476468804356811,0.009342534291856695,17.56256904841969,0.01253573807881491,0.013230820186436176
141,0.25,0.001,0.012477508769517049,0.009444873662864638,16.99488728601228,0.012130540532485566,0.011593459825962781
142,0.25,0.001,0.012480526043793315,0.009364676292774812,17.461223206430112,0.012463399861834484,0.008802192471921443
143,0.25,0.001,0.012448178592530437,0.009323679525756612,17.509692797870755,0.01249799628684565,0.011136573366820812
144,0.25,0.001,0.012412156282965117,0.009283845002452532,17.531055666365713,0.012513244586984806,0.008481389097869396
145,0.25,0.001,0.012284753486842104,0.009189791139800969,17.344170960240394,0.012379850792462808,0.01131051331758499
146,0.25,0.001,0.012254790010504753,0.00926310401527012,16.76540756225586,0.011966743442009892,0.01148958783596754
147,0.25,0.001,0.012346287767560978,0.009258867288301201,17.30190487027918,0.012349682277144312,0.010065286606550216
148,0.25,0.001,0.012273177984844215,0.009202189099207614,17.20982149711945,0.012283955386951784,0.009940673783421516
149,0.25,0.001,0.01222675843105751,0.00918468474498335,17.047780702698905,0.012168294577229767,0.01019017668440938
150,0.25,0.001,0.01222787923384575,0.009260797515839525,16.627526985024506,0.011868327612437193,0.0133756123483181
151,0.25,0.001,0.012283797709728187,0.0092409352227202,17.05220109711653,0.012171449748120292,0.014485379122197628
152,0.25,0.001,0.012257793074790036,0.009106517980261793,17.659745558252876,0.012605100327089848,0.011009082943201066
153,0.25,0.001,0.012208859295636977,0.009127074671007178,17.270320328526527,0.012327137993238063,0.01150437705218792
154,0.25,0.001,0.012180168884542753,0.009247965905698215,16.432064632199847,0.01172881130064229,0.01102847708389163
155,0.25,0.001,0.012249074993455934,0.009067006479456739,17.832311966134316,0.012728274065763252,0.013601042609661818
156,0.25,0.001,0.012202766858650453,0.009039550199636124,17.72666537686714,0.01265286607913429,0.015195387043058872
157,0.25,0.001,0.01217559139894427,0.009187626412267206,16.7445569428258,0.011951860772894932,0.014833646453917026
158,0.25,0.001,0.01208563339925787,0.009091189582158559,16.780862700264407,0.011977774946655537,0.013160718232393264
159,0.25,0.001,0.011955164361206241,0.009000374144821797,16.558644384708046,0.011819160874167057,0.010236088838428258
160,0.25,0.001,0.012083726519215032,0.009107959240018946,16.676199487170333,0.01190306887021437,0.012350059673190117
161,0.25,0.001,0.012082787710915572,0.009101316157095838,16.708166950153856,0.011925886474057,0.013333122432231902
162,0.25,0.001,0.01198493307983538,0.009007912322457106,16.68322416821366,0.01190808291806828,0.01604250855743885
163,0.25,0.001,0.011989331517204549,0.008981084345646624,16.85821733534711,0.012032988818948686,0.012415157724171877
164,0.25,0.001,0.011937964889191606,0.008894704686442637,17.0544297560206,0.01217304051107823,0.012011557631194592
165,0.25,0.001,0.011882959724456634,0.00890456423538286,16.690930048624676,0.011913583189596485,0.01125457752496004
166,0.25,0.001,0.012072443101063089,0.009159222467796607,16.325688943922895,0.011652882900730117,0.012135198898613453
167,0.25,0.001,0.01192911637583806,0.008928995093319026,16.812680286431462,0.012000485572042443,0.010170668736100197
168,0.25,0.001,0.011954533252513633,0.008981730279354554,16.659588447906685,0.011891212311139675,0.011962119303643704
169,0.25,0.001,0.011954001672331642,0.008936260487157968,16.911421038069815,0.012070964338379597,0.011553985346108676
170,0.25,0.001,0.01201296514544472,0.008955870022844968,17.131959951148843,0.012228379693896391,0.009868667647242545
171,0.25,0.001,0.011861516853923318,0.008869871233572375,16.765182063264668,0.011966582486270284,0.010064788162708282
172,0.25,0.001,0.011891841777137615,0.008944960147048693,16.514325525775646,0.011787527141881261,0.011512719560414553
173,0.25,0.001,0.01210070475233051,0.009155569615650852,16.50453794227456,0.01178054100090975,0.02240891046822071
174,0.25,0.001,0.011899328152151228,0.008783909140752172,17.45880799923303,0.01246167594520559,0.017759200558066367
175,0.25,0.001,0.01192053071217342,0.008947332811383706,16.66180266374312,0.011892792764984382,0.01655073557049036
176,0.25,0.001,0.011862350979222442,0.00898114173620377,16.146296765069543,0.01152483709141295,0.015240027662366628
177,0.25,0.001,0.011746594869771844,0.00875592081215959,16.75973849026662,0.011962696995193877,0.010425811819732188
178,0.25,0.001,0.011828601202171928,0.008857433461590009,16.650425017254907,0.011884671675413924,0.008738225419074297
179,0.25,0.001,0.011855893797657025,0.008923370490705816,16.433860862779916,0.011730093406695157,0.008979898225516082
180,0.25,0.001,0.011867024396903484,0.00887892919492984,16.7452857899216,0.011952381006368022,0.009989598300307989
181,0.25,0.001,0.011860639741351394,0.008823053249444976,17.022634974065816,0.012150346162787878,0.010706946346908807
182,0.25,0.001,0.011766195051231474,0.008762244123426624,16.834141617301125,0.012015804152249197,0.011522100120782853
183,0.25,0.001,0.011912733960732724,0.008958672542335852,16.554559335768598,0.011816245064788436,0.015252467896789312
184,0.25,0.001,0.01182144460321035,0.008928455119519113,16.212314005917722,0.011571958605223214,0.01113077625632286
185,0.25,0.001,0.011958502115880919,0.009052406727049336,16.28575922408194,0.011624382030037073,0.016555685363709927
186,0.25,0.001,0.011923678623477244,0.008870928835287784,17.107610714510553,0.01221099979622452,0.017161773703992366
187,0.25,0.001,0.011894826466838518,0.008885088382558253,16.866573033842652,0.01203895291494836,0.017830882966518403
188,0.25,0.001,0.011857688485545182,0.008884895182911705,16.65953473025148,0.011891173968773362,0.01334063671529293
189,0.25,0.001,0.011794094084147012,0.008823255680314024,16.648579495507967,0.011883354386515322,0.014019089564681054
190,0.25,0.001,0.011832759182595607,0.008872141909299407,16.591299344908517,0.011842469196936843,0.012068402487784624
191,0.25,0.001,0.01190323817818982,0.008918086471000933,16.72879012725638,0.011940606800325755,0.012289662286639214
192,0.25,0.001,0.011727501878386023,0.008703871290404466,16.944426494574397,0.012094522836955316,0.009505042899399995
193,0.25,0.001,0.011767548233645517,0.008889301158722092,16.12969655210867,0.011512988259891983,0.012793988920748234
194,0.25,0.001,0.011717606025437513,0.00874024141087847,16.685151250107484,0.011909458422632037,0.010287188366055489
195,0.25,0.001,0.011662891679355558,0.00873596709713621,16.402486429274457,0.011707699092986764,0.012878190632909537
196,0.25,0.001,0.011810597711764041,0.00891943754476009,16.20206241487707,0.011564641266864432,0.020063168182969094
197,0.25,0.001,0.011735971372738574,0.008805380606988692,16.42303184293351,0.011722363913585662,0.014583258889615536
198,0.25,0.001,0.011692535208315594,0.008856312178497045,15.894194524992937,0.011344892594570262,0.013867397420108318
199,0.25,0.001,0.011699685551601011,0.008796198973022166,16.271139660721307,0.01161394693841635,0.012863778322935105
200,0.25,0.001,0.011704664068214549,0.008755820785772125,16.525317653919917,0.011795373057758685,0.011709543690085412
201,0.25,0.001,0.011717895942054829,0.008774667140682164,16.493854150832075,0.011772915168331245,0.012089731730520725
202,0.25,0.001,0.011649292325542408,0.008730772168100255,16.355386182197236,0.011674080072945922,0.011434729490429164
203,0.25,0.001,0.011579470995977614,0.008619167689679179,16.58954064951003,0.011841213882591028,0.01222936473786831
204,0.25,0.001,0.011602122852075025,0.008733664920448133,16.0748376906293,0.011473831328072304,0.013831982016563415
205,0.25,0.001,0.01165623537633779,0.008719525440543328,16.45732235458662,0.01174683965352364,0.01502077179029584
206,0.25,0.001,0.011619273666878167,0.00869301873487684,16.398732839140504,0.011705019870906854,0.012589271180331707
207,0.25,0.001,0.011577599875207217,0.008655096298821692,16.377710054505545,0.011690014314422232,0.012792888283729553
208,0.25,0.001,0.011630795796477945,0.008771399293774329,16.024057760178668,0.011437585838814181,0.014006740879267454
209,0.25,0.001,0.01174115214449992,0.008802071694026954,16.470607097793675,0.011756321982722109,0.012964574806392192
210,0.25,0.001,0.01154456025212066,0.008558745027385043,16.732508209516418,0.011943260677741912,0.012470482010394334
211,0.25,0.001,0.011544820993154679,0.008679458467324949,16.057492058232146,0.011461450434141433,0.01388332936912775
212,0.25,0.001,0.0115778973419805,0.008645269193879838,16.434447210539812,0.011730511927580166,0.013010353967547416
213,0.25,0.001,0.01158640372022143,0.008631471181346936,16.559441020653683,0.011819729493685711,0.013018390722572803
214,0.25,0.001,0.01155367542831403,0.008590117407341799,16.607778501210724,0.01185423162113542,0.01366595458239317
215,0.25,0.001,0.011579733377076545,0.00874142068783817,15.90590412211868,0.011353250622497273,0.013109413720667363
216,0.25,0.001,0.011525210772154841,0.008623485717008699,16.2612676920381,0.011606900565337688,0.015733267553150652
217,0.25,0.001,0.011584699856785109,0.008630210205725153,16.556960411791533,0.011817958894926147,0.016033630073070525
218,0.25,0.001,0.011497349402158515,0.00856638391086328,16.425132031710643,0.011723862977666411,0.018731393106281757
219,0.25,0.001,0.01153106005780352,0.008663313773771128,16.070849724535673,0.011470984814086847,0.017947234958410264
220,0.25,0.001,0.011571214376193172,0.00865398868684124,16.348132175469548,0.011668902337951141,0.015897305309772493
221,0.25,0.001,0.011470490070821354,0.008590423507885364,16.13989458743881,0.011520267371476668,0.008844352327287197
222,0.25,0.001,0.011491792528368768,0.00858369811420452,16.296962965959274,0.011632378990691845,0.008411687426269054
223,0.25,0.001,0.011479557298545568,0.008523052224432523,16.568254038972675,0.011826020013542238,0.009492921736091375
224,0.25,0.001,0.011392542822930798,0.008429797208112365,16.60322735144657,0.011850983120233098,0.0106990410014987
225,0.25,0.001,0.011408238126984183,0.00854991624166943,16.018034809040575,0.011433286801599269,0.011210517212748527
226,0.25,0.001,0.011451219600982636,0.008620287291705608,15.8645449104549,0.01132372941502848,0.014186507649719715
227,0.25,0.001,0.011405344800613585,0.00846598347145244,16.472180294540692,0.011757444892605776,0.012618319503962994
228,0.25,0.001,0.011422257794289844,0.008508607926749208,16.328093726679963,0.011654599376645227,0.010529563203454018
229,0.25,0.001,0.011494368894623136,0.008586073065844347,16.298088781488765,0.011633182570655792,0.01206404697149992
230,0.25,0.001,0.011421457261034529,0.008531037993354243,16.19790830552203,0.011561676163827288,0.010124748386442662
231,0.25,0.001,0.011512429500291558,0.00862023876335636,16.207837644613015,0.011568763486518925,0.012717273831367493
232,0.25,0.001,0.011468407727262509,0.008512702676813182,16.563770546103424,0.011822819804499231,0.01784039195626974
233,0.25,0.001,0.01158335213344427,0.008629229353190219,16.554904673834265,0.011816491558768212,0.014526472985744476
234,0.25,0.001,0.011418850717585792,0.008496422672046805,16.377287660754703,0.011689712819953393,0.013508229050785303
235,0.25,0.001,0.011393434854236039,0.008599259275591598,15.658559907157466,0.011176702289191624,0.011238511092960835
236,0.25,0.001,0.011396326540541724,0.008479909414905796,16.343601322773868,0.011665668324606615,0.011892798077315091
237,0.25,0.001,0.01139954629840341,0.008511673588797732,16.1836383207789,0.011551490592989936,0.00993367787450552
238,0.25,0.001,0.01135161002430151,0.008517032811336173,15.884970916891998,0.011338309005633119,0.01688902024179697
239,0.25,0.001,0.011397736029898596,0.008558953655356506,15.908537198912423,0.011355130049188025,0.014554369449615478
240,0.25,0.001,0.011395442276115313,0.00848291387910363,16.321808365156066,0.011650113037227742,0.014312984608113765
241,0.25,0.001,0.011433580720434024,0.008534313033118189,16.24749508743766,0.011597070012446581,0.01147046871483326
242,0.25,0.001,0.011418127894120396,0.00852746954597767,16.199249585469563,0.01156263353709462,0.01795570198446512
243,0.25,0.001,0.011462964673977604,0.008523535053685026,16.472562094154597,0.011757717411959027,0.022210460714995862
244,0.25,0.001,0.01129385095042815,0.008422230833075332,16.092559496561687,0.011486480725597208,0.014864892791956663
245,0.25,0.001,0.011322927708099098,0.008480669977436276,15.928012284092933,0.01136903089514128,0.010689583607017994
246,0.25,0.001,0.011339242329949853,0.00847744939368476,16.037487761779403,0.01144717184994961,0.011516284756362438
247,0.25,0.001,0.011393111333860166,0.008493367529843213,16.250165867355634,0.011598976350717797,0.012941515259444713
248,0.25,0.001,0.011311401080035564,0.00840643260909139,16.279444436607122,0.01161987468708574,0.013882477860897779
249,0.25,0.001,0.011373292848046095,0.008549506213726863,15.824499909982741,0.011295146259802099,0.016187323443591594
250,0.25,0.001,0.01142413744339778,0.008525530924821424,16.24379180812236,0.011594426701015246,0.012193604744970799
251,0.25,0.001,0.011269766673351984,0.008286462262061969,16.718437110852896,0.011933217066989934,0.008924148883670569
252,0.25,0.001,0.011345693929437196,0.008461668653964246,16.162077273962634,0.011536100837946206,0.010731811635196209
253,0.25,0.001,0.011317788342119387,0.008480078974188125,15.902522764865708,0.011350837091267458,0.011677096970379353
254,0.25,0.001,0.01138359239711514,0.008443431302014762,16.476664429190773,0.011760645559736455,0.014355707541108131
255,0.25,0.001,0.01133771547051908,0.008331159692046777,16.848738904269236,0.01202622334351837,0.0161062091588974
256,0.25,0.001,0.01130766973321168,0.008512849040891765,15.662175148538074,0.011179282761269145,0.012411020696163177
257,0.25,0.001,0.011351227338583965,0.008445908040183145,16.281409449547343,0.011621277265915306,0.014904172159731388
258,0.25,0.001,0.01119146151643879,0.008211614241905557,16.699064098814,0.011919389078382582,0.011146337445825338
259,0.25,0.001,0.011200495896005781,0.008394161268553269,15.726701580503452,0.011225340171665562,0.015298337209969759
260,0.25,0.001,0.01123416070597914,0.008469713553083394,15.491963596463954,0.01105778986185864,0.010748246591538191
261,0.25,0.001,0.011278907604421835,0.008335772749481711,16.493327950531583,0.011772539579251666,0.01481789480894804
262,0.25,0.001,0.011175848086768726,0.008292443013556723,16.158600411325132,0.011533619137277039,0.013147674314677716
263,0.25,0.001,0.011376426385352446,0.008546734486454688,15.857594298116815,0.011318768235629419,0.014937773440033197
264,0.25,0.001,0.011240657606402284,0.008263632511638058,16.683249239651662,0.011908100813455861,0.011806230712682008
265,0.25,0.001,0.011255624739207187,0.008449948955116407,15.723007741964087,0.011222703598832325,0.013078025728464126
266,0.25,0.001,0.011254421552444029,0.008448204400498162,15.726041409954336,0.01122486895785463,0.013287035375833511
267,0.25,0.001,0.011221135544748802,0.008313488783373398,16.294452679232233,0.011630587208588318,0.009229085221886636
268,0.25,0.001,0.011175991703738581,0.00832784774789364,15.960997935361082,0.011392575257217047,0.00981737868860364
269,0.25,0.001,0.011254013732731718,0.008369403258668926,16.165356174205083,0.01153844123783375,0.010229567531496286
270,0.25,0.001,0.011290627994439887,0.008394901728573835,16.22765028251792,0.011582905269463184,0.010584607906639575
271,0.25,0.001,0.011247426599451582,0.008354789425132784,16.210339324279403,0.011570549125110208,0.01067056804895401
272,0.25,0.001,0.01118257446155983,0.008267628564938621,16.335355776660847,0.011659782852720091,0.00983224082738161
273,0.25,0.001,0.01125350332110183,0.008417834674224913,15.891086614356851,0.011342674242938508,0.01300177350640297
274,0.25,0.001,0.011198369797858052,0.00828585506024413,16.32173316283796,0.011650059359627379,0.01151750199496746
275,0.25,0.001,0.011194951117694753,0.008293223620023368,16.261280557644444,0.011606909748497105,0.014765889011323452
276,0.25,0.001,0.011186061368423438,0.008331090176724038,15.999258077369547,0.011419884423532867,0.010099273547530175
277,0.25,0.001,0.011215060053147236,0.008384812687693527,15.86070671321461,0.011320989802437266,0.012635263241827488
278,0.25,0.001,0.011160551107623292,0.008315983122952704,15.940959012733316,0.01137827195769687,0.007871839869767427
279,0.25,0.001,0.01114205629476961,0.008243490900820907,16.243560898978757,0.01159426188363937,0.010055177938193082
280,0.25,0.001,0.01114808578840779,0.008360575978298607,15.621204346230945,0.011150038791028511,0.009495626203715801
281,0.25,0.001,0.011195110203991146,0.008418763501557914,15.558648439323377,0.011105387893878214,0.010115796886384486
282,0.25,0.001,0.011171915872994834,0.008223233475062833,16.524416185774893,0.011794729611545249,0.011282036639750003
283,0.25,0.001,0.011163693723860401,0.008282129553222807,16.148285907769353,0.011526256893482764,0.011867067962884902
284,0.25,0.001,0.011202290127018713,0.00842157097638778,15.583149040270152,0.011122875831741721,0.008583765290677548
285,0.25,0.001,0.011264093132373297,0.008338328052616719,16.395988404375952,0.01170306095958312,0.009580400213599205
286,0.25,0.001,0.011257815965504016,0.008313240846560436,16.50139951406035,0.011778300866566987,0.010015901923179627
287,0.25,0.001,0.011151363704142705,0.008222564281720036,16.412992063558328,0.011715197761283602,0.008857931941747665
288,0.25,0.001,0.011228379483024279,0.008399837181768703,15.851150602664587,0.011314168881273795,0.01261089462786913
289,0.25,0.001,0.011157863474679444,0.008293346015724746,16.052754510123776,0.011458068886597984,0.012940128147602082
290,0.25,0.001,0.011225974234113903,0.008348486720109885,16.125440729489117,0.011509950556380526,0.013776345178484917
291,0.25,0.001,0.011152827257067902,0.008304085910507719,15.964345236244442,0.011394964479831864,0.012327753193676471
292,0.25,0.001,0.011128102727937248,0.008283173817696061,15.942982895569232,0.01137971655643771,0.009423734340816736
293,0.25,0.001,0.011160484983720494,0.008345897104473983,15.772951851850786,0.011258352499536608,0.010868491698056459
294,0.25,0.001,0.011106445946080505,0.008209107736559034,16.236683119767868,0.011589352690769356,0.011414957977831364
295,0.25,0.001,0.011065384068485326,0.008238849470263007,15.83989919506529,0.011306137897976652,0.015152856893837451
296,0.25,0.001,0.011114204817879125,0.008329087361669953,15.607797406754404,0.011140469241080945,0.015530161000788212
297,0.25,0.001,0.011201054894558663,0.00835923108406974,15.925581242303428,0.011367295676162332,0.013318446278572083
298,0.25,0.001,0.011267715883470556,0.008412851565429624,15.998659901648947,0.011419457460134867,0.014006650261580943
299,0.25,0.001,0.011131326263805605,0.00824812569497329,16.157456835860724,0.011532802880700018,0.014312123786658049
300,0.25,0.001,0.011083369114020336,0.008250346325291027,15.876259713802698,0.01133209115903119,0.01136769074946642
301,0.25,0.001,0.011145417080641543,0.008368133737137483,15.563894625729734,0.011109132495167548,0.013715908862650394
302,0.25,0.001,0.011030930510294513,0.008238905964641826,15.646504864002923,0.011168097690223356,0.010080470703542233
303,0.25,0.001,0.011156374219594136,0.008321341367309573,15.887524544817847,0.01134013172363872,0.013142431154847145
304,0.25,0.001,0.0111485713003379,0.008314066267800782,15.884566852881473,0.011338020594490702,0.012227407842874526
305,0.25,0.001,0.01108718474846591,0.008194442668566539,16.21092789727937,0.011570969234317894,0.011570144165307283
306,0.25,0.001,0.011059723079860586,0.008256523723497331,15.709130089238005,0.011212798065123488,0.010375658888369799
307,0.25,0.001,0.011080296440694318,0.008270477102893704,15.746227000494423,0.011239276945392165,0.011163965612649918
308,0.25,0.001,0.011015226701333088,0.008153612045981225,16.036488407063036,0.011446458534663124,0.007352313306182623
309,0.25,0.001,0.01105282263560865,0.00819871245455817,15.994432401357207,0.011416439972417706,0.011360176838934422
310,0.25,0.001,0.011028842871668953,0.008186536946527238,15.92828183204123,0.011369223291963762,0.01125413253903389
311,0.25,0.001,0.011153559733486775,0.00832621809153718,15.844422586309085,0.011309366585516834,0.017632508464157582
312,0.25,0.001,0.01120751226356007,0.008323047069961545,16.164543295806308,0.011537861024843903,0.01778957322239876
313,0.25,0.001,0.011151533667583886,0.0082631686895664,16.18639721660494,0.01155345982627048,0.016092527844011783
314,0.25,0.001,0.01105922631591371,0.008162910921159405,16.230951129265552,0.011585261334236653,0.013441144116222858
315,0.25,0.001,0.011024268414333181,0.00827727023418407,15.394178042621732,0.01098799289266362,0.011138900928199292
316,0.25,0.001,0.011010834121338601,0.008242317668671877,15.514765517516706,0.011074065322995508,0.011237073130905629
317,0.25,0.001,0.011037188043243855,0.008126616846980914,16.310840390763193,0.011642284361715341,0.008987190760672092
318,0.25,0.001,0.010957540346766418,0.008062959033644424,16.221234591502064,0.011578325903998618,0.01021156907081604
319,0.25,0.001,0.011050352053541058,0.008300417594892799,15.41063382490626,0.010999738633052291,0.01224692603573203
320,0.25,0.001,0.011140753140192737,0.008289740743033541,15.977072385871935,0.011404048812185536,0.012805481627583503
321,0.25,0.001,0.01109501875280959,0.00811301096219499,16.71117144410715,0.011928031009355569,0.010399466566741466
322,0.25,0.001,0.011026706159958299,0.008100336903717907,16.399373444371253,0.011705477119465563,0.013667223416268826
323,0.25,0.001,0.01101416278536777,0.008263658228441604,15.413828178021893,0.011002018685240466,0.011233499087393285
324,0.25,0.001,0.011139308612020511,0.008327427607193683,15.75778178448947,0.011247524471441448,0.0181346470490098
325,0.25,0.001,0.011074665131387097,0.008163118313224811,16.316309179150082,0.011646187850927968,0.015319404751062393
326,0.25,0.001,0.011054571261102299,0.00821694781500026,15.902041279294956,0.011350493418483194,0.014051164127886295
327,0.25,0.001,0.011078969358741862,0.00823495108282791,15.9378790945377,0.01137607358639379,0.012083745002746582
328,0.25,0.001,0.011043224343151416,0.00823337240906069,15.746410939678457,0.01123940823674408,0.009860290307551622
329,0.25,0.001,0.011049778680990703,0.008165213642583328,16.16510246084921,0.01153826014336132,0.010075799375772476
330,0.25,0.001,0.011067274477590554,0.008200959946796205,16.06282586271658,0.011465257575101057,0.008669772651046515
331,0.25,0.001,0.011046977010819147,0.008203487465474403,15.934915254700858,0.011373958069022739,0.008568512555211783
332,0.25,0.001,0.011015116629548042,0.008200136446774756,15.775148661631459,0.011259920529358643,0.009423927590250968
333,0.25,0.001,0.011041338983103164,0.00814059401903325,16.255775775549548,0.011602980567844074,0.008680024556815625
334,0.25,0.001,0.010931507795580529,0.00800615234546504,16.393691590746993,0.011701421549426832,0.008731254749000073
335,0.25,0.001,0.01097955715215806,0.008255509111983408,15.265566382018275,0.01089619299216151,0.015832868963479997
336,0.25,0.001,0.011059510539162834,0.008278710129172922,15.583605412417239,0.01112320157917005,0.016445183474570513
337,0.25,0.001,0.011165987735368171,0.008246345129215493,16.361676605992347,0.01167857002569047,0.014452828839421273
338,0.25,0.001,0.011059744137122572,0.008117687293919939,16.48728682559991,0.011768227570021349,0.012632586993277073
339,0.25,0.001,0.01110849604479172,0.008308067636669806,15.693600360702419,0.011201713319559185,0.009604693297296763
340,0.25,0.001,0.011044996919450146,0.008246882355906678,15.68063514037702,0.011192459058084954,0.011158840171992779
341,0.25,0.001,0.011104949697289826,0.008232608408251274,16.096601666144604,0.011489365928725627,0.008885920885950327
342,0.25,0.001,0.011074344902855795,0.008141750176935076,16.43426002046597,0.011730378315821535,0.010198530368506908
343,0.25,0.001,0.011040520157266713,0.008179796174309164,16.031497175588548,0.011442895914053211,0.008531230501830578
344,0.25,0.001,0.01097103586689856,0.008191600828519408,15.57595454521899,0.011117740574745889,0.009568258561193943
345,0.25,0.001,0.010993193038417108,0.008154009591858342,15.910785015274143,0.011356734486277047,0.010924370773136616
346,0.25,0.001,0.010980902509119525,0.008062878541601528,16.352605951657086,0.01167209561146116,0.012545282952487469
347,0.25,0.001,0.010978978976560463,0.008200123103675228,15.57270815987257,0.011115423383206688,0.011682911217212677
348,0.25,0.001,0.010989712621524648,0.008173103139694757,15.784279181522393,0.011266437674177298,0.010597659647464753
349,0.25,0.001,0.010867567527922069,0.007973200694288848,16.220032571996533,0.011577467931475042,0.012492829747498036
350,0.25,0.001,0.010886277323998746,0.0080932691084139,15.652018804970028,0.011172033408258408,0.011470698658376932
351,0.25,0.001,0.011006564885940193,0.008243185807745787,15.485975775328821,0.011053515899592307,0.010218294523656368
352,0.25,0.001,0.01103538296437301,0.008174221218803769,16.033951603391635,0.01144464782540445,0.014636976644396782
353,0.25,0.001,0.011046668702045327,0.008084255045150998,16.601366948781525,0.011849655209694165,0.010749237425625325
354,0.25,0.001,0.011020693394982215,0.008196454711914438,15.827033438772526,0.011296954631529283,0.010594748705625535
355,0.25,0.001,0.011011727663846511,0.008218462953824291,15.653455740250882,0.011173059057994919,0.011150543950498104
356,0.25,0.001,0.01103252187699267,0.00819837871892085,15.882538045727232,0.011336572480890244,0.009008800704032182
357,0.25,0.001,0.011024652318384662,0.008086022920906544,16.46807976488797,0.011754518033467503,0.009960613213479519
358,0.25,0.001,0.010927934328433853,0.008117238053782555,15.7511424838372,0.011242785498813133,0.01219421960413456
359,0.25,0.001,0.011015937095449405,0.008285309516080896,15.302438520035654,0.010922511434714956,0.014498057775199413
360,0.25,0.001,0.010952771822892645,0.008110509277467832,15.928039970637867,0.011369050657129098,0.009725599363446236
361,0.25,0.001,0.010945536412954706,0.00801236970268143,16.437466159556646,0.011732666780554351,0.008163566142320633
362,0.25,0.001,0.010979835600035745,0.00817158884433268,15.73741677122296,0.011232988416290479,0.009548973198980093
363,0.25,0.001,0.010900469344554457,0.008075946285945814,15.828626968575724,0.011298092054657904,0.010144332330673933
364,0.25,0.001,0.010906202911908896,0.008116352070216675,15.634324385684991,0.011159403558661664,0.011774160526692867
365,0.25,0.001,0.010854285655531494,0.008032874350652754,15.811190761110318,0.011285646510428493,0.0100882432423532
366,0.25,0.001,0.010918797462382031,0.008146180320273406,15.537745631715786,0.011090467974101204,0.010223818197846412
367,0.25,0.001,0.010923603397307906,0.008061893747053432,16.037021660954697,0.011446839158425908,0.010835825558751821
368,0.25,0.001,0.010927695962571123,0.008136256829302453,15.643225729840356,0.011165757123369277,0.010907717701047658
369,0.25,0.001,0.010937374014899416,0.008133546402385025,15.712649933197213,0.011215310444823136,0.01152952890843153
370,0.25,0.001,0.010956449205723574,0.008121637229180936,15.886286873487556,0.011339248303702752,0.014734829403460025
371,0.25,0.001,0.01087165439395972,0.00800121764201413,16.08592739944938,0.011481746894681927,0.010581514146178961
372,0.25,0.001,0.010920464406785724,0.00816636704166168,15.433961670353728,0.011016389486333853,0.011131169833242893
373,0.25,0.001,0.010934223415060612,0.008162144671118109,15.534728440098792,0.011088314375516625,0.009898475371301174
374,0.25,0.001,0.010888090122889422,0.008028251979992075,16.02653318681057,0.01143935273862282,0.010665985569357873
375,0.25,0.001,0.010942931175700523,0.008044042194016138,16.24537496746711,0.011595556721960821,0.01187699669972062
376,0.25,0.001,0.010891907180677046,0.008059889224574625,15.870627961068783,0.011328071349799273,0.011799547635018826
377,0.25,0.001,0.010991260198489675,0.008167010169687136,15.827097508892324,0.011297000363235063,0.01251424364745617
378,0.25,0.001,0.010877631223942124,0.008073871961132911,15.712267593767658,0.011215037540162497,0.011030777543783187
379,0.25,0.001,0.01084704930255623,0.008012637484279819,15.884043387646946,0.011337646957635223,0.010472905915230512
380,0.25,0.001,0.01089235561542541,0.00811679263851084,15.554254363917705,0.011102251508863459,0.010584223084151745
381,0.25,0.001,0.010798683858611298,0.007966895095722855,15.86934330778302,0.01132715439527696,0.01021562358364463
382,0.25,0.001,0.010926278964059908,0.008174534424342824,15.420775953328834,0.011006977839635142,0.0127393813803792
383,0.25,0.001,0.010927257403356474,0.008079919852784969,15.956481117872322,0.011389351261864612,0.0118957394734025
384,0.25,0.001,0.010924680726661248,0.008027325308172958,16.236778727117574,0.01158942093298899,0.01148341577500105
385,0.25,0.001,0.010848305820715878,0.008043422234836239,15.718567056475946,0.0112195339446652,0.008671025279909372
386,0.25,0.001,0.010826878741664707,0.00802480456354858,15.702823129090124,0.011208296309129282,0.008966625668108463
387,0.25,0.001,0.010860371280391261,0.008026119163435584,15.883149614873922,0.011337009004192664,0.010467828623950482
388,0.25,0.001,0.010805274143159014,0.008015210500115869,15.63551701839615,0.01116025483111788,0.009786421060562133
389,0.25,0.001,0.010850493702451763,0.008088976484518381,15.47554247634216,0.011046068862485482,0.010260679665952921
390,0.25,0.001,0.01088324629074935,0.00809498741613619,15.625403434225598,0.011153035998733475,0.009548061527311802
391,0.25,0.001,0.01085411206051801,0.008023462357854692,15.862961097333416,0.011322598927432845,0.009820018336176873
392,0.25,0.001,0.010848291968024752,0.008006568060918423,15.925020703729594,0.011366895577251674,0.009135538339614868
393,0.25,0.001,0.010821621583880118,0.008052992716478477,15.515396022196835,0.011074515362024865,0.008471639640629292
394,0.25,0.001,0.010893187163479673,0.00810742838038776,15.611392087156668,0.011143035037228171,0.011726235598325729
395,0.25,0.001,0.010869667841906443,0.008049153227874506,15.806164891464904,0.01128205916592784,0.011392543278634547
396,0.25,0.001,0.010779215263073924,0.007940157849646214,15.910077892759311,0.011356229759285732,0.010537840332835913
397,0.25,0.001,0.010786000246756107,0.008025000557162851,15.472641986870915,0.011043998563077027,0.011228304356336594
398,0.25,0.001,0.010851877559937021,0.008086536928964485,15.496968173380917,0.011061362008123424,0.012549662590026855
399,0.25,0.001,0.010878186907220937,0.008019595471380642,16.01954664674195,0.011434365914876482,0.011597425863146781
400,0.25,0.001,0.01091336595984,0.008084160398762181,15.854868570963541,0.011316822677347281,0.014385413751006127
401,0.25,0.001,0.01082958579180563,0.008008570099870363,15.808972292726144,0.011284063021217804,0.010139444842934608
402,0.25,0.001,0.010871888888097784,0.008030658523382255,15.922254178509023,0.011364920898293378,0.011008672509342432
403,0.25,0.001,0.010943161464243565,0.008115917619950366,15.843875069288337,0.011308975781076615,0.011305713094770908
404,0.25,0.001,0.010906723866813213,0.0079531426272068,16.551869518352003,0.011814325138009995,0.010756059922277928
405,0.25,0.001,0.010813380070264984,0.007929071461863862,16.1636660413922,0.011537234861807424,0.013464060425758363
406,0.25,0.001,0.010788514911425564,0.008052366486978981,15.333375049087236,0.01094459318278889,0.010787946730852127
407,0.25,0.001,0.010939626374615813,0.00811113907410851,15.850842943731344,0.01131394928174971,0.0125826146453619
408,0.25,0.001,0.01078188511888561,0.00788864364507813,16.213725419914198,0.011572966038482653,0.011534660868346692
409,0.25,0.001,0.01086090727117639,0.008082759824329577,15.568739033345157,0.011112590316449077,0.00980739425867796
410,0.25,0.001,0.010841491755168393,0.008051417492704946,15.635576104218105,0.01116029700515211,0.008742489013820886
411,0.25,0.001,0.010824843585116308,0.008004170382664827,15.80705312213058,0.01128269316354788,0.00905704004690051
412,0.25,0.001,0.010862875554078031,0.008020288917183314,15.929856918143026,0.011370347550423288,0.010078784357756377
413,0.25,0.001,0.010831585282799584,0.007971477788527432,16.028043183140785,0.011440430537573721,0.009759199805557728
414,0.25,0.001,0.010805519614017234,0.008001210598521075,15.715346870182445,0.011217235453377905,0.010080948192626237
415,0.25,0.001,0.010776384973769667,0.00801473196139032,15.4763033285081,0.011046611940405496,0.01108807697892189
416,0.25,0.001,0.010775657224252165,0.007983402272908943,15.647797386601287,0.011169020261671153,0.010921861976385117
417,0.25,0.001,0.010805500190962785,0.0079579758106397,15.957527040685498,0.011390097816335116,0.010912044160068034
418,0.25,0.001,0.010789757641325207,0.008042788712905263,15.394013836698711,0.010987875686437339,0.015011448040604591
419,0.25,0.001,0.010818375508833982,0.008051557999408845,15.505244327041337,0.011067269326938856,0.010715975798666478
420,0.25,0.001,0.010817839916350332,0.008009267039597034,15.739242475737566,0.011234291560126742,0.012715142965316773
421,0.25,0.001,0.010749260443936355,0.007960863153702058,15.626178015702925,0.01115358887630473,0.010130268149077892
422,0.25,0.001,0.010770808331340365,0.007987002402825176,15.600447768685203,0.011135223246741759,0.008766630478203297
423,0.25,0.001,0.010790445051103268,0.007985715777759656,15.717701857944704,0.011218916386827055,0.009807293023914098
424,0.25,0.001,0.01080106572488194,0.008043728552102667,15.452117272143093,0.01102934851687587,0.010351101495325565
425,0.25,0.001,0.010829448155215327,0.007998317070071053,15.865658142281779,0.011324524013049092,0.014823972713202238
426,0.25,0.001,0.01083306350844836,0.007939028363300007,16.218172205319195,0.011576140046623266,0.009890025667846202
427,0.25,0.001,0.010802532645797579,0.007992904404846003,15.745157343786467,0.011238513450240161,0.010922818258404732
428,0.25,0.001,0.010781563056996034,0.008001437305279498,15.579824405646175,0.011120502787756014,0.012525390461087227
429,0.25,0.001,0.010790042005151324,0.007975026645914375,15.775346348120731,0.011260061633205375,0.009669028874486684
430,0.25,0.001,0.01077803862193283,0.007962788888634002,15.776660127459833,0.01126099937720188,0.00938666071742773
431,0.25,0.001,0.010754757601791207,0.00798060463261117,15.54635231449919,0.0110966112166304,0.010857933200895786
432,0.25,0.001,0.0107565673665618,0.007937093145278452,15.800334762477275,0.011277897760511973,0.011882796883583069
433,0.25,0.001,0.010738543170334408,0.007980204292766328,15.457731354911372,0.011033355713712613,0.011098171211779117
434,0.25,0.001,0.010684457062831465,0.007921035076438819,15.48621707892268,0.011053688136276003,0.00946931131184101
435,0.25,0.001,0.01081009132424428,0.00803993136252997,15.52397600209938,0.011080639544681926,0.009049149695783854
436,0.25,0.001,0.01075468548579411,0.007941116391440982,15.767242383657011,0.011254277218884376,0.009479773789644241
437,0.25,0.001,0.010720941150244677,0.007941994933212328,15.573213073442567,0.011115783778331596,0.010265347827225924
438,0.25,0.001,0.010713778231175815,0.007977389431786988,15.3347232386751,0.010945555487990793,0.009636241756379605
439,0.25,0.001,0.010732792540447516,0.007935801023066794,15.67434124976584,0.011187966630810736,0.012758227065205574
440,0.25,0.001,0.010764998834837907,0.007959657823139767,15.721130928903255,0.01122136397494879,0.009176043048501014
441,0.25,0.001,0.010723715730058323,0.007951887339095838,15.533325135332984,0.011087312730430395,0.01071065068244934
442,0.25,0.001,0.010814254178003696,0.007972911711922794,15.922882397969564,0.011365369306188125,0.01187087558209896
443,0.25,0.001,0.010763542650490062,0.007922334133782101,15.922132552044946,0.011364834084257635,0.009855415672063828
444,0.25,0.001,0.010769752516124234,0.007959778666636854,15.747093602546355,0.011239895505029518,0.00975810419768095
445,0.25,0.001,0.010819714106385063,0.00801325189945458,15.727415012863448,0.011225849402472125,0.010476437397301197
446,0.25,0.001,0.01076159304089891,0.007976745920103489,15.606283211858017,0.011139388445294801,0.010508874896913767
447,0.25,0.001,0.010820701747617257,0.00804745095471541,15.5412984284215,0.011093003874676302,0.014512078650295735
448,0.25,0.001,0.010847986880807008,0.00799250145554074,16.00214059697757,0.011421941896486487,0.010502873081713915
449,0.25,0.001,0.010815972175285127,0.007896221418566298,16.362282764986627,0.011679002687356622,0.011938253231346608
450,0.25,0.001,0.010770673705440647,0.008008434074058098,15.479591213682163,0.011048958753520459,0.01295842956751585
451,0.25,0.001,0.010775006247344631,0.008005770842937179,15.518796243007827,0.0110769423576073,0.014625863544642926
452,0.25,0.001,0.010762758412451114,0.007939657931503072,15.820657274258211,0.011292403479127917,0.011141285300254822
453,0.25,0.001,0.010867688787292759,0.008009276721837386,16.01854044836272,0.011433647714748552,0.011264153942465781
454,0.25,0.001,0.010787029651069792,0.007911689008392815,16.113409054354303,0.011501362636940973,0.011710132658481597
455,0.25,0.001,0.010718459134581703,0.007948379623908666,15.523525585918307,0.01108031804847845,0.011765535734593869
456,0.25,0.001,0.010753014458800262,0.007931166785365006,15.813634056715095,0.01128739047588515,0.010403968207538129
457,0.25,0.001,0.01081456341810009,0.007941478435770146,16.100768467165388,0.011492340090767586,0.010441330075263978
458,0.25,0.001,0.010668692887766557,0.0078687320035771,15.690981097191385,0.011199843752456378,0.009641642775386572
459,0.25,0.001,0.010817547756358513,0.00806623211118785,15.418375009260837,0.01100526410368368,0.011331536620855332
460,0.25,0.001,0.010722789532686555,0.007855432403842046,16.068669361138493,0.01146942852329657,0.00979912281036377
461,0.25,0.001,0.010738378859259797,0.007803569987135113,16.446668972759127,0.011739235526594666,0.011083926912397147
462,0.25,0.001,0.010648150998606996,0.007929821914565639,15.233517220934981,0.010873317074186283,0.009906400367617607
463,0.25,0.001,0.010610381609894944,0.007867871736814766,15.36902546432783,0.010970039589099093,0.010072298254817725
464,0.25,0.001,0.010682646278877678,0.007912895525073481,15.521683039155397,0.011079002883051674,0.009351179655641317
465,0.25,0.001,0.010710881999547377,0.007923937780466283,15.618036000233776,0.01114777730209406,0.01199866309762001
466,0.25,0.001,0.010754432769363406,0.007925924821610347,15.850959154045057,0.011314032229867993,0.014209801703691483
467,0.25,0.001,0.010656074175622853,0.007899598189213741,15.447290630460536,0.011025903376488606,0.010974293202161789
468,0.25,0.001,0.01071248210544856,0.007974841216075345,15.34173991845089,0.01095056382473297,0.011082186456769704
469,0.25,0.001,0.010726091387511799,0.007937269882773454,15.628557265179712,0.011155287127180379,0.010398325230926275
470,0.25,0.001,0.010675733352560291,0.007849061972924374,15.840666069174713,0.011306685274214641,0.010380505118519068
471,0.25,0.001,0.010693998052592173,0.007946417901266671,15.397439014986626,0.010990320496064687,0.012434862740337848
472,0.25,0.001,0.010722347306755354,0.007912654136805414,15.745519752022606,0.011238772128495793,0.013022614270448684
473,0.25,0.001,0.01073256448356423,0.007892676040459916,15.91473488837668,0.011359553810404483,0.009942698385566473
474,0.25,0.001,0.01085502600426194,0.008006292981031182,15.964300455537233,0.011394932516443421,0.013604945316910744
475,0.25,0.001,0.010679183106096286,0.007829150829300191,15.971581225125295,0.011400129354122266,0.012020720355212688
476,0.25,0.001,0.010744021608019775,0.007997158545789853,15.393421065132573,0.010987452580394413,0.014323866367340088
477,0.25,0.001,0.010769710038443032,0.008040635644475807,15.29373389070139,0.010916298280300777,0.011486788745969534
478,0.25,0.001,0.010736071604227869,0.00790648556273407,15.856999667185658,0.011318343802416602,0.013462947867810725
479,0.25,0.001,0.010757641890232667,0.007945996955177694,15.756459158171648,0.011246580412684974,0.012542331963777542
480,0.25,0.001,0.010909598191860336,0.008131361671916719,15.569237319178551,0.011112945980855497,0.012703929096460342
481,0.25,0.001,0.010735741377157985,0.007836011583981273,16.250086118590158,0.01159891942797299,0.012258365005254745
482,0.25,0.001,0.01073665949135269,0.007907912556855183,15.852297369039283,0.011314987415445598,0.008635805081576109
483,0.25,0.001,0.01069852914192579,0.00792159979471808,15.561912908494097,0.011107717993214916,0.010373010952025651
484,0.25,0.001,0.010694886493326733,0.007909237386647073,15.610776607345485,0.011142595722587785,0.008788820169866086
485,0.25,0.001,0.01062164989844808,0.007861855445699123,15.465888431237179,0.011039178037999415,0.011469821818172932
486,0.25,0.001,0.010773247465163283,0.00790365209580405,16.081213213362783,0.011478382022385998,0.009495041519403457
487,0.25,0.001,0.010752339167930421,0.007856368462104092,16.22902054456795,0.011583883329456066,0.009089497197419406
488,0.25,0.001,0.010715600548300354,0.007906134117324397,15.744249655765557,0.011237865564429378,0.010720980353653431
489,0.25,0.001,0.010763994845672973,0.007941039823839124,15.819838559852457,0.011291819100537085,0.012768154963850975
490,0.25,0.001,0.010725472766742017,0.007922935721306305,15.705418976597816,0.01121014916245383,0.013611853867769242
491,0.25,0.001,0.010663657168031863,0.007848185923465955,15.777901679464856,0.011261885567069847,0.009773390926420688
492,0.25,0.001,0.010678193754510684,0.00792386138272829,15.435278064799759,0.011017329096930591,0.010892653092741966
493,0.25,0.001,0.010663129494718785,0.007894070092705811,15.517809525975641,0.011076238062794891,0.009161023888736963
494,0.25,0.001,0.010629412208525639,0.007828806720252306,15.694592493884969,0.011202421480289057,0.011724782921373845
495,0.25,0.001,0.010671292267646055,0.007883959238962183,15.620214006435946,0.011149331910375407,0.010141458828002214
496,0.25,0.001,0.010709494352340698,0.007924079988737526,15.609462492121091,0.011141657738844462,0.012647159211337567
497,0.25,0.001,0.010648676241109581,0.007791374446882767,16.012318965024168,0.011429206970038663,0.010451673623174429
498,0.25,0.001,0.010661959689133946,0.007923164832517036,15.348206508084663,0.010955179520403042,0.008807664457708596
499,0.25,0.001,0.010644831360792214,0.007868831587732775,15.556703963369694,0.01110399997385417,0.00864255502820015
500,0.25,0.001,0.010721970472555116,0.00792841422928017,15.655090236064023,0.011174225721673108,0.011723621934652328
