epoch,beta,learning_rate,train_loss,train_reconstruction_loss,train_kl_unnormalized,train_kl_normalized,mean_unclipped_gradient_norm
1,0.0,0.001,0.07687232662469913,0.07687232662469913,60.272850745763535,0.04302130674215813,0.12316031434706279
2,0.02,0.001,0.05752946849747415,0.05103346764485597,455.04493951686334,0.3248000995837711,0.1105538819517408
3,0.04,0.001,0.0452815635880946,0.040391621403482965,171.27020648698428,0.1222485413897104,0.07716284426195281
4,0.06,0.001,0.03819528010202732,0.035931148129951705,52.86749121748206,0.03773553976979448,0.09777080879679748
5,0.08,0.001,0.03611099541117817,0.03298725338874163,54.70454043052691,0.03904678117810629,0.0733801464417151
6,0.1,0.001,0.03445729282456678,0.031699865079530466,38.631552093790404,0.027574269874225843,0.03565308491566351
7,0.12,0.001,0.03303165506302338,0.031062951745652097,22.984618238080074,0.01640586598007143,0.027058056954826628
8,0.14,0.001,0.031047413546791722,0.02903386811988476,20.149834910750666,0.014382466031941946,0.033629300604973524
9,0.16,0.001,0.02813974203485431,0.025233135682406958,25.45097443107125,0.018166291528245,0.029084181679146632
10,0.18,0.001,0.026191958623540984,0.02248314557062996,28.866928442930565,0.0206045170898862,0.020277492435915128
11,0.2,0.001,0.024605719229349725,0.020726458809939854,27.174220091813094,0.019396302706504706,0.02461233109767948
12,0.22,0.001,0.024111799795901303,0.020258746411660058,24.53694450271713,0.017513879016928715,0.05070496603314366
13,0.24,0.001,0.02352745106361268,0.019769696861783384,21.935889588647232,0.015657308771339924,0.03602517848568303
14,0.25,0.001,0.023351508416322282,0.01962680157734242,20.87325717241336,0.014898827389302899,0.04202657286077738
15,0.25,0.001,0.02293864956737815,0.01934877761785106,20.11764146231271,0.014359487125133984,0.04897156570638929
16,0.25,0.001,0.02277517115527933,0.0189995681801876,21.158479383775404,0.015102412122609139,0.044662010456834524
17,0.25,0.001,0.02245131803628726,0.019055127242193635,19.03225355881911,0.013584763425281306,0.04597665475947516
18,0.25,0.001,0.022327832321881694,0.018715092221965324,20.24579481645064,0.01445095989753793,0.048391111860317845
19,0.25,0.001,0.02213020479449859,0.01860829754048711,19.736768326837144,0.014087629069833792,0.02737151033111981
20,0.25,0.001,0.02211559362414278,0.01851506104436649,20.17738446766958,0.014402130241020399,0.022603314769055163
21,0.25,0.001,0.021674183759586515,0.018025671351171318,20.4462634622356,0.014594049580467951,0.02601463347673416
22,0.25,0.001,0.021839215847856794,0.018316458298505603,19.741533572857197,0.01409103038747837,0.04819518953029599
23,0.25,0.001,0.02169743784657725,0.01819295644551724,19.639112174649895,0.014017924464418198,0.03361583647451231
24,0.25,0.001,0.02158284288047355,0.01796601383592977,20.26870928055201,0.01446731568918773,0.04062005611402648
25,0.25,0.001,0.021354142190033183,0.017861900881523295,19.570518991608164,0.01396896430521639,0.023281819320150783
26,0.0,0.001,0.017035721944501765,0.017035721944501765,25.21201697929756,0.017995729464166707,0.0213127483480743
27,0.02,0.001,0.01638939542074998,0.015656071289557538,51.369356702257704,0.03666620749625817,0.017313724250665734
28,0.04,0.001,0.01689477452448198,0.014840897394122777,71.9370503281102,0.051346930997937336,0.025607505680194924
29,0.06,0.001,0.017590136898981108,0.014764909745391571,65.96905589603878,0.04708712055391776,0.016369006596505642
30,0.08,0.001,0.01770231486808309,0.01508469719847877,45.84102786226428,0.03272021974465688,0.025005047608699118
31,0.1,0.001,0.017988805869694077,0.015624212483182931,33.12795218887862,0.02364593303988481,0.024573588078575476
32,0.12,0.001,0.018398708058195514,0.015683514610940204,31.699879964192707,0.022626609539038334,0.024646669360143796
33,0.14,0.001,0.018680170517076145,0.015598750623303416,30.836208979288738,0.022010142026615803,0.0287178695601012
34,0.16,0.001,0.019045133312994785,0.015733500547481304,28.997484460577265,0.02069770482553695,0.03566508048347065
35,0.18,0.001,0.019168242998855375,0.01580566720763495,26.172045011898298,0.01868097431256124,0.02428864368370601
36,0.2,0.001,0.019190365292288205,0.015823179621483895,23.587136968866094,0.016835929313965804,0.017208154579358443
37,0.22,0.001,0.019463196839694375,0.015880368450235376,22.816103915234546,0.01628558452193758,0.02079291788062879
38,0.24,0.001,0.01967807845722684,0.0159351535679855,21.849325162269576,0.015595521172212402,0.020954458974301815
39,0.25,0.001,0.019339680845365102,0.015632928060345993,20.772643456092247,0.014827011745961632,0.016764236081923758
40,0.25,0.001,0.01922441759344303,0.015681272129460928,19.855790082669202,0.014172583927672521,0.02141260275883334
41,0.25,0.001,0.019019065759120844,0.015368354239768081,20.458587659822477,0.0146028462953765,0.01694691593625716
42,0.25,0.001,0.018520763873324526,0.014979994215401181,19.842472912270427,0.014163078452726928,0.016734575586659566
43,0.25,0.001,0.018486000471563884,0.014870665541965089,20.260339808075024,0.014461341761652409,0.02935846841761044
44,0.25,0.001,0.017856126533938456,0.014185607188005687,20.56959037958603,0.014682077358733784,0.0148441496837352
45,0.25,0.001,0.017583575394951104,0.014184228263986416,19.049944150697936,0.013597390542967835,0.019979177242411033
46,0.25,0.001,0.01708636675594431,0.013520669556789464,19.98216653481508,0.014262788390303411,0.017338140135897056
47,0.25,0.001,0.016714088071684736,0.013276424832068957,19.264663602922347,0.01375065210772473,0.021953249084097997
48,0.25,0.001,0.016497812882968872,0.013027573927003882,19.447220542214133,0.01388095684669103,0.020684435963630676
49,0.25,0.001,0.01636124254662396,0.012976468100032328,18.9682758482464,0.01353909767897673,0.03500569738181574
50,0.25,0.001,0.016122348081225004,0.012770195148607373,18.78546562283745,0.013408612150490684,0.035326972736843994
51,0.0,0.001,0.011891368511708189,0.011891368511708189,24.29940119212046,0.017344326332705537,0.02594838903418609
52,0.02,0.001,0.011422617115636111,0.010735658451150626,48.12145796911422,0.03434793573812578,0.01857531868985721
53,0.04,0.001,0.01189904495431132,0.010104218602076278,62.863799995475716,0.04487066380833384,0.012751770471887929
54,0.06,0.001,0.012298744862208832,0.009924234477216964,55.44481877680425,0.039575174002001605,0.015597694952573096
55,0.08,0.001,0.012455871178918368,0.010255993602228609,38.52535762653484,0.027498470825506667,0.018782298878899643
56,0.1,0.001,0.012800578941918892,0.010696366722402456,29.480011613218934,0.02104212106582365,0.01143913296982646
57,0.12,0.001,0.013033213706074895,0.010485532239843637,29.744181919764806,0.02123067945736246,0.008649871684610844
58,0.14,0.001,0.013449153296284742,0.010667712475435857,27.834276430534594,0.0198674349968127,0.012963110581040382
59,0.16,0.001,0.013720677483887661,0.010707155180474123,26.387154701428535,0.018834514419292316,0.011500071068959576
60,0.18,0.001,0.013837894044885963,0.010773550156755742,23.85080986645394,0.01702413266699068,0.01621487577046667
61,0.2,0.001,0.014201435926945616,0.011013427397587917,22.3319991585258,0.01594004222592848,0.016428830368178233
62,0.22,0.001,0.0144776310380939,0.011120928455760707,21.376093075269864,0.015257739525531666,0.011389900131949357
63,0.24,0.001,0.014721540907845075,0.011233573901035012,20.361009148728876,0.014533197108300411,0.013117139227688313
64,0.25,0.001,0.014828825352109951,0.011281343278993954,19.880090202207054,0.01418992876674308,0.028705562597938945
65,0.25,0.001,0.014903549756203498,0.011504597744811109,19.04772537071388,0.013595806831344669,0.03119790381086724
66,0.25,0.001,0.014633542934046203,0.011163236996666952,19.447594933854393,0.013881224078411416,0.01390725334307977
67,0.25,0.001,0.014564869699604584,0.011368041819000578,17.91502418162384,0.012787312049695816,0.01443716577653374
68,0.25,0.001,0.014557659482726684,0.011163032351013942,19.023490847963274,0.013578508813678282,0.012959051677691085
69,0.25,0.001,0.014473678118664346,0.011185215935892575,18.428541792578354,0.013153848531462066,0.019468157552182674
70,0.25,0.001,0.01451387704460771,0.011180945745905935,18.67774701507497,0.013331725207048516,0.015449321030506067
71,0.25,0.001,0.0143537324199796,0.011031858036880726,18.61578551872627,0.01328749858581461,0.01177605680589165
72,0.25,0.001,0.01439865034872488,0.011089107345155764,18.54667911662922,0.013238172103232849,0.02279134959514652
73,0.25,0.001,0.014230027132708848,0.011040862923214486,17.872075003065984,0.012756655962216977,0.01760306056322796
74,0.25,0.001,0.014172020696086205,0.011070429080432945,17.381319868536817,0.01240636678696418,0.02960092108696699
75,0.25,0.001,0.014099752246065713,0.01100068064818988,17.367196303147537,0.012396285726729149,0.02055438727672611
76,0.0,0.001,0.010386203689227155,0.010386203689227155,23.121399308140184,0.016503497007951593,0.01772472940917526
77,0.02,0.001,0.010018160785950008,0.009367117046059428,45.60560671043841,0.03255218180616589,0.011485443383987461
78,0.04,0.001,0.010543945612329426,0.008861884865519051,58.91418274743852,0.04205152230366775,0.011587650249046939
79,0.06,0.001,0.01099002000057336,0.008882980906602108,49.19935766188971,0.035117314533825626,0.010948359966278076
80,0.08,0.001,0.011075029158335187,0.009155932462194583,33.60818390746217,0.023988710854719607,0.011512031313031912
81,0.1,0.001,0.011418155926368731,0.009481538254290055,27.13201192042211,0.01936617553206432,0.009430295055998223
82,0.12,0.001,0.011780428176958522,0.009480127489459126,26.856012348806384,0.019169173696507055,0.00929725861975125
83,0.14,0.001,0.012047929763099253,0.009502402257113468,25.473456834023928,0.018182338925070613,0.01445052440145186
84,0.16,0.001,0.012305966493758288,0.0096364522804365,23.37493454993188,0.01668446434684645,0.013728877263409751
85,0.18,0.001,0.012691149218897997,0.009859088940723931,22.042869438936105,0.015733668407520416,0.015040091970669371
86,0.2,0.001,0.012818720845162591,0.009794929305781852,21.181659111609825,0.015118957253111938,0.011310758135680641
87,0.22,0.001,0.01325518472906037,0.01008769346613845,20.17115955308323,0.014397687047168614,0.015320051860596453
88,0.24,0.001,0.01344771966303423,0.01014396299701401,19.285680281810272,0.013765653306074427,0.015246067794838123
89,0.25,0.001,0.013558726571066118,0.010347265233491961,17.997029853589606,0.012845845719906927,0.01752622119550194
90,0.25,0.001,0.01350630705607382,0.01023590712132918,18.32732189952077,0.0130816002137907,0.019075537033911263
91,0.25,0.001,0.013629030649027069,0.010414990375039878,18.011482092050407,0.012856161379050969,0.02002247582588877
92,0.25,0.001,0.013485419203577202,0.010304095236571519,17.82813903612968,0.012725295529000485,0.021954554997916733
93,0.25,0.001,0.013580215829999853,0.010422321027774356,17.69684238033695,0.012631579143709458,0.02670827547886542
94,0.25,0.001,0.013583073101607791,0.010437209445696611,17.629420256003357,0.012583454857960997,0.024507894047669003
95,0.25,0.001,0.013536586137466776,0.010385786613019614,17.6570800256618,0.012603197734233974,0.022147541865706444
96,0.25,0.001,0.013582705305172848,0.010388297614986663,17.901460634244906,0.012777630716805785,0.021742263675800393
97,0.25,0.001,0.013357729618470152,0.010253370585384624,17.39682788448734,0.012417436034609094,0.020921516764376844
98,0.25,0.001,0.013323880597462742,0.01022179241537492,17.384101663158212,0.0124083523648524,0.02020613430067897
99,0.25,0.001,0.013288566660318342,0.010188393826685446,17.37336842997091,0.012400691241949258,0.010541622460420643
100,0.25,0.001,0.01317089347555226,0.010067753135584868,17.389999051749847,0.012412561778550926,0.009716520618115152
101,0.25,0.001,0.013150415496166908,0.010130616701653092,16.92295269643788,0.01207919535791426,0.009830267700765814
102,0.25,0.001,0.013218913064501086,0.010075357547225236,17.616485328941078,0.012574222219087137,0.01416579061853034
103,0.25,0.001,0.01318349676436825,0.010124631942464756,17.14187822364149,0.012235459117517125,0.011537843317325627
104,0.25,0.001,0.013114774927479542,0.010147147766360037,16.630581915795386,0.011870508148319333,0.011803683558745044
105,0.25,0.001,0.013175604148552967,0.010150809457529953,16.950949302086464,0.012099178659590624,0.010757222305983305
106,0.25,0.001,0.013067036233234517,0.010051534867179005,16.898868898689607,0.012062004924118207,0.012927708082965441
107,0.25,0.001,0.013066750288982213,0.010009125873689607,17.134926611449057,0.01223049722444615,0.012906065609838282
108,0.25,0.001,0.013025474975575935,0.00999349065012101,16.991241468416227,0.012127938235843131,0.011051264125853777
109,0.25,0.001,0.013005977561632236,0.009977973658930172,16.96893281647653,0.012112014858298738,0.010635198958750283
110,0.25,0.001,0.013024663910842858,0.010011282662637445,16.88698821968132,0.012053524782070894,0.014998875957514559
111,0.25,0.001,0.01295927032776229,0.009943337396811911,16.901288897285372,0.012063732260731886,0.013046748537038053
112,0.25,0.001,0.012980722225247284,0.010020532037428904,16.588905683486335,0.011840760659162265,0.012072155784283365
113,0.25,0.001,0.01299478979195123,0.009996611972302547,16.801789374896142,0.011992711902138574,0.011193377963666405
114,0.25,0.001,0.012999506817049497,0.009977289299656461,16.93650750735979,0.01208887045493204,0.01342674863657781
115,0.25,0.001,0.012856006400881114,0.009861634679503375,16.78045912166853,0.011977486881990386,0.012262360924588782
116,0.25,0.001,0.012868606728568916,0.009898924668230516,16.64209750426677,0.011878727697549442,0.009544307698628731
117,0.25,0.001,0.012714542018679472,0.009763514918290373,16.537556601571037,0.011804108923319798,0.011037417354860477
118,0.25,0.001,0.012845808388296263,0.009876286993042016,16.64119857396835,0.011878086062789686,0.013344397768378258
119,0.25,0.001,0.012675065429998444,0.009698602231979232,16.68009929612522,0.011905852459761043,0.01170928091076868
120,0.25,0.001,0.012808397533871354,0.009868963198228315,16.472590559846036,0.011757737730082825,0.010942282155156136
121,0.25,0.001,0.012780644262257295,0.009846010987835748,16.445685584506233,0.011738533607784606,0.01393139987651791
122,0.25,0.001,0.012817067827916506,0.009790170664241264,16.96273206163953,0.01210758890909317,0.010661424935928412
123,0.25,0.001,0.01267008950373718,0.009639686590064934,16.982378134916434,0.012121611802224435,0.01116024044209293
124,0.25,0.001,0.012757060474049656,0.009767183901564086,16.7552686926924,0.011959506561522056,0.01911610803966011
125,0.25,0.001,0.012741664926019998,0.009773337798918183,16.634505776536493,0.011873308905450745,0.016770418866404464
126,0.25,0.001,0.012706886334366453,0.009672788290919124,17.003085432074844,0.012136392171359632,0.013192701153457165
127,0.25,0.001,0.012664294074395876,0.00972435568049029,16.475415183114006,0.0117597538780257,0.012009544098483664
128,0.25,0.001,0.012692885091289496,0.009802168723638658,16.199575802107237,0.011562866382660412,0.014907002449035645
129,0.25,0.001,0.012629201488096119,0.009619128367145022,16.868449555688247,0.012040292330969484,0.013602615201047488
130,0.25,0.001,0.012613903058124033,0.009715321517195596,16.24365134783836,0.011594326443853218,0.010836270238671983
131,0.25,0.001,0.01256453562831823,0.009660836037830179,16.272332318179256,0.011614798228536229,0.010975461120584182
132,0.25,0.001,0.012593990812699,0.009628303006013512,16.619714310119203,0.011862751113575449,0.013037932504500662
133,0.25,0.001,0.012518418629356336,0.009645549771495355,16.09955659612909,0.011491475086459023,0.01110043576253312
134,0.25,0.001,0.01256566403959042,0.009640292420827009,16.393782079914512,0.0117014861384115,0.013097806168454034
135,0.25,0.001,0.012681205437837781,0.009740657839568068,16.478829221569853,0.011762190736309673,0.01659351321203368
136,0.25,0.001,0.01260012666974868,0.009637478231029077,16.602682247028483,0.011850594037850451,0.019194005456353937
137,0.25,0.001,0.012585301568736008,0.009633485963763474,16.541974892427316,0.011807262592738984,0.020347715222409794
138,0.25,0.001,0.012521889544849767,0.009616310677831962,16.282864532826387,0.011622315869255094,0.016256480610796382
139,0.25,0.001,0.012474100331239628,0.009537921966615813,16.45434334228089,0.011744713306410342,0.010495506626154696
140,0.25,0.001,0.012478023391903003,0.009600363539353812,16.126406062733043,0.011510639587960773,0.00895251945725509
141,0.25,0.001,0.012535877977356766,0.009565727031922145,16.64472560171203,0.011880603570101378,0.015010435400264604
142,0.25,0.001,0.012415263289477164,0.009527812866029484,16.181272524498002,0.011549801944680943,0.009902261330613069
143,0.25,0.001,0.012371803399409863,0.009486593340799248,16.16871684859127,0.01154084000613224,0.010064934779490744
144,0.25,0.001,0.012440648707094448,0.009509938875417331,16.42369758499252,0.01172283910420594,0.014420334515827042
145,0.25,0.001,0.012491493850581712,0.00962101549804558,16.086159863949934,0.011481912822234071,0.010950703439967973
146,0.25,0.001,0.012368891014780475,0.009434731900778823,16.443028074322324,0.011736636741129425,0.008863514688398157
147,0.25,0.001,0.012362334864227088,0.009511932237877017,15.973656683257133,0.011401610766065048,0.010566470346280507
148,0.25,0.001,0.012465647278496852,0.009537652028520485,16.408485928337612,0.011711981390676382,0.010627449357083865
149,0.25,0.001,0.012428651631121591,0.009461852131381041,16.625944602183807,0.011867198145741475,0.0104206339456141
150,0.25,0.001,0.012281229897534652,0.009377594131950315,16.271974736993965,0.011614542995713037,0.011186716479382344
151,0.25,0.001,0.012380315817996755,0.009447241627496161,16.436948869611832,0.011732297551471687,0.011117914491998298
152,0.25,0.001,0.012387989559981511,0.009540996913709146,15.954546539377777,0.01138797040640812,0.012351268769374915
153,0.25,0.001,0.012387375568749604,0.009445841478440034,16.484358340710195,0.011766137288158597,0.01519477367401123
154,0.25,0.001,0.01241422573100159,0.009529469052811603,16.16617600678842,0.011539026414552761,0.012131894206894296
155,0.25,0.001,0.01243863075033768,0.009494338677392834,16.499812324008186,0.011777167968599704,0.0175162245120321
156,0.25,0.001,0.012407480854115563,0.009562888840486953,15.941093965010209,0.011378368283376308,0.02034412936440536
157,0.25,0.001,0.01231426126508168,0.009375619074646688,16.46815077463786,0.011754568718513818,0.016407277568110397
158,0.25,0.001,0.0123362290414619,0.009497194016886342,15.909952016977163,0.011356139912189268,0.013189260980912618
159,0.25,0.001,0.012326220488978988,0.00939395934091512,16.432391686873004,0.01172904474437759,0.009615159194384302
160,0.25,0.001,0.012308717885495344,0.00943242419632651,16.118750254313152,0.011505175056611815,0.01132957311347127
161,0.25,0.001,0.012327901843179773,0.009440111187406076,16.18317966639023,0.011551163216552628,0.01359120782996927
162,0.25,0.001,0.012295162027358732,0.009372488081038416,16.378664852578044,0.01169069582625128,0.011198323353060655
163,0.25,0.001,0.01227309807509809,0.009368275342148779,16.27862676429304,0.011619291052314804,0.013096624320106847
164,0.25,0.001,0.012313657481492539,0.009379398785444684,16.443586558450907,0.01173703537362663,0.012594499226127352
165,0.25,0.001,0.012295688337500974,0.009442527133684892,15.98911524374724,0.01141264471359546,0.012817059377474445
166,0.25,0.001,0.012253036392561761,0.009350835391274698,16.263933964264698,0.01160880368612755,0.01627121027559042
167,0.25,0.001,0.01219581414474335,0.009353352599887997,15.929153922554496,0.011369845769132404,0.01584124019635575
168,0.25,0.001,0.012216079046641475,0.009311673053407864,16.27629202284735,0.011617624570197965,0.010518661899758237
169,0.25,0.001,0.012255496655901274,0.009330297614033128,16.39281500747432,0.011700795865434916,0.011902527817125832
170,0.25,0.001,0.012260568221826931,0.009375223038948222,16.16947441723519,0.011541380740353454,0.011022619903087616
171,0.25,0.001,0.012110331271599222,0.009293077507062809,15.7878916547015,0.011269016170379372,0.013666492221610886
172,0.25,0.001,0.012236368393043538,0.009301441094223714,16.44733307578347,0.01173970954731154,0.011153701692819595
173,0.25,0.001,0.012199794999508313,0.009340286966942963,16.024683007549296,0.011438032125302852,0.009771530383399554
174,0.25,0.001,0.012175240964218454,0.009296224400453218,16.134008434268978,0.011516065977351162,0.010646750352212362
175,0.25,0.001,0.012193864639110359,0.009239352599116334,16.557085735258802,0.011818048347793578,0.015195335527615888
176,0.25,0.001,0.012149334481389789,0.009289644324244598,16.02570280328497,0.011438760030895768,0.016531978334699358
177,0.25,0.001,0.012185903335541556,0.00931458117001818,16.090889306057306,0.01148528858390957,0.012896762495594365
178,0.25,0.001,0.012124863754966598,0.00927079223217942,15.994217603634565,0.011416286654985414,0.012418016658297606
179,0.25,0.001,0.01208642274488658,0.009179087659661031,16.292706016060357,0.011629340482555572,0.011425580297197615
180,0.25,0.001,0.01216547100398785,0.009330225203160222,15.888717202317743,0.011340983013788539,0.015585657874388354
181,0.25,0.001,0.012184533904933985,0.009320216574695282,16.0516342171978,0.01145726924853519,0.012285591635320867
182,0.25,0.001,0.012141986650204186,0.009236983911488162,16.279635013678135,0.011620010716401239,0.011784698880676712
183,0.25,0.001,0.01214852133040731,0.009305633079165068,15.93154561992014,0.011371552905010806,0.010014572712991918
184,0.25,0.001,0.012197644764553138,0.009273002488595066,16.38969602340307,0.011698569609852298,0.010110442260546344
185,0.25,0.001,0.01212002528236532,0.009248676182298394,16.091040717971907,0.011485396658081305,0.010012150409498386
186,0.25,0.001,0.01208884631107737,0.009233619637856811,16.000690477989213,0.011420906836537625,0.01251927191125495
187,0.25,0.001,0.012157718577185572,0.009228430197754385,16.41573316845305,0.011717154295826588,0.013047887544546808
188,0.25,0.001,0.012011248972223495,0.009157611942895643,15.991782250660005,0.011414548358786586,0.01174752933106252
189,0.25,0.001,0.012065124409251558,0.009176889119674137,16.185670928243713,0.011552941419160394,0.010478871608419078
190,0.25,0.001,0.012008777554722239,0.009190270106258232,15.794914901395499,0.011274029194429335,0.010962115999843394
191,0.25,0.001,0.012063264490771683,0.009117232090717568,16.509566869491184,0.011784130527830967,0.012131564053041595
192,0.25,0.001,0.012005692115596264,0.009254045912557409,15.420226472796816,0.011006585633687949,0.012055734172463417
193,0.25,0.001,0.012120470845320704,0.009138848248322111,16.709013109718448,0.011926490442340077,0.013930427309657847
194,0.25,0.001,0.012081519819987126,0.00928975100518315,15.645072190077988,0.01116707508213989,0.01306051162204572
195,0.25,0.001,0.012118051132504202,0.009170658343703874,16.51718988396349,0.011789571651651313,0.012740546704402991
196,0.25,0.001,0.012004774378608295,0.00914382887027272,16.0327388145429,0.011443782165983511,0.010275870694645814
197,0.25,0.001,0.012005241216531584,0.009167472280492455,15.902857280277706,0.011351075860298149,0.011859286576509476
198,0.25,0.001,0.012130471873411904,0.009223033949767515,16.29328233323175,0.011629751843848502,0.013495305286986488
199,0.25,0.001,0.012076162008051967,0.009213735358159997,16.0410395179873,0.01144970700784247,0.0123537668426122
200,0.25,0.001,0.012095783177181418,0.009193668634758824,16.263450011228905,0.01160845825212627,0.010882823062794549
201,0.25,0.001,0.012050383062143148,0.009125309781386303,16.392110700096005,0.011700293147820132,0.013464872725307941
202,0.25,0.001,0.01196376808065843,0.009167478767186751,15.67040620817171,0.011185157893056182,0.014780176670423575
203,0.25,0.001,0.012054822935195235,0.009253780440034427,15.69704185388027,0.011204169774361363,0.01783506997994014
204,0.25,0.001,0.01200990508026107,0.009111031942017428,16.245285278711563,0.01159549270429091,0.015234505491597312
205,0.25,0.001,0.011983062878754728,0.009114594589528088,16.074896352274436,0.011473873199339355,0.012449635192751884
206,0.25,0.001,0.012013595206076866,0.009134247816560708,16.135862543866352,0.011517389396050216,0.016009599901735783
207,0.25,0.001,0.01198107605943313,0.009129621029890084,15.979553387159513,0.011405819691048903,0.013681734512959207
208,0.25,0.001,0.012003233265522476,0.009111637520953352,16.20450183450481,0.011566382465742191,0.01283562688955239
209,0.25,0.001,0.012011445663643606,0.009095358512514121,16.341753097125146,0.011664349105728156,0.012804622761905193
210,0.25,0.001,0.011938175158292957,0.009114011323257482,15.826613795229328,0.01129665510009231,0.012197970944855894
211,0.25,0.001,0.01195664519318195,0.009106810230735715,15.970475772599796,0.011399340308779298,0.016535729369414703
212,0.25,0.001,0.012061410889654726,0.009169369924049348,16.206998287103115,0.011568164373378383,0.017044142287756716
213,0.25,0.001,0.011915831744132481,0.009108271940431116,15.733564714729647,0.011230238911298821,0.013887258246541023
214,0.25,0.001,0.011900913152661357,0.009020886924508567,16.139667250893332,0.01152010510413514,0.012824823946825095
215,0.25,0.001,0.011990646955433426,0.009148295308812792,15.928538213520895,0.011369406290878584,0.012097328236060483
216,0.25,0.001,0.011934746629916705,0.009060374000880406,16.10798350914375,0.011497490013664347,0.012112943322530814
217,0.25,0.001,0.011876705543318274,0.009075113526591055,15.700121930707029,0.011206368258891528,0.012556384317576885
218,0.25,0.001,0.011926935948778838,0.009042298521125789,16.16550931508169,0.011538550546096852,0.014349066652357578
219,0.25,0.001,0.01188053488123528,0.009003987928769944,16.120168303554152,0.011506187225948717,0.013334316334554128
220,0.25,0.001,0.01188129187932798,0.009071810231793733,15.74433366290895,0.011237925526701605,0.011958859461758817
221,0.25,0.001,0.011962174596416922,0.009133302637035058,15.85299794657247,0.011315487470786917,0.012559687053518636
222,0.25,0.001,0.011839384833971659,0.008935070056077484,16.275780208738812,0.011617259249635126,0.009926824763949429
223,0.25,0.001,0.011870506964189745,0.009053036318722861,15.789104581712843,0.011269881928417448,0.010295956927750791
224,0.25,0.001,0.011858782557323401,0.009035631395563796,15.820939835412798,0.011292605164463097,0.01156862625586135
225,0.25,0.001,0.011981930483853345,0.009072552122488305,16.304157292648352,0.011637514127514884,0.010260941061590399
226,0.25,0.001,0.011882053657775714,0.009042293679985132,15.914015554325841,0.011359040367113377,0.013885240070521832
227,0.25,0.001,0.011912787437334761,0.009016114706064993,16.232954131973372,0.011586691029245805,0.014245097126279558
228,0.25,0.001,0.01186103812724977,0.009068140330222936,15.651399487937804,0.011171591354702215,0.016087410439338003
229,0.25,0.001,0.011857161089986355,0.009048988478201809,15.73699831795859,0.011232689734445817,0.010978920385241508
230,0.25,0.001,0.011840142101257832,0.008978041520641817,16.03921245583843,0.011448402894959622,0.01018611794071538
231,0.25,0.001,0.01187922153187729,0.009072545615170315,15.728611570416074,0.011226703476385491,0.010933216594691788
232,0.25,0.001,0.01191623523258246,0.009054790785002124,16.035535189933153,0.011445778151272772,0.012947906207825457
233,0.25,0.001,0.011753965742312945,0.008926186085372538,15.846876724616632,0.011311118290233142,0.012016970398170608
234,0.25,0.001,0.01188027366804771,0.009024908770492305,16.001466039733174,0.011421460413799553,0.013088724509413754
235,0.25,0.001,0.01182464843220783,0.008970132731509097,15.996706146738191,0.011418062917015125,0.012015729743455137
236,0.25,0.001,0.011818191366561087,0.00899222520091039,15.836714346647819,0.01130386463001272,0.012944777230066913
237,0.25,0.001,0.011939582760100598,0.009040105590783493,16.248669939997036,0.011597908593859412,0.011050114408135414
238,0.25,0.001,0.011824636561644106,0.00896958159044003,15.999728265064302,0.011420220032165812,0.010471075374100889
239,0.25,0.001,0.011805573022448933,0.008978564643880704,15.842554519226502,0.01130803320430157,0.01029763523755329
240,0.25,0.001,0.011834862843885288,0.009035071920351688,15.69002886418696,0.011199164071511034,0.01621173894298928
241,0.25,0.001,0.01189315063978756,0.009027429691370412,16.059501372295102,0.011462884634043614,0.015739790296980312
242,0.25,0.001,0.0118405819373392,0.008985695251131253,15.99878605929288,0.011419547508417473,0.012415671455008643
243,0.25,0.001,0.011824223306247127,0.009023076515983452,15.697627029774628,0.011204587458797021,0.013128699601760932
244,0.25,0.001,0.01180672880244769,0.008887843606615816,16.357432123108623,0.011675540416208868,0.010959323894764696
245,0.25,0.001,0.011789012135881367,0.008938534517440345,15.974076715660539,0.011401910575061056,0.01223704990531717
246,0.25,0.001,0.011773078530887902,0.008948678812902152,15.827935625623157,0.011297598590737442,0.011506157128938608
247,0.25,0.001,0.011819843717336237,0.008959600219984988,16.028805005800475,0.011440974308208762,0.012318848499229975
248,0.25,0.001,0.011874471793259496,0.009101550969662088,15.539448904824424,0.01109168372935362,0.018795876497668878
249,0.25,0.001,0.01176114365163244,0.008890515126044794,16.087001893903825,0.01148251384290066,0.014725247131926673
250,0.25,0.001,0.011859431769481767,0.009083793481208366,15.554676629446604,0.011102552911810566,0.012090290364410197
251,0.25,0.001,0.011818312753278475,0.00896221941167658,16.005546745442565,0.011424373123085342,0.010545787268451281
252,0.25,0.001,0.011700784032057215,0.008825152519751678,16.11503841604664,0.011502525636007595,0.009201643456305777
253,0.25,0.001,0.011767448119315512,0.008938176281715468,15.855240072681632,0.011317087846310943,0.010258022363164596
254,0.25,0.001,0.011795409256049664,0.009006824960936478,15.627226433831773,0.011154337211871358,0.01377250227544989
255,0.25,0.001,0.011772414756231097,0.008844319209977464,16.40904886294634,0.011712383199818942,0.014470596398626055
256,0.25,0.001,0.011805771880442307,0.009013715548558043,15.646684035276754,0.011168225578355999,0.010475426513169492
257,0.25,0.001,0.011707858436486938,0.008835717555925701,16.095477608811883,0.011488563603720116,0.01037366674946887
258,0.25,0.001,0.011756432928700686,0.008941732564103076,15.773581391447907,0.011258801849712995,0.010916820993380887
259,0.25,0.001,0.011730707841024392,0.008944849168886116,15.611950987702484,0.01114343396695395,0.011463717025305544
260,0.25,0.001,0.011794354566883096,0.008931487001964958,16.043510054652785,0.011451470417311052,0.01064133710627045
261,0.25,0.001,0.011782618061506944,0.00893047158899424,15.983427814670376,0.011408585163933173,0.012412866976644312
262,0.25,0.001,0.01171587578222885,0.00888352177924279,15.87251192150694,0.011329416075308308,0.013044254056044988
263,0.25,0.001,0.011723155685481214,0.008909998026335643,15.764935051088845,0.011252630300563058,0.013194500468671322
264,0.25,0.001,0.011740848250548185,0.008897046428304035,15.936665177067399,0.011375207121390006,0.012076779268682003
265,0.25,0.001,0.011663377606299095,0.008848496816948161,15.774592041691422,0.011259523227474248,0.011613774911633559
266,0.25,0.001,0.011706805727194933,0.008872439155663365,15.883790543029358,0.011337466483247223,0.013962315395474434
267,0.25,0.001,0.011766686086870712,0.008896066179815984,16.086954694805723,0.011482480153323142,0.01265511502112661
268,0.25,0.001,0.011757311061684624,0.008935407470555712,15.813947490878872,0.01128761419762946,0.013630666770040989
269,0.25,0.001,0.011713908268855168,0.008795108096912885,16.356955877272956,0.011675200483421097,0.014679291950804847
270,0.25,0.001,0.011732541684643095,0.00886470659381964,16.0713479146535,0.011471340410173805,0.011758135365588325
271,0.25,0.001,0.011742876286863725,0.008905836491734832,15.898772021829387,0.01134815990137715,0.009890644678047724
272,0.25,0.001,0.011746845093049926,0.008889674404440643,16.01158396402995,0.011428682344061348,0.0125572747950043
273,0.25,0.001,0.011734470709863104,0.00890472213062512,15.857910529716865,0.011318993954116249,0.012377693583922727
274,0.25,0.001,0.011768245952321099,0.008895562468899852,16.098519916578883,0.011490735129606626,0.014012154258255447
275,0.25,0.001,0.01175196289946705,0.008840578399807007,16.31539884091535,0.011645538073458493,0.013725908739226205
276,0.25,0.001,0.011731155624825915,0.00899841747570149,15.314264853239616,0.01093095278603827,0.013986801861652307
277,0.25,0.001,0.011727272617545996,0.008833038839913192,16.219286265073123,0.011576935235598232,0.018173718425844396
278,0.25,0.001,0.011715243568335658,0.008902549724114108,15.762336962150805,0.011250775847359604,0.010456950004611696
279,0.25,0.001,0.011680946670177378,0.008873016716769109,15.735639887811976,0.01123172011978014,0.010303848556109838
280,0.25,0.001,0.011620744064207121,0.008811532159385842,15.74282453221319,0.011236848345619693,0.008789505543453353
281,0.25,0.001,0.011727368951903218,0.008868762446102841,16.01963079225767,0.011434425975915537,0.010563209120716368
282,0.25,0.001,0.01174146702430604,0.008877826370472536,16.04784225695061,0.011454562638794154,0.013007327914237976
283,0.25,0.001,0.011652127985076192,0.00879327697996354,16.021000610920655,0.011435403719429447,0.012462663198156016
284,0.25,0.001,0.01169426873595495,0.008838551301326785,16.00344062573982,0.011422869825652977,0.011495310813188553
285,0.25,0.001,0.011723438462368398,0.008851155517123519,16.096273297752255,0.01148913154728926,0.010429508984088898
286,0.25,0.001,0.01168990133890322,0.008887292502452305,15.705819910222834,0.011210435339202594,0.010961522747363363
287,0.25,0.001,0.011661886026982938,0.008765070393056303,16.23375483604022,0.011587262552491234,0.009805651514657907
288,0.25,0.001,0.011712994226764688,0.008884724223061458,15.849625476312527,0.011313080282878321,0.012631842201309544
289,0.25,0.001,0.011660547890116424,0.008783837954029615,16.12108366639464,0.011506840589860557,0.01117906320307936
290,0.25,0.001,0.011624545412515844,0.008878393120421118,15.389438464647128,0.010984609896250627,0.01271812045680625
291,0.25,0.001,0.01160334424921127,0.008702523791446136,16.256198911955863,0.011603282592402472,0.011158145431961333
292,0.25,0.001,0.011650300582562572,0.008893255170408662,15.450482259541403,0.011028181484326483,0.011680155327277524
293,0.25,0.001,0.01167785186789461,0.008770183753439319,16.29457188319493,0.01163067229350102,0.011679624739502157
294,0.25,0.001,0.01168383799258854,0.008929437310771369,15.435661267011593,0.011017602617424406,0.013804822761033262
295,0.25,0.001,0.011636080925889088,0.008799948019685444,15.893689566836768,0.01134453216762082,0.012933513282665185
296,0.25,0.001,0.011796405326166909,0.008964475011995762,15.870137243559867,0.011327721087480277,0.014336096255906991
297,0.25,0.001,0.011657918234614087,0.008775099345628336,16.15531691082152,0.011531275453834061,0.014312830354486192
298,0.25,0.001,0.011629682794074357,0.008725902795062199,16.272782572499523,0.011615119609207369,0.014119332390172141
299,0.25,0.001,0.011636455063567017,0.00885917544191256,15.5638757252193,0.011109119004439186,0.012970753280179841
300,0.25,0.001,0.011614453179939782,0.008729377511827957,16.167963401420966,0.011540302213719461,0.01165872479655913
301,0.25,0.001,0.011564048680114302,0.00874213499857204,15.814004529050457,0.011287654910100255,0.010579205517257963
302,0.25,0.001,0.011577573309637311,0.008804391294561483,15.540912768223903,0.01109272859973155,0.011451610896204199
303,0.25,0.001,0.011563553348930427,0.008663780648599972,16.25032701025476,0.011599091370631521,0.0126707222578781
304,0.25,0.001,0.011619169946699153,0.00887412945403433,15.383207741317216,0.010980162556257828,0.01341670858008521
305,0.25,0.001,0.01164371918426666,0.008839392530925068,15.715448188337135,0.01121730777183236,0.013955058796065194
306,0.25,0.001,0.01158976710742309,0.008764034779720651,15.835404233776885,0.011302929503052736,0.011280642157154424
307,0.25,0.001,0.011549214450403666,0.008742538964623337,15.728610747899765,0.011226702889293195,0.011207998464150088
308,0.25,0.001,0.011611132459207014,0.00881319111625562,15.679663153517218,0.011191765277314218,0.012633729859122209
309,0.25,0.001,0.011578181363416441,0.008663387465483936,16.334504809968678,0.011659175453225323,0.01179413590580225
310,0.25,0.001,0.011633514763140456,0.00887101449480493,15.481051309403284,0.011050000934620474,0.011191262198346002
311,0.25,0.001,0.011588026124697465,0.008713908287281896,16.10655654338134,0.01149647147992958,0.010330194873469216
312,0.25,0.001,0.011602424962189925,0.008718577834467093,16.161080258153813,0.011535389192115499,0.010794231934206826
313,0.25,0.001,0.011558292917733564,0.008732000070608857,15.838545114566118,0.011305171387984382,0.010995426747415746
314,0.25,0.001,0.011644133242902222,0.008805628364475874,15.906980861317027,0.011354019172960047,0.012862742678927524
315,0.25,0.001,0.011588881647600717,0.008722810606561202,16.061462573516064,0.01146428449215993,0.011152833966272218
316,0.25,0.001,0.011636224872756116,0.008722601134963941,16.327947096391156,0.011654494715482624,0.011296021485967296
317,0.25,0.001,0.011568099924630218,0.008720784615247678,15.956354932629424,0.01138926119388253,0.01134250033646822
318,0.25,0.001,0.011586715951388254,0.008779785895420538,15.73003657547744,0.011227720610619158,0.013177669207964624
319,0.25,0.001,0.011606084323967949,0.008738812054822217,16.068194133696302,0.011469089317413491,0.013958302459546499
320,0.25,0.001,0.011623831218356018,0.008775763122456056,15.96057493481047,0.011392273329629173,0.013859031455857413
321,0.25,0.001,0.011602205070200221,0.008726244115016678,16.11688553203236,0.011503844062835375,0.011972286605409213
322,0.25,0.001,0.011469339754319552,0.008726874331667984,15.368775867915653,0.010969861433201751,0.012755379879048892
323,0.25,0.001,0.011550127548146081,0.008717124934345136,15.876146723340442,0.011332010509165198,0.011082539667508431
324,0.25,0.001,0.01154788003882745,0.008749041306875247,15.684692040467874,0.011195354775494557,0.01406051910349301
325,0.25,0.001,0.011593495419635362,0.008719035079116588,16.108476018572187,0.011497841555012267,0.010948602110147476
326,0.25,0.001,0.011576501691674852,0.008700560068490204,16.11677823811422,0.01150376747902514,0.01237481486584459
327,0.25,0.001,0.0115848649683949,0.008811890201899278,15.539751008396104,0.01109189936359465,0.01243649356599365
328,0.25,0.001,0.011540426670775547,0.00870436112806722,15.89331218523857,0.011344262801740591,0.012389101354139192
329,0.25,0.001,0.011567875543188104,0.008744541253885884,15.821966131250342,0.011293337709671907,0.009863431831555707
330,0.25,0.001,0.011481370281923068,0.008638768337475948,15.929939752414231,0.011370406675527646,0.010796098238123315
331,0.25,0.001,0.011554548295436206,0.008730390994855158,15.826578549293927,0.011296629942393952,0.016837128571101596
332,0.25,0.001,0.011561388143344776,0.008743053386834536,15.793947957890294,0.011273339013483437,0.013649145540382181
333,0.25,0.001,0.011574716841267955,0.008771539720031488,15.709005080180846,0.011212708836674409,0.011709729741726602
334,0.25,0.001,0.011554504790297754,0.008747852005776548,15.728481779565344,0.011226610834807527,0.011226247330861432
335,0.25,0.001,0.01154640368630975,0.008683093324182056,16.04599107284368,0.0114532413082396,0.010065175725945405
336,0.25,0.001,0.011539808159698418,0.008675370708385826,16.05230784027171,0.011457750064433768,0.00986070984176227
337,0.25,0.001,0.01152230054140091,0.00867011974020785,15.983623033359056,0.01140872450632338,0.01068129763007164
338,0.25,0.001,0.011455674503771437,0.008634813186345678,15.808106184561492,0.011283444814105276,0.011606501016233648
339,0.25,0.001,0.011513619195227023,0.008625275759343362,16.186277033843638,0.011553374042714944,0.010540773825986045
340,0.25,0.001,0.011517079794531936,0.00870596515644333,15.753486597732508,0.011244458670758392,0.010972469778997558
341,0.25,0.001,0.011561571103726928,0.008702260844782863,16.023575000273876,0.011437241256441025,0.015042113805455821
342,0.25,0.001,0.011502674691778519,0.008685181481820164,15.789231709389142,0.011269972669085755,0.010587649552949838
343,0.25,0.001,0.011568292367569495,0.008769903301602199,15.682172924210697,0.011193556691085437,0.010169001695300852
344,0.25,0.001,0.011573838274101,0.008682681175951775,16.20204504719981,0.01156462887023541,0.010583942889102868
345,0.25,0.001,0.011492618648357046,0.008703120910325945,15.632345621958201,0.011157991164852393,0.01278459613344499
346,0.25,0.001,0.01154226679050978,0.008732038092015785,15.748521727003974,0.011240914865812971,0.013237928173371724
347,0.25,0.001,0.011450873889758453,0.008666404540322739,15.604166146480676,0.01113787733510398,0.010347015224397182
348,0.25,0.001,0.011575445415569352,0.008688886573924607,16.17627611138048,0.011546235625539244,0.010920534708670207
349,0.25,0.001,0.01148309707120582,0.008657699257639043,15.833530439363493,0.011301592033806918,0.013253528092588698
350,0.25,0.001,0.011465922597196553,0.008625648835443811,15.916894794899823,0.011361095499571608,0.01123181703899588
351,0.25,0.001,0.011428959151004855,0.00863368724774578,15.6647032224215,0.011181087239415775,0.011507600080221891
352,0.25,0.001,0.011574973708283512,0.008663085599740347,16.31822072098027,0.011647552263369216,0.010555736188377653
353,0.25,0.001,0.011507806578750933,0.00865711438489127,15.975278054083978,0.011402768061444666,0.015581749645727021
354,0.25,0.001,0.011534037465763676,0.008785645889947603,15.40198627107349,0.010993566217754097,0.01310653638626848
355,0.25,0.001,0.01152980333901855,0.00866634252596221,16.046834692254766,0.011453843463422389,0.009570487375770296
356,0.25,0.001,0.01145836073766291,0.008583649380744754,16.10988311500816,0.011498845906501184,0.008717498076813561
357,0.25,0.001,0.011506984557409387,0.008672446468389118,15.884752482523174,0.011338153092450516,0.011797081812151841
358,0.25,0.001,0.011602359693627674,0.008776626684257896,15.835407708352541,0.011302931983121014,0.012839890085160732
359,0.25,0.001,0.011440031749298384,0.008546797139678663,16.213686296156236,0.011572938112888106,0.01583458935575826
360,0.25,0.001,0.011429406602656369,0.008687368819885181,15.366380311392405,0.010968151542749754,0.009873342833348684
361,0.25,0.001,0.011486052826376924,0.008704108466114198,15.590016180540854,0.0111277774307929,0.010184386212910925
362,0.25,0.001,0.011425528432175274,0.008536596263656805,16.18957613120268,0.011555728858817046,0.01090874509619815
363,0.25,0.001,0.011461900929227853,0.008671738302860504,15.63607137186544,0.011160650515250135,0.010822785086929798
364,0.25,0.001,0.011452860863215023,0.008564252019935832,16.187764890266187,0.011554436038733896,0.011620459678981985
365,0.25,0.001,0.011436928020212756,0.008612103319546698,15.830318426474546,0.011299299376498605,0.01088993444240519
366,0.25,0.001,0.011469545478917363,0.008644849439705168,15.82959648612496,0.011298784072894332,0.012258987873792648
367,0.25,0.001,0.01148132402840611,0.008640497204324443,15.919992604733626,0.011363306641494379,0.01140033161001546
368,0.25,0.001,0.011490573344582861,0.008670818948540793,15.801904865078159,0.01127901846186878,0.011554325398589884
369,0.25,0.001,0.011472730730206538,0.008618147231829472,15.997086113705224,0.011418334128269253,0.012369218016309398
370,0.25,0.001,0.011489867404242217,0.008668003738412769,15.813723550809847,0.011287454354610883,0.016233570873737335
371,0.25,0.001,0.011493325654617,0.008691043319454143,15.703989887015247,0.01120912911278747,0.013464141504040785
372,0.25,0.001,0.01151067307891893,0.008635765503840152,16.110982430286896,0.011499630571225479,0.014268752320536546
373,0.25,0.001,0.01150823061925409,0.008711770454764643,15.671363772767963,0.011185841379563143,0.01116283836641482
374,0.25,0.001,0.011483440794363305,0.008536052657834022,16.517162678680776,0.011789552233176856,0.011978179482477052
375,0.25,0.001,0.01145397404117601,0.008692481357491377,15.475406211017173,0.011045971599583992,0.012462359586996692
376,0.25,0.001,0.011452633913580354,0.008551044376580032,16.260508459486882,0.011606358643459588,0.01094126355435167
377,0.25,0.001,0.011521108520145599,0.008722911577993061,15.681095803534234,0.011192787868332787,0.012182980908879213
378,0.25,0.001,0.01135989962176079,0.008499573586217729,16.02926734888748,0.01144130431754995,0.009739013189183814
379,0.25,0.001,0.011482508974649133,0.008695020129804288,15.621087747853952,0.011149955565920022,0.0109158991170781
380,0.25,0.001,0.011397530706838155,0.008541423191331622,16.005625689224207,0.01142442947125211,0.009640072206301349
381,0.25,0.001,0.011354810556088573,0.008511422916222146,15.93434428501796,0.011373550524638088,0.010332736718867506
382,0.25,0.001,0.01141544122960948,0.008628590319019098,15.617512614021212,0.01114740372164255,0.01309347658285073
383,0.25,0.001,0.011442711190396533,0.008580669660841946,16.038880915074916,0.011448166249161253,0.013762815655874354
384,0.25,0.001,0.011443647110969315,0.008612450496630095,15.866025920236583,0.011324786524080359,0.013208312248545033
385,0.25,0.001,0.011402033404002102,0.008607623445213118,15.65987384458244,0.01117764014602601,0.011304910826895918
386,0.25,0.001,0.011492268811902661,0.008582514621716835,16.306263316761363,0.011639017356717605,0.01340588102383273
387,0.25,0.001,0.01139492978556798,0.0086112497461252,15.59974225362142,0.01113471966711022,0.011834484525024891
388,0.25,0.001,0.011436650533845653,0.008584826348874813,15.981622989361103,0.011407296923169953,0.01176824580345835
389,0.25,0.001,0.011336656830041281,0.008535996107666782,15.694903333703955,0.011202643350252645,0.008846809222762073
390,0.25,0.001,0.011371181144580975,0.008612634592400843,15.458896094546729,0.01103418707676426,0.010561181897563594
391,0.25,0.001,0.011350424971110199,0.008528508453267369,15.814021370627664,0.011287666931211752,0.009913225658237934
392,0.25,0.001,0.011463165274519465,0.008622048533410876,15.921618446047768,0.011364467127799977,0.012855702878109046
393,0.25,0.001,0.011420814194531986,0.00862477766675549,15.668989897330047,0.011184146964546785,0.012459001636930875
394,0.25,0.001,0.01149628906443472,0.008666753137184607,15.856718241195857,0.011318142927334659,0.014935507172984737
395,0.25,0.001,0.011336822460008252,0.008515236723412584,15.812166867556272,0.011286343231660436,0.011156515351363592
396,0.25,0.001,0.011430294107480761,0.0085158425889093,16.332586964249334,0.01165780654122008,0.010836158613009112
397,0.25,0.001,0.011434196648654683,0.008640038728766092,15.6584606392956,0.011176631434186724,0.013573820436639445
398,0.25,0.001,0.011455504909713508,0.00854333887627839,16.319777553175992,0.011648663492630973,0.010314047203532286
399,0.25,0.001,0.01136013800994708,0.008537737240185549,15.816733993850388,0.011289603136224402,0.012765913802598203
400,0.25,0.001,0.01135492301166127,0.008570923702248604,15.601532271414092,0.011135997338625333,0.012299652876598495
401,0.25,0.001,0.011369964259835112,0.008592988264536385,15.562173972318778,0.011107904334274644,0.01323793362826109
402,0.25,0.001,0.01147814255668011,0.008638947233905047,15.9108508450168,0.011356781473959172,0.012808600440621376
403,0.25,0.001,0.011414487257877708,0.00856540064242753,15.966281535186411,0.01139634656330222,0.011789053212851286
404,0.25,0.001,0.011484787358722208,0.008623475306569697,16.03479268889883,0.011445248171947772,0.012435350167964185
405,0.25,0.001,0.011355917288602649,0.008486939534449425,16.07775081732334,0.011475910647625511,0.012586788673486029
406,0.25,0.001,0.011432115379330162,0.008623221902163712,15.741038982684795,0.011235573863443822,0.012423466358866011
407,0.25,0.001,0.011378584344956007,0.00849297766449985,16.1709406570399,0.011542427306952105,0.011366553471556731
408,0.25,0.001,0.011428615247661417,0.008616786701973779,15.757486770203064,0.011247313897361217,0.01111563401562827
409,0.25,0.001,0.011411496357762174,0.008588910059425936,15.817774416961313,0.011290345765140123,0.013058314632092203
410,0.25,0.001,0.011422406695348955,0.008591329750533287,15.865355969586851,0.011324308329469557,0.011983844651175397
411,0.25,0.001,0.01148010472743175,0.008645228722451867,15.886645590508735,0.011339504347258198,0.016434491212878908
412,0.25,0.001,0.011403556541910956,0.008608736347467888,15.662172604274083,0.011179280945234892,0.01498764886387757
413,0.25,0.001,0.011435793623727658,0.008538015445125547,16.23914914698034,0.011591112881499171,0.012894115676837308
414,0.25,0.001,0.011357940364377204,0.008518153365206468,15.914165643545298,0.011359147497177228,0.016188442440969602
415,0.25,0.001,0.011357676585167994,0.008533394839050192,15.827275651873965,0.011297127517397547,0.013037522589521748
416,0.25,0.001,0.011328386594400261,0.00857170351014618,15.448452600510247,0.011026732762676836,0.011908609420061111
417,0.25,0.001,0.011422651118679203,0.00862340266123796,15.686988341502655,0.011196993819773488,0.015299948464546884
418,0.25,0.001,0.011449592491928793,0.008624979448971493,15.829131724395396,0.011298452337184437,0.014924185616629464
419,0.25,0.001,0.011387484981776117,0.008514493226240843,16.100245913703404,0.01149196710471335,0.01374072554920401
420,0.25,0.001,0.011446693141473618,0.008695349105935552,15.418532106981967,0.011005376236246943,0.01478242754404034
421,0.25,0.001,0.011411158806516296,0.008509774736860347,16.259355878496503,0.011605535958955391,0.012383550804640566
422,0.25,0.001,0.011361431740745382,0.008563545630215766,15.679354714346932,0.011191545120875755,0.010740882051842553
423,0.25,0.001,0.0112741123841498,0.008458751549028155,15.777283337288525,0.011261444209342273,0.01116842177829572
424,0.25,0.001,0.011377862626404472,0.008602654316087009,15.552267781504383,0.011100833534264372,0.012046241600598608
425,0.25,0.001,0.011388777140831892,0.00849091401432222,16.239625330571528,0.011591452769858335,0.010994906138096536
426,0.25,0.001,0.011386573662013164,0.008553942784858055,15.874064092035894,0.011330523977184792,0.012427495526415961
427,0.25,0.001,0.011393876179688043,0.008497161979598182,16.233186526176258,0.011586856906621168,0.012349661705749375
428,0.25,0.001,0.011329835426227335,0.008519020183380945,15.751808882315398,0.011243261157969591,0.012916892633906432
429,0.25,0.001,0.011313166425917254,0.008493242340296994,15.802854400136809,0.011279696217085517,0.011054423172026873
430,0.25,0.001,0.011280630884522741,0.008506007006257286,15.548991896889426,0.011098495286858976,0.01065876314948712
431,0.25,0.001,0.011381154827825674,0.008572584712804058,15.739227152648784,0.011234280622875648,0.013668420857616834
432,0.25,0.001,0.011301593564120761,0.008451044042800967,15.974479424092042,0.01140219801862387,0.011048808294747556
433,0.25,0.001,0.011351136833707214,0.008510249584374867,15.920332990882002,0.011363549600915063,0.009852858393320016
434,0.25,0.001,0.011365517895746897,0.008531299064756482,15.882962942679168,0.011336875762083632,0.012492782968495573
435,0.25,0.001,0.011327483489380017,0.008514598663245047,15.763406039951565,0.011251538929301617,0.013737476031695093
436,0.25,0.001,0.011384695425351738,0.008592245690003558,15.648888879166893,0.011169799342731544,0.011828107027603047
437,0.25,0.001,0.011328477931310942,0.00844784921560532,16.143043051232826,0.011522514668974181,0.011170345890734876
438,0.25,0.001,0.011382676391821086,0.00853362881810793,15.966062034482444,0.011396189888995321,0.011516919093472617
439,0.25,0.001,0.011393950431496947,0.008579358132881718,15.77297525694876,0.011258369205530878,0.011042832929108824
440,0.25,0.001,0.011399308625513162,0.008492571201896195,16.289357280953503,0.011626950236226626,0.009497797914913722
441,0.25,0.001,0.011325282602633907,0.008455353561085422,16.083083146101945,0.011479716735261917,0.010493476875126362
442,0.25,0.001,0.01124129301080337,0.008454967190300946,15.614569266081412,0.011145302830893229,0.010386861262044736
443,0.25,0.001,0.011284938501085574,0.008514049560665251,15.528061857868186,0.011083555929955878,0.010374077196632112
444,0.25,0.001,0.011318596023501772,0.008487536480741483,15.865258223526961,0.011324238560690194,0.011406739242374897
445,0.25,0.001,0.011269383892278016,0.008497674780135805,15.532657527701282,0.011086836208209338,0.011762514843472413
446,0.25,0.001,0.011255287495821645,0.008436370634480373,15.797210624445846,0.01127566782615692,0.010960180179349013
447,0.25,0.001,0.01138070995522129,0.008546452099861173,15.883181538615194,0.011337031790589003,0.012305199700806822
448,0.25,0.001,0.011358663027276804,0.008487489714888564,16.09005474988675,0.011484692897849215,0.017296940886548588
449,0.25,0.001,0.011301538835351285,0.008540327083276008,15.473831221218154,0.011044847409863065,0.014608251596135753
450,0.25,0.001,0.011288985957354655,0.008485730544236295,15.709443957099825,0.011213022096430996,0.013621017735983645
451,0.25,0.001,0.01135359495435353,0.008514406059658055,15.910814743219834,0.011356755705367476,0.013828844497246402
452,0.25,0.001,0.011370159420760084,0.00849072925642237,16.13632722334428,0.01151772107305088,0.01083549072167703
453,0.25,0.001,0.011316242291307671,0.00849031032625334,15.836523465065412,0.011303728383344334,0.010972663494093078
454,0.25,0.001,0.01128127413751918,0.008453175230147122,15.8486670025023,0.01131239614739636,0.011580966413021088
455,0.25,0.001,0.01133435833461079,0.008472497014888933,16.03787130075735,0.01144744561081895,0.011991537176072598
456,0.25,0.001,0.011377625011063956,0.008573438850663482,15.714659406310751,0.011216744758251785,0.011776641942560673
457,0.25,0.001,0.011273635167081457,0.008411723097877485,16.038155895846707,0.0114476487479277,0.011040814353951387
458,0.25,0.001,0.011300718470417952,0.008503033849030802,15.678224132333325,0.01119073813871044,0.009753827005624771
459,0.25,0.001,0.011269438764327889,0.008480629855484673,15.62848547288588,0.011155235883573075,0.011162969616374798
460,0.25,0.001,0.011318728861796272,0.00847915998097761,15.912943668854542,0.01135827528112387,0.011239898391067982
461,0.25,0.001,0.011280820012474671,0.00841867449608716,16.039463309974938,0.011448581948590247,0.01000058903758015
462,0.25,0.001,0.011275128335507461,0.008522685654114038,15.424688470391404,0.011009770499922487,0.01079367586810674
463,0.25,0.001,0.011306531981311062,0.008421138015799311,16.169747337038977,0.011541575543925037,0.012248273406709944
464,0.25,0.001,0.011288859588387129,0.008448129442752727,15.919451844720017,0.011362920660042838,0.011748562300843852
465,0.25,0.001,0.011240459605183079,0.008478506989256068,15.477982952322437,0.011047810815362196,0.010779115504452161
466,0.25,0.001,0.011221148859544512,0.008432898681289528,15.625355166988774,0.011153001546744307,0.011009392328560352
467,0.25,0.001,0.011260681957145392,0.008408887811126687,15.981454589150168,0.011407176723162146,0.011930471685315882
468,0.25,0.001,0.011278662431142825,0.008474965807753842,15.711917125817502,0.011214787384594934,0.010521767660975456
469,0.25,0.001,0.011342429506021502,0.008456008220069753,16.175504991224596,0.011545685218575729,0.010505617729255132
470,0.25,0.001,0.011326331395595085,0.008449224794244432,16.12330646559353,0.011508427170302305,0.010958246953253235
471,0.25,0.001,0.011270483324004637,0.008396373621007917,16.10651136722876,0.01149643923428177,0.014621555139975888
472,0.25,0.001,0.011377150025696326,0.008514973632383458,16.03963564937209,0.01144870496029414,0.014175213208155972
473,0.25,0.001,0.011295740735784416,0.00841753463323786,16.12946689490116,0.011512824336117887,0.013430893554219179
474,0.25,0.001,0.011284240488926848,0.0084743242654385,15.746769791716462,0.01123966437667128,0.013688272796571255
475,0.25,0.001,0.011249006139700646,0.008370435885685585,16.13150719773797,0.011514280655059222,0.01459618897310325
476,0.25,0.001,0.011263365766124708,0.008500825546438738,15.481275487335134,0.011050160947419795,0.011173866822251253
477,0.25,0.001,0.01127171491235842,0.008411421434028999,16.029084452382335,0.01144117377043707,0.010540582239627838
478,0.25,0.001,0.011281481824624233,0.008405788578006215,16.11538553126764,0.011502773398477974,0.010284062341919966
479,0.25,0.001,0.011256401770094753,0.008432250031398171,15.826546880192968,0.011296607337753724,0.010702838189899921
480,0.25,0.001,0.011241893887537205,0.008392016759407131,15.97071224159294,0.011399509094641642,0.010481982491910458
481,0.25,0.001,0.01120498585829507,0.008403249658071078,15.700930117449282,0.011206945123090136,0.011198494716414384
482,0.25,0.001,0.011373250929764657,0.008516944903611164,16.006738942819876,0.01142522408481076,0.013644416683486529
483,0.25,0.001,0.011327954065619093,0.008449422304099534,16.131291507285237,0.011514126700417729,0.01510158380759614
484,0.25,0.001,0.011312006204226217,0.008513195370703866,15.684535975778575,0.011195243380284494,0.015863360038825443
485,0.25,0.001,0.011268297787799145,0.008441380264198446,15.842046075211815,0.011307670289230418,0.012556371412106923
486,0.25,0.001,0.01134103005817095,0.008479592396871193,16.03549658057295,0.011445750592842934,0.012234819520797049
487,0.25,0.001,0.01125446619956574,0.008474831582244598,15.577072954955913,0.011118538868633772,0.009824052319994994
488,0.25,0.001,0.011280710513688329,0.008438295189786208,15.928895843612564,0.011369661558609967,0.012330899281161172
489,0.25,0.001,0.011393304110997484,0.008609388978817524,15.601059898074135,0.011135660169931574,0.014547288417816162
490,0.25,0.001,0.011292111821090564,0.008462673179058484,15.85617474020222,0.011317754989437701,0.013470767065882683
491,0.25,0.001,0.011203394047829099,0.00835394405809802,15.968317785463134,0.011397799989623935,0.010594245312469346
492,0.25,0.001,0.011293356832212362,0.008470527732219452,15.819134278730912,0.011291316401663748,0.010520375732864653
493,0.25,0.001,0.011291739832618575,0.0084745013209316,15.787804441296416,0.011268953919554901,0.010710026935807295
494,0.25,0.001,0.011302218303553291,0.008411359189551472,16.20037485669543,0.011563436728547772,0.012243054275001799
495,0.25,0.001,0.011253734023716206,0.00842180186860906,15.870148572054775,0.011327729173486635,0.012173219716974668
496,0.25,0.001,0.011216054251526063,0.00842262527716535,15.654375267473412,0.011173715394342193,0.010779561142304115
497,0.25,0.001,0.011240954170033925,0.008439503709996219,15.699327984612028,0.01120580155932336,0.010885899886488914
498,0.25,0.001,0.011222087033527159,0.008381606163218236,15.918054969716461,0.011361923604365783,0.012337586443339075
499,0.25,0.001,0.011201072347487186,0.008396229231274211,15.718340662531642,0.011219372350129651,0.01061267698449748
500,0.25,0.001,0.011210316197299735,0.008412325075265271,15.67994216216472,0.011191964426955546,0.009980884114546435
