epoch,beta,learning_rate,train_loss,train_reconstruction_loss,train_kl_unnormalized,train_kl_normalized,mean_unclipped_gradient_norm
1,0.0,0.001,0.06123926956889682,0.06123926956889682,165.54888519156532,0.11816480027948988,0.0918299811226981
2,0.02,0.001,0.05175851829222479,0.04712198579041765,324.78904390218497,0.23182658379884724,0.09266033236469541
3,0.04,0.001,0.039436203243169925,0.03698318288604613,85.91705643110578,0.06132552207787707,0.09456519143921989
4,0.06,0.001,0.033335666739197405,0.029575788404583057,87.79316722618047,0.06266464470105673,0.04894557595252991
5,0.08,0.001,0.03258821994867768,0.02906553980992301,61.69094324461697,0.0440335069554725,0.050553125728453906
6,0.1,0.001,0.03085947948482917,0.028462696447057654,33.57893334274478,0.023967832507312478,0.06667919456958771
7,0.12,0.001,0.030481628900562347,0.028387007055335055,24.454713210499957,0.01745518430442538,0.10197361585284982
8,0.14,0.001,0.029735326766967773,0.027483822349777722,22.5311231170132,0.016082172103506924,0.08768763872129577
9,0.16,0.001,0.02914669872477906,0.027270928298494344,16.42471644814265,0.011723566344141791,0.03685912436672619
10,0.18,0.001,0.028586465874481902,0.026632552096633864,15.207959909602307,0.010855074881943117,0.04799417193446841
11,0.2,0.001,0.02778966061333718,0.02551904588955976,15.905654454872487,0.011353072416040319,0.033497296406754425
12,0.22,0.001,0.026802514231146695,0.024561281309151126,14.272578824703151,0.010187422430194968,0.049672851605074744
13,0.24,0.001,0.025925690841048156,0.023533445174981155,13.96473533891524,0.009967691176955918,0.041746055973427634
14,0.25,0.001,0.02549863210936193,0.02279175362096585,15.169348129141884,0.010827514724583785,0.03794007868106876
15,0.25,0.001,0.02512473122086968,0.022465202420002675,14.903998643087,0.010638114663159885,0.05310157127678394
16,0.25,0.001,0.02456202090679142,0.02197504391060336,14.497418431606153,0.01034790751720639,0.04786326922476292
17,0.25,0.001,0.024220477124735313,0.021630322442260232,14.51522787742335,0.010360619469966702,0.10019578358956746
18,0.25,0.001,0.023983184352954327,0.021155633332895475,15.845596434726108,0.01131020445019708,0.07083250795091901
19,0.25,0.001,0.02345735552859627,0.020625190540674555,15.87145164834841,0.011328659277907502,0.04442299170685666
20,0.25,0.001,0.023275197649825465,0.020586816334418386,15.065688261484459,0.010753524811908964,0.06903219861643654
21,0.25,0.001,0.023050468301168282,0.020306051392244825,15.379712825299475,0.010977667969521395,0.08559032343327999
22,0.25,0.001,0.022976174117191207,0.020384332278975646,14.524682371423996,0.010367367859688791,0.0555018274379628
23,0.25,0.001,0.022585799266336016,0.019816309696377637,15.520220961722302,0.011077959287453464,0.028693668012108122
24,0.25,0.001,0.02277334568188651,0.02005044517077706,15.259132898232757,0.01089160092664722,0.07644619047641754
25,0.25,0.001,0.022752191998920698,0.02003227731253961,15.242399957185853,0.010879657357020595,0.078502765457545
26,0.0,0.001,0.019075907438920587,0.019075907438920587,18.680142871325057,0.013333435311438298,0.04463607019611767
27,0.02,0.001,0.01869833482142474,0.018192072433116675,35.46367607956119,0.02531311640225638,0.06042128801345825
28,0.04,0.001,0.01879429531199425,0.01732044098192876,51.621734199430655,0.03684634846497548,0.0321125030251486
29,0.06,0.001,0.019301086372734574,0.017110130524212692,51.15881546318968,0.03651592823925031,0.029241846608264104
30,0.08,0.001,0.019463021330954393,0.017349637493782637,37.010631104261776,0.026417295577631533,0.02287520275318197
31,0.1,0.001,0.019696237287122054,0.017729449024410295,27.554707799972125,0.019667885653085027,0.027551257517188787
32,0.12,0.001,0.019921074500694542,0.017790006013691864,24.880220912196524,0.017758901436257333,0.014720848495406764
33,0.14,0.001,0.020336493152970207,0.01798155477548287,23.566203912487822,0.016820987803346055,0.03171549644321203
34,0.16,0.001,0.02066629303478087,0.01800674871794315,23.287636418797277,0.01662215304696451,0.06207069967474256
35,0.18,0.001,0.020728783513485366,0.018178043709407517,19.85325535352189,0.014170774699159094,0.029051258095673153
36,0.2,0.001,0.021030081267534667,0.018242793071167974,19.524953809518976,0.013936440977529605,0.02602838245885713
37,0.22,0.001,0.021095983674954667,0.018140361109215648,18.82194236438257,0.01343464836858142,0.03366036766341755
38,0.24,0.001,0.021123818943873593,0.01819936024858491,17.071527858818072,0.012185244724352657,0.030453791309680258
39,0.25,0.001,0.021347356737024335,0.018401585815333212,16.508100805772255,0.011783084086918097,0.052317945552723746
40,0.25,0.001,0.02138318945733434,0.018701598216713494,15.027637770822986,0.010726365289666657,0.0557497517604913
41,0.25,0.001,0.02144626732505767,0.018627192688454627,15.798092718520783,0.011276297443626541,0.071892692707479
42,0.25,0.001,0.021032519693188097,0.01831421071167097,15.233402835127777,0.010873235428356729,0.034547267481684685
43,0.25,0.001,0.020906920159977922,0.018087796693836273,15.798368071577077,0.011276493983995058,0.02150384256882327
44,0.25,0.001,0.020748392562666557,0.01803688464508663,15.195289905613384,0.010846031338767582,0.030966618763548986
45,0.25,0.001,0.020811637444535503,0.01806518974233519,15.391093606179384,0.010985791296345028,0.038917982152530124
46,0.25,0.001,0.020415085274498444,0.017677937276788912,15.33897670382101,0.01094859150879444,0.02623730924512659
47,0.25,0.001,0.02048767221440313,0.017842519235931574,14.82343646658079,0.010580611325182575,0.019378601972545897
48,0.25,0.001,0.020360941254057918,0.017612940410930835,15.399796768039247,0.010992003403311383,0.025866113337022916
49,0.25,0.001,0.020496358689658507,0.017772362660844344,15.265272930956703,0.01089598353387345,0.03231836709060839
50,0.25,0.001,0.02029112741023229,0.017601999237878398,15.069873264191495,0.010756511965875442,0.037559302656778266
51,0.0,0.001,0.017275455737973774,0.017275455737973774,17.95926608433059,0.01281889085248436,0.029705636469381198
52,0.02,0.001,0.01656357402523893,0.016084281422543933,33.57445510267337,0.023964636047589843,0.013375124162329095
53,0.04,0.001,0.016872481012621253,0.015472943345790678,49.01880469473767,0.0349884401818256,0.017602753825485706
54,0.06,0.001,0.017405069922723223,0.01534664078244443,48.064319433384824,0.034307151629825,0.016617045471710817
55,0.08,0.001,0.017535521805942204,0.015549905946555668,34.77309808987569,0.024820198493844176,0.01855608115770987
56,0.1,0.001,0.01779506800008578,0.016051803426338874,24.423138639454738,0.01743264713736955,0.018036081322601864
57,0.12,0.001,0.018019903801873436,0.016069244985038318,22.773942900753255,0.016255491006961637,0.017742636081363474
58,0.14,0.001,0.0181276832950873,0.01592012344971117,22.091372086541284,0.015768288427224327,0.018793070954935893
59,0.16,0.001,0.018453493263472263,0.016089018425177827,20.703935711774385,0.014777969815684786,0.023761719864393984
60,0.18,0.001,0.01862961450514263,0.016232308105071484,18.659035384217802,0.01331836929637245,0.020973544035639082
61,0.2,0.001,0.01871098243702012,0.016205060987990613,17.553979710436682,0.012529607216585782,0.017904290530298437
62,0.22,0.001,0.01895225021651147,0.01628063504372366,17.013333262324625,0.01214370682535662,0.02020997035184077
63,0.24,0.001,0.01905929510342754,0.016256224584918297,16.36292486727092,0.011679461004476031,0.01663741402860199
64,0.25,0.001,0.01898865991506571,0.01627818842516406,15.189484267479633,0.010841887414332358,0.016593894655151025
65,0.25,0.001,0.019095954246145005,0.016475113108754158,14.687193814583104,0.010483364607125699,0.021364902279206684
66,0.25,0.001,0.018935148087318776,0.016185833428118804,15.40716098981265,0.01099725980714679,0.01902590080031327
67,0.25,0.001,0.018749922418324756,0.01613673157898896,14.644323997217752,0.01045276516575143,0.02588177765054362
68,0.25,0.001,0.018723368772230405,0.016204606762160446,14.115141064147203,0.010075047154994434,0.026392301411501
69,0.25,0.001,0.018753278636189138,0.016161694170902585,14.523236818010474,0.010366336058537097,0.025818182288536003
70,0.25,0.001,0.018379805964807136,0.01576185034483234,14.671021102401621,0.010471820915347338,0.014449178773377622
71,0.25,0.001,0.01817417109708477,0.015622947875109745,14.297054703486287,0.01020489272197451,0.013717304116913251
72,0.25,0.001,0.01787499970503716,0.015411381953575791,13.806112538922969,0.009854470049195553,0.01653052108096225
73,0.25,0.001,0.01745298315832405,0.014915372657163802,14.220770908159848,0.010150443189264701,0.01818991718547685
74,0.25,0.001,0.016905511308160853,0.014224483563239097,15.0244801271807,0.010724111439814919,0.02552374984536852
75,0.25,0.001,0.016568202183816428,0.013993101624867589,14.430863291826691,0.010300402064116126,0.03794940707406828
76,0.0,0.001,0.013266194379526421,0.013266194379526421,18.95114932258438,0.01352687317814731,0.03613048871713025
77,0.02,0.001,0.012700086671285204,0.01216986551334339,37.142000044470606,0.026511063557794864,0.029832009359129837
78,0.04,0.001,0.013139540716677832,0.011685906019070913,50.91355247777365,0.036340865437383046,0.01363276138103434
79,0.06,0.001,0.01342043695256369,0.011574696439766942,43.09804263499663,0.030762343065664974,0.020890235169125453
80,0.08,0.001,0.013464979729489913,0.011872225960211095,27.893099554010593,0.019909421523205278,0.020400127662079676
81,0.1,0.001,0.013747671935570707,0.012221898801606559,21.37607921423131,0.015257729631856752,0.021197656568671976
82,0.12,0.001,0.013885335124628322,0.012025756731829753,21.7105787459096,0.015496487327558602,0.03468946447329862
83,0.14,0.001,0.014148282023797991,0.012067763772417398,20.820044697059686,0.014860845608179647,0.03610691933759621
84,0.16,0.001,0.01442354077286563,0.012194603087248458,19.517135195743776,0.013930860239645808,0.018598577938973904
85,0.18,0.001,0.014576059317530513,0.012156012395173676,18.836030908785123,0.01344470443168103,0.012147038376757078
86,0.2,0.001,0.014721778790696471,0.012191434554792121,17.725060915305736,0.012651720853180396,0.01621513521032674
87,0.22,0.001,0.014936136473471202,0.012388175772389164,16.225877391097015,0.011581639822339054,0.02652991296989577
88,0.24,0.001,0.015077246084335673,0.012328324343071007,16.04683082785758,0.011453840705108907,0.033270784254585
89,0.25,0.001,0.015307973273335284,0.01256219903804125,15.387319294339578,0.010983097283611404,0.027830442945872034
90,0.25,0.001,0.015256944265043532,0.012453431885206758,15.710883711835866,0.0112140497586266,0.02966210006603173
91,0.25,0.001,0.015229242305045897,0.012631187923616914,14.559498210990924,0.01039221856601779,0.037581928074359894
92,0.25,0.001,0.01516975081710186,0.012408309798314256,15.475116277382252,0.011045764651950216,0.01798122309680496
93,0.25,0.001,0.01500723828404486,0.012379178586063,14.727645566236127,0.010512238091531853,0.015066621559006827
94,0.25,0.001,0.015034222192060393,0.012225978270009123,15.737400330074841,0.011232976680995604,0.013513117097318172
95,0.25,0.001,0.015026419409858131,0.012364983253527096,14.91468830155277,0.010645744683478066,0.01565489691815206
96,0.25,0.001,0.015029120646089243,0.012333815705604979,15.10448873188793,0.01078121965159738,0.029013493164841617
97,0.25,0.001,0.015010012992291112,0.012318673110988292,15.082267775220801,0.010765358868822841,0.021755306848457882
98,0.25,0.001,0.014925371072184486,0.012358285274930426,14.38594950090702,0.010268343683730922,0.03049353483532156
99,0.25,0.001,0.01483275063226596,0.012192878134384714,14.793845995131216,0.010559490360550474,0.02727807965129614
100,0.25,0.001,0.01483471540866242,0.012188189555970556,14.831130041761329,0.01058610281353414,0.025510890542396476
101,0.25,0.001,0.014972171186034574,0.01239950861326421,14.41720108414629,0.010290650309883149,0.03387694340199232
102,0.25,0.001,0.014747806198548862,0.012106210924685001,14.803500336364895,0.010566381396406064,0.015607099048793316
103,0.25,0.001,0.01467827674056105,0.012067363863870102,14.631555804413514,0.01044365153776839,0.014850238072020667
104,0.25,0.001,0.014683030210981888,0.0121374986086651,14.26516020618616,0.010182127199276345,0.0304892487557871
105,0.25,0.001,0.014756208039765545,0.012124267980583869,14.749392152706976,0.010527760280304766,0.022707736917904446
106,0.25,0.001,0.014674590135444057,0.011988674415717207,15.051872677791382,0.01074366358157843,0.017575740481593778
107,0.25,0.001,0.014708525580889148,0.012170071980043846,14.22549262431548,0.010153813436342241,0.01623608677514962
108,0.25,0.001,0.014647592788147751,0.01201526496859955,14.751564007225129,0.010529310497662476,0.023031596360462054
109,0.25,0.001,0.014620470475123097,0.0119937121535681,14.720353602197177,0.010507033263524038,0.016954031373773302
110,0.25,0.001,0.014617208393705066,0.011998958232149956,14.672674195399203,0.010473000853247112,0.025948017835617065
111,0.25,0.001,0.014483193338627775,0.011882715774267402,14.573075051995536,0.010401909387577114,0.014665114294205393
112,0.25,0.001,0.014581464590791677,0.012011437485572906,14.402431469383332,0.01028010811519153,0.026271081662603786
113,0.25,0.001,0.014455599468975603,0.011859198679241253,14.550230548550855,0.010385603532156213,0.02097531527812992
114,0.25,0.001,0.014415891706706697,0.011839808331470034,14.436371572443209,0.010304333741929485,0.02433950480605875
115,0.25,0.001,0.014498071494560078,0.01192154217748231,14.438870861361254,0.01030611767406228,0.025479020018662726
116,0.25,0.001,0.014393823326071201,0.011888149021361889,14.041798458705612,0.01002269697266639,0.021501248702406883
117,0.25,0.001,0.014391641000463357,0.011759989715037835,14.74777400056424,0.010526605282344212,0.014912863661135946
118,0.25,0.001,0.014356840080820698,0.011824809679702324,14.189498190191964,0.010128121477653079,0.020082525110670497
119,0.25,0.001,0.014340305377553902,0.011686012945832425,14.874654641652748,0.010617169622878479,0.017036565579473972
120,0.25,0.001,0.014340309744978592,0.011767214640045954,14.41962548048397,0.01029238078549891,0.017314315906592777
121,0.25,0.001,0.014223285597774101,0.011648235690021718,14.430579577215143,0.010300199555471195,0.00909443206286856
122,0.25,0.001,0.01432314064025806,0.011783239233573958,14.233607329482846,0.010159605517118376,0.014085132761725358
123,0.25,0.001,0.014252171849417511,0.01162371404177548,14.729878080503282,0.010513831606354948,0.009606482128479652
124,0.25,0.001,0.014224471378625168,0.011722851121083157,14.019079814621755,0.01000648095262081,0.018572029790707996
125,0.25,0.001,0.014301730679635022,0.011637827688896422,14.92851289501983,0.010655612344767902,0.017890028123344694
126,0.25,0.001,0.014237772666537238,0.011725645157119173,14.077962457987965,0.010048509962875065,0.016976003335522755
127,0.25,0.001,0.014220265694381555,0.011692794196963455,14.163951015705583,0.010109886520846241,0.016754459722765853
128,0.25,0.001,0.014248412674006011,0.011717293787210233,14.184389869857826,0.01012447528183999,0.022239255452794687
129,0.25,0.001,0.014371818386947321,0.011773883119170853,14.558829953443158,0.010391741579902325,0.0372435636818409
130,0.25,0.001,0.014214562855588048,0.011645132930799043,14.399084818683802,0.010277719356662243,0.016836559466485466
131,0.25,0.001,0.014127164871903242,0.011592201496904812,14.205935897920417,0.010139854316859685,0.021904216147959232
132,0.25,0.001,0.01415260393436643,0.011616729546001313,14.211040580768165,0.010143497916322745,0.013664051025573696
133,0.25,0.001,0.01417381824893663,0.011624478614344865,14.286499021105778,0.010197358330553732,0.02238919652466263
134,0.25,0.001,0.01409074147675906,0.011583306343911767,14.05166764480852,0.010029741359606367,0.019549890953515257
135,0.25,0.001,0.014110239712216307,0.011514534624999339,14.546331631816686,0.010382820579455165,0.012113530188798904
136,0.25,0.001,0.01405451725029858,0.01149890845081334,14.321630836990469,0.010222434573155224,0.01864010508039168
137,0.25,0.001,0.014007957085220185,0.01151802107318325,13.953601191271197,0.009959743890985865,0.01977770376418318
138,0.25,0.001,0.01402071621815485,0.011509838921625923,14.070956736147258,0.010043509447642582,0.01482455711811781
139,0.25,0.001,0.013973531597874567,0.011400254632284852,14.420644265806763,0.010293107969883485,0.014192824584564992
140,0.25,0.001,0.014099563383167122,0.011490768320348415,14.619687560718042,0.010435180271747353,0.01301364035212568
141,0.25,0.001,0.01398755436248549,0.011364011301187693,14.702335796029761,0.010494172588172562,0.012566791980394296
142,0.25,0.001,0.01408001238566739,0.011515255031474207,14.372900074443491,0.010259029317946818,0.019977246278098652
143,0.25,0.001,0.014082708666989156,0.011452065810360798,14.74212263382443,0.010522571473108087,0.02791841993374484
144,0.25,0.001,0.014007372556204172,0.011502410729203947,14.037806387344025,0.010019847528439704,0.02165198139846325
145,0.25,0.001,0.014007367974734685,0.011408937803508308,14.561602832635632,0.010393720794172471,0.01357827614992857
146,0.25,0.001,0.0139645799689341,0.011390347429949672,14.42599969038462,0.010296930542744196,0.013026882628245013
147,0.25,0.001,0.013891083067670137,0.011350311735112101,14.238482216459614,0.0101630850938327,0.01851274711745126
148,0.25,0.001,0.013976202635572709,0.011410980073229608,14.375507534278926,0.010260890459870754,0.015085021566067423
149,0.25,0.001,0.01385351133812902,0.01131118012451018,14.247223448345306,0.010169324374265029,0.0118625022337905
150,0.25,0.001,0.013899164472440198,0.011351987409853994,14.274379697580502,0.01018870784980764,0.015135492331215314
151,0.25,0.001,0.013885987209825614,0.011359594928551566,14.157901600695473,0.010105568594357938,0.011517127443637167
152,0.25,0.001,0.013901905760096162,0.011430174802272855,13.851580158131046,0.009886923738851567,0.01545764199857201
153,0.25,0.001,0.01388502507846265,0.011350857833978744,14.20147331069909,0.010136669029763803,0.01140110580516713
154,0.25,0.001,0.013878816681797902,0.011380742663804505,13.999206253835217,0.009992295684393445,0.013880919199436903
155,0.25,0.001,0.013799805000588335,0.011269295508438188,14.180975060591196,0.010122037873369875,0.013457152460302626
156,0.25,0.001,0.01389702644044292,0.011387909826319346,14.061090800464882,0.010036467380774362,0.022719848302326033
157,0.25,0.001,0.01374710612408908,0.011209072695457557,14.223139317519507,0.010152133702726272,0.015044729225337505
158,0.25,0.001,0.0139226780106794,0.011369955612114268,14.305456541569717,0.01021088975129887,0.02320082059928349
159,0.25,0.001,0.013974157692568517,0.011429372751370327,14.260973776465232,0.01017913902674178,0.02109022332089288
160,0.25,0.001,0.013898465620731812,0.011339737528201858,14.339113006964872,0.010234912924314684,0.020366643023278033
161,0.25,0.001,0.01385823046119114,0.01120798805077312,14.851958092966989,0.010600969373994995,0.018704378445233618
162,0.25,0.001,0.01384187497490047,0.011320651816272502,14.128935401189006,0.010084893219977877,0.014186036107795579
163,0.25,0.001,0.013864959455789739,0.011326290234413299,14.226702380005479,0.010154676930767652,0.011053453332611493
164,0.25,0.001,0.013808974406447416,0.011248444220675087,14.349212077544196,0.010242121397247821,0.010947048065385647
165,0.25,0.001,0.013771987128501854,0.011238619425586792,14.196992564026475,0.010133470780889704,0.014308867177792959
166,0.25,0.001,0.013783518370687232,0.011279692497641795,14.03144105197748,0.010015304105622755,0.01721798362476485
167,0.25,0.001,0.013652488054174811,0.011146173402575963,14.045387767054924,0.010025258934371823,0.010939649106668574
168,0.25,0.001,0.01379208154475412,0.01121321374272659,14.451975638242688,0.01031547154763932,0.01346729722406183
169,0.25,0.001,0.013746328560822167,0.011158273507519864,14.503461390077922,0.010352220835173391,0.011710349869515215
170,0.25,0.001,0.013710275929976793,0.011165352540505108,14.261750151300781,0.010179693184368866,0.019350231625139713
171,0.25,0.001,0.01371837732516466,0.01122829007681614,13.954449856485306,0.009960349647741118,0.01583680204514946
172,0.25,0.001,0.013661369765610012,0.01114171657319611,14.120137088747654,0.010078613196822022,0.01741916194025959
173,0.25,0.001,0.013730600198462131,0.011212017541992636,14.114138349052746,0.010074331441151139,0.024599433610481874
174,0.25,0.001,0.013695299787068863,0.01120963377062878,13.929671681597647,0.00994266358429525,0.013087021985224314
175,0.25,0.001,0.013723775680680146,0.011192712311184348,14.18407897669412,0.010124253373800228,0.018458531238138676
176,0.25,0.001,0.01373943402078959,0.011171405433624763,14.391231891286985,0.010272114126543172,0.014775015546807222
177,0.25,0.001,0.013684667205132891,0.011157584581569674,14.161771860565707,0.010108331092480875,0.013619066482143742
178,0.25,0.001,0.013845521462557514,0.011277764295580773,14.389711230774672,0.010271028715756369,0.03755708757255759
179,0.25,0.001,0.013791686802883894,0.011253004588532857,14.226774451202168,0.010154728373449084,0.018084684320326363
180,0.25,0.001,0.01378456216014029,0.011246023699641228,14.225968689673687,0.010154153240309556,0.0246663186699152
181,0.25,0.001,0.013698903499922572,0.011171615295440031,14.162923717265608,0.010109153260004004,0.02713871401335512
182,0.25,0.001,0.013754531260680016,0.01126496945587522,13.951504180367243,0.009958247095194321,0.023098980874887536
183,0.25,0.001,0.013617245022726671,0.01101354085373485,14.591158351571753,0.010414816810543721,0.013546954574329513
184,0.25,0.001,0.01368489627405309,0.011197731545545653,13.938072013388636,0.009948659538464409,0.012687911612114735
185,0.25,0.001,0.013574743593307462,0.011047345595229371,14.163538219293347,0.010109591876726158,0.016719931470496312
186,0.25,0.001,0.013626024655287306,0.011177034324495017,13.724142326410941,0.009795961689087038,0.018914368535791124
187,0.25,0.001,0.013628281857863906,0.011105959260412707,14.135095600976921,0.010089290221967823,0.020503245959324495
188,0.25,0.001,0.013653095989217094,0.011139606171194236,14.085596469328864,0.010053958935994907,0.021764311141201427
189,0.25,0.001,0.013718077065855774,0.01111363191020955,14.595311470311545,0.010417781206503602,0.01959333861512797
190,0.25,0.001,0.01362536328874328,0.011149068898122876,13.877154343285596,0.009905177975221696,0.022378360320414816
191,0.25,0.001,0.013635509212508178,0.011136549381507347,14.004170830500447,0.009995839279443574,0.02038430848291942
192,0.25,0.001,0.013576273863319954,0.011019269090992897,14.329454771755376,0.010228019109033102,0.01565309627247708
193,0.25,0.001,0.013579784352833309,0.011084784391566127,13.981978873460392,0.009979999195903207,0.018608732282051017
194,0.25,0.001,0.013688167015177114,0.011147616843267146,14.237242766289373,0.010162200404203693,0.021998320307050432
195,0.25,0.001,0.013749283540329024,0.011227070189976021,14.134484148841615,0.010088853782185306,0.02060723105179412
196,0.25,0.001,0.013657755320914509,0.011167287594276711,13.95658092685317,0.009961870754356296,0.02428405944790159
197,0.25,0.001,0.013541784326484414,0.010969848308284154,14.41312948240919,0.01028774409879314,0.012227656319737434
198,0.25,0.001,0.01364032095548649,0.011116595298944447,14.142958032472793,0.010094902235883507,0.014721535678420748
199,0.25,0.001,0.013603343562311822,0.011063057872350613,14.235761847647595,0.010161143360205278,0.01733630562999419
200,0.25,0.001,0.013649976942096189,0.011131226003151798,14.11508051632086,0.010075003937416746,0.015925328912479535
201,0.25,0.001,0.013654207104867129,0.011078235697830074,14.435742916862656,0.010303885022742796,0.015148441041154521
202,0.25,0.001,0.013555154586916739,0.011062831119212952,13.96698144012675,0.009969294389812098,0.013017563681517328
203,0.25,0.001,0.013684052646087259,0.011149045813163802,14.206178156845727,0.010140027235435922,0.01641160382756165
204,0.25,0.001,0.013565563710638684,0.010974603946477831,14.519738633358683,0.010363839138728539,0.018227489399058477
205,0.25,0.001,0.01358029900760843,0.01102982136058851,14.292876147990706,0.010201910169872024,0.01923810224980116
206,0.25,0.001,0.013556098016684824,0.011043074549902184,14.082983350404026,0.010052093754749483,0.019730152362691506
207,0.25,0.001,0.013476724119305903,0.01093610427581448,14.237634045570578,0.01016247968991476,0.017085909444306577
208,0.25,0.001,0.013580946349664101,0.01107274467913402,14.055962448306655,0.010032806886728519,0.014528412238827773
209,0.25,0.001,0.013591390877306316,0.011080032209968217,14.073653883339432,0.010045434606237996,0.02342075535229274
210,0.25,0.001,0.013633134927427565,0.011049687552714406,14.477639499095366,0.01033378979235929,0.021298989786633422
211,0.25,0.001,0.013606566252655971,0.01109381306752526,14.081469221045161,0.010051013005742442,0.017314664354281768
212,0.25,0.001,0.013563456373576139,0.011062540685471084,14.015131612278722,0.0100036628210412,0.024543756885187968
213,0.25,0.001,0.013523358473677215,0.011030843294701541,13.968054442650532,0.009970060273126718,0.014673234761825629
214,0.25,0.001,0.01355091810527014,0.011031614113280273,14.118180533784527,0.010077216655092452,0.01754765704806362
215,0.25,0.001,0.013583267433227275,0.011042752298628934,14.237046882983817,0.010162060587425994,0.026286723092198372
216,0.25,0.001,0.01361203756784533,0.011118202474797122,13.975452075669118,0.009975340525102868,0.025186188785093173
217,0.25,0.001,0.013435349014102684,0.010839288566981084,14.54832253537726,0.01038424163838491,0.011610369796731643
218,0.25,0.001,0.013476336067474122,0.011031223809423977,13.702408995779919,0.00978044896201279,0.0174057184319411
219,0.25,0.001,0.013506761950174287,0.010989814090444581,14.104976577105907,0.010067791989368956,0.020599990684006895
220,0.25,0.001,0.013533531157595896,0.011026542069057963,14.049166681714047,0.010027956232486828,0.022791950963437557
221,0.25,0.001,0.013516035040243913,0.011028208246131252,13.941780971722965,0.009951306903442515,0.019177058977740153
222,0.25,0.001,0.013545536470296621,0.010986011479878776,14.343579639723949,0.010238101099017807,0.022297674790024757
223,0.25,0.001,0.013478531335960973,0.010965094361955204,14.085301084448481,0.010053748097393634,0.015222098678350449
224,0.25,0.001,0.013527778699119692,0.011002078549913643,14.154022638838565,0.010102799884966856,0.019488222697483643
225,0.25,0.001,0.013542409070874485,0.011036918318686974,14.040769814862015,0.010021962751507506,0.019745515659451485
226,0.25,0.001,0.013437307667451704,0.010970941100333314,13.821518727794544,0.009865466615128155,0.015488687104412488
227,0.25,0.001,0.013447083947237372,0.010956685457260218,13.95619195597679,0.0099615931163289,0.014246909746101924
228,0.25,0.001,0.013483332920919713,0.010986392878105267,13.99285064408132,0.00998775920348417,0.016659927421382496
229,0.25,0.001,0.01338375769191237,0.010830221217225846,14.310018408852276,0.010214145902107263,0.012330453975924425
230,0.25,0.001,0.013469675756207597,0.010932412424322883,14.218824050828704,0.010149053569470882,0.012916741759649344
231,0.25,0.001,0.013469016393487203,0.010899583870558692,14.399101243333886,0.010277731080181218,0.016110345721244812
232,0.25,0.001,0.013425012212474363,0.010924524213198781,14.01273453672824,0.010001951846344212,0.01474612791623388
233,0.25,0.001,0.013384207425078874,0.010908871757044187,13.871781962425027,0.009901343299375465,0.011982768507940429
234,0.25,0.001,0.013466047029714568,0.010947212904764563,14.115547077580011,0.010075336957587446,0.017387616182012216
235,0.25,0.001,0.013428166219486438,0.01094307492471193,13.926451293646853,0.009940364949069845,0.016647735876696452
236,0.25,0.001,0.013408993730608438,0.010903586294219662,14.04030394379259,0.010021630223977581,0.016343079241258756
237,0.25,0.001,0.013412650328466537,0.010799004500481348,14.646870843938627,0.010454583043496522,0.01301036389278514
238,0.25,0.001,0.013376727579548628,0.01088015208007144,13.990810221739679,0.009986302799243169,0.018679518518703326
239,0.25,0.001,0.013366647627122683,0.010940145944816704,13.598115508305705,0.00970600678679922,0.01675399233187948
240,0.25,0.001,0.01347864456565864,0.010960528005397261,14.111525785077754,0.010072466656015527,0.01102462291185345
241,0.25,0.001,0.013422946728000868,0.010836680176096325,14.493437813663249,0.01034506624815364,0.014851720338421208
242,0.25,0.001,0.0135139530037318,0.011022007593789428,13.964862935408986,0.009967782252254809,0.01759741162615163
243,0.25,0.001,0.01345343352693946,0.010826340653366594,14.722228556215617,0.010508371560467964,0.015537155392978872
244,0.25,0.001,0.013419420415112033,0.010895327063764657,14.1450208533364,0.010096374627649108,0.015173971253846372
245,0.25,0.001,0.013391879669556845,0.010869133040254303,14.137473090062223,0.010090987216318502,0.011801994605255979
246,0.25,0.001,0.013360729452432076,0.01086312339556902,13.996584265039719,0.009990424172048335,0.015063065237232618
247,0.25,0.001,0.013366200656044892,0.010819348356342694,14.27255908667604,0.010187408341667408,0.012920879891940526
248,0.25,0.001,0.013337524129592411,0.0107811918564159,14.32568646643156,0.010225329383605682,0.011808880072619234
249,0.25,0.001,0.013332314406747049,0.010897581668201753,13.644242920910525,0.0097389314210639,0.013069384864398412
250,0.25,0.001,0.01341691894643464,0.010853553106575695,14.365102732968506,0.010253463763717706,0.011351579933294229
251,0.25,0.001,0.013351456601455043,0.010823981724861636,14.163969165829982,0.010109899475967153,0.013302505681557315
252,0.25,0.001,0.013367382222035111,0.010852914558573281,14.091078954104399,0.010057872201359314,0.011327456350305251
253,0.25,0.001,0.013334840754716495,0.010741774580261527,14.531542945899124,0.010372264772233493,0.01206239645502397
254,0.25,0.001,0.01337831839691383,0.01081798815630686,14.348092165436313,0.010241322031003792,0.01390208796198879
255,0.25,0.001,0.013389068471226832,0.010853689828828377,14.208261683401094,0.010141514406424764,0.014479417486914567
256,0.25,0.001,0.013350585097569999,0.010866506482886656,13.920777080694446,0.009936314832758348,0.010840587584035737
257,0.25,0.001,0.013301411365821483,0.010806500221759737,13.981481724671454,0.009979644343091688,0.01083484451685633
258,0.25,0.001,0.013368822112770564,0.01077547954727866,14.533091412196823,0.010373370030119074,0.008594407034771783
259,0.25,0.001,0.013258679132352976,0.010718883306680653,14.233015918498518,0.010159183382225923,0.01007167309788721
260,0.25,0.001,0.013295523412434571,0.010812733272286382,13.913555571968805,0.009931160294053394,0.011283285649759429
261,0.25,0.001,0.0132806453771871,0.01071154899795,14.397217165287083,0.01027638627072597,0.010376353215958391
262,0.25,0.001,0.013358403803338923,0.010835141747333746,14.14036082521919,0.010093048412005132,0.018184842142675604
263,0.25,0.001,0.013385372140734004,0.010887705782442046,13.996923143531408,0.009990666055340049,0.023586786618190154
264,0.25,0.001,0.0133259849791349,0.010791016000261517,14.205966387517877,0.010139876079598771,0.01936220590557371
265,0.25,0.001,0.013341175435534463,0.010823820849702964,14.107254564616383,0.010069417961896062,0.012671167430068766
266,0.25,0.001,0.013263188976530341,0.010694186813437123,14.39668746799012,0.010276008185574675,0.014209414566201823
267,0.25,0.001,0.013250751368482859,0.010773809360281033,13.880783694297586,0.009907768518413695,0.012346580225442137
268,0.25,0.001,0.013429433692583682,0.010822192756664054,14.610979185127688,0.010428964443345958,0.011702343688479491
269,0.25,0.001,0.013365043605015156,0.0107681816603196,14.552814945323544,0.010387448212222372,0.011271101289561816
270,0.25,0.001,0.01327847209838754,0.01072779035282237,14.294020811328096,0.010202727202946535,0.01220987191689866
271,0.25,0.001,0.013219366494502444,0.010730051556215018,13.950121261671296,0.00995726000119293,0.01476072074313249
272,0.25,0.001,0.01331815644779896,0.010810508647783315,14.052858662780165,0.010030591479500474,0.015517703789685453
273,0.25,0.001,0.013225059673955214,0.010690379646449625,14.204347351652485,0.010138720450858304,0.011533046274312906
274,0.25,0.001,0.013275781691912333,0.010814750894977004,13.791617647651355,0.00984412394550418,0.01151947517480169
275,0.25,0.001,0.01325239863674769,0.010737174097220881,14.095317588750191,0.010060897636509773,0.013785814600331443
276,0.25,0.001,0.013261954270503631,0.010759651565282153,14.022904048630544,0.01000921059859425,0.014112983564180987
277,0.25,0.001,0.013338108954627823,0.010788077743573701,14.29037502400741,0.010200124927913926,0.011931558538760458
278,0.25,0.001,0.013256527091806851,0.010741187521418179,14.095962009103491,0.010061357608210914,0.01477082259953022
279,0.25,0.001,0.013207164508789268,0.010692261576124245,14.093516135274053,0.010059611802479695,0.014031850666339909
280,0.25,0.001,0.013267248545597993,0.010760988486807767,14.045081896420504,0.010025040611292294,0.0158483177157385
281,0.25,0.001,0.013308977528331769,0.010798579225348522,14.068272142946574,0.010041593249783421,0.01772934970046793
282,0.25,0.001,0.013210762815873314,0.010653586404666779,14.33041604748565,0.010228705244457995,0.010680095159581729
283,0.25,0.001,0.013200210275306096,0.010700257497322735,14.009736086745134,0.009999811625085748,0.00996033288538456
284,0.25,0.001,0.01326360600410726,0.0107186538802601,14.261911448173244,0.010179808314185043,0.012007310853472777
285,0.25,0.001,0.013254932426189444,0.010749936632101576,14.037996380719695,0.010019983141127549,0.013928574243826526
286,0.25,0.001,0.013208379363299582,0.01075617148379242,13.742172537339638,0.009808831218657842,0.011965224452848946
287,0.25,0.001,0.013257950271108623,0.010669428094638589,14.50607963879126,0.010354089677938086,0.00977549994630473
288,0.25,0.001,0.013233686514963877,0.010705626551471741,14.167248343488698,0.010112240073867736,0.01104785901095186
289,0.25,0.001,0.013303432042066072,0.010737995728668199,14.376704868885591,0.010261745088426547,0.014787844116134303
290,0.25,0.001,0.01319416941195945,0.010698237399454514,13.987201723317936,0.009983727140127007,0.013054663980645793
291,0.25,0.001,0.013225760080903988,0.010763870668312886,13.796429438229586,0.009847558485531467,0.015109276665108544
292,0.25,0.001,0.013179351557456047,0.010646174306591887,14.19592476823802,0.010132708614017145,0.012465483309434993
293,0.25,0.001,0.01324835529865146,0.010756251242804207,13.965751347157076,0.009968416379127105,0.01814273279160261
294,0.25,0.001,0.013260700045413085,0.010775800657738683,13.92537636512066,0.00993959769102117,0.016384407079645565
295,0.25,0.001,0.01318013993681643,0.010583092214899425,14.553855961284311,0.010388191264300009,0.014418204448052816
296,0.25,0.001,0.01317459561185761,0.010718914199720677,13.761639704622674,0.009822726413006905,0.012452330107667617
297,0.25,0.001,0.013211573669937391,0.01072836232833874,13.915917403540575,0.009932846112448662,0.01700685279709952
298,0.25,0.001,0.013214682873274703,0.010685656315357877,14.172664686636704,0.010116106128934122,0.019314316899648735
299,0.25,0.001,0.013277787539862041,0.01075971679201846,14.111267651788763,0.010072282406701473,0.018790042560015405
300,0.25,0.001,0.013271611525442605,0.01068824232717598,14.477201648329755,0.01033347726504622,0.014310739934444427
301,0.25,0.001,0.013266971974672344,0.010699064910302536,14.390550541119937,0.010271627795231933,0.013866618807826723
302,0.25,0.001,0.013139023739288954,0.010679948375922397,13.780658896802981,0.00983630185353532,0.012062765258763517
303,0.25,0.001,0.013184845736728467,0.01063809056099149,14.272015781449221,0.010187020543504084,0.012130423781595059
304,0.25,0.001,0.013214703232578224,0.010668852553226983,14.266948506418242,0.010183403644838145,0.016696291310446604
305,0.25,0.001,0.013295379747388415,0.010807319630784481,13.943089228679032,0.009952240705695241,0.025968643171446665
306,0.25,0.001,0.013268750964739066,0.010778582638953892,13.954903035991642,0.009960673116339502,0.02167308862720217
307,0.25,0.001,0.013236436282437121,0.010691537451190296,14.26161387380586,0.01017959591278077,0.01969374516712768
308,0.25,0.001,0.013187742430015414,0.010721393380414303,13.821420126264428,0.009865396235734781,0.015116852641637837
309,0.25,0.001,0.013257298019685051,0.010746812022093018,14.068763968414082,0.010041944302936532,0.01576473843306303
310,0.25,0.001,0.013236977774786482,0.01068951576164853,14.27597702045021,0.010189847980335624,0.017318792774208953
311,0.25,0.001,0.013204701185627206,0.01070095385335987,14.031000678288615,0.010014989777507933,0.016934604783143316
312,0.25,0.001,0.013305690836316216,0.010813768276794469,13.964734853917054,0.009967690830775913,0.01724988434995924
313,0.25,0.001,0.013267723825238735,0.0106915021975568,14.437146727788127,0.010304887029113582,0.023034770706934587
314,0.25,0.001,0.01322675606777805,0.01074376807053981,13.914665609233829,0.009931952611872826,0.01655638949679477
315,0.25,0.001,0.013187891045416771,0.010625056692451458,14.362124867427612,0.010251338235137481,0.016357972818825926
316,0.25,0.001,0.013090636271500646,0.010685697546306187,13.477276979273864,0.009619755160081274,0.013034554597522532
317,0.25,0.001,0.01320264680188122,0.010692961860111115,14.064274272592261,0.010038739666375633,0.015223756565579347
318,0.25,0.001,0.013187545561174746,0.010504396926056056,15.036366411409634,0.010732595582733501,0.014886623248457909
319,0.25,0.001,0.013162792990471447,0.010663022485295251,14.008713894776434,0.00999908200911951,0.012351895150329386
320,0.25,0.001,0.013225724305820932,0.010637505041449023,14.504380622528002,0.010352876961119202,0.011377183587423392
321,0.25,0.001,0.013231065907586175,0.010701708746094867,14.174518685469126,0.010117429468571824,0.012247128545173578
322,0.25,0.001,0.013114711700102956,0.010589176893671452,14.153096744658603,0.010102139004038974,0.009445591430578913
323,0.25,0.001,0.013087616122184289,0.010532852729058352,14.316894647836103,0.010219053995600358,0.01095823517867497
324,0.25,0.001,0.013100776507138914,0.010589148717178693,14.07516120873337,0.010046510498739022,0.010856832111520427
325,0.25,0.001,0.013090580109789203,0.010601058898352469,13.951276963380847,0.009958084913191183,0.011791598916585957
326,0.25,0.001,0.01314383335548173,0.010665639841013696,13.887796765726177,0.009912774279604694,0.011881091365856784
327,0.25,0.001,0.013187289033039567,0.010590898002837136,14.550175564213312,0.010385564285662606,0.012270790790872914
328,0.25,0.001,0.013159613541730458,0.010586295645765978,14.420873739900099,0.010293271762955103,0.011820325760969095
329,0.25,0.001,0.013182669568324147,0.010628718807655762,14.312340731725715,0.010215803520146834,0.010155765605824334
330,0.25,0.001,0.013034202338339794,0.010523436449850683,14.070333527469401,0.010043064616323627,0.00956574927217194
331,0.25,0.001,0.013100775106739444,0.010607631027716733,13.9715807175578,0.009972577243081942,0.014740410526948316
332,0.25,0.001,0.013125986416430228,0.010593854592234116,14.19006694150146,0.010128527438616317,0.01366546324321202
333,0.25,0.001,0.013049438249656799,0.0105426287720285,14.04815985113018,0.01002723758110648,0.009954918375504869
334,0.25,0.001,0.013141480679817333,0.010589908906383881,14.29900901766453,0.010206287664285888,0.013207055096115385
335,0.25,0.001,0.013096297041383233,0.010541658629925153,14.316192853130163,0.010218553071470494,0.012391573549913508
336,0.25,0.001,0.013151059384869917,0.010695920763013561,13.758596711753341,0.00982055439811088,0.01607255850519453
337,0.25,0.001,0.013154985793025977,0.010614961351570844,14.234296684451675,0.010160097562064008,0.013501048620258058
338,0.25,0.001,0.013203835993786604,0.010608874960440441,14.542160964536784,0.010379843657770723,0.014565789406853063
339,0.25,0.001,0.013162371083128569,0.010636017664647626,14.157683663962814,0.010105413036376028,0.02278773326958929
340,0.25,0.001,0.01313495883276381,0.010530078366927093,14.597749973567598,0.010419521751297359,0.018589891360274384
341,0.25,0.001,0.01313790981373169,0.01065564900636673,13.910590101862304,0.009929043613035192,0.013886676169931889
342,0.25,0.001,0.013075642362874557,0.010540298673536055,14.208065331419407,0.010141374255117349,0.012390419308628355
343,0.25,0.001,0.013108909366911956,0.010596486361820277,14.079618379364387,0.010049691919603417,0.012473934330046177
344,0.25,0.001,0.01317989150367331,0.010646876876759354,14.195013874025975,0.010132058439704479,0.013619472006601947
345,0.25,0.001,0.013146227608209425,0.010639986911365047,14.04497272752608,0.010024962689169222,0.017774995815541064
346,0.25,0.001,0.013059577260230165,0.010491559730528474,14.39117093074584,0.010272070614379614,0.010104204528033733
347,0.25,0.001,0.013213425633340417,0.010668743572546246,14.260397978691717,0.010178728036182525,0.01110067152019058
348,0.25,0.001,0.013162537737496762,0.010542226830055632,14.684221857625873,0.010481243295949945,0.014271418430975505
349,0.25,0.001,0.013049439515709003,0.010489381257726978,14.34656727518021,0.010240233601127916,0.012694153269486768
350,0.25,0.001,0.013009450375614802,0.010531512004821983,13.886366389491448,0.009911753311557065,0.013303557144744056
351,0.25,0.001,0.013024767810674635,0.010446040274024302,14.451189628731651,0.010314910513013312,0.009784402392272438
352,0.25,0.001,0.013135023731601705,0.010604357590539093,14.181852517909117,0.010122664181234203,0.013183469218867165
353,0.25,0.001,0.013199368284555257,0.010659281496860287,14.234646433431537,0.01016034720444792,0.023610680497118404
354,0.25,0.001,0.013150500334015977,0.01053912886634724,14.634126297127647,0.010445486293452997,0.020179901139012406
355,0.25,0.001,0.013221457744049122,0.010702773839836453,14.114704661380982,0.010074735661228395,0.020144975345049585
356,0.25,0.001,0.01325135655282179,0.010691403122140609,14.345979478365052,0.010239814045942222,0.023593979621572152
357,0.25,0.001,0.013192532768514016,0.010652398451488729,14.234912802362793,0.010160537332164734,0.021932043401258334
358,0.25,0.001,0.013131027478806692,0.010621396515035688,14.063972454490754,0.010038524235896327,0.02006200740912131
359,0.25,0.001,0.013088149560528891,0.010563646720991013,14.147314976363427,0.01009801211731865,0.019689297702695643
360,0.25,0.001,0.013012384795435775,0.010506338503639827,14.043882101847082,0.010024184226871579,0.01546717355293887
361,0.25,0.001,0.013125299348571044,0.010547924320006284,14.443609235339176,0.010309499811091489,0.015203669002013547
362,0.25,0.001,0.01303075426110137,0.010593480196004975,13.658484568514275,0.009749096765534815,0.017808572921369756
363,0.25,0.001,0.01302164265189165,0.010433191522354748,14.505681005258724,0.010353805142939846,0.011728579976728984
364,0.25,0.001,0.013004251598656032,0.010536030037351372,13.831914456374488,0.009872886835385073,0.010252033160733325
365,0.25,0.001,0.012993097510234359,0.010528215671682271,13.813197809792964,0.00985952734460597,0.011557126151663917
366,0.25,0.001,0.013003596006767383,0.010441855805263398,14.355992508400915,0.010246961105211217,0.010472230812800782
367,0.25,0.001,0.0130664511631564,0.010523366443539598,14.25144663533255,0.010172338783249501,0.015358549542725086
368,0.25,0.001,0.012972353495347762,0.010420360702629632,14.301368302995826,0.010207971665236135,0.012383074632712774
369,0.25,0.001,0.013030748008260809,0.010525473630315372,14.03955700694786,0.01002109707847813,0.012577803738947426
370,0.25,0.001,0.01303249046042525,0.01049164200342809,14.238915002724944,0.010163394006227655,0.010622670740953513
371,0.25,0.001,0.013045657036739485,0.01044505443378445,14.57377788898123,0.01040241105566112,0.012305877836687224
372,0.25,0.001,0.01303711728919252,0.010543659752949817,13.973336077552553,0.00997383017669704,0.012629978624837739
373,0.25,0.001,0.013076996801917448,0.010514200309833426,14.3619117270472,0.010251186100676088,0.016834247458193983
374,0.25,0.001,0.013037389599715876,0.010426180669468597,14.633214218400802,0.010444835273662243,0.014648965559899807
375,0.25,0.001,0.012981155793886168,0.010474642978931041,14.046498597105442,0.010026051818062414,0.012816064791487796
376,0.25,0.001,0.013006643781525,0.010558061579511044,13.721855133261831,0.009794329145797167,0.014139187788324696
377,0.25,0.001,0.013059670970863992,0.010433567307597997,14.716685390705583,0.010504414982659232,0.016774854755827358
378,0.25,0.001,0.013051964902753935,0.01057373334068468,13.888009285868526,0.009912925971355123,0.019172652225409235
379,0.25,0.001,0.013138801583560289,0.010597529547849174,14.241288546536547,0.01016508818453715,0.018110971099564006
380,0.25,0.001,0.01306645993671601,0.010475791171010957,14.51810667742144,0.01036267428795249,0.015785231853702238
381,0.25,0.001,0.013061205715323572,0.010532790314506348,14.169240921225699,0.010113662327784224,0.01604870760015079
382,0.25,0.001,0.012992268685515614,0.010503757419406201,13.945617351671885,0.009954045218894992,0.014614058259342397
383,0.25,0.001,0.01305211415801261,0.010512251076732551,14.23339365047464,0.01015945299819746,0.019471888962600912
384,0.25,0.001,0.013177517018210334,0.010590423433642953,14.498073022931013,0.010348374748701651,0.021127291822007725
385,0.25,0.001,0.012993393411226843,0.010438090372457189,14.319918075225756,0.010221212045129019,0.013391177303024701
386,0.25,0.001,0.013057799984798892,0.010500200598302563,14.332786504097264,0.010230397219198618,0.014876820546175753
387,0.25,0.001,0.013026453786891655,0.010486194005459182,14.235616700282016,0.010161039757517499,0.01587180487279381
388,0.25,0.001,0.013053762555705306,0.01046723438640897,14.494903186714154,0.010346112196084336,0.01177891024521419
389,0.25,0.001,0.012917877823879492,0.010376992942833667,14.239118953788775,0.01016353958157657,0.012900212380502905
390,0.25,0.001,0.013046873054833751,0.010554772375884732,13.965733059461076,0.009968403325810903,0.012996901758015156
391,0.25,0.001,0.013027723946934223,0.010380689692307802,14.833980357442917,0.01058813730010201,0.013415335744087185
392,0.25,0.001,0.012971303762735977,0.010462310474848689,14.060398083152863,0.010035972935869282,0.01419414539954492
393,0.25,0.001,0.012955013170729057,0.010402840379999,14.30237679609751,0.010208691503281592,0.012325988217656101
394,0.25,0.001,0.013043572707215557,0.010475474391542465,14.391623116938584,0.01027239337397472,0.014706762773650033
395,0.25,0.001,0.01297123036358715,0.010399746936279142,14.410593468868937,0.010285933953511019,0.012832797664616789
396,0.25,0.001,0.012947822246964665,0.010388126098129597,14.344538185007707,0.01023878528551585,0.015046617681426662
397,0.25,0.001,0.012946097533193516,0.010431271857037813,14.0930839389344,0.010059303311159458,0.019037806961153234
398,0.25,0.001,0.013025732945495975,0.010514749913114354,14.071549730370855,0.01004393271261303,0.012798565839018141
399,0.25,0.001,0.013014881054171723,0.010442575808696467,14.41519978576884,0.010289221831383897,0.012844405003956385
400,0.25,0.001,0.012942504962054617,0.010406328941306013,14.212730482329949,0.010144704127287615,0.01054818635540349
401,0.25,0.001,0.012870712754542058,0.01030421379297826,14.382660695567981,0.010265996213824399,0.00949205005807536
402,0.25,0.001,0.012913292401395101,0.010378082146216867,14.20731878630398,0.010140841389224825,0.00930394431842225
403,0.25,0.001,0.01294580104016223,0.010423029445038885,14.137612230911815,0.010091086531700082,0.011857499235442706
404,0.25,0.001,0.012950396388404818,0.010384888326735543,14.377106902068867,0.010262032050013466,0.013614724523254804
405,0.25,0.001,0.013028397837375954,0.010453611195615714,14.429104448239203,0.010299146643996575,0.014041393463100706
406,0.25,0.001,0.013030753532438231,0.010436276283597888,14.53945097888303,0.01037790933539117,0.019048334631536688
407,0.25,0.001,0.012986703764437755,0.010452139769705845,14.203695630677464,0.01013825526814951,0.016837025926049267
408,0.25,0.001,0.013021107002509835,0.010470505311975853,14.29357257973594,0.010202407266049922,0.012967625499836035
409,0.25,0.001,0.012904666307266156,0.010314893278049665,14.513087370576368,0.010359091627820392,0.01109342450009925
410,0.25,0.001,0.012935142495047784,0.010407851011581117,14.16294186039484,0.010109166210131934,0.011875228424157416
411,0.25,0.001,0.012983917919030837,0.010380592597944521,14.589034936247362,0.010413301167913891,0.011859710993511336
412,0.25,0.001,0.01296245022323939,0.010387064483754501,14.432460836209994,0.010301542352755171,0.014119109537984644
413,0.25,0.001,0.01295053021877567,0.010391753558570423,14.33938478315955,0.010235106911605675,0.012631157679217202
414,0.25,0.001,0.013068927531665725,0.010477370725976516,14.523083945649761,0.010366226941934162,0.011312095847512995
415,0.25,0.001,0.012905584413713086,0.01033786860292363,14.38947903789343,0.010270862982079536,0.011119114634181772
416,0.25,0.001,0.012988698356819036,0.010431871858760168,14.328456256092323,0.010227306392642629,0.013504011024321829
417,0.25,0.001,0.012985057789549996,0.010361140760112655,14.704431713356074,0.010495668603394771,0.01663314484591995
418,0.25,0.001,0.012936075136047267,0.010426299621448977,14.064782147302605,0.010039102175091082,0.015083494862275464
419,0.25,0.001,0.012936618725580225,0.010371672039655718,14.373962159844657,0.010259787408882696,0.016998829852257456
420,0.25,0.001,0.012893898064193195,0.010386029558943945,14.0540958488483,0.010031474553068022,0.01318053315792765
421,0.25,0.001,0.012958817097442657,0.010388329144667443,14.405014795895601,0.010281952031331622,0.011907713088606085
422,0.25,0.001,0.012910359987674832,0.010348043370363474,14.35922275953596,0.010249266780539586,0.013448384590446949
423,0.25,0.001,0.01291640175046504,0.010375589020732417,14.238714796406716,0.010163251103787806,0.011607286121164049
424,0.25,0.001,0.012977598098386762,0.01043701217188739,14.237443756066208,0.010162343865857393,0.016424596442707946
425,0.25,0.001,0.012953984951896452,0.010384473193682785,14.399543727231201,0.01027804691451192,0.012934116247509207
426,0.25,0.001,0.012885998542850934,0.010378463508010203,14.052226176180291,0.010030140025824618,0.01587595391486372
427,0.25,0.001,0.012919912301459347,0.010402287668514369,14.108767315927519,0.01007049772728588,0.018176281824707985
428,0.25,0.001,0.012853989209114486,0.010298504997363591,14.320932467584214,0.010221936093921637,0.010705887606101376
429,0.25,0.001,0.012878070291687341,0.010326079261423177,14.3013581040436,0.010207964385470093,0.009889286543641771
430,0.25,0.001,0.012896144981234172,0.010422145134899172,13.864296022429151,0.009896000016009387,0.010746790229209833
431,0.25,0.001,0.012977063029658386,0.010329379964264652,14.83761722592678,0.010590733209084068,0.018821229759071554
432,0.25,0.001,0.013005982310235645,0.010409175609591393,14.552505131747145,0.010387227074765986,0.012889887472348554
433,0.25,0.001,0.01293350690588683,0.010441011740099685,13.967942503670317,0.009969980373783239,0.011242702337247985
434,0.25,0.001,0.012995103308088476,0.010446140804489697,14.28438664648527,0.01019585056851197,0.01393254500414644
435,0.25,0.001,0.012974927290672924,0.010359332122564461,14.65779628846931,0.01046238136221935,0.012557770923844405
436,0.25,0.001,0.012940828301340414,0.010342051703164077,14.563543995901542,0.0103951063496799,0.01745354091482503
437,0.25,0.001,0.012966080964941413,0.01036097940904587,14.598989281502796,0.010420406339402423,0.013152320603174823
438,0.25,0.001,0.012892554297788218,0.010385764548714411,14.048049488394067,0.010027158806848013,0.012527701711016042
439,0.25,0.001,0.012865763993291663,0.010350182962155284,14.09731585355726,0.010062323949719672,0.00963613683623927
440,0.25,0.001,0.012883164141154086,0.010326771598427686,14.326023771010867,0.010225570143476708,0.01309398455279214
441,0.25,0.001,0.012946049190948383,0.010424809810457281,14.129025531572934,0.010084957552871473,0.015201648830303125
442,0.25,0.001,0.012989441447488254,0.010408722007679035,14.462351197426942,0.010322877371468196,0.021725275021578585
443,0.25,0.001,0.012955952895700494,0.010336043723018653,14.681971151263323,0.010479636796048053,0.014778176322579384
444,0.25,0.001,0.012927905481062775,0.01034011104551752,14.501999526268696,0.010351177392054744,0.014963343739509583
445,0.25,0.001,0.01297463081813529,0.010474917508461365,14.008393460206122,0.009998853290653906,0.01245901414326259
446,0.25,0.001,0.012874189381713098,0.010291097508083054,14.475645750833898,0.010332366702950678,0.011647260481757777
447,0.25,0.001,0.012887098159285805,0.010326498868923024,14.349598637419982,0.010242397314361157,0.011984207135226046
448,0.25,0.001,0.012898027896881104,0.010313092302849793,14.485978921643095,0.010339742270980083,0.010634986816772394
449,0.25,0.001,0.012857369292973743,0.010282802680156633,14.427871435953527,0.010298266549574253,0.012497894332877226
450,0.25,0.001,0.012834082469161973,0.010305441508392979,14.170503198954762,0.010114563311173991,0.01465788297355175
451,0.25,0.001,0.012843430452139861,0.01036123790001738,13.91020695329587,0.00992877013083217,0.01493224807615791
452,0.25,0.001,0.012907890416226352,0.010272194938802486,14.770437044735933,0.01054278161651387,0.012610929352896554
453,0.25,0.001,0.012849880459839091,0.01024534252032747,14.595830035967465,0.010418151346158077,0.013925671710499696
454,0.25,0.001,0.012852959184563539,0.010291244793674182,14.355847540577933,0.010246857630676611,0.014315013507647174
455,0.25,0.001,0.012895386955247678,0.010342590021274637,14.305875580001869,0.010211188850822176,0.016710829388882433
456,0.25,0.001,0.012790719661998282,0.010246199958736857,14.259488777309874,0.010178079070171217,0.010142333273376738
457,0.25,0.001,0.012827758672749646,0.010270220409705324,14.332444463790484,0.010230153079079575,0.01194267054753644
458,0.25,0.001,0.01286956005955165,0.010290080897765085,14.45540077004281,0.010317916324084804,0.012942289534424032
459,0.25,0.001,0.012814116844119537,0.010303033010300914,14.072115009746225,0.01004433619539345,0.011268349098307746
460,0.25,0.001,0.012818889022966469,0.010160054052863406,14.900110972248255,0.010635339737507677,0.013086689370019096
461,0.25,0.001,0.012858533097799949,0.01028792683973289,14.405677380363633,0.010282424968139638,0.009345649209405695
462,0.25,0.001,0.012836707462180944,0.01028168792802212,14.318329818091357,0.010220078385504181,0.014963962004653044
463,0.25,0.001,0.01281697236110791,0.010257949318263161,14.34076379155763,0.010236091214530785,0.01904334274253675
464,0.25,0.001,0.012856691470028136,0.010326264997657325,14.18050959757313,0.010121705637097167,0.01707494245576007
465,0.25,0.001,0.012877441157101856,0.010231124706256652,14.8299579480458,0.010585266201317488,0.013211494045598167
466,0.25,0.001,0.012922974884018192,0.010316568431341998,14.606303065796645,0.010425626742181759,0.015417285662676607
467,0.25,0.001,0.012854909257904095,0.010232004136630404,14.698761331422988,0.010491621221572439,0.012876251845487527
468,0.25,0.001,0.012835996275571856,0.010308171349206443,14.165929952868623,0.010111299038450124,0.016331360143210207
469,0.25,0.001,0.01284733857995942,0.010248313088671357,14.564939575848195,0.010396102480976584,0.011085574249071735
470,0.25,0.001,0.012809258468977397,0.010249614508362592,14.344245061897707,0.010238576061311712,0.012828948774508067
471,0.25,0.001,0.012814452250039519,0.010251102650260285,14.365012129245002,0.01025339909296574,0.011518186423927546
472,0.25,0.001,0.012852094826131403,0.010308328530953828,14.255265093665834,0.010175064306685105,0.012237451637962036
473,0.25,0.001,0.012827879339365475,0.010278043635462782,14.28927788349702,0.010199341815486809,0.012894465321941035
474,0.25,0.001,0.012836279438621841,0.010238603670559914,14.557375131434508,0.01039070316305104,0.014011369885078498
475,0.25,0.001,0.012807017497372218,0.010255927110687445,14.29631161398293,0.010204362322614511,0.015138206471289908
476,0.25,0.001,0.012907716315831706,0.010374005162100191,14.198917032162543,0.010134844419816233,0.01897937019488641
477,0.25,0.001,0.012882876874819798,0.010239401761633697,14.814034958631893,0.010573900755625905,0.016161073531423296
478,0.25,0.001,0.01284192201014253,0.01024754647356811,14.538882204256314,0.010377503357784664,0.012891712332410472
479,0.25,0.001,0.012816544312501012,0.010277564213827507,14.228443968849835,0.010155920034867833,0.014768713153898716
480,0.25,0.001,0.012870556244531005,0.01025364809603519,14.665153183972048,0.010467632536739506,0.014936863245176417
481,0.25,0.001,0.01280947877800042,0.010281281413688054,14.168019045244511,0.010112790182187375,0.016576696785965135
482,0.25,0.001,0.012790064646208927,0.010281155298038188,14.059927550971071,0.010035637081349802,0.014007527780319964
483,0.25,0.001,0.01280364118889885,0.010203969562403438,14.568560943043902,0.010398687325513136,0.011211338452994823
484,0.25,0.001,0.012911927822549215,0.01033558699924016,14.437814521323206,0.010305363684027985,0.014203996663647038
485,0.25,0.001,0.01280625299994622,0.01024961631180386,14.32739227033769,0.010226546945280293,0.014713398446994168
486,0.25,0.001,0.012777358304918687,0.010226100098004696,14.29725113008308,0.010205032926540385,0.014350264333188534
487,0.25,0.001,0.01282040563737632,0.010291708464800292,14.170819795510589,0.010114789290157451,0.018495488379682814
488,0.25,0.001,0.012819133926647509,0.01024416970057199,14.430100671819487,0.010299857724353666,0.015374889730342798
489,0.25,0.001,0.012808236974339322,0.010221260684043679,14.497415491304654,0.010347905418490117,0.012971152817564351
490,0.25,0.001,0.012832702788772531,0.010284180939652955,14.281916937793088,0.010194087750030755,0.012428106207932745
491,0.25,0.001,0.012796012798556489,0.010239080651173673,14.329047144770914,0.010227728154725849,0.012648215650447778
492,0.25,0.001,0.012825474917232845,0.010289177651492046,14.21340977125471,0.01014518898733384,0.01662627368101052
493,0.25,0.001,0.012777343724824688,0.010226461678870879,14.295143659074032,0.01020352866457818,0.01612240368766444
494,0.25,0.001,0.012842144029246856,0.010225996231628369,14.660891859339035,0.01046459090602358,0.016385583340057304
495,0.25,0.001,0.0128655165916623,0.010279823622887175,14.490223597780709,0.010342772018401648,0.015459504776767321
496,0.25,0.001,0.012792375341768225,0.010192388691427072,14.570325007357049,0.010399946472060705,0.012458425015211105
497,0.25,0.001,0.012829482466583584,0.010303378223571334,14.156288706585947,0.010104417349454638,0.012480940270636762
498,0.25,0.001,0.012804014753996597,0.010194992714887142,14.620959883505675,0.010436088425057584,0.016437199765018055
499,0.25,0.001,0.01282275922386964,0.010264148657872799,14.338453628614655,0.010234442275956213,0.01897943246045283
500,0.25,0.001,0.012803612381657063,0.010282224294681713,14.129859569894656,0.010085552869303823,0.013456050040466445
