epoch,beta,learning_rate,train_loss,train_reconstruction_loss,train_kl_unnormalized,train_kl_normalized,mean_unclipped_gradient_norm
1,0.0,0.001,0.07920200822559927,0.07920200822559927,124.76166378331831,0.08905186565547346,0.14546944852918386
2,0.02,0.001,0.05803589617720725,0.0499275950151097,567.9865199588784,0.4054150749171152,0.08905375469475985
3,0.04,0.001,0.0499144721395163,0.04552641633843579,153.69167818455705,0.10970141198041189,0.11910533951595426
4,0.06,0.001,0.04008560371050506,0.035700711318620314,102.38725110334742,0.07308154968119017,0.05345192179083824
5,0.08,0.001,0.03738812139424999,0.03401584041330162,59.057070236365334,0.0421535119460138,0.04862167872488499
6,0.1,0.001,0.035957659491666426,0.03348568009527591,34.63243321237584,0.0247197952979128,0.05146317486651242
7,0.12,0.001,0.03474683234456437,0.032659104614983274,24.374220479754168,0.017397730535156437,0.0663748171646148
8,0.14,0.001,0.033214058855350184,0.031085526403467442,21.30052224081593,0.015203798887092028,0.09158088592812419
9,0.16,0.001,0.03111299695077669,0.02874504786863581,20.734355886694285,0.014799683002636892,0.118267054669559
10,0.18,0.001,0.02874268210319985,0.02581964309535345,22.750988488406378,0.016239106701217972,0.10480519058182836
11,0.2,0.001,0.027109760654961887,0.024112011595689428,20.999231071711083,0.014988744519422614,0.08112382423132658
12,0.22,0.001,0.025869164965844602,0.0225291719158532,21.26968251986892,0.01518178623830758,0.07704885257408023
13,0.24,0.001,0.025071358829270075,0.021791015057542627,19.149008880328534,0.013668100556979682,0.07090754224918783
14,0.25,0.001,0.024014785971360315,0.02072722965653107,18.423464558069792,0.013150224523961309,0.053130492684431374
15,0.25,0.001,0.02338321477812491,0.020097273232761406,18.414414714423003,0.01314376496389936,0.10801183339208364
16,0.25,0.001,0.022390943634982896,0.01883893836452966,19.905436223135613,0.0142080201449933,0.09444484068080783
17,0.25,0.001,0.021286258812301593,0.017735167731198487,19.900312901538697,0.014204363241640755,0.07152373716235161
18,0.25,0.001,0.020175381857194086,0.016383517236061906,21.24960964258628,0.015167458702773933,0.08031576348003
19,0.25,0.001,0.01949777840276974,0.015763547909222464,20.926627830075322,0.014936922077141557,0.06730421050451696
20,0.25,0.001,0.019199041746914513,0.01567970672019588,19.72235331605023,0.014077339982905232,0.05738705722615123
21,0.25,0.001,0.018816267352139027,0.014903239466421041,21.92860790483638,0.015652111281110905,0.038835049606859684
22,0.25,0.001,0.018455233483231144,0.014968130150362694,19.541727416450644,0.013948413573483686,0.062021065852604806
23,0.25,0.001,0.018334634368753135,0.014748197916062989,20.098391698148404,0.014345747107886084,0.045213998993858695
24,0.25,0.001,0.018292372991838387,0.014569733462963324,20.861672180430624,0.014890558301520787,0.06445574876852334
25,0.25,0.001,0.018149569980597944,0.014612343395614923,19.8226191773544,0.014148907335727623,0.08710553689161316
26,0.0,0.001,0.01367352436450242,0.01367352436450242,27.134510677393394,0.019367959084506347,0.0554584376513958
27,0.02,0.001,0.012935974812115657,0.012174179894161374,53.36375035423327,0.038089757569045875,0.049002439714968204
28,0.04,0.001,0.013624581306130628,0.011603685961122429,70.78186559179382,0.05052238800270793,0.05749970185570419
29,0.06,0.001,0.014226881219443549,0.011451154826733912,64.81321639058983,0.04626211020027825,0.0666880696080625
30,0.08,0.001,0.01436351175908007,0.011846060508819364,44.08686655000754,0.03146814172020524,0.06032291450537741
31,0.1,0.001,0.014613540417326144,0.012400837064893734,30.999974873966863,0.022127034171282558,0.04459522245451808
32,0.12,0.001,0.014848453111339959,0.012307537344356296,29.665192371121528,0.021174298623213083,0.04608926526270807
33,0.14,0.001,0.01519609878465751,0.01222705546890955,29.711640248467877,0.021207451997478855,0.053176613175310194
34,0.16,0.001,0.015429012084648107,0.012307829433558256,27.329856203592893,0.019507392008274727,0.034700026852078736
35,0.18,0.001,0.01585803358253706,0.012666528494270336,24.84054712761419,0.017730583245977295,0.03416799660772085
36,0.2,0.001,0.016034886680372323,0.012461913574588075,25.028677560093506,0.017864866209916848,0.026128587080165744
37,0.22,0.001,0.01620618366910483,0.012618614306249549,22.846292750571614,0.01630713258427667,0.030929856817238033
38,0.24,0.001,0.01628209289264455,0.012670582976962181,21.082190491710175,0.015047958951970147,0.01639583322685212
39,0.25,0.001,0.016264324158134565,0.012564676349092127,20.73282959764835,0.01479859357433858,0.026592608483042568
40,0.25,0.001,0.016170211602974535,0.012682217348265872,19.546720277790236,0.013951977357451989,0.03417967213317752
41,0.25,0.001,0.016086769910502036,0.012718288957030515,18.876965723854017,0.013473922715099227,0.04227956070099026
42,0.25,0.001,0.015916008284482676,0.012503298674175411,19.124823568260496,0.013650837664711275,0.033355437335558236
43,0.25,0.001,0.015832092369943547,0.012303358801331425,19.775023358848745,0.014114934588757134,0.02358270646072924
44,0.25,0.001,0.01576983480323456,0.01245931258701208,18.5521642848196,0.013242087283954034,0.03257123357616365
45,0.25,0.001,0.015490812733613872,0.012159093417273932,18.670954244370748,0.013326876691199677,0.018909642123617232
46,0.25,0.001,0.015357095542089675,0.012117691271955883,18.153622243001216,0.01295761758957974,0.025174733600579202
47,0.25,0.001,0.015491623182573,0.012254944195609251,18.138347856684867,0.01294671510113124,0.03235348057933152
48,0.25,0.001,0.015238777662399915,0.011846219234184083,19.01189640817662,0.01357023298228167,0.02070248289965093
49,0.25,0.001,0.015225483617883385,0.01200837050690967,18.028702741873786,0.012868453063435965,0.038402050733566284
50,0.25,0.001,0.015063392885013762,0.011859527678230859,17.954460880701628,0.012815461014062546,0.01753637893125415
51,0.0,0.001,0.011385779701453285,0.011385779701453285,22.45675441765835,0.01602908952009875,0.028402444790117443
52,0.02,0.001,0.010853850169958924,0.010256064258562498,41.874901916886174,0.02988929473011147,0.021826848154887557
53,0.04,0.001,0.011331673682373724,0.009731205944399619,56.05637647115114,0.04001168913001509,0.014763673476409167
54,0.06,0.001,0.011803607020861546,0.009679095609607427,49.60734486430572,0.03540852595596412,0.01146191667066887
55,0.08,0.001,0.012060797116126173,0.010068327752340562,34.89312255954942,0.02490586906463199,0.01105060736881569
56,0.1,0.001,0.012262756578499814,0.010365743100612048,26.57715892990845,0.0189701348536106,0.012916766398120672
57,0.12,0.001,0.012565703566783031,0.010446998271274542,24.73588737615215,0.01765587964036556,0.01882970135193318
58,0.14,0.001,0.012848443870815704,0.010412451667256172,24.377322991357218,0.017399945033088664,0.01720944547560066
59,0.16,0.001,0.013196318902246389,0.010527601261430717,23.367960139455775,0.016679486180910617,0.021159954252652824
60,0.18,0.001,0.01350380624751395,0.010755428474684225,21.391539360635715,0.01526876471137453,0.02800640743225813
61,0.2,0.001,0.013572336022891804,0.010634661226344756,20.578410508986057,0.014688372954308391,0.015293598175048828
62,0.22,0.001,0.013862291059314831,0.010809444594887203,19.441081769779977,0.013876575139029249,0.014850639505311847
63,0.24,0.001,0.014058326357403976,0.010858002692336579,18.681889269197658,0.013334681848106822,0.01840747380629182
64,0.25,0.001,0.014106460358939739,0.010901521292509266,17.960479003651407,0.012819756605033124,0.014805916347540915
65,0.25,0.001,0.014010672198923496,0.01095734576311639,17.110841420597723,0.01221330579628674,0.01583124604076147
66,0.25,0.001,0.014164792953179624,0.011012222755910335,17.667003794851283,0.012610281081264298,0.017909758957102895
67,0.25,0.001,0.013914101027994414,0.010836413911775158,17.247359405230878,0.012310749040136244,0.017505933879874647
68,0.25,0.001,0.013987228017697006,0.010929911121306066,17.133204665213885,0.012229268140766513,0.020831345638725907
69,0.25,0.001,0.013999543438562521,0.010857355427035833,17.60882251397055,0.012568752686631372,0.014042842201888561
70,0.25,0.001,0.013734675982737591,0.010700761970513673,17.002054443439015,0.012135656276544622,0.010938905470538884
71,0.25,0.001,0.013771551033182533,0.010786501220223302,16.728219340887847,0.011940199386786471,0.021614751080051064
72,0.25,0.001,0.013706243701963558,0.010674405936346174,16.990418519754748,0.012127350834942718,0.020296236616559327
73,0.25,0.001,0.013657527536324892,0.010715487642536457,16.487191688043836,0.011768159663129076,0.026955577195622027
74,0.25,0.001,0.013727641870541837,0.010738658613772259,16.750262182789207,0.011955933035538335,0.026470310986042023
75,0.25,0.001,0.013781566911674491,0.010708659029874897,17.22057590604077,0.012291631624582992,0.02438407263252884
76,0.0,0.001,0.010270928802641424,0.010270928802641424,21.531607948414717,0.01536874229008902,0.02693354047369212
77,0.02,0.001,0.00988016304771935,0.009338790724843367,37.923124675710916,0.027068611474454614,0.02211479312973097
78,0.04,0.001,0.010386646027231515,0.008970911216014113,49.58610710669659,0.03539336695695688,0.016792939975857735
79,0.06,0.001,0.010708822754050346,0.008870447999438065,42.92605075557446,0.030639579411544937,0.012116023688577116
80,0.08,0.001,0.010933694596905923,0.00922561764507117,29.91269877360111,0.021350962722056468,0.009836290322709829
81,0.1,0.001,0.011179644871106476,0.009489407613173531,23.68022270441553,0.016902371666249486,0.00887627323390916
82,0.12,0.001,0.011532074577390899,0.009511620808579417,23.5888003426952,0.01683711659007509,0.014081107859965414
83,0.14,0.001,0.011779701352772733,0.009495110276285442,22.862228218349387,0.01631850693672333,0.013951115193776786
84,0.16,0.001,0.011972426736264611,0.009497315321498723,21.67269506832752,0.015469446872467894,0.012067494622897357
85,0.18,0.001,0.012420082363710274,0.009834211059147979,20.12669752435545,0.014365951123736937,0.015965886181220412
86,0.2,0.001,0.01258889058048765,0.00973813386054589,19.96955011881468,0.014253783096941242,0.01208230754127726
87,0.22,0.001,0.012888660549433098,0.010014352517004178,18.304117123120015,0.013065037204225563,0.01803383557125926
88,0.24,0.001,0.013149455397745638,0.010036662969512706,18.1709271771425,0.012969969434077444,0.017457187408581376
89,0.25,0.001,0.013132576492375895,0.010020143272732394,17.442075828918586,0.012449732925709198,0.015680911601521075
90,0.25,0.001,0.013112686191430793,0.01012030058192373,16.769328824164724,0.011969542344157548,0.012477340875193477
91,0.25,0.001,0.01313918969731988,0.010119891223849608,16.920148272106193,0.012077193627484792,0.015049984329380095
92,0.25,0.001,0.01314202866406182,0.0100386860062969,17.391133214835087,0.012413371316798778,0.01590173167642206
93,0.25,0.001,0.01311893879566225,0.010221466196541497,16.237436875918714,0.011589890703724992,0.01950961211696267
94,0.25,0.001,0.01302783709556051,0.009926839683026012,17.37798981079229,0.012403989872085859,0.01977934641763568
95,0.25,0.001,0.012973378050784601,0.010032826307422185,16.478852377555068,0.011762207264493268,0.016326712095178664
96,0.25,0.001,0.012920003289080736,0.010024632667512138,16.225657349588477,0.011581482762018898,0.017433255387004465
97,0.25,0.001,0.012915143369850635,0.009936428749408876,16.69271687724645,0.011914858584758352,0.022147936397232115
98,0.25,0.001,0.0129516302337695,0.00989356413600278,17.1374023891441,0.012232264374835189,0.012126609100960195
99,0.25,0.001,0.012946816095168507,0.009981391893112585,16.6182375969618,0.011861697071350322,0.02024754323065281
100,0.25,0.001,0.012758048539028536,0.009847730118198037,16.309424014081536,0.011641273386210946,0.016409339383244514
101,0.25,0.001,0.012699446152887912,0.009815298129720828,16.16276549297484,0.011536592072073406,0.012598470086231828
102,0.25,0.001,0.012930581705850824,0.01005866310495051,16.09423140444188,0.011487674093106267,0.01150018407497555
103,0.25,0.001,0.012836785378451761,0.009808139336958434,16.972533399227515,0.012114584867400082,0.024257072363980114
104,0.25,0.001,0.012747241695467888,0.009946296467894926,15.69649695155516,0.01120378083622781,0.020545388106256723
105,0.25,0.001,0.012708568550832959,0.009749193623319797,16.584337557034104,0.011837500040709567,0.014181475329678506
106,0.25,0.001,0.012706612110417919,0.009819520056045503,16.179263578825058,0.011548368007726665,0.016475615208037198
107,0.25,0.001,0.01278002084755885,0.009879636782413983,16.253752300286344,0.011601536260018804,0.02052165102213621
108,0.25,0.001,0.012645910390981304,0.009703437255263826,16.489620678609,0.011769893417993576,0.010969896684400737
109,0.25,0.001,0.012638869250119355,0.009768971990568405,16.08290513821086,0.011479589677523813,0.014053123421035707
110,0.25,0.001,0.012551406993373202,0.009599727448192668,16.54121184299286,0.011806717946461712,0.009098490001633763
111,0.25,0.001,0.012598258964250755,0.009723834022646283,16.108277671272422,0.011497699979494947,0.010608895565383136
112,0.25,0.001,0.012578598836083005,0.009620670373075192,16.576232346711926,0.011831714737124858,0.016252264264039695
113,0.25,0.001,0.012557163865680735,0.009680443655287299,16.121139167992705,0.011506880205562245,0.0150701206875965
114,0.25,0.001,0.01254810946594947,0.009632507453833965,16.339033851543896,0.011662408173835757,0.014996990328654647
115,0.25,0.001,0.012667115847725958,0.009706844293778773,16.589361417766405,0.011841085951296506,0.015449742786586285
116,0.25,0.001,0.012497167983763153,0.00961686859377864,16.14119681834179,0.01152119687247808,0.013732456602156162
117,0.25,0.001,0.012544405627179121,0.009690832842475811,15.991421325221689,0.011414290738916266,0.015728725004009902
118,0.25,0.001,0.012443347126323272,0.009501592738316677,16.485592366260377,0.01176701810582468,0.01986875187139958
119,0.25,0.001,0.012420774995502948,0.009566947310338563,15.992850488810051,0.011415310841406175,0.011284133070148528
120,0.25,0.001,0.012453436629850581,0.009577062632305264,16.11920081200331,0.011505496653821064,0.011116705485619605
121,0.25,0.001,0.012412036510499385,0.009490213269418365,16.37389765004773,0.011687293112096882,0.017103004676755518
122,0.25,0.001,0.012386664868738805,0.009542280195634772,15.939933326896396,0.011377539847891789,0.013035850075539201
123,0.25,0.001,0.012416716731135929,0.009525761439898566,16.200913670167544,0.011563821320604956,0.016220752149820328
124,0.25,0.001,0.012399510845993033,0.009463501730564367,16.45339608242218,0.011744037175176431,0.015119670308195055
125,0.25,0.001,0.012287747822624158,0.009446148280373197,15.924323083961184,0.011366397633091494,0.012671166914515197
126,0.25,0.001,0.012364117242007016,0.009511719895274008,15.98483508912407,0.011409589642486844,0.01283183810301125
127,0.25,0.001,0.01234129323023284,0.00945597449764765,16.169326101315047,0.01154127487602787,0.018266318133100867
128,0.25,0.001,0.01235952669859617,0.00952539443464207,15.882477232708064,0.011336529074024314,0.012006832868792117
129,0.25,0.001,0.012385545148745583,0.009456088575913662,16.416674892688345,0.011717826475866057,0.01581656781490892
130,0.25,0.001,0.012388740596215635,0.009491987771399335,16.233403048585004,0.011587011455092793,0.013754233717918396
131,0.25,0.001,0.012295942774940756,0.009430412974962984,16.05842818497118,0.011462118618823113,0.010479725315235555
132,0.25,0.001,0.012278184963541886,0.009368592667119239,16.305355368675915,0.011638369285279025,0.01194920449052006
133,0.25,0.001,0.012221212901315013,0.009381396740690526,15.914329411341402,0.011359264390679087,0.011056489252950996
134,0.25,0.001,0.012262677861327046,0.00930823653446421,16.55668991343711,0.011817765819726704,0.010953891556710005
135,0.25,0.001,0.012325621231426028,0.009442626415034426,16.15630303544142,0.011531979325796875,0.012535471701994538
136,0.25,0.001,0.01225377592046226,0.009382312046072304,16.09168522940299,0.01148585669479157,0.01209056074731052
137,0.25,0.001,0.01217196350586688,0.009357033927374692,15.77486606430659,0.011259718818205987,0.014115417085122317
138,0.25,0.001,0.012133154990870918,0.009200735818711352,16.433277317278073,0.011729676885994342,0.012159492587670684
139,0.25,0.001,0.012212622580205971,0.00936079057738465,15.981666132901058,0.011407327717987907,0.013597608194686472
140,0.25,0.001,0.01216988702983224,0.009257120084180837,16.32314541842594,0.011651067393594533,0.014473368646577
141,0.25,0.001,0.012082349042367338,0.0092852782216973,15.674784445314666,0.011188282973101118,0.015139978379011154
142,0.25,0.001,0.012065286493407162,0.00916730065583125,16.24031246479966,0.011591943229692835,0.010990647017024457
143,0.25,0.001,0.012055158080428154,0.00918884396879683,16.06282555733444,0.01146525735712665,0.011201624991372228
144,0.25,0.001,0.012080531893978537,0.009263383053507586,15.787302652331135,0.011268595754697455,0.013651643181219697
145,0.25,0.001,0.01213478009626736,0.009264214285153562,16.08665042630317,0.011482262973806688,0.011647608364000916
146,0.25,0.001,0.011974375453896215,0.00908953381511762,16.16665453502679,0.011539367976464519,0.012636676896363497
147,0.25,0.001,0.012105894628873324,0.009259980953529881,15.948499669610582,0.011383654296652806,0.015857171267271042
148,0.25,0.001,0.012110756006332928,0.009152094641066543,16.580337944508596,0.01183464521378201,0.01213501300662756
149,0.25,0.001,0.011955308552932515,0.009137274067467838,15.792265155370151,0.01127213786964322,0.009060870157554746
150,0.25,0.001,0.012008934600632598,0.009189181640308684,15.801895298888141,0.011279011633753134,0.011159755464177579
151,0.25,0.001,0.012049743355424893,0.009097558436506973,16.544044649924516,0.011808739935706292,0.011213185265660286
152,0.25,0.001,0.0118646818506755,0.00912152568465546,15.372647442748004,0.010972624869912923,0.011094496177975088
153,0.25,0.001,0.012077948247667768,0.009215928079455406,16.03876104334949,0.011448080687615624,0.012032890401314944
154,0.25,0.001,0.012045974487396024,0.009122104720370007,16.385367029146263,0.011695479678191479,0.01971932838205248
155,0.25,0.001,0.012033504144228326,0.009215126899002987,15.794185992820278,0.011273508917073717,0.012977724894881248
156,0.25,0.001,0.012046410723556307,0.009143840076327946,16.266005486187705,0.011610282288499432,0.014274260262027383
157,0.25,0.001,0.011958465847285904,0.009068128672313715,16.197448826035277,0.011561348198454873,0.01608787861187011
158,0.25,0.001,0.012133876503384934,0.009321012333937628,15.76329103840169,0.0112514568439698,0.014314985717646778
159,0.25,0.001,0.012002027498282072,0.009069094490765406,16.436157431632342,0.011731732642135862,0.011443360010161996
160,0.25,0.001,0.01196622836456045,0.009149889763063579,15.782761082022075,0.01126535409137907,0.010811309795826674
161,0.25,0.001,0.011966661472332378,0.00910238028233696,16.051432440325712,0.011457125225071885,0.01508450333494693
162,0.25,0.001,0.01196590671218574,0.009084995676586424,16.14462537506677,0.0115236440935523,0.01816362387035042
163,0.25,0.001,0.011968557689813333,0.009142904643490444,15.834959957943083,0.011302612389681001,0.013463372946716845
164,0.25,0.001,0.01196343008047728,0.009054101739148755,16.303876325332546,0.011637313579823373,0.01233804237563163
165,0.25,0.001,0.011888115060183226,0.009019170839160618,16.077564721316534,0.011475777816785535,0.010534061409998685
166,0.25,0.001,0.011872356425045303,0.008970190872028003,16.263735112168344,0.011608661750298604,0.013123516575433314
167,0.25,0.001,0.011939841330378065,0.00910127153017389,15.907344517478863,0.011354278741954934,0.013124290155246854
168,0.25,0.001,0.011912190744221708,0.009012203307779573,16.251529090339805,0.011599949386395293,0.01064634567592293
169,0.25,0.001,0.011967991826771943,0.009106083710858743,16.03813407913877,0.011447633175687916,0.013914872077293694
170,0.25,0.001,0.011869110046479548,0.008940486002145705,16.412009673228095,0.011714496554766663,0.013690500287339091
171,0.25,0.001,0.011880188126560293,0.00907390974345374,15.726384399828184,0.011225113775751737,0.01432655320968479
172,0.25,0.001,0.011873912208155575,0.009027654050396355,15.950430844173551,0.011385032722465062,0.013180970214307308
173,0.25,0.001,0.011882229502038691,0.009024855239406259,16.0127251173111,0.011429496871742398,0.012551052146591246
174,0.25,0.001,0.01192553712556718,0.009063303497831856,16.03995759601633,0.011448934758041634,0.014230241999030113
175,0.25,0.001,0.01180917137771036,0.008908575678745864,16.254938105700656,0.011602382659315244,0.01409412088105455
176,0.25,0.001,0.011763908894487612,0.008959887012652663,15.713738592780956,0.01121608750376942,0.011584374704398215
177,0.25,0.001,0.011759579311939645,0.008910236362997823,15.967717801852615,0.011397371735797726,0.014994239900261164
178,0.25,0.001,0.011848643243250618,0.008977194870812411,16.09159664918585,0.011485793468369629,0.023385968524962664
179,0.25,0.001,0.011847335415540384,0.008963985075019222,16.15829480913835,0.011533401005808958,0.013201617752201855
180,0.25,0.001,0.01176702755742506,0.008922196172240009,15.942435435810767,0.011379325792869927,0.0177760737715289
181,0.25,0.001,0.011758965811456917,0.008882716527531441,16.118500785190527,0.011504996991570683,0.014004370430484414
182,0.25,0.001,0.011751168014749978,0.008944725013087214,15.727306198725373,0.011225771733565577,0.01662776176817715
183,0.25,0.001,0.011740099840908309,0.008931288612318188,15.740578922200054,0.011235245483369061,0.010186672501731664
184,0.25,0.001,0.01172110642887854,0.00883395168230342,16.1796143617411,0.011548618388109277,0.015114592504687607
185,0.25,0.001,0.011644118934060935,0.008817281362081495,15.841598178250306,0.011307350591185086,0.012202757643535733
186,0.25,0.001,0.011781840149647633,0.008971667302177445,15.748208716916142,0.011240691446763842,0.010926143382675946
187,0.25,0.001,0.01180487851726984,0.008850284647935367,16.55754440562461,0.011818375735634983,0.012512612040154636
188,0.25,0.001,0.011772278991833111,0.008952851941914051,15.80006859446866,0.011277707776208894,0.01066418958362192
189,0.25,0.001,0.011702781364259491,0.008787232771951372,16.338735158358833,0.01166219497384642,0.011025915504433215
190,0.25,0.001,0.011701333103215396,0.008889270724732593,15.758797695343082,0.011248249604099274,0.012847003294155002
191,0.25,0.001,0.011702447851618173,0.008855453982078208,15.954553659873119,0.01138797548884591,0.012075551669113338
192,0.25,0.001,0.01172927390815134,0.00889963696327737,15.85728514518021,0.011318547569721777,0.012313321349211037
193,0.25,0.001,0.011770633014311745,0.00878852179433396,16.711751316683774,0.011928444908410973,0.012589070072863251
194,0.25,0.001,0.01161653709078756,0.008748595281999892,16.07194597487161,0.011471767291128915,0.01346692314837128
195,0.25,0.001,0.011671621782125784,0.008938342124799223,15.31729866617159,0.01093311824851648,0.01350785861723125
196,0.25,0.001,0.01167522121944109,0.008744381675360596,16.42442429886979,0.01172335781503911,0.009765820461325347
197,0.25,0.001,0.011740624049137928,0.008896090391642242,15.940766929833526,0.01137813485355712,0.012599293841049075
198,0.25,0.001,0.011559317224816514,0.008716801920271865,15.929454986635976,0.011370060661410403,0.011150903417728841
199,0.25,0.001,0.011647268326754735,0.008865421705943434,15.589468834544522,0.011127386748425783,0.010086222784593701
200,0.25,0.001,0.011643169432225207,0.00869927858245522,16.49756388176458,0.011775563084771292,0.010959564184304327
201,0.25,0.001,0.011606192527366083,0.00881808335136521,15.62456359743823,0.01115243654349624,0.014915179810486734
202,0.25,0.001,0.011620077586466436,0.00879655215142602,15.823036755301011,0.011294101895289801,0.012910143937915564
203,0.25,0.001,0.01175793667473599,0.008860511954150519,16.237168071165463,0.011589698837377205,0.017752207117155194
204,0.25,0.001,0.011652533507406214,0.008802986200237822,15.968863395659062,0.011398189433018601,0.019358831923455
205,0.25,0.001,0.011805696405143729,0.008911838795841984,16.21717850400411,0.011575430766598224,0.026605787221342325
206,0.25,0.001,0.011632940729998348,0.00884245881433589,15.637861044770244,0.011161927940592608,0.01792694430332631
207,0.25,0.001,0.011612806537252753,0.008790619054999754,15.81554023408193,0.011288751059301877,0.015453852480277419
208,0.25,0.001,0.011689515543288877,0.008868327562644735,15.80993789123344,0.011284752242136646,0.016475604381412268
209,0.25,0.001,0.011669506373307775,0.00881183662865941,16.014382726713112,0.011430680033342692,0.013591583468951285
210,0.25,0.001,0.01163654232743762,0.008750463143722124,16.17358791056655,0.011544316852652784,0.019297581515274942
211,0.25,0.001,0.01163969786608269,0.008843905061078967,15.667622986317676,0.011183171296443738,0.01558513450436294
212,0.25,0.001,0.011644736356208867,0.00884172071300307,15.708100310944815,0.011212063034221852,0.020289743086323142
213,0.25,0.001,0.011560714035635203,0.008618233859585695,16.489658065031367,0.01176992010351989,0.013519149739295244
214,0.25,0.001,0.01158389073674079,0.008810265764539638,15.543393925485631,0.011094499589925503,0.01371465832926333
215,0.25,0.001,0.011600155797485643,0.008722793425594715,16.124738721110877,0.011509449479736528,0.014760427526198328
216,0.25,0.001,0.011562089087725432,0.008700749976852119,16.03494470950706,0.011445356680590334,0.01472400885540992
217,0.25,0.001,0.01152814548104877,0.008744226430303618,15.6010838570326,0.011135677271258101,0.012879031710326672
218,0.25,0.001,0.011702073275234107,0.008753970504538126,16.52116757593971,0.011792410832219637,0.01250366197200492
219,0.25,0.001,0.011640570466727455,0.008741480276952955,16.246501333280495,0.011596360694704136,0.013871145201846957
220,0.25,0.001,0.011617625340243845,0.008753467837274697,16.050738266962803,0.011456629740872807,0.01238890690729022
221,0.25,0.001,0.01157494913203358,0.008688285472435345,16.17686334582112,0.011546654779315574,0.012857216876000166
222,0.25,0.001,0.011617368639355412,0.008822010756161118,15.66518561377157,0.011181431558723462,0.016823399579152465
223,0.25,0.001,0.011573958628672897,0.0087068391077236,16.067337736954023,0.01146847804207996,0.017237388528883457
224,0.25,0.001,0.011452788481243842,0.008607795961698934,15.94333875652146,0.011379970561400042,0.009309958026278764
225,0.25,0.001,0.011558629350740627,0.008692776550984084,16.06023915077799,0.011463411242525331,0.012830041698180139
226,0.25,0.001,0.011511186079466268,0.008654920454282851,16.00651351594228,0.011425063180544098,0.01286133739631623
227,0.25,0.001,0.011548806726543664,0.008620222783521097,16.41178397893408,0.01171433545962461,0.009224883513525128
228,0.25,0.001,0.011501318065445706,0.008667078205541802,15.883080673615968,0.011336959795585987,0.010046612238511443
229,0.25,0.001,0.011470858721229752,0.008633770942999077,15.89903991555869,0.011348351117458024,0.010099757113493979
230,0.25,0.001,0.011499914583713128,0.008636969616072784,16.043943218000248,0.011451779598858135,0.011068928870372474
231,0.25,0.001,0.011501990981975527,0.008671717992390745,15.86084996982009,0.011321092055546104,0.010243122873362154
232,0.25,0.001,0.01144652797340849,0.008518509516231948,16.40861696390618,0.011712074920703912,0.011183157796040177
233,0.25,0.001,0.011560603056592957,0.00871358898960225,15.9546672685659,0.011388056579989937,0.012882778537459671
234,0.25,0.001,0.011518075774445165,0.008670011193089047,15.96055337432033,0.011392257940271471,0.012877655797637999
235,0.25,0.001,0.011499499338280433,0.00866070878740579,15.90858243850676,0.01135516234011903,0.012308993726037443
236,0.25,0.001,0.01150696441173429,0.008695225925466711,15.756982452934121,0.011246953927861614,0.012648160452954471
237,0.25,0.001,0.01146201342966462,0.008621432443221328,15.918615524355703,0.011362323714743543,0.012682445580139756
238,0.25,0.001,0.011500963009893894,0.008649643038113705,15.978797255577772,0.011405279982568003,0.012065624818205833
239,0.25,0.001,0.01145326560810364,0.00861485056299133,15.906478097394016,0.011353660312201296,0.010433083400130272
240,0.25,0.001,0.01149532527493659,0.008601293222500412,16.21815589076542,0.01157612840168838,0.011938401847146451
241,0.25,0.001,0.011479424818230322,0.008610828808802404,16.075612225462848,0.011474384172350355,0.012624125345610082
242,0.25,0.001,0.01153241493010073,0.008700882541579594,15.867907398677819,0.01132612947799987,0.01470566785428673
243,0.25,0.001,0.011496088957503469,0.008555409214644068,16.479570285263538,0.011762719689695602,0.014030830934643745
244,0.25,0.001,0.011579157267395787,0.008778673279758287,15.6939127928031,0.011201936326055033,0.01976805820595473
245,0.25,0.001,0.011530304350938827,0.008602012904450328,16.410145765555427,0.01171316614243785,0.011998463596682996
246,0.25,0.001,0.011385206599760653,0.008506524488368774,16.132135265804283,0.011514728954892422,0.010362412896938622
247,0.25,0.001,0.011368864270351003,0.00854048656303599,15.850229203576584,0.011313511208834106,0.012321147019974887
248,0.25,0.001,0.011408220486625998,0.008571287290443956,15.89817353330226,0.011347732714705395,0.012000755872577429
249,0.25,0.001,0.01145894533034904,0.008512274039392058,16.513145442795405,0.011786684827120204,0.009988898935262114
250,0.25,0.001,0.011340488771089433,0.008491505105592824,15.965705274291228,0.011395935242177893,0.009857545257546008
251,0.25,0.001,0.011360303166328243,0.008596899524517747,15.486114488016339,0.011053614909362127,0.010920519707724452
252,0.25,0.001,0.011475883043198097,0.008583426272344926,16.2093282631892,0.011569827454096503,0.012830465333536267
253,0.25,0.001,0.011398233109715711,0.0085342371882968,16.049833596374896,0.011455984008832902,0.011278862250037491
254,0.25,0.001,0.011442087602360264,0.008663259621608481,15.572552049831955,0.01111531195562595,0.014388620853424072
255,0.25,0.001,0.011387100334362844,0.008517514194880995,16.081160141182345,0.011478344140744001,0.012692505144514143
256,0.25,0.001,0.01140501657170331,0.008658206972073848,15.393120988674601,0.010987238393058246,0.013359413831494749
257,0.25,0.001,0.011454929611285943,0.008569045124540499,16.172496672214198,0.011543537953043682,0.013096467941068113
258,0.25,0.001,0.011450721962000233,0.008616240940101461,15.884431321337228,0.011337923855344203,0.011132124986033887
259,0.25,0.001,0.011398901313247785,0.008535503221205231,16.046482902479074,0.011453592364367647,0.013490681652911007
260,0.25,0.001,0.011426107642981603,0.008620228136195519,15.724148489488192,0.011223517836893784,0.01560763455927372
261,0.25,0.001,0.011450185358819857,0.00858015317804256,16.08366079868006,0.011480129049735947,0.01528019190300256
262,0.25,0.001,0.011411341111368203,0.0085526826598979,16.019922043436008,0.011434633863980019,0.01577449543401599
263,0.25,0.001,0.01141891920927422,0.008577735849611445,15.921992106825922,0.011364733837848624,0.012236569658853114
264,0.25,0.001,0.0113230037963745,0.008471727997282352,15.978549951302483,0.011405103462742672,0.012012458522804081
265,0.25,0.001,0.01137185902266699,0.008593890749866879,15.567733776594254,0.011111872788432729,0.01119777315761894
266,0.25,0.001,0.011353990016407908,0.008468187027192813,16.172039609363534,0.011543211712607804,0.012619680142961442
267,0.25,0.001,0.011390526368747425,0.008599842321088767,15.638993340892434,0.011162736146247276,0.014596917550079525
268,0.25,0.001,0.011342377555488545,0.008502983824507428,15.911963468802497,0.01135757563797466,0.011266530258581042
269,0.25,0.001,0.011331923887335806,0.008469516395869235,16.0409311402068,0.011449629650397431,0.009515492769423872
270,0.25,0.001,0.01138176952949521,0.008567221651324276,15.772727544223093,0.011258192394163521,0.011847581481561065
271,0.25,0.001,0.011395563423975774,0.008548214911076869,15.956541640773446,0.011389394461651282,0.015575627330690622
272,0.25,0.001,0.011351096185239223,0.008491871894059201,16.02309404385115,0.011436897961349857,0.013683032477274537
273,0.25,0.001,0.011391784674983805,0.008533394835220498,16.018416261374327,0.011433559073072325,0.01668925187550485
274,0.25,0.001,0.011311119225941645,0.008486189583942512,15.830906788342183,0.011299719335005128,0.012469890643842518
275,0.25,0.001,0.011304879187759876,0.008498195920427309,15.728652910300237,0.011226732983797456,0.012632205965928733
276,0.25,0.001,0.01125825405517488,0.00843166134520463,15.84022574733344,0.01130637098310738,0.011209441057872027
277,0.25,0.001,0.011259892035765664,0.008414181052378547,15.94736406648831,0.011382843730541263,0.011363590019755065
278,0.25,0.001,0.011295466821850715,0.008488624362519986,15.729545171176218,0.01122736985808438,0.012702256790362298
279,0.25,0.001,0.011275130545716569,0.008447680260698332,15.845033028429386,0.011309802304375009,0.015131325286347419
280,0.25,0.001,0.011290831234702736,0.008464331388675719,15.839704577260823,0.0113059989844831,0.014936628052964807
281,0.25,0.001,0.011411232951569657,0.008588321753903944,15.819593768030218,0.011291644374040127,0.01785054721403867
282,0.25,0.001,0.011368705480824184,0.008517357921286143,15.978950892709243,0.011405389645045855,0.012047292082570493
283,0.25,0.001,0.011305163351970574,0.00844209116255565,16.04465611244791,0.011452288445715853,0.012331253965385258
284,0.25,0.001,0.01132492693860496,0.008457134701389361,16.071107768813356,0.011471168999866778,0.012906606891192496
285,0.25,0.001,0.0113527829562448,0.008476801259377057,16.117002194510125,0.011503927333697449,0.0159535042475909
286,0.25,0.001,0.011319435079094015,0.008504143505821895,15.776893900431272,0.011261166238708974,0.013715914683416486
287,0.25,0.001,0.01128937339989589,0.008465584812759731,15.824510984480506,0.011295154164511425,0.011821532505564392
288,0.25,0.001,0.011344472912678764,0.008484630783269326,16.02655521862691,0.011439368464401791,0.013577671837992966
289,0.25,0.001,0.011312273504029734,0.008443241227332634,16.078056562419725,0.011476128881099019,0.010713877622038126
290,0.25,0.001,0.011384986698751907,0.008542760786656795,15.927834210166852,0.011368903790268987,0.015478900750167668
291,0.25,0.001,0.011276373966346205,0.0083476045637514,16.41282398367227,0.011715077789915967,0.012029021745547652
292,0.25,0.001,0.011229712136929741,0.008487993894078786,15.364589464191605,0.01096687327922313,0.011561000137589872
293,0.25,0.001,0.011266785137168674,0.008426099099872133,15.919203827923674,0.01136274363163717,0.013861181680113077
294,0.25,0.001,0.01127546304537446,0.008458143236243899,15.788260720716886,0.011269279600797207,0.014557080459780991
295,0.25,0.001,0.011247244270786737,0.008475317063669446,15.533880416933828,0.011087709077040563,0.011538201360963285
296,0.25,0.001,0.011238576628516636,0.00838206745373058,16.007877325961882,0.011426036635233321,0.01179997663712129
297,0.25,0.001,0.011245572035412823,0.008387130267124832,16.01870820318234,0.011433767454091606,0.010835745022632182
298,0.25,0.001,0.01127235064115803,0.008443345156321322,15.853747887501886,0.01131602276052954,0.010894445120356977
299,0.25,0.001,0.011315262040399435,0.008480086039930645,15.888325508053965,0.011340703431872923,0.011347249906975776
300,0.25,0.001,0.011321001874753479,0.008420270969721805,16.25569643805072,0.011602923938651477,0.014014180633239448
301,0.25,0.001,0.011248992861001625,0.008388679002125851,16.0291994070957,0.011441255822338115,0.014182763756252825
302,0.25,0.001,0.011307491228715487,0.008526916673994139,15.582339159382162,0.011122297758302757,0.014546488411724567
303,0.25,0.001,0.011328010658474955,0.008404037390207572,16.38594566854903,0.011695892697037137,0.018229746725410223
304,0.25,0.001,0.011251435409025881,0.008446284923663592,15.720062644098398,0.011220601459028121,0.020120549364946783
305,0.25,0.001,0.011338120419726492,0.008463819435406826,16.107582605955248,0.011497203858640434,0.020679944776929915
306,0.25,0.001,0.011234963678274623,0.008417776501922243,15.787518320103528,0.01126874969315027,0.01830646814778447
307,0.25,0.001,0.011327805650850179,0.008456147433353864,16.09277355496719,0.011486633515322763,0.01670993829611689
308,0.25,0.001,0.011270789151509645,0.00840131609286483,16.080526268308,0.011477891697578872,0.011895665316842496
309,0.25,0.001,0.011258420423606492,0.00840693387924256,15.979730602097163,0.011405946182795976,0.010101226915139705
310,0.25,0.001,0.011260414072205478,0.008475368718046983,15.607393961609779,0.011140181271670078,0.0108898866456002
311,0.25,0.001,0.011236359213628574,0.008353867577797188,16.15348343859137,0.011529966765589842,0.012390088639222085
312,0.25,0.001,0.011276560872482109,0.008477281917096553,15.687159430756699,0.011197115939155388,0.017080186284147203
313,0.25,0.001,0.011181841011398271,0.008318154613773235,16.048097487033534,0.01145474481586976,0.012835870846174657
314,0.25,0.001,0.011326062891608988,0.008445239375055707,16.144136108286943,0.011523294866728725,0.0148945254040882
315,0.25,0.001,0.011193042313816154,0.008393508247984476,15.688588765568424,0.011198136163860402,0.01459117466583848
316,0.25,0.001,0.011233384091025977,0.008383257275676678,15.972110923496318,0.0114005074400402,0.012751200993079692
317,0.25,0.001,0.011275839952981422,0.008480858081069022,15.663079359337283,0.011179928165122971,0.01185933267697692
318,0.25,0.001,0.011164535151985094,0.008324752684239305,15.914142612624516,0.01135913105826161,0.011610287940129638
319,0.25,0.001,0.011222256715010875,0.008388519205448523,15.880265409115212,0.011334950327705363,0.011143446143250912
320,0.25,0.001,0.011223465311175723,0.00840193398067405,15.811861997855232,0.011286125623023006,0.01216653164010495
321,0.25,0.001,0.011176061021292384,0.008322106578070398,15.99356147192714,0.011415818324002241,0.010554070002399385
322,0.25,0.001,0.011165436812227354,0.008329710501220878,15.89141063849463,0.01134290552355077,0.012529289117082953
323,0.25,0.001,0.011204424436692156,0.008390169345729037,15.771086937699287,0.011257021368807485,0.013171791797503829
324,0.25,0.001,0.011132082721074589,0.008250664027178337,16.147470565827753,0.011525674922075483,0.012555237859487534
325,0.25,0.001,0.011225689153939422,0.00850556743290423,15.243562200621922,0.010880486938345412,0.012138907564803958
326,0.25,0.001,0.011239876247366934,0.00838566037762078,15.995025579018483,0.011416863368321544,0.014168596244417131
327,0.25,0.001,0.011328146932938278,0.008464744475928751,16.046506521348416,0.011453609222946763,0.014576281188055873
328,0.25,0.001,0.011292913769194876,0.008436873229512155,16.005251408618776,0.011424162318785708,0.012308457866311073
329,0.25,0.001,0.011261639346627203,0.00839192924402763,16.081855833654863,0.011478840709246868,0.011791158351115882
330,0.25,0.001,0.011150309201602149,0.008305395803645657,15.942894806194902,0.011379653680367524,0.01162153307814151
331,0.25,0.001,0.011215765966347463,0.008445115746358615,15.526722756706349,0.01108260011185321,0.013852310716174543
332,0.25,0.001,0.011208653251692995,0.00835122589784089,16.013023041981995,0.011429709523184865,0.011063549434766173
333,0.25,0.001,0.011159863875156155,0.008325157706511046,15.88569401400572,0.011338825134907722,0.011630341177806258
334,0.25,0.001,0.011165774800661088,0.0084170345372534,15.403940782168712,0.010994961300620066,0.01625926815904677
335,0.25,0.001,0.011099940576125908,0.008321676733816093,15.569390444267766,0.01111305527784994,0.014368952251970768
336,0.25,0.001,0.011191190860092267,0.008398202780657496,15.651905828328621,0.011171952768257403,0.017632590897846967
337,0.25,0.001,0.011139195602939373,0.008322264927211907,15.786079500313841,0.011267722698296817,0.012814761023037136
338,0.25,0.001,0.011183469875138213,0.00836130794301038,15.815395665815828,0.011288647869961333,0.014080970082432032
339,0.25,0.001,0.011179140749502157,0.00840642633954829,15.538291648434697,0.011090857707662168,0.01378827285952866
340,0.25,0.001,0.011144954728697561,0.008276474718509985,16.074961757859008,0.011473919884267672,0.01259786041919142
341,0.25,0.001,0.011151179362142882,0.0083657297478806,15.60965888634604,0.011141797920304097,0.011584080522879958
342,0.25,0.001,0.011130735869198601,0.008285216483557772,15.946290615456089,0.01138207752709214,0.012445065833162516
343,0.25,0.001,0.011154085413274785,0.008311517591080736,15.929749719783011,0.011370271034820136,0.01302087854128331
344,0.25,0.001,0.01126996243648651,0.008453955227365263,15.78090392572646,0.011264028498020313,0.01475587545428425
345,0.25,0.001,0.011261518517730754,0.008383033589104147,16.131030578454002,0.011513940455713063,0.01480565161909908
346,0.25,0.001,0.01119802946843098,0.008326233095355285,16.093546811623465,0.011487185447268712,0.01475644635502249
347,0.25,0.001,0.011153761379125222,0.00833217841271692,15.812152201547006,0.01128633276341685,0.012737957411445677
348,0.25,0.001,0.011175897135739535,0.008312524694926058,16.046340173868646,0.01145349048812894,0.01294670847710222
349,0.25,0.001,0.011194296741162063,0.008279811797006395,16.332774204102837,0.011657940188510234,0.012461925973184407
350,0.25,0.001,0.011201408510883816,0.0083387228670007,16.042491068670795,0.011450743089700783,0.01245759369339794
351,0.25,0.001,0.011166218821822602,0.008279570987903063,16.176774516732806,0.011546591375255393,0.011372821987606585
352,0.25,0.001,0.01119229236971548,0.008375041648582215,15.78787330197392,0.011269003070645198,0.010895983199588954
353,0.25,0.001,0.011114578431623837,0.008266771822732276,15.95910808985318,0.011391226331087209,0.010354108177125454
354,0.25,0.001,0.011111711752688462,0.008327473769652694,15.60286917318133,0.011136951586853199,0.012405866058543324
355,0.25,0.001,0.011229364926652644,0.008341464670938839,16.18379349599054,0.011551601353312305,0.011972895124927163
356,0.25,0.001,0.011109932718530204,0.008318938169091752,15.640733858239924,0.011163978485538847,0.01100371009670198
357,0.25,0.001,0.011122588070191147,0.00834047436006445,15.590965754801644,0.011128455213991181,0.011341710109263659
358,0.25,0.001,0.01113051082744479,0.008210713802088277,16.36254347241746,0.011679188774031022,0.010817856760695577
359,0.25,0.001,0.01110890915224597,0.008306183343819325,15.706476026387703,0.011210903659091866,0.013943956233561039
360,0.25,0.001,0.011148500013202117,0.008316410549902717,15.871029541238613,0.011328357988036126,0.011327807325869799
361,0.25,0.001,0.011090071076655562,0.008242761227253646,15.956324635069654,0.011389239568215314,0.013707704958505929
362,0.25,0.001,0.011229040653353443,0.008442671961755743,15.614810784325968,0.011145475220789413,0.016678417450748384
363,0.25,0.001,0.011182169159699332,0.00825976209602239,16.377169575223345,0.011689628533349997,0.012037029257044196
364,0.25,0.001,0.011092931889619732,0.008306166353501333,15.617033203857677,0.011147061530233888,0.011449911980889738
365,0.25,0.001,0.01104568712032227,0.008253933859907386,15.64498741691446,0.01116701457310097,0.011294643278233707
366,0.25,0.001,0.011191096934557956,0.008304076232327175,16.178863593083584,0.011548082507554307,0.011731759645044804
367,0.25,0.001,0.011127686771585573,0.00826875354495825,16.021461823290224,0.011435732921691808,0.012831672560423613
368,0.25,0.001,0.011119694291518725,0.008316051603794596,15.711614871572602,0.011214571642806996,0.010190419561695307
369,0.25,0.001,0.01112441271582389,0.008247817320154206,16.120441864825988,0.011506382487384717,0.013218668522313237
370,0.25,0.001,0.011121679200462234,0.008364174878594149,15.453054300678549,0.011030017345238079,0.014458760851994157
371,0.25,0.001,0.011162728837269332,0.008267086771139895,16.227179059404918,0.011582568921773674,0.012907566386274993
372,0.25,0.001,0.011134130433046245,0.00830245195520509,15.868725906085372,0.01132671370884038,0.011816162848845124
373,0.25,0.001,0.01104786951242633,0.008184746833273165,16.04493857126893,0.011452490058007801,0.009208450966980308
374,0.25,0.001,0.01109676180496843,0.00829605994034473,15.695133235111117,0.011202807448330562,0.01130989653756842
375,0.25,0.001,0.011068942661091903,0.008213841216347039,15.99998786504184,0.011420405328366766,0.012180532910861075
376,0.25,0.001,0.011057398532806956,0.008294463513461806,15.483487913653347,0.01105174012394957,0.011317697470076382
377,0.25,0.001,0.011045401075967668,0.008119688025191581,16.395696783364443,0.011702852807540645,0.0110402851132676
378,0.25,0.001,0.01103297722115646,0.008274381556441241,15.459170532624757,0.011034382964043367,0.01152651198208332
379,0.25,0.001,0.011036474312148164,0.00821944286887357,15.786645168551324,0.011268126458637633,0.010977421479765326
380,0.25,0.001,0.011057855615816186,0.008216013303629291,15.92568457251053,0.011367369430771256,0.013267689035274088
381,0.25,0.001,0.011068573944846125,0.008286276468637716,15.59199585645831,0.011129190475701862,0.012268937309272587
382,0.25,0.001,0.011147214113374966,0.008285539110029789,16.03682737011999,0.011446700478315482,0.011448055040091276
383,0.25,0.001,0.011078920816158825,0.008224779832330465,15.994605345118767,0.011416563415502332,0.01437883754260838
384,0.25,0.001,0.01112695700549258,0.008215597972647133,16.31525582012901,0.011645435988671671,0.012873333063907921
385,0.25,0.001,0.011077845966859502,0.008254557043034001,15.82171089315713,0.011293155526878752,0.012759721954353154
386,0.25,0.001,0.011077455169130467,0.008229326563722033,15.960912588991551,0.01139251433903751,0.012125933426432312
387,0.25,0.001,0.011025920689168205,0.008199388173939602,15.839887459741007,0.0113061295215853,0.012387177790515125
388,0.25,0.001,0.011090501785153885,0.008314078526925256,15.55907618974594,0.011105693211810094,0.013176067499443889
389,0.25,0.001,0.011115259345084241,0.00817631853701613,16.469824195654756,0.011755763166063351,0.014066456235013902
390,0.25,0.001,0.011025599966171763,0.008283939875569,15.364262596799337,0.010966639969164409,0.011969578103162348
391,0.25,0.001,0.011178081190225227,0.008310229428081397,16.071441292016143,0.011471407060682472,0.014589987695217133
392,0.25,0.001,0.010969581607425885,0.008141518189398754,15.848469214548896,0.011312254971126978,0.012526651262305677
393,0.25,0.001,0.011092771455210036,0.008283675654104955,15.742173129183266,0.011236383389852438,0.013233779813162982
394,0.25,0.001,0.011024184526957276,0.008173440952468391,15.975567483205138,0.011402974648968693,0.010860752896405756
395,0.25,0.001,0.011055951245860167,0.008269087273417535,15.61758670926343,0.01114745660903885,0.012449690024368465
396,0.25,0.001,0.011026193749447332,0.00821773247260577,15.73861720218539,0.011233845254950314,0.013157190172933042
397,0.25,0.001,0.011098898774195688,0.00818268633165663,16.342455314445097,0.011664850331509704,0.011354765389114618
398,0.25,0.001,0.01102506003628382,0.008231292803439318,15.656271964373818,0.011175069210830706,0.013098967028781772
399,0.25,0.001,0.011071031296816275,0.008263667730424001,15.732467038148629,0.011229455416237422,0.013372750603593886
400,0.25,0.001,0.011010899260982343,0.008184326911784537,15.84011142388266,0.01130628938178634,0.01126529200701043
401,0.25,0.001,0.011013589826624428,0.008218388837258601,15.664307050764686,0.011180804461645029,0.009693146916106343
402,0.25,0.001,0.0109605383135705,0.008149458638864855,15.753291211695661,0.011244319208919102,0.009606220875866711
403,0.25,0.001,0.010980533336781137,0.008133571455935658,15.954374978338253,0.011387847950277126,0.011711196624673903
404,0.25,0.001,0.010982707154495732,0.008143793241293919,15.90927365926213,0.01135565571681808,0.0134322305675596
405,0.25,0.001,0.011003682117652545,0.008290336352611633,15.205590938974273,0.010853383967861722,0.016430088435299695
406,0.25,0.001,0.011100211719319318,0.008297293184476754,15.707556013772283,0.011211674528031608,0.015186389442533255
407,0.25,0.001,0.011082766215960516,0.00816560755940718,16.34775704282311,0.011668634577318421,0.013077349285595119
408,0.25,0.001,0.011032213657192248,0.00830752931395254,15.26913112887261,0.01089873742246439,0.011966167076025158
409,0.25,0.001,0.011041788648743969,0.008077492095561143,16.611918212476503,0.011857186447163813,0.01272874535061419
410,0.25,0.001,0.011036018088522186,0.008246371283396177,15.633180490864095,0.011158587074135685,0.01568144524935633
411,0.25,0.001,0.010974584717015757,0.008180809820689153,15.656314342156332,0.011175099459069473,0.010969123337417841
412,0.25,0.001,0.011031898642678227,0.008190643269809776,15.922395467260436,0.011365021746795458,0.011245938949286938
413,0.25,0.001,0.010992041374858088,0.008132182331930745,16.026648939526904,0.011439435360119132,0.011494344682432711
414,0.25,0.001,0.010959105037292758,0.008156950373614755,15.703274955829151,0.011208618812154998,0.010371820186264813
415,0.25,0.001,0.01100263139524639,0.008170242720752145,15.872706471007154,0.011329554940047932,0.011631841654889286
416,0.25,0.001,0.011038435045590853,0.008173506220876548,16.055061989388037,0.011459715909627435,0.013305249973200262
417,0.25,0.001,0.011021196202516929,0.008190878874978094,15.861098590126117,0.011321269514722425,0.011020152014680207
418,0.25,0.001,0.01105261353935292,0.008177556317214054,16.11182050764685,0.011500228770625875,0.010633043479174376
419,0.25,0.001,0.01104504530296694,0.00813789340999903,16.291678657611378,0.011628607178880356,0.011298701982013881
420,0.25,0.001,0.011039288663976127,0.00812415075770313,16.33643262222067,0.01166055147910112,0.01391503564082086
421,0.25,0.001,0.011012183984504363,0.008199756939765183,15.760840975416976,0.01124970804812061,0.013930364977568388
422,0.25,0.001,0.010992892228440227,0.008217794159602273,15.551649858160157,0.011100392475489048,0.017124357051216066
423,0.25,0.001,0.011002623396371501,0.008200400442833817,15.703658458335415,0.011208892546991731,0.014206766267307103
424,0.25,0.001,0.011001454481547834,0.008150682045780667,15.975728530724512,0.011403089600802649,0.013546882779337466
425,0.25,0.001,0.011003626809924031,0.008207652175367376,15.668641920627284,0.011183898587171509,0.01149850117508322
426,0.25,0.001,0.010966805117068684,0.008046949157852968,16.36287328246242,0.01167942418448424,0.010019904933869839
427,0.25,0.001,0.01099744138146492,0.008180179169483187,15.787938181691976,0.011269049380222681,0.012486708641517907
428,0.25,0.001,0.010975677588087408,0.008142008377134115,15.879882292857001,0.01133467686856317,0.011504846974276006
429,0.25,0.001,0.010948279876425271,0.008136731020266304,15.755919737208611,0.011246195387015425,0.010065502428915352
430,0.25,0.001,0.010950521746794216,0.008118023613705018,15.873319522324087,0.011329992521287713,0.009396359324455261
431,0.25,0.001,0.01095749050503235,0.00811616759475064,15.922774113792467,0.011365292015554938,0.013024954940192401
432,0.25,0.001,0.010961257891500046,0.00811563935597468,15.94684564594436,0.011382473694464212,0.012832549982704222
433,0.25,0.001,0.010901343853199283,0.008103852294432097,15.677142412030374,0.01118996603285537,0.010636595368850976
434,0.25,0.001,0.011012212919666274,0.008164730860165365,15.95729001628581,0.011389928634036981,0.011106864549219608
435,0.25,0.001,0.010962489086333545,0.008183033475827325,15.576069252476065,0.011117822450018605,0.010923104709945619
436,0.25,0.001,0.010937440689334292,0.00807283917103655,16.053226423164002,0.011458405726740901,0.013901001424528658
437,0.25,0.001,0.010968110747713138,0.008165907974127438,15.703543876058623,0.011208810760926925,0.014554086956195533
438,0.25,0.001,0.010959592311485576,0.008107689497039687,15.98206299481163,0.011407610988445132,0.011600331985391676
439,0.25,0.001,0.01103975406083782,0.008144211387631167,16.226621962290466,0.011582171279293695,0.011649903957732022
440,0.25,0.001,0.01102764387119227,0.008156561730176771,16.089544302237556,0.011484328552632088,0.010325924027711153
441,0.25,0.001,0.01099355376105841,0.008176778266225827,15.78521001811814,0.011267102082882327,0.011166648590005934
442,0.25,0.001,0.01093555966466043,0.008075506430282597,16.027739220222998,0.0114402135761763,0.011345517006702721
443,0.25,0.001,0.010926755524331817,0.00809385198399829,15.875591570748666,0.011331614254638592,0.011890317255165428
444,0.25,0.001,0.01103706791654758,0.008219507309007371,15.789610004624146,0.011270242687097892,0.015637475182302296
445,0.25,0.001,0.011041280376046335,0.008151907896689122,16.192042774845515,0.011557489489539982,0.015554914018139243
446,0.25,0.001,0.010973040918607678,0.00815551579465199,15.789411092849763,0.011270100708672208,0.01666342094540596
447,0.25,0.001,0.011127858181602647,0.00831090985157669,15.786178294203724,0.011267793214991951,0.020762492436915636
448,0.25,0.001,0.01109585325021709,0.008201978112996744,16.217276431822327,0.011575500665112296,0.016847802908159792
449,0.25,0.001,0.011052478202045088,0.008128377303698864,16.38666111143745,0.011696403362910387,0.014368817675858736
450,0.25,0.001,0.011025048562934105,0.008234407111131324,15.638755651008113,0.011162566488942264,0.011730532278306782
451,0.25,0.001,0.0109671375272885,0.008114503533239156,15.986160907466626,0.011410535979633566,0.011118334252387285
452,0.25,0.001,0.010903388922859084,0.008116274940857123,15.618987085426028,0.011148456163758763,0.010531829087994993
453,0.25,0.001,0.011002703680654907,0.008135972163466919,16.065163234081545,0.011466925934390824,0.010918867774307728
454,0.25,0.001,0.010984291635562582,0.008172627157358635,15.756567339807562,0.01124665763012674,0.015103358309715986
455,0.25,0.001,0.011093441943301662,0.008208687897452731,16.166160643225176,0.011539015448411974,0.018969517550431192
456,0.25,0.001,0.0110141738592054,0.008226346251766716,15.62298568454814,0.011151310267343426,0.015019655227661133
457,0.25,0.001,0.010996692201476505,0.008137539785456433,16.02269045445516,0.011436609888975845,0.014961609384045005
458,0.25,0.001,0.011034192175201931,0.008147843254026267,16.17510016726054,0.011545396264996816,0.01453122601378709
459,0.25,0.001,0.010919507433483397,0.008087753014938442,15.869151559403644,0.01132701752990981,0.010867500794120133
460,0.25,0.001,0.010960345805889006,0.008180495316555455,15.578282191011752,0.011119401992156854,0.01192168821580708
461,0.25,0.001,0.010934323546844135,0.008077573917790595,16.009224837906427,0.011426998456749769,0.01233201677678153
462,0.25,0.001,0.011008821009796322,0.008177522536841588,15.866597307002122,0.011325194366168538,0.013017727644182742
463,0.25,0.001,0.010932192789674552,0.008025446173682466,16.28940788340718,0.011626986355037245,0.011166929034516215
464,0.25,0.001,0.010873934961777638,0.008121599244937643,15.424089555202794,0.01100934300871006,0.010526380268856883
465,0.25,0.001,0.01100074178840584,0.008101413726402225,16.247834462462485,0.011597312250151667,0.012296183966100216
466,0.25,0.001,0.010917565682300198,0.008103930377761108,15.767613038638439,0.011254541783467837,0.012401563813909888
467,0.25,0.001,0.010938400136295216,0.008136991287011942,15.699095389539364,0.011205635538571995,0.011199092492461205
468,0.25,0.001,0.01091811720997344,0.008085613868088464,15.873348984688459,0.011330013550812604,0.010948651353828609
469,0.25,0.001,0.010984127429199244,0.008144297359009626,15.914408442869565,0.011359320801477205,0.011719738598912954
470,0.25,0.001,0.010943649451409725,0.008060991173971733,16.15441766711018,0.011530633595367724,0.01054848707281053
471,0.25,0.001,0.010855143053733233,0.008029387619284163,15.835533044532346,0.011303021445062345,0.012239070259965956
472,0.25,0.001,0.01099603511354184,0.00821484250477311,15.585803780525861,0.01112477072128898,0.018206323380582035
473,0.25,0.001,0.01098062833946097,0.008114655354373265,16.06091211434446,0.011463891587683413,0.017633498180657625
474,0.25,0.001,0.010925796217360924,0.008125252975053728,15.69424479689628,0.011202173302566938,0.016598742338828743
475,0.25,0.001,0.010971971762236325,0.008106672728049233,16.057135372918435,0.01146119584076976,0.014109903713688254
476,0.25,0.001,0.010911530768401564,0.008096987502124463,15.772700853288049,0.011258173342818022,0.013445656280964613
477,0.25,0.001,0.01092713549422073,0.008060074039970161,16.06701200242331,0.011468245540630487,0.013133218744769692
478,0.25,0.001,0.010912855950987165,0.008129855796756973,15.595933420424172,0.011132001013864506,0.010672096628695726
479,0.25,0.001,0.010858528957641946,0.008015161295594465,15.934232636135157,0.011373470832359142,0.012716955156065524
480,0.25,0.001,0.010937175764031476,0.00811776819022563,15.799959501294353,0.011277629908133014,0.010080041131004691
481,0.25,0.001,0.010917782357705286,0.008053219498043766,16.0530108728588,0.011458251872133333,0.012424254324287176
482,0.25,0.001,0.010942191035255386,0.008091381731557821,15.975935511897651,0.011403237338970485,0.013242098037153482
483,0.25,0.001,0.010966024458766108,0.008077419275468475,16.18774441537877,0.011554421424253227,0.012892533792182803
484,0.25,0.001,0.01097009250493662,0.008203890645149356,15.501796393902167,0.011064808275447657,0.012801352422684431
485,0.25,0.001,0.010875858838955768,0.007974964059064931,16.25661378115851,0.011603578716030342,0.01207901444286108
486,0.25,0.001,0.010887925915560046,0.008047533182656715,15.917560302638808,0.011361570522939906,0.010512545355595648
487,0.25,0.001,0.010885725338361955,0.008121467220727237,15.490902974361667,0.011057032815390198,0.010706638917326927
488,0.25,0.001,0.010904191680143671,0.008019429057960967,16.16621023428963,0.011539050845317365,0.011633988004177809
489,0.25,0.001,0.01095717823198979,0.008119172193032216,15.904186161176646,0.01135202438342373,0.011159179150126874
490,0.25,0.001,0.010877428148602892,0.008028418780353099,15.96584820199859,0.011396037260527188,0.011352955480106175
491,0.25,0.001,0.010885627386169916,0.008056544628779798,15.85417970884319,0.011316330984185004,0.011284299078397453
492,0.25,0.001,0.011000055312285966,0.008188490786964934,15.75600818004887,0.011246258515381063,0.01614355552010238
493,0.25,0.001,0.010916088950783326,0.008072063298643196,15.937919409638408,0.011376102362340048,0.016566438716836274
494,0.25,0.001,0.010910776173520934,0.008049478733013841,16.034711316134587,0.011445190090031825,0.01446623750962317
495,0.25,0.001,0.010886003072752708,0.008142210049301947,15.376216179642647,0.010975172148210312,0.012019142624922097
496,0.25,0.001,0.010949166651060785,0.008104295296777265,15.942659210810334,0.011379485518065906,0.013839987339451909
497,0.25,0.001,0.010921625544886748,0.008037062851801545,16.165089493753516,0.011538250887761253,0.012215748196467757
498,0.25,0.001,0.010838647112483646,0.008070171421825388,15.51453716222329,0.01107390232849628,0.010537535068579018
499,0.25,0.001,0.010893118398610136,0.008095324177504954,15.678839725343071,0.01119117753414923,0.010396469733677804
500,0.25,0.001,0.010854865525438915,0.008010285084052226,15.94102897126391,0.011378321892408215,0.010990467038936913
