epoch,beta,learning_rate,train_loss,train_reconstruction_loss,train_kl_unnormalized,train_kl_normalized,mean_unclipped_gradient_norm
1,0.0,0.001,0.08917448403750969,0.08917448403750969,70.57199793996534,0.050372589536020945,0.20933306515216826
2,0.02,0.001,0.06296027782358157,0.05361311350892211,654.7689356175266,0.4673582695342802,0.1591970831155777
3,0.04,0.001,0.05555694938376785,0.04426782180546181,395.4017091610041,0.2822282006859415,0.12319795191287994
4,0.06,0.001,0.047549355846988425,0.0433329680868667,98.45266973857328,0.07027314042724717,0.12978221774101256
5,0.08,0.001,0.04294505689017642,0.0386121824647261,75.87945012034328,0.054160920856776075,0.10967317819595337
6,0.1,0.001,0.038730699437224216,0.03496548150130024,52.75070131553331,0.037652177955412786,0.12697686851024628
7,0.12,0.001,0.03749067302781286,0.033263911118796785,49.34744176833959,0.035223013396388,0.10575643964111806
8,0.14,0.001,0.036551896913929384,0.03397023134005415,25.835094494834973,0.018440467162623108,0.11190930306911469
9,0.16,0.001,0.03621452961751886,0.03349940457240561,23.77431707290208,0.01696953395638978,0.08744996339082718
10,0.18,0.001,0.03531689959850725,0.033134893529188976,16.983277507916906,0.012122253752974236,0.049423123709857464
11,0.2,0.001,0.03456838218153865,0.03219840869642914,16.601659584658705,0.011849864086123273,0.05319936722517014
12,0.22,0.001,0.03387189406745878,0.03114874083009755,17.34153465442719,0.012377969060975866,0.08892488665878773
13,0.24,0.001,0.0321903435507388,0.029302656039643517,16.85687667687223,0.01203203188927354,0.08170405104756355
14,0.25,0.001,0.030346815321606456,0.027242572247454973,17.396177034286058,0.012416971473437587,0.08508031032979488
15,0.25,0.001,0.0289127187701571,0.0253380874704893,20.03223319222306,0.01429852476247185,0.044350888952612876
16,0.25,0.001,0.027611360990014107,0.02348329163369067,23.133700251195975,0.016512277124336883,0.048780938237905504
17,0.25,0.001,0.026304433385802618,0.022239171244036345,22.781728505321638,0.01626104818366998,0.048423389345407485
18,0.25,0.001,0.024863758091470435,0.020793002745633723,22.81251336983929,0.016283021677258595,0.11537366583943368
19,0.25,0.001,0.02383069671882119,0.019831837313639005,22.409606216038156,0.015995436271262067,0.07654589246958494
20,0.25,0.001,0.02298084639276339,0.018823847713673614,23.295824057036274,0.016627997185607618,0.06737500373274088
21,0.25,0.001,0.022709493803824643,0.01869499157527252,22.49727060863826,0.0160580089997418,0.07314857877790928
22,0.25,0.001,0.02236041639275681,0.018489575929867875,21.692190599594852,0.015483362312344649,0.09321022257208825
23,0.25,0.001,0.022359574177688725,0.018411574927173626,22.124589656326933,0.015791998327142707,0.12702477779239416
24,0.25,0.001,0.02172040593753482,0.018008757789897765,20.800077027446587,0.014846593167342317,0.07314272876828909
25,0.25,0.001,0.021722607434370895,0.017997470513656976,20.875668449033878,0.01490054850038107,0.0638868648558855
26,0.0,0.001,0.017543312102268747,0.017543312102268747,24.05392887814635,0.017169114117163705,0.04683463051915169
27,0.02,0.001,0.01675350320528462,0.016220488690342934,37.33763840114189,0.026650705496889283,0.05006706528365612
28,0.04,0.001,0.01706078750982737,0.01550430799699673,54.51570174778389,0.038911992682215485,0.059496086463332175
29,0.06,0.001,0.017701444195110314,0.015027362398108486,62.43982188724628,0.04456803846341633,0.044986143708229065
30,0.08,0.001,0.018227631831092467,0.014898998273530573,58.29269785743051,0.041607921382891155,0.024521001428365708
31,0.1,0.001,0.01840390756103387,0.0151151336573807,46.07572367873606,0.03288773995627128,0.0549779012799263
32,0.12,0.001,0.018634383743359344,0.015615776558541409,35.24224255552629,0.025155062495022334,0.0529000386595726
33,0.14,0.001,0.019012915785050086,0.01607514618988781,29.39867799765044,0.020984067093255135,0.04113560728728771
34,0.16,0.001,0.019250590282333627,0.01597838321778552,28.652260047446493,0.02045129196819878,0.05610184781253338
35,0.18,0.001,0.019459677291165593,0.015790149078395974,28.561161053525673,0.020386267704158224,0.0685329893603921
36,0.2,0.001,0.02004722959790199,0.016298030452185888,26.263142496826564,0.01874599749951932,0.10988481342792511
37,0.22,0.001,0.019980496747892387,0.01610968991742736,24.65000109657214,0.017594576086061485,0.07405364885926247
38,0.24,0.001,0.020188234542822914,0.01613691750422743,23.649566858911054,0.016880490263319812,0.0802829060703516
39,0.25,0.001,0.020358860810134573,0.016202789973886834,23.29062101848639,0.01662428338221727,0.12549230456352234
40,0.25,0.001,0.020045036707564565,0.016070448697643458,22.273587432321627,0.015898349344983315,0.04994531888514757
41,0.25,0.001,0.019385579524268292,0.015435122750052686,22.13836190938183,0.015801828629109085,0.046363390237092975
42,0.25,0.001,0.019349333647506798,0.015494417548898331,21.602952705702215,0.015419666456604008,0.032910297811031344
43,0.25,0.001,0.018753998412771623,0.014846174366820088,21.899447014860783,0.01563129694137101,0.05485265962779522
44,0.25,0.001,0.01879972104474279,0.014919438516164132,21.745106602021735,0.01552113247824535,0.06805997826159
45,0.25,0.001,0.018532503563970616,0.014713940225613462,21.39922832599407,0.01527425290934623,0.05765529815107584
46,0.25,0.001,0.01817407435063764,0.014375946813912828,21.284706747416898,0.015192510169462454,0.0399054728448391
47,0.25,0.001,0.01803786716636546,0.013980772292355248,22.73596114131032,0.01622838054340494,0.06329423449933529
48,0.25,0.001,0.017819715693736766,0.013839084301682915,22.307458938893014,0.01592252600920272,0.06184807345271111
49,0.25,0.001,0.017429849618021697,0.013718177986681653,20.800205451499227,0.014846684833332782,0.04522487949579954
50,0.25,0.001,0.01733106005206177,0.013664029930924871,20.550038984734147,0.014668122044778121,0.05271877609193325
51,0.0,0.001,0.01327220145073926,0.01327220145073926,23.430318630009985,0.016723996167030682,0.05882777571678162
52,0.02,0.001,0.012732905611228139,0.012216325714537377,36.18641864985132,0.025828992612313577,0.07162147089838981
53,0.04,0.001,0.01273465113732305,0.011292250036378765,50.520098180249576,0.036060027252141025,0.0562537157908082
54,0.06,0.001,0.013336542325986736,0.010811968649650693,58.948794410926354,0.04207622727403737,0.04001923184841871
55,0.08,0.001,0.013818251558989766,0.010577381477718185,56.755738003844236,0.04051087651951766,0.034410040453076364
56,0.1,0.001,0.014050151973100337,0.01073938447059734,46.38385370383309,0.03310767573435624,0.022739911265671254
57,0.12,0.001,0.014254940272431665,0.011260959897729362,34.954722309419196,0.0249498374799566,0.04353515356779099
58,0.14,0.001,0.014632360997738562,0.01169875062031857,29.35705838709399,0.020954360019339036,0.025445445161312818
59,0.16,0.001,0.014818788820524308,0.01163967042394773,27.837157289314884,0.019869491284307556,0.0240764269605279
60,0.18,0.001,0.01513484996890236,0.011630530301421593,27.27528534058206,0.019468440642813747,0.04043306913226843
61,0.2,0.001,0.015470589723713528,0.011808223474375497,25.654873581177934,0.018311829822396812,0.0319056537002325
62,0.22,0.001,0.015874518273200636,0.012073735496885715,24.204076754701866,0.017276286049037734,0.041612985730171206
63,0.24,0.001,0.016060184345990897,0.012056311298988256,23.37260943593703,0.016682804736571754,0.03379127644002437
64,0.25,0.001,0.016084396738523073,0.01198484744110004,22.973875573210393,0.01639819812506095,0.04301876612007618
65,0.25,0.001,0.016154076808231055,0.01225453824811043,21.853015850594574,0.015598155496498624,0.03509939014911652
66,0.25,0.001,0.01584024587795857,0.01202295409737101,21.392103974075564,0.015269167718826242,0.02263378519564867
67,0.25,0.001,0.015913968109241252,0.012094179662453592,21.40609716065827,0.01527915571781461,0.041457566618919375
68,0.25,0.001,0.015938218874659186,0.012136596671254688,21.30429289348639,0.015206490287998852,0.018727510794997217
69,0.25,0.001,0.01574533593232992,0.012014818075337594,20.905823955965197,0.014922072773708207,0.028229094482958315
70,0.25,0.001,0.015863502236424534,0.01210602993367186,21.056874775043255,0.015029889204170775,0.048083985969424245
71,0.25,0.001,0.01597862607437123,0.01229014881314572,20.670226799330145,0.014753909207230654,0.06766025982797146
72,0.25,0.001,0.015593291664573924,0.011935950987568047,20.495738541581623,0.014629363698487954,0.025649923458695413
73,0.25,0.001,0.015442709540319404,0.011756926538404737,20.655129656531038,0.01474313323092865,0.02209743708372116
74,0.25,0.001,0.01544279492553024,0.011944960787820471,19.601861119653634,0.013991335560066834,0.029919876158237456
75,0.25,0.001,0.015291694123477606,0.011628961663729126,20.525953323511448,0.014650930280878978,0.02222218792885542
76,0.0,0.001,0.011316349133968928,0.011316349133968928,23.143674280099162,0.0165193963455383,0.025525503605604172
77,0.02,0.001,0.010857230651273222,0.010370702006617542,34.081331713023296,0.024326432343342825,0.02422572784125805
78,0.04,0.001,0.011009019976212281,0.009665068149135427,47.07191208474506,0.03359879520681303,0.012221451941877603
79,0.06,0.001,0.011677619510021815,0.009369518263475114,53.89416514945567,0.038468354853287416,0.016672411374747752
80,0.08,0.001,0.012176154133447498,0.00932712625364782,49.89360296611234,0.035612850082878185,0.02094975858926773
81,0.1,0.001,0.012437447312608409,0.009622617576786369,39.435765428941735,0.028148297950707876,0.022228980250656605
82,0.12,0.001,0.012743551802141682,0.010091841334650754,30.95872077451258,0.022097587990373008,0.009643137734383345
83,0.14,0.001,0.01307246304293825,0.010349221276029514,27.25186646636276,0.019451724815390977,0.013752251584082841
84,0.16,0.001,0.013342696478608336,0.010335179782469556,26.334567661837365,0.018796979059127313,0.020228675566613674
85,0.18,0.001,0.013704068470638472,0.010434590354921159,25.4474381695223,0.018163767430065883,0.020362078957259656
86,0.2,0.001,0.013985876476098679,0.010488181970893762,24.501348906391303,0.017488471739037333,0.02486361041665077
87,0.22,0.001,0.014225598616327887,0.010648433047188056,22.78004147692125,0.016259844023498397,0.019627405516803264
88,0.24,0.001,0.014505095636154678,0.010839083019368518,21.40034934408795,0.015275053065016381,0.014901801664382219
89,0.25,0.001,0.014496874764944963,0.010704855701116504,21.25047484394822,0.01516807626263256,0.012069900706410407
90,0.25,0.001,0.014499359060426233,0.0108730509739453,20.32182982956865,0.014505231855509386,0.011227699555456638
91,0.25,0.001,0.014423048977180117,0.01088187782471203,19.84472501086269,0.0141646859463688,0.018352188915014268
92,0.25,0.001,0.01428671805277898,0.010703254712691644,20.08172801223215,0.014333852970900894,0.014605786837637424
93,0.25,0.001,0.014305938897696338,0.010699349051263555,20.21133059167402,0.014426360165363326,0.01603683829307556
94,0.25,0.001,0.014314678824024568,0.010675785437202339,20.392357541050558,0.014555572834440084,0.015766595117747785
95,0.25,0.001,0.014091405700113612,0.010641512338227781,19.33320319000931,0.01379957401142706,0.016205902956426144
96,0.25,0.001,0.014128869953430542,0.010721326709823785,19.0958726827738,0.013630173221109064,0.021615510620176793
97,0.25,0.001,0.014047790720004744,0.010586298103788657,19.39820590739848,0.013845971382868295,0.015836990810930728
98,0.25,0.001,0.013986861584797932,0.010572316888659904,19.135109511985657,0.013658179523187479,0.011925493646413089
99,0.25,0.001,0.013968021779581665,0.01061625501673992,18.783302159938014,0.01340706792286796,0.018578970246016978
100,0.25,0.001,0.013889127710408912,0.010607372711852817,18.390955645938394,0.013127020446779724,0.012866936437785626
101,0.25,0.001,0.013881502136995363,0.010434487076937386,19.317072619962538,0.01378806039968775,0.020876611210405828
102,0.25,0.001,0.013868238471472378,0.010512831845467497,18.803699671263864,0.013421627174349653,0.025648004561662673
103,0.25,0.001,0.013837683092431432,0.010554684679416214,18.39792364433264,0.013131994035926223,0.02811641972512007
104,0.25,0.001,0.013800787646622903,0.010411720489334447,18.992332961398304,0.013556269065951681,0.025455717369914053
105,0.25,0.001,0.013681354240732944,0.010427050103831713,18.237120797013162,0.013017216842978702,0.023749463446438312
106,0.25,0.001,0.013774848031029824,0.010568391828171885,17.96898074012094,0.012825824939415375,0.02817369196563959
107,0.25,0.001,0.013650952338262003,0.010450212311874056,17.93694816908269,0.012802960863014055,0.02983045671135187
108,0.25,0.001,0.013513636505800236,0.01028550747135157,18.09043537765454,0.012912516329517874,0.023971288837492465
109,0.25,0.001,0.013569131643298737,0.010313329792961814,18.245514333056484,0.013023207946507126,0.02348926179111004
110,0.25,0.001,0.013408658082725726,0.010284607121990424,17.507182161141056,0.01249620425491867,0.021339920163154603
111,0.25,0.001,0.013499591571437585,0.010363333861544201,17.575588496168326,0.01254503104651558,0.015077749826014042
112,0.25,0.001,0.013434749207432439,0.010137793622982847,18.476138841684225,0.0131878221568053,0.025398693792521954
113,0.25,0.001,0.013431179942113985,0.010248268846650024,17.837033716428703,0.012731644337208211,0.02864142395555973
114,0.25,0.001,0.013340797460970388,0.010157598712604337,17.83864675074145,0.012732795682185188,0.033824823796749115
115,0.25,0.001,0.013317961793788184,0.010282130330992664,17.012800149212314,0.01214332630207874,0.02838149666786194
116,0.25,0.001,0.013359698398080669,0.01015408344902218,17.964265854029026,0.012822459567472539,0.019114757142961025
117,0.25,0.001,0.013144986958533429,0.00999017446107228,17.679568600424616,0.012619249536348763,0.016679428145289422
118,0.25,0.001,0.013142115107087652,0.010140975526986206,16.818385795764986,0.012004558026955735,0.016008535958826543
119,0.25,0.001,0.013026052696624369,0.00998437769076161,17.045545921448344,0.01216669944428861,0.01582385990768671
120,0.25,0.001,0.013210265058724635,0.010076120337082066,17.563746663918447,0.012536578632347214,0.0211162269115448
121,0.25,0.001,0.013154801026202282,0.010086522913774494,17.194631472277873,0.012273113113688703,0.014389789290726184
122,0.25,0.001,0.01307955656164712,0.010050205244320381,16.976485555961585,0.012117405821528612,0.012830503284931183
123,0.25,0.001,0.012981163607341301,0.009851723624890448,17.537383695890664,0.012517761381792052,0.01392758432775736
124,0.25,0.001,0.012999668552680988,0.009933473512386586,17.18295713099636,0.012264780250532735,0.010271560400724411
125,0.25,0.001,0.012907946081023507,0.009873995572400438,17.002258723955062,0.012135802087048581,0.01596010085195303
126,0.25,0.001,0.012968948512215323,0.009859852211316298,17.42337522476049,0.012436384885624905,0.0209040604531765
127,0.25,0.001,0.012991378425210235,0.009867038290312819,17.508802665391535,0.012497360931756985,0.021865471079945565
128,0.25,0.001,0.012929984383356916,0.00981192094336752,17.473627360304068,0.012472253647611755,0.017810014262795448
129,0.25,0.001,0.0128072637082392,0.009754578385298467,17.107248882772073,0.01221074152945901,0.015449657291173934
130,0.25,0.001,0.01291380864283567,0.009902001987436002,16.87816403993073,0.012047226295453769,0.02654139567166567
131,0.25,0.001,0.012927046488862712,0.009813880706595264,17.446181416894845,0.012452663395356778,0.01926808636635542
132,0.25,0.001,0.01277916481377036,0.009589147418617628,17.87685795382288,0.012760069917075576,0.01809626966714859
133,0.25,0.001,0.01266077977164957,0.009681985686590051,16.693163831900936,0.011915177610207663,0.022650464810431002
134,0.25,0.001,0.012771584947033518,0.009881243996106544,16.19747039512806,0.011561363593952934,0.023351842351257802
135,0.25,0.001,0.012670540822807616,0.009626984272834956,17.05609057877225,0.01217422596628997,0.013429280184209347
136,0.25,0.001,0.012737418018832467,0.009682145945943436,17.121744063889484,0.01222108784003532,0.01930351387709379
137,0.25,0.001,0.012705960715267436,0.00973752110154395,16.63513668710396,0.01187375923419269,0.01629100479185581
138,0.25,0.001,0.01259465061032312,0.009644541455211172,16.53240969863352,0.011800435188175246,0.024255977384746073
139,0.25,0.001,0.012670535393586304,0.009651744202186632,16.917305728630236,0.01207516468852979,0.013120261766016484
140,0.25,0.001,0.012499431627308441,0.009462060340922744,17.021430362075854,0.01214948633981146,0.011100408807396888
141,0.25,0.001,0.012513765669951868,0.009491827830049386,16.934939853631416,0.012087751501521353,0.01244330070912838
142,0.25,0.001,0.012507487420843153,0.00957028467771133,16.460084044281693,0.011748810881000495,0.014838152565062046
143,0.25,0.001,0.012450476584303226,0.00953226431401692,16.353662135133405,0.01167284948974547,0.013241855334490538
144,0.25,0.001,0.012440477956050461,0.009506663127871188,16.44109874982926,0.011735259635852433,0.01556980200111866
145,0.25,0.001,0.012459238730610566,0.009491790310626436,16.629580874918357,0.011869793629492047,0.012872552778571845
146,0.25,0.001,0.012589040338106669,0.00962542605038337,16.60809418166182,0.011854456946225424,0.01052421797066927
147,0.25,0.001,0.012467936471919155,0.009443007885715012,16.95169987325883,0.01209971439918546,0.011528817564249038
148,0.25,0.001,0.012436147515700944,0.009510020689493782,16.39801505600908,0.01170450753462461,0.0126033378764987
149,0.25,0.001,0.012337192590573018,0.009415693149880965,16.372082946384836,0.011685997820403166,0.009775732085108757
150,0.25,0.001,0.012443578433712578,0.009471398538691247,16.656095768477755,0.011888719320826378,0.009261362534016371
151,0.25,0.001,0.01233776265282148,0.009309114792483029,16.972543685765896,0.01211459220968301,0.012758036516606808
152,0.25,0.001,0.01233692112052364,0.009444324284720076,16.210113562188347,0.011570387981576264,0.017855054698884487
153,0.25,0.001,0.012293303636923863,0.009419204655232154,16.106451985153736,0.011496396848789248,0.01844887565821409
154,0.25,0.001,0.012327492231101852,0.0093835559508904,16.497818017695877,0.011775744480867864,0.011260708980262279
155,0.25,0.001,0.012274947745120602,0.009344306768448215,16.42331349044751,0.01172256494678623,0.014620328322052956
156,0.25,0.001,0.012170365271892195,0.009257212335130027,16.3253111701303,0.01165261325491099,0.011659907456487418
157,0.25,0.001,0.012266575014428311,0.009326561635593702,16.47583554258684,0.011760053920475974,0.012682890892028809
158,0.25,0.001,0.012218364685103058,0.00931986041031658,16.24321897390188,0.01159401782576865,0.010615762323141098
159,0.25,0.001,0.012172085508536488,0.009220141240686082,16.54269677189769,0.011807777852889141,0.013357736449688674
160,0.25,0.001,0.012291115948217666,0.009440758645869912,15.97340350749025,0.011401430055310672,0.018796280957758427
161,0.25,0.001,0.012165958295393603,0.009280286657465232,16.17130412626113,0.011542686742513297,0.017651347629725932
162,0.25,0.001,0.012242830654911673,0.009337485504375584,16.28155359347917,0.011621380152376282,0.01972590256482363
163,0.25,0.001,0.012096179837894018,0.00926123428311187,15.887034900702082,0.011339782227481858,0.019423084054142236
164,0.25,0.001,0.01216627195345723,0.009255153258777316,16.313909910882785,0.011644475311122615,0.018142189458012582
165,0.25,0.001,0.01217608854258463,0.00917343324547412,16.826878360613367,0.01201061981485608,0.016668328549712896
166,0.25,0.001,0.012177681065257339,0.009218516283432003,16.583159903621368,0.011836659460115181,0.01468042992055416
167,0.25,0.001,0.012099198523872918,0.009222706645080323,16.11986163651445,0.01150596833441431,0.010381448827683926
168,0.25,0.001,0.012066036405886292,0.009194401098816533,16.09264480799341,0.011486541618838978,0.016477255895733834
169,0.25,0.001,0.011993115336613257,0.009103525271249928,16.19326310602415,0.01155836053249404,0.014543243683874607
170,0.25,0.001,0.012073129583210041,0.00919827876217256,16.110663883172432,0.011499403199980322,0.016285029239952564
171,0.25,0.001,0.01216093022855436,0.009206704576754302,16.555481680719797,0.011816903412362453,0.013647455908358096
172,0.25,0.001,0.012060805053189636,0.009168488614356977,16.208542207429648,0.01156926638645942,0.015510881133377553
173,0.25,0.001,0.0121397991631767,0.00930398468742704,15.891905039453047,0.011343258415027157,0.024365181941539048
174,0.25,0.001,0.012027272801858245,0.00914403288310747,16.157675733903595,0.011532959124841967,0.017529170960187912
175,0.25,0.001,0.011939511242115996,0.009040490230036318,16.24611401941232,0.011596084239409223,0.01463715247809887
176,0.25,0.001,0.01196013526973042,0.009020874698996735,16.471616355552552,0.011757042366561422,0.015201644226908683
177,0.25,0.001,0.011996230026677107,0.009240382219218557,15.443771423634226,0.011023391451559048,0.015512374974787236
178,0.25,0.001,0.012050064544154518,0.009134014490452801,16.34154431996238,0.011664200085626254,0.017616645246744157
179,0.25,0.001,0.011950627400560777,0.009015416406047114,16.4489226877881,0.011740844174010065,0.010485411062836647
180,0.25,0.001,0.012032488915003189,0.009205702524572323,15.841310145387313,0.011307145000276455,0.015345645509660244
181,0.25,0.001,0.011930392336375844,0.009119586384229338,15.751758357719593,0.011243225094732044,0.013973447494208813
182,0.25,0.001,0.011849954984842582,0.009010565338410749,15.911940859828348,0.011357559500234368,0.01002906747162342
183,0.25,0.001,0.011927386527204245,0.009107180466797574,15.804434895898751,0.011280824336829944,0.012197844590991736
184,0.25,0.001,0.011833374163920473,0.00899825333782331,15.888016326634446,0.011340482745634865,0.00908920019865036
185,0.25,0.001,0.01184081867145572,0.008972003891273518,16.0768383430898,0.01147525934553162,0.010146864037960768
186,0.25,0.001,0.011837969950349385,0.009026071098648083,15.757880192477604,0.011247594712689225,0.009745652321726084
187,0.25,0.001,0.011830526958084949,0.009067665554966383,15.483074911920971,0.011051445333276925,0.009576109051704407
188,0.25,0.001,0.011794460015042035,0.008991838232209828,15.70589225621852,0.011210486978028922,0.008803912810981274
189,0.25,0.001,0.011833634550931752,0.008963395194584726,16.084821621321407,0.011480957616931768,0.01138591319322586
190,0.25,0.001,0.011858279918622932,0.009061261807894783,15.674490349085769,0.011188073054308186,0.008786247950047255
191,0.25,0.001,0.011866584584907513,0.008986852377341682,16.138018969937537,0.011518928600954702,0.012677733041346072
192,0.25,0.001,0.011942210604236057,0.009047749835602532,16.22055858967772,0.011577843390205367,0.011643700394779443
193,0.25,0.001,0.011737820614500636,0.008857671554736386,16.140355803192236,0.011520596576154344,0.009974300302565098
194,0.25,0.001,0.011814163857022858,0.008987118106730689,15.842765443194718,0.011308183756741412,0.014006849564611911
195,0.25,0.001,0.011737970617327276,0.008914710828058206,15.821546671091552,0.011293038309130301,0.012282007560133933
196,0.25,0.001,0.011789315934158214,0.009037424358045174,15.421601776908066,0.011007567292582489,0.00912425983697176
197,0.25,0.001,0.011719194294771007,0.00888781078830601,15.86707216980373,0.011325533311779965,0.010607591643929482
198,0.25,0.001,0.011838028084642443,0.008990223920781321,15.959094108875925,0.011391216351802945,0.011490353755652905
199,0.25,0.001,0.011887860131057705,0.009119072404968585,15.51628584723764,0.011075150497671406,0.013402903825044632
200,0.25,0.001,0.01179941066531794,0.008950142231784832,15.967299768012436,0.011397073353327935,0.011126466561108828
201,0.25,0.001,0.01174913477631723,0.00890768539471929,15.923483198478674,0.011365798143096842,0.010048393625766039
202,0.25,0.001,0.01180456249624299,0.008975089955895276,15.856364115258122,0.011317890160783814,0.011437226179987192
203,0.25,0.001,0.011786126899997139,0.008933811984548998,15.984373181579198,0.011409259944025123,0.014471107907593251
204,0.25,0.001,0.011800617267081209,0.008960532473693706,15.915835089238893,0.011360339107236897,0.015338963456451893
205,0.25,0.001,0.011791272223642593,0.009029327912729269,15.477936456441112,0.011047777627723849,0.017122841626405715
206,0.25,0.001,0.01184434502406519,0.009049632745252929,15.661568534335906,0.011178849774686585,0.017264329083263873
207,0.25,0.001,0.01175157904289543,0.008913736443044289,15.90327108327982,0.011351371222897802,0.016330476850271225
208,0.25,0.001,0.011755927849165689,0.008796482980311205,16.58472957181777,0.011837779851404547,0.013293871469795705
209,0.25,0.001,0.011761549159501143,0.008943628930034553,15.791625577920502,0.011271681354689866,0.015511976461857558
210,0.25,0.001,0.011627945096690172,0.008935318915383034,15.089477434802285,0.010770504949894564,0.013476855680346489
211,0.25,0.001,0.011746122618580171,0.008889833282547556,16.00664567794064,0.011425157514590036,0.012824313528835774
212,0.25,0.001,0.011737362927850036,0.008878272760455823,16.02233970740217,0.011436359534191413,0.014488514419645071
213,0.25,0.001,0.01166113679240371,0.008837759494781494,15.82220747846499,0.011293509977491071,0.01005175979807973
214,0.25,0.001,0.011744016757492468,0.008892982260854106,15.977197591898141,0.011404138181226368,0.010086273215711117
215,0.25,0.001,0.011661467061548754,0.008841396974237976,15.803672177231963,0.011280279926646654,0.01041744528338313
216,0.25,0.001,0.011629565070919286,0.008849373794014048,15.580191707304436,0.011120764958818299,0.010873766243457794
217,0.25,0.001,0.011740434690231871,0.008916200803431092,15.82700680919782,0.011296935623981314,0.015959263779222965
218,0.25,0.001,0.011687134745923077,0.008771023913690898,16.341884738762662,0.011664443068353078,0.010865027084946632
219,0.25,0.001,0.011629883214903223,0.008780712528315963,15.9667528925218,0.011396683006796431,0.01263671237975359
220,0.25,0.001,0.011707788947191078,0.009007440095354122,15.132753786166765,0.010801394565429525,0.015243282914161682
221,0.25,0.001,0.011643529375505984,0.008864679565455561,15.572674686885723,0.011115399490996233,0.012375116534531116
222,0.25,0.001,0.011623304882281462,0.008734033790408031,16.191475285594485,0.01155708442940363,0.015189087297767401
223,0.25,0.001,0.011661980160395241,0.008870525450304966,15.643313598019517,0.011165819841555687,0.017699841037392618
224,0.25,0.001,0.01163406489219313,0.008848992329078854,15.607547714012613,0.011140291016425849,0.01303438823670149
225,0.25,0.001,0.011632636893193247,0.008835100374181554,15.677393646485552,0.011190145357948288,0.01382411727681756
226,0.25,0.001,0.011627248167943725,0.008809993340007937,15.787896742008124,0.011269019801576106,0.015994113497436048
227,0.25,0.001,0.01168639767447852,0.008822953253625098,16.046741908769516,0.011453777236809076,0.015676137432456015
228,0.25,0.001,0.011609470483718194,0.00884798901916221,15.47534369809068,0.011045926979365224,0.011142263188958168
229,0.25,0.001,0.011542491417174554,0.008692766991938041,15.96985703495921,0.011398898668778879,0.015325870364904404
230,0.25,0.001,0.011640048097711284,0.008822285782821309,15.790739826067467,0.011271049126386486,0.014378997310996056
231,0.25,0.001,0.011598914196876468,0.008773878312570873,15.83150074949602,0.01130014329014705,0.014888216741383076
232,0.25,0.001,0.01159175780041808,0.008799488725098767,15.647875877821944,0.01116907628681081,0.014440591633319854
233,0.25,0.001,0.011523632641127064,0.008752916235824106,15.527094604884697,0.011082865528111847,0.01287111509591341
234,0.25,0.001,0.01163223825419064,0.008803848701250706,15.85029503310225,0.01131355819636135,0.010642668046057225
235,0.25,0.001,0.011525412895671808,0.00865225190853766,16.101194068933225,0.01149264387504156,0.013179761450737714
236,0.25,0.001,0.011481517949815348,0.0087266157971174,15.43847315871064,0.011019609677880541,0.014336335100233554
237,0.25,0.001,0.011513598577697369,0.008806469113568976,15.170753727388535,0.01082851800670131,0.016358730755746363
238,0.25,0.001,0.011626794625828312,0.00876670247213346,16.027956830726943,0.011440368901304027,0.0118159094825387
239,0.25,0.001,0.011564811146623452,0.008801167408585357,15.487459544583531,0.01105457497828946,0.012814442813396453
240,0.25,0.001,0.011504312680728757,0.008771303223619699,15.315785769864293,0.0109320383796319,0.009538566321134567
241,0.25,0.001,0.011467726170489643,0.008674346725082091,15.654098124366097,0.011173517576278442,0.011476064193993806
242,0.25,0.001,0.011495711925736002,0.008680334689029736,15.777374224647449,0.01126150908254636,0.011151096317917109
243,0.25,0.001,0.011555880667504006,0.008771130803169928,15.605739697766074,0.01113900049804859,0.012823357805609703
244,0.25,0.001,0.011584951266814083,0.008701078144539975,16.16122397272533,0.011535491772109444,0.013384543359279633
245,0.25,0.001,0.01157687233395611,0.00877001065569196,15.7296527972942,0.01122744667901085,0.019359230436384676
246,0.25,0.001,0.011505596276815872,0.008808939624877221,15.112062690342354,0.01078662576041567,0.019695549458265304
247,0.25,0.001,0.011537836684914263,0.008777216867426968,15.470513954039939,0.011042479624582397,0.016123530082404615
248,0.25,0.001,0.011532989189843273,0.008724357327895532,15.739573432701578,0.01123452778922311,0.011732402443885803
249,0.25,0.001,0.011601284442774928,0.008715982009863356,16.169234419942285,0.011541209436075863,0.016043324768543244
250,0.25,0.001,0.011500999505161473,0.008702117502030548,15.684935333644463,0.011195528432294407,0.013991437293589115
251,0.25,0.001,0.011462732478736682,0.008714706777711773,15.399937142129879,0.010992103598950663,0.010602633096277713
252,0.25,0.001,0.011477613713819881,0.008632863218929032,15.941980791245243,0.01137900127854764,0.01074893344193697
253,0.25,0.001,0.011517175973372061,0.008687324513504551,15.858487616781254,0.011319405864940225,0.009646200388669968
254,0.25,0.001,0.011375879764053791,0.008560261455547197,15.77872416137499,0.011262472634814412,0.009898477979004384
255,0.25,0.001,0.011411735793976922,0.008632159899692635,15.576744665286933,0.011118304543388247,0.011799274757504464
256,0.25,0.001,0.011507979998442905,0.008752785575159877,15.440110749370415,0.011020778550585593,0.015552422031760216
257,0.25,0.001,0.01147610160231686,0.008642997556752331,15.876714770816914,0.011332415967749403,0.017911001108586788
258,0.25,0.001,0.011482521939507634,0.008726910181894563,15.442448818415308,0.01102244740786246,0.017150435596704483
259,0.25,0.001,0.011474201449723106,0.008635373471658138,15.908793418737087,0.011355312932717406,0.011903143674135207
260,0.25,0.001,0.011448943969521109,0.00869468428565854,15.434870483790947,0.011017038175439649,0.008965786825865508
261,0.25,0.001,0.011399413785415063,0.00863796856757433,15.475139243809739,0.011045781044832077,0.010350141115486622
262,0.25,0.001,0.011475787740620002,0.008631680130814817,15.938379876483292,0.011376431032464877,0.012556197866797448
263,0.25,0.001,0.011516295205741833,0.008741536004007629,15.549751416663264,0.011099037413749653,0.010105608217418193
264,0.25,0.001,0.011369483889802284,0.008541524127257503,15.847886597611897,0.011311839113213346,0.011582905519753694
265,0.25,0.001,0.011336121252974514,0.00852003255170258,15.781361791481926,0.011264355311550268,0.012721937522292137
266,0.25,0.001,0.011454744129726167,0.008704126225574798,15.414463779167347,0.011002472362003817,0.014286270178854466
267,0.25,0.001,0.011299911012028575,0.008447326528106088,15.985883749566277,0.011410338151010904,0.010382642410695553
268,0.25,0.001,0.01134850193785318,0.008588221888402267,15.468609607488013,0.011041120347957182,0.012296121194958686
269,0.25,0.001,0.011486907247034684,0.00874676309537945,15.355767909353569,0.010960576666205259,0.024535775370895862
270,0.25,0.001,0.011402027873124724,0.008577355444191737,15.82946497374409,0.011298690202529686,0.017304894234985112
271,0.25,0.001,0.0113637368718815,0.008614969950384936,15.40409050110452,0.010995068166384382,0.013217223063111305
272,0.25,0.001,0.011391741654856603,0.00863784870246599,15.432816382773053,0.011015572007689545,0.01153130754828453
273,0.25,0.001,0.01137220544495,0.008572124076522048,15.691657133807707,0.011200326291083303,0.011222971603274345
274,0.25,0.001,0.011365092724825217,0.008626211913739754,15.348689063952284,0.010955523957139389,0.012027695961296558
275,0.25,0.001,0.011319645788292984,0.008547658546920566,15.534217162914215,0.011087949438197155,0.012557735107839108
276,0.25,0.001,0.011367597913674986,0.008583145347870047,15.604071454603188,0.011137809746326329,0.009139665309339762
277,0.25,0.001,0.01133357204341141,0.008560460755583558,15.54051533849293,0.011092444923977823,0.01182884220033884
278,0.25,0.001,0.011364087642101613,0.008608955135299462,15.439764182283948,0.01102053117936042,0.011218092031776905
279,0.25,0.001,0.011377069155814372,0.0086223309368518,15.43755190012156,0.011018952105725597,0.011342286691069603
280,0.25,0.001,0.011328571982130744,0.008546809947351743,15.588995580887872,0.011127048951383205,0.011666460894048214
281,0.25,0.001,0.011321859122807957,0.008581252999220438,15.358354685007567,0.010962423044259506,0.012192249577492476
282,0.25,0.001,0.01142988840890659,0.008618470323287022,15.755187822691497,0.011245672964091003,0.015347572043538094
283,0.25,0.001,0.011422111637818469,0.008606437619152656,15.779036607772975,0.011262695651515327,0.015077067539095879
284,0.25,0.001,0.01140442089300447,0.008606145889094021,15.681534715020772,0.011193101152762864,0.01664603464305401
285,0.25,0.001,0.011356787576409014,0.008574023402604452,15.594610891924793,0.011131057024928474,0.020963581651449202
286,0.25,0.001,0.011364125784402683,0.008633226028963971,15.303962492866148,0.010923599209754567,0.0181394062936306
287,0.25,0.001,0.011434773728850378,0.00868105752411571,15.43182559182023,0.011014864805010871,0.01873347070068121
288,0.25,0.001,0.011345550843134187,0.0085601336876727,15.609477736175636,0.011141668619682825,0.017478957865387203
289,0.25,0.001,0.01136537419087059,0.008597851724893909,15.50919704805233,0.01107009068383464,0.018659161776304244
290,0.25,0.001,0.011295765985725776,0.008535469909141684,15.468699409264078,0.011041184446298414,0.012560901325196027
291,0.25,0.001,0.011255521950135277,0.008454544077420733,15.696680921450305,0.011203912149500575,0.011067966744303704
292,0.25,0.001,0.011335903353438117,0.00854475903429594,15.64157285107677,0.011164577338384562,0.010906913317739964
293,0.25,0.001,0.011224448393395476,0.008498779339326539,15.274650417340148,0.010902676957416237,0.009285093098878861
294,0.25,0.001,0.011227266252088777,0.008512969287501655,15.210919904555539,0.010857187654929008,0.00931556597352028
295,0.25,0.001,0.011280589716035837,0.008551787213688877,15.292209968689553,0.0109152105415343,0.013879596255719662
296,0.25,0.001,0.011297318221959271,0.008482772626366071,15.77271520363173,0.011258183585747131,0.011635447107255458
297,0.25,0.001,0.011296474150235247,0.008490737114353195,15.723351070735232,0.011222948658626147,0.011691312678158284
298,0.25,0.001,0.01132893373357234,0.0085802840284548,15.403432435161431,0.010994598454790458,0.012707255780696869
299,0.25,0.001,0.01126767309244806,0.008458581462598307,15.742149150639868,0.011236366274546657,0.009667127020657062
300,0.25,0.001,0.011246766134425759,0.008500372631613082,15.390788909323346,0.01098557381108019,0.010137921757996082
301,0.25,0.001,0.011307929531698058,0.00856840682973624,15.352285869635187,0.010958091270260662,0.011409102752804757
302,0.25,0.001,0.011196573687136365,0.00837647306681925,15.80384252002385,0.011280401513221877,0.011537058651447296
303,0.25,0.001,0.011358729638518628,0.008627850155067597,15.303848009017504,0.010923517493945399,0.014154271502047778
304,0.25,0.001,0.011273001239805742,0.008414856643323155,16.017043313029493,0.01143257909566702,0.018644781969487666
305,0.25,0.001,0.011241296824319378,0.008492532883953435,15.404073512822485,0.01099505604055852,0.013902711123228073
306,0.25,0.001,0.01121817540281551,0.00845282236443551,15.497038884178234,0.011061412479784608,0.009777282923460006
307,0.25,0.001,0.011185857275698537,0.00845836265270158,15.28488074544925,0.010909979118807459,0.013577534258365631
308,0.25,0.001,0.011148782423023626,0.008405207635361666,15.374992965501988,0.010974299047467514,0.013674236927181482
309,0.25,0.001,0.011198999045770076,0.008423992291907406,15.55113918758282,0.011100027971151191,0.012377209588885307
310,0.25,0.001,0.011239175816512759,0.008450285929863093,15.628938270151806,0.011155559079337478,0.013296271301805973
311,0.25,0.001,0.011205366351477012,0.008476806451174225,15.290848640000322,0.01091423885795883,0.010855242423713208
312,0.25,0.001,0.011124169022755225,0.008399014636706502,15.271766110631814,0.010900618208873529,0.010163001716136932
313,0.25,0.001,0.01117890415910835,0.008396949511248966,15.59007402401645,0.011127818718070271,0.011253962758928537
314,0.25,0.001,0.011274697708259441,0.008485066051627854,15.63309597125774,0.011158526746079757,0.012134494818747043
315,0.25,0.001,0.0112775407336245,0.008582289270769169,15.104188857737844,0.0107810056086637,0.012738535739481449
316,0.25,0.001,0.011291136746549338,0.008424456941017767,16.06487410321496,0.01146671955975372,0.009979923162609339
317,0.25,0.001,0.011303430069776977,0.008479698019108205,15.824193929935959,0.011294927858626666,0.008746383152902127
318,0.25,0.001,0.01117006836045785,0.008418854320020538,15.417803604886462,0.011004856249026739,0.012216310575604438
319,0.25,0.001,0.011146092580757149,0.008454373298015242,15.084395089716773,0.010766877294587276,0.011773559171706438
320,0.25,0.001,0.01121004590602933,0.008475658447867997,15.323507404020745,0.01093754989580353,0.015214315801858901
321,0.25,0.001,0.011235909665248976,0.008470660180356533,15.496459826012517,0.011060999162036058,0.013001522049307823
322,0.25,0.001,0.01119704663430092,0.00841057189767192,15.615403994103337,0.011145898639616942,0.01430514147505164
323,0.25,0.001,0.011204758659005165,0.008397555700428425,15.731567364413639,0.011228813250830577,0.009691624902188778
324,0.25,0.001,0.011102984740228132,0.008356042152384469,15.393867833054717,0.010987771472558685,0.009331581089645625
325,0.25,0.001,0.011195688451553464,0.008437728880638096,15.455606383909366,0.011031838960677635,0.012916814349591733
326,0.25,0.001,0.011105837477101583,0.00839891876438423,15.16957277500361,0.010827675071380164,0.01098707653582096
327,0.25,0.001,0.011141902506591039,0.00840083275804853,15.360954646512242,0.010964278834055848,0.0109320480376482
328,0.25,0.001,0.011224794342299366,0.008440902699204311,15.600928196186421,0.011135566164301515,0.012271466851234435
329,0.25,0.001,0.011144958969529035,0.008370423387029355,15.548498540062614,0.01109814314065854,0.011545051354914904
330,0.25,0.001,0.011237487149008601,0.00853042794732898,15.170360568252024,0.010828237379194878,0.014085020869970322
331,0.25,0.001,0.011226564454112405,0.008384223458420043,15.928478774533778,0.011369363864763582,0.011741698160767556
332,0.25,0.001,0.011174455324002209,0.00833931140350088,15.888148175941787,0.011340576856489497,0.011275372281670571
333,0.25,0.001,0.011131112841092698,0.008439400254290587,15.084357690964481,0.010766850600260157,0.011592642404139042
334,0.25,0.001,0.01115217328766343,0.008392476698329786,15.465339059615058,0.011038785909789477,0.011896854639053345
335,0.25,0.001,0.011164532857572726,0.008405438130212366,15.461966327532311,0.01103637853499808,0.011625543050467969
336,0.25,0.001,0.011187108865432992,0.008364434342028819,15.818267880528687,0.011290697987529397,0.011972951702773571
337,0.25,0.001,0.011141927796041659,0.008395417404759352,15.391445580019445,0.010986042526780475,0.011360080167651176
338,0.25,0.001,0.011151218628121533,0.008412886602606421,15.345614056111915,0.010953329090729418,0.011920065432786942
339,0.25,0.001,0.011087266261123383,0.008382021308759785,15.160193173448372,0.01082098013807878,0.012503802590072156
340,0.25,0.001,0.011192537709423776,0.008432497899272626,15.467264423799667,0.011040160188293839,0.012358127906918526
341,0.25,0.001,0.011246924749740258,0.00844051433469609,15.72712368367186,0.011225641458723668,0.01434429083019495
342,0.25,0.001,0.011261545037820791,0.008470194947297933,15.642726358493425,0.011165400684149483,0.012420490011572837
343,0.25,0.001,0.011097220605137455,0.00828886868198585,15.73800564732199,0.011233408741842962,0.011225508898496628
344,0.25,0.001,0.011141278250951476,0.008418477028069292,15.258578337273796,0.010891205094413844,0.012761832401156425
345,0.25,0.001,0.01117350416216053,0.008440976460850604,15.31308547936835,0.010930110977422091,0.014005400612950325
346,0.25,0.001,0.011139497978439094,0.008308154048691608,15.866851536790657,0.011325375829258142,0.014243942685425282
347,0.25,0.001,0.011167515569345553,0.00834347465497792,15.825926869628514,0.011296164789170959,0.011458024755120278
348,0.25,0.001,0.011203807326470925,0.008507102203833904,15.112335159080972,0.010786820242027817,0.01320117674767971
349,0.25,0.001,0.011090685933876267,0.00833897455221108,15.420590808537229,0.011006845687749628,0.012628880515694618
350,0.25,0.001,0.011091713521066585,0.008332967027494762,15.460015416528634,0.011034986021790602,0.01183966062963009
351,0.25,0.001,0.01119968305877934,0.008363516920416876,15.893875802828184,0.011344665098378432,0.01427094005048275
352,0.25,0.001,0.011119493334239701,0.008333019531927882,15.61539959677546,0.011145895500910392,0.011967322044074535
353,0.25,0.001,0.01116314165929027,0.008429304266893499,15.320423251946256,0.010935348502459854,0.013913984596729278
354,0.25,0.001,0.011092013883078022,0.008364318031518214,15.28600794249409,0.010910783684863732,0.00840107463300228
355,0.25,0.001,0.011105747899441857,0.00837277113744492,15.315602774788712,0.010931907762161821,0.009060360491275787
356,0.25,0.001,0.011099402918525255,0.00827317596847413,15.838175856415482,0.011304907820425042,0.010280961729586124
357,0.25,0.001,0.011047467256977053,0.008328701731811767,15.235963155985646,0.010875062923615736,0.010490590892732143
358,0.25,0.001,0.011082711542725946,0.008280438805220594,15.70393616286888,0.011209090765787922,0.012591274641454219
359,0.25,0.001,0.011054935787244433,0.008296128218676117,15.460358322241682,0.011035230779615761,0.015811656974256037
360,0.25,0.001,0.011089548211053638,0.008350784833456158,15.348028225914074,0.010955052266890846,0.010050688963383436
361,0.25,0.001,0.011093193033284888,0.0083647994833648,15.289917372430637,0.010913574141635001,0.010747008584439754
362,0.25,0.001,0.01104465321341224,0.008299394977844989,15.384428104020392,0.010981033621713342,0.011601917631924152
363,0.25,0.001,0.011094057609078585,0.008341338335749038,15.426238032399267,0.011010876539899548,0.010711670108139514
364,0.25,0.001,0.011060028783138541,0.008314388693337272,15.38656819518356,0.010982561167154575,0.012695297226309776
365,0.25,0.001,0.011048971148285644,0.008296703871854633,15.423704407989403,0.011009068099921058,0.009687995538115501
366,0.25,0.001,0.011066366526091597,0.008320484319372384,15.38792351971102,0.010983528565104225,0.00962293315678835
367,0.25,0.001,0.011026825785780642,0.008334314600351922,15.088832413651936,0.010770044549358983,0.009572316147387027
368,0.25,0.001,0.011058583322589037,0.008321161473235804,15.340513026982642,0.010949688099202456,0.01182387601584196
369,0.25,0.001,0.011129426159012547,0.0084448847200997,15.044169790875106,0.010738165446734551,0.012412631325423718
370,0.25,0.001,0.011073221847822237,0.008280271781051465,15.651691252778964,0.011171799609406827,0.012379154562950134
371,0.25,0.001,0.011086086613811864,0.008378509297320123,15.173264077238715,0.01083030983386061,0.014489032514393329
372,0.25,0.001,0.011016464483747528,0.008281900412687535,15.32449727196402,0.010938256439660256,0.01249115215614438
373,0.25,0.001,0.011090443996634705,0.008344405172003426,15.388801491912155,0.010984155240479767,0.012965734116733074
374,0.25,0.001,0.011100275301257706,0.008322450175126745,15.566932058794322,0.01111130054160908,0.013905726186931134
375,0.25,0.001,0.011090062852122393,0.008339798745738156,15.412480740685172,0.011001056916977283,0.015094217006117105
376,0.25,0.001,0.01102373803519551,0.008260984920037137,15.482468966885778,0.011051012824329605,0.015154909901320934
377,0.25,0.001,0.011045943002345286,0.008296577709089138,15.407443610801574,0.010997461535190274,0.013713175803422928
378,0.25,0.001,0.011097205662051773,0.008340484324926541,15.448665864214636,0.011026884985163908,0.013834161497652531
379,0.25,0.001,0.011137817564070033,0.00831237196970216,15.833796633018174,0.011301782036415542,0.014756289124488831
380,0.25,0.001,0.011066232858842591,0.008269532493815736,15.672710029258605,0.011186802304966884,0.01589368227869272
381,0.25,0.001,0.011129727329567699,0.008449258273796828,15.021349097371484,0.01072187658627515,0.011884058453142643
382,0.25,0.001,0.011032681157542962,0.008215231365760807,15.788987622767015,0.011269798445943623,0.010418456979095936
383,0.25,0.001,0.011079283955228482,0.008314349865271348,15.494690076331233,0.011059735957409873,0.011751105450093747
384,0.25,0.001,0.011054013334693824,0.008253448367286533,15.69436671572866,0.011202260325288123,0.011567212454974652
385,0.25,0.001,0.011048476711825926,0.00831858317256932,15.29832374167979,0.010919574405196138,0.011291687004268169
386,0.25,0.001,0.011039494512860223,0.008301527751459953,15.343565091442832,0.010951866589181179,0.009841653890907765
387,0.25,0.001,0.011033599282887396,0.008255552210009558,15.568175594906332,0.011112188147684748,0.011647769808769226
388,0.25,0.001,0.011050683191686965,0.008276293452505705,15.547680529750812,0.011097559264632986,0.01366847213357687
389,0.25,0.001,0.01098153876122746,0.008277863719264027,15.151393641996231,0.010814699244822435,0.010540890134871006
390,0.25,0.001,0.010908803791765998,0.008208747462061057,15.13111604524962,0.01080022558547439,0.010513137839734555
391,0.25,0.001,0.010969037100241498,0.00823382094167053,15.328150007119133,0.01094086367388946,0.010694567114114761
392,0.25,0.001,0.011018353999499532,0.008240240652988578,15.56854692379378,0.011112453193286067,0.011997901648283005
393,0.25,0.001,0.01103444350134713,0.008335059454778382,15.127348166953329,0.010797536164848914,0.011616119369864463
394,0.25,0.001,0.011040102852167041,0.008244291630684372,15.667726369532742,0.011183245088888467,0.015303630195558072
395,0.25,0.001,0.011080717982370945,0.00828554107241596,15.66417237800034,0.011180708335474902,0.011974728852510452
396,0.25,0.001,0.011049569090319216,0.008310174198156384,15.351569086792384,0.010957579647960304,0.013629640638828277
397,0.25,0.001,0.010972801955279046,0.008280072328290181,15.090055990065792,0.010770917908683649,0.014893225952982902
398,0.25,0.001,0.011027124306109174,0.008286284631675175,15.359666214111916,0.01096335918209273,0.015079051814973354
399,0.25,0.001,0.01102465180937692,0.008331922568692272,15.090056762817971,0.010770918460255512,0.013884657248854636
400,0.25,0.001,0.01104341652483898,0.008332852867111516,15.189999476123086,0.010842255157832324,0.01157476045191288
401,0.25,0.001,0.011001373704079647,0.008252669709743603,15.403737528147804,0.010994816222803572,0.011934431828558445
402,0.25,0.001,0.011030594557763295,0.008397300137727973,14.756982766547004,0.010533178277335478,0.012109617702662945
403,0.25,0.001,0.011061821998339565,0.008268497524920768,15.653789557061394,0.011173297328380724,0.01895453017205
404,0.25,0.001,0.01110134288740503,0.008318561593435967,15.594707568742072,0.011131126030508259,0.012469984404742718
405,0.25,0.001,0.011020304437523103,0.00828359936067529,15.33649470338484,0.010946819916762912,0.014209731295704842
406,0.25,0.001,0.010993291552019847,0.008280301409686684,15.20359704118833,0.010851960771726146,0.011078987829387188
407,0.25,0.001,0.010992507147827332,0.008329215723050945,14.925086061287539,0.010653166353524295,0.013367427140474319
408,0.25,0.001,0.010956598068452724,0.008218445553117914,15.344607034296851,0.010952610302852855,0.012234331481158734
409,0.25,0.001,0.010943422183825656,0.008211747141273458,15.308306899484714,0.010926700142387377,0.013028361089527606
410,0.25,0.001,0.011031622851680713,0.008319262867356228,15.200065352142433,0.010849439937289387,0.011592527478933334
411,0.25,0.001,0.010982703207917152,0.008231198379224904,15.41943338522957,0.011006019546916181,0.010858943685889244
412,0.25,0.001,0.010924661214616138,0.008179895214472935,15.381668421999818,0.010979063827266109,0.011020260397344828
413,0.25,0.001,0.01094708527914485,0.008235593527028415,15.195200135086894,0.010845967262731545,0.014304359443485737
414,0.25,0.001,0.01091713018391964,0.008241434972373906,14.99459684930047,0.010702781477016752,0.014133136346936226
415,0.25,0.001,0.010914829987852903,0.008186108378807256,15.291756418356941,0.010914886808249065,0.012051083706319332
416,0.25,0.001,0.010913150564698545,0.008202490456689785,15.190538709953284,0.010842640049930966,0.008919102605432272
417,0.25,0.001,0.010860991583376452,0.008147313220612106,15.20745243980187,0.010854712662242591,0.009948801435530185
418,0.25,0.001,0.01088728828780904,0.008181323983086651,15.164223428707798,0.010823856837050535,0.011955605633556843
419,0.25,0.001,0.010907654554681954,0.008140967877348136,15.5045121674369,0.011066746729077016,0.013834613841027021
420,0.25,0.001,0.010885012009663214,0.008205053206365496,15.01848864478697,0.010719834864230528,0.014127068594098091
421,0.25,0.001,0.010989668698220774,0.00830703054725453,15.033505209772533,0.010730553326033215,0.014959067478775978
422,0.25,0.001,0.010918691436912853,0.008146969281089076,15.532731402725268,0.011086888938419179,0.017478503845632078
423,0.25,0.001,0.010980545761740476,0.008249058999073276,15.30725246073732,0.01092594750944848,0.013787703774869441
424,0.25,0.001,0.010924897872366706,0.008220437914133072,15.15579434913071,0.010817840363405218,0.015622272901237012
425,0.25,0.001,0.010896073810013545,0.008184181864693808,15.197442760038223,0.010847567994317076,0.013223939947783947
426,0.25,0.001,0.010882999089178166,0.00815665149025116,15.278449901813863,0.010905388937768639,0.012335922755300998
427,0.25,0.001,0.010919997929760113,0.008199359404096841,15.246457958528083,0.010882553860476861,0.013002029620110989
428,0.25,0.001,0.010819834141941124,0.008085337183004023,15.324120288493166,0.010937987357953724,0.013608745485544204
429,0.25,0.001,0.010831245472744538,0.008185000754773042,14.829554355412817,0.010584978126632989,0.009384224377572536
430,0.25,0.001,0.010812605090343493,0.008118523961573936,15.097630773709902,0.010776324606502428,0.009494365565478802
431,0.25,0.001,0.01083575164557845,0.008069419862037686,15.502523192255444,0.01106532704657776,0.00980304777622223
432,0.25,0.001,0.010907904867837475,0.008139385852267984,15.514781001296457,0.011074076374943937,0.010920761153101921
433,0.25,0.001,0.010912250089563933,0.008171861074936735,15.357139023170594,0.010961555334168876,0.017336658388376235
434,0.25,0.001,0.011007789815880862,0.008290256843737468,15.229055741975545,0.010870132578141003,0.013463930971920491
435,0.25,0.001,0.01086115717312914,0.008109299061742051,15.421413694547304,0.011007433043930981,0.013478531502187252
436,0.25,0.001,0.010885726037611915,0.008164398342227246,15.25032066455608,0.01088531096684945,0.014068824611604214
437,0.25,0.001,0.010858928916490729,0.008082941863266602,15.556631437835202,0.011103948206877375,0.00997167658060789
438,0.25,0.001,0.010855861253724987,0.00811885304186026,15.338194233811553,0.010948033000579267,0.011975711025297642
439,0.25,0.001,0.01096969615320684,0.008237028395655262,15.313870279735308,0.010930671148990228,0.011027260683476925
440,0.25,0.001,0.01082712331625043,0.008022004995986196,15.7198826584402,0.011220472989607566,0.010569117777049542
441,0.25,0.001,0.010906842013168182,0.008198827124796687,15.175716164027763,0.010832060074252508,0.008844512794166804
442,0.25,0.001,0.010878227528340372,0.008095758829349682,15.592954562024671,0.01112987477660576,0.013917466998100281
443,0.25,0.001,0.010907113701823823,0.008155938884740473,15.417584661502163,0.011004699972521173,0.010971750691533088
444,0.25,0.001,0.010810482926618823,0.008110575910981061,15.130279108642382,0.01079962820031576,0.009005776792764663
445,0.25,0.001,0.01085119168019563,0.008157911102536023,15.093145186494784,0.01077312290256587,0.009963798522949218
446,0.25,0.001,0.010847320247118113,0.00803515486646791,15.759375041704086,0.011248661700002917,0.009346594754606485
447,0.25,0.001,0.010825490468208621,0.008054956344594143,15.5260735815361,0.011082136746278443,0.01073153391480446
448,0.25,0.001,0.010886257283772878,0.008206272015641548,15.018636884413349,0.010719940674099464,0.01186821199953556
449,0.25,0.001,0.010885879945405234,0.008146442472934723,15.35180807573619,0.010957750232502634,0.012503435835242271
450,0.25,0.001,0.01087694763658131,0.008075720642564573,15.69807685839785,0.011204908535615881,0.011810206435620784
451,0.25,0.001,0.01080383607141458,0.008070205359261519,15.319266236480026,0.01093452265273378,0.010230395197868346
452,0.25,0.001,0.010778222550485295,0.00807749351241006,15.134885193067348,0.010802915912253639,0.012751892022788525
453,0.25,0.001,0.010914567630390646,0.008252840845507248,14.916316651838002,0.010646906960626697,0.015905042923986912
454,0.25,0.001,0.010822893572534012,0.008093824113009443,15.29370693071862,0.010916279036915503,0.017326246201992034
455,0.25,0.001,0.010803170894479254,0.00815338650987846,14.849391268763895,0.010599137236805065,0.01418228205293417
456,0.25,0.001,0.010839522250260188,0.008163395830373192,14.997011981976378,0.010704505340454232,0.015648517571389676
457,0.25,0.001,0.010841961473921295,0.008155217798504607,15.056511578452549,0.010746974716953996,0.013209372572600842
458,0.25,0.001,0.010915186591566184,0.008175334381089333,15.354132376299793,0.01095940926216973,0.013973628543317318
459,0.25,0.001,0.010873628738321293,0.008118686242286607,15.43869649635634,0.011019769090903882,0.0171462994068861
460,0.25,0.001,0.010862464773980752,0.008148032704733575,15.211677269153656,0.01085772824350725,0.01431928612291813
461,0.25,0.001,0.010964575933346411,0.008228873756154173,15.330876445463616,0.010942809739802724,0.013904928229749203
462,0.25,0.001,0.010834660111564148,0.008036039104846897,15.683472403376049,0.011194484227962919,0.010953342169523239
463,0.25,0.001,0.010885273055487891,0.008204371842085549,15.023770599119917,0.01072360499580294,0.009247823059558869
464,0.25,0.001,0.010827208842207765,0.008056288053524168,15.528240424643759,0.011083683386612248,0.009285555407404899
465,0.25,0.001,0.010825781343307143,0.008060432437483904,15.49701546242766,0.011061395761904111,0.011108321137726307
466,0.25,0.001,0.010834267216216522,0.008107764683843522,15.27932035194716,0.010906010244073634,0.011259322054684162
467,0.25,0.001,0.010813520334876618,0.00810316202030113,15.188849436891807,0.010841434287574453,0.014132406562566757
468,0.25,0.001,0.010904780286588853,0.00817353019065604,15.30592568204334,0.01092500048682608,0.014924551360309124
469,0.25,0.001,0.010852611635682859,0.008072353288579217,15.580567353791363,0.01112103308621796,0.015093842521309853
470,0.25,0.001,0.010881443115675947,0.008091274589012673,15.636105491417398,0.011160674868963168,0.015313584171235562
471,0.25,0.001,0.010801271613315946,0.00803594970087434,15.496864101127796,0.011061287723859954,0.015395132824778557
472,0.25,0.001,0.010849182940181045,0.008216911579491242,14.75124824622053,0.010529085115075325,0.011652593780308963
473,0.25,0.001,0.010852788281522188,0.008037244029630611,15.778309846614334,0.011262176906933857,0.011261892318725587
474,0.25,0.001,0.01079730127138532,0.00803139580299904,15.50013338254579,0.011063621258062662,0.011769375763833523
475,0.25,0.001,0.010855712263075294,0.008130262219541709,15.273421952962108,0.010901800109180662,0.011903057061135768
476,0.25,0.001,0.010850399175592941,0.008093974621924557,15.44700242315458,0.011025697661066794,0.015079890005290508
477,0.25,0.001,0.010843218777364666,0.008105815883869622,15.340406476109742,0.010949612045759987,0.01908339709043503
478,0.25,0.001,0.010849290725047374,0.00814915916184712,15.131537802349715,0.010800526625517285,0.014843453466892243
479,0.25,0.001,0.010765451611501803,0.008035733092013279,15.297343597534768,0.010918874801952012,0.01666720546782017
480,0.25,0.001,0.010891852271518523,0.008188193966409976,15.151301929805056,0.010814633782872988,0.017568216659128666
481,0.25,0.001,0.010809479718518793,0.008097616299819142,15.197283189779693,0.01084745409691627,0.015554315969347953
482,0.25,0.001,0.010839484374479083,0.008168218771169423,14.969773028824491,0.010685062832851172,0.010556147806346417
483,0.25,0.001,0.010730859305458054,0.008031107173855282,15.129411464335451,0.010799008896741935,0.010054192505776882
484,0.25,0.001,0.010850339756613758,0.008046560998634702,15.712375904586153,0.011215114849811672,0.014183739945292474
485,0.25,0.001,0.01081651080267989,0.008062229279153217,15.434993369786302,0.01101712588849843,0.010484720952808857
486,0.25,0.001,0.010812538098004853,0.008077842719445658,15.32523436714982,0.010938782560420999,0.011016598343849182
487,0.25,0.001,0.010845981711982915,0.00801346289934261,15.87343636356366,0.011330075919745653,0.01316499188542366
488,0.25,0.001,0.010770630271105138,0.007995914338438074,15.549508217446673,0.011098863824016184,0.013587463740259409
489,0.25,0.001,0.010834537410563595,0.00809738425376235,15.339006886988207,0.010948613052810996,0.011962193436920643
490,0.25,0.001,0.010855798771263511,0.008106188014616824,15.408817898422193,0.010998442468538325,0.012750487588346005
491,0.25,0.001,0.010766797157010465,0.008064735240611425,15.142355633701925,0.010808248132549554,0.012305313535034657
492,0.25,0.001,0.010805506591604262,0.008084112002702964,15.250695191778938,0.010885578295345423,0.012360955774784087
493,0.25,0.001,0.010738988709411437,0.008056121769022807,15.03478627956182,0.010731467722742197,0.015269662067294121
494,0.25,0.001,0.010766278434293255,0.008025553215211227,15.359024627415696,0.010962901232987649,0.011590613238513469
495,0.25,0.001,0.010789658383157858,0.008081958120107842,15.173952706757083,0.010830801360997204,0.01058670673519373
496,0.25,0.001,0.010656605250055384,0.007976350182865018,15.020149626532552,0.010721020432928302,0.01063078735023737
497,0.25,0.001,0.01068657897472669,0.007995647276449242,15.07998055890442,0.01076372630899673,0.011824120953679084
498,0.25,0.001,0.010799066022852993,0.008094413418598305,15.156873154103565,0.010818610388367997,0.013394426740705966
499,0.25,0.001,0.010771774357466261,0.008055943074872736,15.219517996073536,0.010863324765220226,0.011309988051652908
500,0.25,0.001,0.010871642032620225,0.008137339848869291,15.323029006025799,0.010937208426856387,0.012493633106350899
