epoch,beta,learning_rate,train_loss,train_reconstruction_loss,train_kl_unnormalized,train_kl_normalized,mean_unclipped_gradient_norm
1,0.0,0.001,0.08971458573019907,0.08971458573019907,13.261812372154065,0.009465961721737377,0.12537285561362901
2,0.02,0.001,0.06415269942430968,0.061416855102844455,191.6459875213966,0.1367922823136307,0.16224628066023192
3,0.04,0.001,0.05662277479017718,0.04744227310077528,321.5470644490103,0.22951253707995026,0.15308794130881628
4,0.06,0.001,0.04815860515397586,0.04455436364318548,84.15901904159718,0.06007067740299584,0.13418961316347122
5,0.08,0.001,0.04277944891305452,0.039611004920822854,55.48736559407095,0.03960554289369804,0.11054933940370877
6,0.1,0.001,0.040106333792209625,0.037031350385272103,43.08052735918024,0.0307498410843542,0.0887948436041673
7,0.12,0.001,0.0391909626176518,0.03668110855342297,29.302545740363303,0.02091545020725432,0.05096484503398339
8,0.14,0.001,0.03848688258381372,0.036311566620395426,21.768698745898988,0.015537971981369726,0.04115428247799476
9,0.16,0.001,0.037570154482728976,0.035579802447490476,17.428014883834326,0.012439696562337135,0.03043995052576065
10,0.18,0.001,0.03660905034689421,0.03467392557290163,15.061722873301989,0.010750694413491784,0.048967817798256874
11,0.2,0.001,0.034859608440251835,0.03256402838598477,16.080534924282116,0.011477897876004365,0.04644418725123008
12,0.22,0.001,0.032619210022888825,0.029819926477215264,17.82635054427586,0.012724018946663713,0.07700934540480375
13,0.24,0.001,0.03030742280017794,0.026787180537253284,20.549413188119953,0.014667675366252643,0.08362979472925265
14,0.25,0.001,0.02848714320093728,0.024520765027303375,22.227584688851003,0.015865513696538904,0.08621734039237101
15,0.25,0.001,0.026946024425076636,0.023032151853268065,21.933341829964284,0.015655490242658304,0.07951470200593273
16,0.25,0.001,0.02536911852239223,0.021754803428991457,20.254623520240354,0.014457261613305036,0.04927179062118133
17,0.25,0.001,0.024423741264624543,0.020867653295732615,19.928318345144895,0.01422435285163804,0.03319414363553127
18,0.25,0.001,0.023501837793528366,0.01967470578095886,21.447247173009295,0.015308527603861024,0.038036234211176634
19,0.25,0.001,0.022730669299705644,0.019219814747404515,19.674828432918936,0.014043417867893601,0.03641400579363108
20,0.25,0.001,0.02182382546114118,0.018143861104598206,20.622522161248025,0.014719858787471823,0.04491035997246703
21,0.25,0.001,0.021064240171500805,0.0173227053679777,20.967561464631157,0.014966139517938013,0.05213035581012567
22,0.25,0.001,0.02003194194998634,0.01625730697944593,21.15305414092675,0.01509853971515114,0.050616077768305935
23,0.25,0.001,0.019594884655448827,0.0157443844619092,21.578205172935228,0.015402002264764616,0.06993284697333972
24,0.25,0.001,0.018695248730396956,0.014861230853568302,21.48583515038651,0.015336070771153825,0.032631446762631335
25,0.25,0.001,0.018634811734383024,0.014795682487193118,21.514481383763002,0.015356517761429694,0.042409991224606834
26,0.0,0.001,0.014303879351930672,0.014303879351930672,24.966006846910112,0.017820133366816638,0.05305717854450146
27,0.02,0.001,0.013150778243297271,0.012529761457208837,43.50222345416466,0.031050837583272418,0.02710294599334399
28,0.04,0.001,0.013180436660650741,0.011385586782452765,62.86462710948473,0.044871254182358836,0.02592668930689494
29,0.06,0.001,0.014022192258513375,0.011118851926470741,67.79299883896046,0.048389007022812604,0.0301079829223454
30,0.08,0.001,0.01434287962535124,0.010989162903488352,58.73197015483728,0.04192146335106158,0.037337086939563356
31,0.1,0.001,0.014548133744784955,0.011486815749092048,42.88906264573001,0.03061317819109922,0.04527303266028563
32,0.12,0.001,0.014594483827607016,0.011853774109583222,31.997787625602122,0.022839248840543985,0.025728002190589905
33,0.14,0.001,0.015028898844893059,0.01210851940127571,29.22465425127008,0.0208598531415204,0.03744885682438811
34,0.16,0.001,0.015388919396346875,0.012118516646827875,28.636465844143643,0.020440018446926226,0.03777981083840132
35,0.18,0.001,0.01572393672017569,0.011921625144863397,29.594659226663996,0.02112395376635546,0.047124056766430535
36,0.2,0.001,0.016099842955892004,0.012174698576498567,27.495638365156196,0.019625723315600425,0.05357417340079943
37,0.22,0.001,0.016203361866849193,0.01238373044375958,24.324111531289777,0.017361963976652232,0.03435787993172804
38,0.24,0.001,0.016620268605733186,0.012613614790895011,23.388841350426834,0.016694390685529505,0.04512673212836186
39,0.25,0.001,0.016400079504492578,0.012296743827003442,22.99509048461914,0.016413340817001527,0.027819083382685978
40,0.25,0.001,0.016272461669666043,0.01223595030187221,22.620610312129674,0.016146045904446592,0.021006807840118807
41,0.25,0.001,0.016236639068870063,0.012472148670741682,21.096204564812478,0.015057961859252305,0.019286179759850103
42,0.25,0.001,0.016324201912692425,0.01232526944217722,22.41001840655723,0.01599573048291023,0.03858516520510117
43,0.25,0.001,0.016212942141495393,0.012281372944374433,22.032515172208292,0.015726277781733255,0.036453490455945335
44,0.25,0.001,0.01610293544912606,0.012226050531261422,21.726063417584708,0.015507539912622917,0.03257997535790006
45,0.25,0.001,0.015995323657989502,0.01224158090026526,21.035974566856126,0.015014971139797377,0.048812998148302235
46,0.25,0.001,0.015984689754046752,0.012107788009589978,21.726158099228076,0.0155076074940957,0.05663130680720011
47,0.25,0.001,0.0159998323056805,0.012177769178419971,21.418842058503227,0.015288252718417722,0.047647175999979176
48,0.25,0.001,0.015596044888154845,0.011759752083276764,21.49858363290851,0.015345170330412926,0.0358042026249071
49,0.25,0.001,0.015770620195550866,0.011964007845839088,21.332256231415137,0.015226449843979398,0.03387905812511841
50,0.25,0.001,0.015586903067619612,0.011832831197240379,21.03781807288695,0.015016286989926445,0.023413314794500668
51,0.0,0.001,0.011280434091020836,0.011280434091020836,25.202776383817866,0.01798913375004844,0.03966991944859425
52,0.02,0.001,0.010634649586811495,0.00999314317040229,44.9375192449334,0.03207531709131577,0.02300159881512324
53,0.04,0.001,0.0109547981469149,0.009157452303288358,62.952036654011586,0.04493364500643225,0.01489783109476169
54,0.06,0.001,0.011829215133290612,0.00897357270665718,66.67925000994393,0.0475940399785467,0.02338085292528073
55,0.08,0.001,0.012199381701229663,0.009157523031482536,53.27055384603779,0.03802323614991991,0.031084553183366854
56,0.1,0.001,0.012274494457445788,0.009465324368034855,39.35647492998102,0.028091702305482524,0.027253250203405816
57,0.12,0.001,0.012640243165948417,0.010022579263267892,30.561224798138223,0.021813864952275677,0.02937560233597954
58,0.14,0.001,0.013048381764399871,0.010138460330330255,29.119999039039183,0.020785152775902344,0.022024372049296897
59,0.16,0.001,0.013422990102697624,0.010025848268290585,29.746222313870206,0.02123213584144911,0.015379551099613309
60,0.18,0.001,0.013813484501972628,0.010178930324952254,28.288945658823078,0.020191966922785923,0.02736733357111613
61,0.2,0.001,0.01416457136779019,0.010457925770557328,25.965051822448046,0.018533227567771624,0.024243046219150226
62,0.22,0.001,0.014367071053620135,0.010490989239279474,24.683593364244096,0.01761855343629129,0.027727939809362095
63,0.24,0.001,0.014588359220141775,0.010745745434771093,22.43125746223364,0.016010890408446565,0.03826325945556164
64,0.25,0.001,0.014561909669486995,0.01065402396358131,21.899790667416006,0.015631542232274094,0.0212366352789104
65,0.25,0.001,0.014629203459938591,0.01088655355982901,20.973811910393533,0.01497060093532729,0.022652794296542805
66,0.25,0.001,0.014558876791362012,0.010710952782563949,21.56376643663042,0.015391696243133775,0.02134662525107463
67,0.25,0.001,0.014480195468647426,0.010518212467850594,22.2029536600863,0.01584793266244561,0.025702325627207756
68,0.25,0.001,0.014472647915395457,0.010818337153099227,20.478757708260183,0.01461724318933632,0.026168571319431067
69,0.25,0.001,0.014490214752012424,0.010836544226896897,20.475169985481863,0.014614682359373207,0.0411678155263265
70,0.25,0.001,0.014502897178440282,0.010695672876546892,21.33568592285842,0.015228897874988165,0.030156623106449842
71,0.25,0.001,0.014293671491440762,0.010486533781618214,21.33520055620858,0.015228551431983284,0.012764816715692481
72,0.25,0.001,0.014148930307435855,0.010353929959656148,21.26718197511823,0.015180001409791742,0.016320593189448118
73,0.25,0.001,0.014139862950849399,0.010490674797571107,20.450051361255433,0.014596753291402878,0.016405826744933922
74,0.25,0.001,0.014030167226041302,0.01035101173885083,20.617986529060964,0.014716621362641659,0.025038096743325394
75,0.25,0.001,0.013902764641836788,0.010257876907171828,20.42594978246796,0.014579550165930022,0.021125095275541145
76,0.0,0.001,0.009888164782791996,0.009888164782791996,23.734227855553787,0.016940919240223975,0.02709672103325526
77,0.02,0.001,0.009346374572160539,0.008758460056413425,41.18341047308418,0.029395724820188564,0.02933925623074174
78,0.04,0.001,0.009694810287001428,0.008058986480065276,57.294722482059775,0.04089559063673075,0.026313753332942724
79,0.06,0.001,0.010383476419478989,0.007834293722604097,59.52342052674025,0.0424863815322914,0.018886897712945938
80,0.08,0.001,0.010734600684699717,0.008000888751840659,47.87413076336464,0.03417139954558504,0.0209634176765879
81,0.1,0.001,0.010920460974232535,0.008448232896625996,34.63591569193294,0.024722281007803666,0.019782321139549214
82,0.12,0.001,0.01109678733549761,0.008680240502267072,28.213183456592347,0.020137889690644072,0.015798442997038364
83,0.14,0.001,0.011692026452150908,0.009063228671805243,26.306757294729856,0.018777128690028448,0.012539531414707502
84,0.16,0.001,0.011799922443172906,0.008716824119178098,26.996381802505322,0.019269366026056618,0.019409516360610723
85,0.18,0.001,0.01228901773188891,0.008975262701343955,25.79206213790379,0.018409751704428115,0.01855892175808549
86,0.2,0.001,0.012686203390862166,0.009157680801712396,24.71730069364055,0.017642612914804102,0.018274210471039016
87,0.22,0.001,0.01281538817068834,0.00934543339221665,22.097303797689715,0.01577252233953584,0.01777939172461629
88,0.24,0.001,0.013308718381972794,0.009530587529951937,22.054840816540665,0.01574221328803759,0.021866679036368925
89,0.25,0.001,0.013294049266600208,0.009472802605772957,21.414266114824272,0.015284986520217182,0.01631406865393122
90,0.25,0.001,0.013355541304590997,0.009717277763934617,20.388829606302668,0.014553054679730669,0.023813265065352123
91,0.25,0.001,0.013092532900444577,0.009403319997985042,20.67434902405471,0.0147568515517878,0.013141900766640902
92,0.25,0.001,0.013070776744672422,0.00949229947762208,20.053786202762904,0.01431390878141535,0.016859295312315226
93,0.25,0.001,0.013188803599875294,0.0095917247235775,20.1580298348759,0.014388315371074876,0.021485087151328724
94,0.25,0.001,0.012966783434738604,0.00928566912503055,20.628964692019345,0.014724457310506313,0.01701807075490554
95,0.25,0.001,0.012888398523745912,0.009359407165412153,19.776465983873003,0.01411596429969522,0.013772495479012528
96,0.25,0.001,0.012786428517337595,0.009229780928221312,19.93145256899716,0.014226589985008678,0.01347652201851209
97,0.25,0.001,0.012760225934593866,0.009208634181806211,19.903121283884797,0.014206367797205422,0.023000131438796718
98,0.25,0.001,0.012901600931635063,0.009435104875919524,19.426243514157413,0.013865983950148047,0.014651532284915447
99,0.25,0.001,0.012834351530738091,0.009261876376073681,20.020152188418955,0.01428990163341824,0.018328904795149963
100,0.25,0.001,0.012770237568556593,0.00909991990356298,20.56846029303047,0.014681270730214468,0.015524629348268112
101,0.25,0.001,0.012698730736384901,0.009253935961659705,19.304630343833665,0.013779179403164643,0.014602371491491795
102,0.25,0.001,0.012715957682119326,0.009221245942825682,19.58436515893829,0.0139788473654092,0.014601772030194601
103,0.25,0.001,0.012632364396717442,0.009148183561275515,19.525350249215457,0.013936723946620598,0.01196193757156531
104,0.25,0.001,0.01247548870742321,0.00901521828151151,19.391356114591105,0.01384108216601792,0.01889553526416421
105,0.25,0.001,0.01250577142483063,0.009050758953174849,19.36189055710696,0.013820050361960714,0.025248863889525335
106,0.25,0.001,0.012492186379399193,0.009104424616677707,18.98501820510693,0.01355104796938396,0.016256854093323152
107,0.25,0.001,0.012474133497041262,0.008961333139809999,19.685733109377743,0.014051201362867768,0.015068836354960998
108,0.25,0.001,0.012434089849336763,0.009018590590089894,19.140458632051274,0.013661997596039453,0.014119194199641546
109,0.25,0.001,0.01249009058967735,0.008926578985757373,19.96991929043545,0.01425404660273765,0.021502132527530193
110,0.25,0.001,0.012487035056345918,0.009027228774398231,19.38875461964125,0.013839225281685404,0.013233526144176722
111,0.25,0.001,0.012371443808497338,0.008911342590293858,19.39040732651614,0.013840404943980113,0.013535544276237488
112,0.25,0.001,0.012406007512315605,0.00897679486301508,19.217309265993954,0.013716851724478197,0.015279760584235191
113,0.25,0.001,0.012467487024540981,0.00899009131355567,19.48732543259524,0.013909582749889538,0.02878285835807522
114,0.25,0.001,0.012331169307901619,0.008867393844248204,19.410997433608838,0.013855101665673688,0.018158108461648226
115,0.25,0.001,0.012279670580886724,0.008801371309110958,19.49238884315062,0.013913196890186025,0.024144751640657585
116,0.25,0.001,0.012242901808676425,0.008755116106084223,19.545551857251798,0.013951143367060527,0.015302103400851289
117,0.25,0.001,0.012265544112646179,0.008814772904923792,19.338122421436097,0.01380308524013997,0.013708275277167559
118,0.25,0.001,0.012117378089283959,0.008705988390308417,19.117428040236568,0.013645558915229528,0.010941194836050272
119,0.25,0.001,0.012091715244597264,0.008738650228786334,18.790575970424694,0.013412259793308132,0.016803438076749444
120,0.25,0.001,0.012047571412632975,0.00862908291138625,19.157209524947607,0.013673953979263102,0.015301586283991734
121,0.25,0.001,0.012137645039330708,0.00881313688508915,18.630544362443217,0.013298033092393446,0.018241625589629013
122,0.25,0.001,0.012104565026552489,0.008647444930053158,19.373702124263463,0.01382848117363559,0.014429389964789152
123,0.25,0.001,0.011982209038700951,0.00868610360167837,18.471374104531964,0.013184421202378276,0.012787389103323221
124,0.25,0.001,0.012042189749439111,0.008759081070677618,18.398542339882155,0.013132435645883051,0.015334339657177528
125,0.25,0.001,0.01196822054223733,0.008446161886363218,19.737617449814014,0.01408823515332906,0.011679949394116798
126,0.25,0.001,0.012012634761212917,0.008775725081730424,18.1396427154541,0.012947639340081443,0.013764220289885998
127,0.25,0.001,0.011848617857845311,0.008480890727277552,18.872743370827664,0.01347090890137592,0.012570476780335108
128,0.25,0.001,0.011707917944099127,0.008493980623028252,18.010904826474995,0.012855749340810132,0.012151641072705388
129,0.25,0.001,0.01194094220866983,0.008537306241021397,19.073976731032467,0.013614544419009613,0.02280751320843895
130,0.25,0.001,0.011880572906203484,0.008528510401590486,18.78495923588785,0.013408250703702962,0.0251794404660662
131,0.25,0.001,0.011713069591545658,0.008484687530592587,18.091854566938423,0.012913529312589881,0.018723772062609594
132,0.25,0.001,0.0118521260662695,0.008463161139424597,18.991760661093036,0.013555860571800882,0.011920029297471046
133,0.25,0.001,0.01192762733049942,0.008548878363511536,18.93451056319676,0.013514996833116888,0.013705187942832708
134,0.25,0.001,0.011823615237149629,0.00856043401519569,18.286867870373673,0.01305272510376422,0.011646740759412447
135,0.25,0.001,0.011805599304230025,0.008517019251842848,18.42920361208112,0.013154320922256333,0.012387248997886976
136,0.25,0.001,0.011648752820793163,0.008329226980718333,18.602623435888397,0.013278103808628407,0.010959968203678727
137,0.25,0.001,0.01162626441526279,0.008345145543807008,18.387390222442285,0.01312447553350627,0.028828182102491457
138,0.25,0.001,0.011656226600740062,0.008353661808572459,18.507572174072266,0.013210258511115108,0.021590407627324264
139,0.25,0.001,0.01164718217143182,0.008388785101222188,18.260058392299694,0.013033589145110417,0.019292710504184168
140,0.25,0.001,0.011620470291275657,0.008324476890265942,18.470745601011128,0.013183972591728143,0.016847810863206785
141,0.25,0.001,0.011570004160317142,0.00832978698812174,18.1581775150942,0.012960869032900927,0.024002816217641037
142,0.25,0.001,0.011460839111483498,0.008108487101585677,18.78658121087578,0.013409408430318187,0.018832883487145107
143,0.25,0.001,0.011563667033411813,0.008348787904539134,18.016181367166926,0.012859515608256192,0.019049542335172493
144,0.25,0.001,0.011532404522798705,0.008305067442399398,18.085996413498783,0.012909347903996277,0.014955626955876747
145,0.25,0.001,0.01142189840085051,0.0081733926774913,18.20462649056081,0.01299402319097845,0.011083034177621206
146,0.25,0.001,0.011516854658806593,0.008218936705857181,18.48153232188707,0.013191671892853012,0.011343391922612986
147,0.25,0.001,0.011518030061145847,0.008196199522092102,18.615539593643017,0.013287323050423282,0.012224942445755005
148,0.25,0.001,0.011395184909192365,0.008119156238821786,18.35886659515038,0.013104116056495632,0.016997647937387228
149,0.25,0.001,0.011420956310512645,0.008207645246319556,18.007395219267085,0.012853244267856593,0.013068781234323978
150,0.25,0.001,0.011517408900381474,0.008240638049633315,18.363024336568426,0.013107083752011724,0.017055380779008072
151,0.25,0.001,0.011459055252038362,0.008140149777441213,18.599145867851345,0.013275621604462058,0.013104474482436975
152,0.25,0.001,0.011372004374024573,0.008128610988974237,18.175975306650226,0.012973572667130782,0.014280404585103193
153,0.25,0.001,0.011308018160000276,0.008027046175903819,18.3865671693609,0.013123888058073449,0.011877573793753982
154,0.25,0.001,0.01135195680799779,0.008136149464447177,18.021383606985715,0.01286322884153156,0.020595040637999773
155,0.25,0.001,0.01125741322012095,0.008018971870789367,18.14822623435031,0.012953766048786803,0.016456152002016704
156,0.25,0.001,0.01125735431658418,0.008011935362487697,18.18732756711124,0.01298167563676748,0.013746563733244935
157,0.25,0.001,0.01128703122435326,0.008086365553435315,17.936529373854732,0.012802661937084035,0.023501709025974076
158,0.25,0.001,0.011361739315678564,0.0081330693871034,18.093466490841983,0.012914679864983571,0.0161369734754165
159,0.25,0.001,0.011382372421997317,0.008112385921347677,18.32500378469403,0.01307994559935334,0.025615363226582605
160,0.25,0.001,0.011246955252430413,0.008003796942615778,18.174660007605393,0.012972633838404992,0.025202649645507336
161,0.25,0.001,0.0114918795906091,0.008249740571495188,18.16894696267803,0.012968556004766619,0.025955166357258957
162,0.25,0.001,0.011230057241457902,0.007876538734338927,18.793118423290466,0.013414074534825458,0.01617184653878212
163,0.25,0.001,0.011315278782184874,0.008113369209629096,17.94350174035919,0.01280763864408222,0.015215683573236069
164,0.25,0.001,0.01122877865067024,0.007971150774425,18.255747934405722,0.013030512444258189,0.01384957538296779
165,0.25,0.001,0.011164868941132942,0.00791368658622999,18.2196262016725,0.013004729622892577,0.01137167727574706
166,0.25,0.001,0.011155160112578548,0.007906624628754143,18.204794551549334,0.012994143148857483,0.01094279244231681
167,0.25,0.001,0.011294261562857734,0.0080026677610834,18.44609258415994,0.013166375863069192,0.02203816594555974
168,0.25,0.001,0.011171543123095894,0.0079829827830028,17.86869233377864,0.012754241494488679,0.0253657391294837
169,0.25,0.001,0.011315938064389014,0.008041143459215593,18.351950634731335,0.013099179610800381,0.023259487003087997
170,0.25,0.001,0.011167480275453476,0.007986334497841556,17.827141579617276,0.012724583568606193,0.023152101629724104
171,0.25,0.001,0.011213073946451872,0.00792365161220679,18.433922049704563,0.01315768882919669,0.014620879044135412
172,0.25,0.001,0.011114236595255605,0.007939041477073444,17.79379281033291,0.0127007800216509,0.01377789955586195
173,0.25,0.001,0.011221414390072394,0.00801155993484714,17.98802474375521,0.012839418089761035,0.021365010800460976
174,0.25,0.001,0.011050207812464638,0.007858504038931948,17.88630905579985,0.012766815885652998,0.016010627926637728
175,0.25,0.001,0.011170786512450556,0.00799260711234607,17.810518993420548,0.012712718767609241,0.012776639157285294
176,0.25,0.001,0.011119746362392822,0.007710454462284452,19.105671829052184,0.013637167615312052,0.01422007055953145
177,0.25,0.001,0.01112587418239773,0.00791728783273295,17.980917898456703,0.012834345395044041,0.019485131604596972
178,0.25,0.001,0.011143777665964673,0.007841710273302003,18.50478543056531,0.01320826940083177,0.023057243476311367
179,0.25,0.001,0.011045065739851319,0.007933879694953728,17.435085660955878,0.012444743512459585,0.01882222605248292
180,0.25,0.001,0.011006127603435785,0.007818952087689651,17.8609327894918,0.012748702918980587,0.014848177942136923
181,0.25,0.001,0.010980916701340944,0.007841481555127696,17.59339594037345,0.012557741570573483,0.01214373561864098
182,0.25,0.001,0.011113196799761794,0.007919399706081728,17.898039742801966,0.012775188967024958,0.029397187909732263
183,0.25,0.001,0.011138272419404448,0.007849965830532353,18.427670553828893,0.01315322666226188,0.026630184923609097
184,0.25,0.001,0.011127481530054231,0.007952985908375697,17.789873916111635,0.012697982809501523,0.025489711823562782
185,0.25,0.001,0.010993952978025662,0.007799084298312664,17.90404351909509,0.012779474317698138,0.024147680960595608
186,0.25,0.001,0.011096868350097303,0.007883141193999334,18.009726963686138,0.012854908610768122,0.02182929792130987
187,0.25,0.001,0.010963303612524204,0.007757730128013351,17.964033876911977,0.01282229398780298,0.017335964366793633
188,0.25,0.001,0.010995661839842796,0.007892128791701928,17.392199677028014,0.012414132531783022,0.014543084117273489
189,0.25,0.001,0.010961189834673084,0.007746118518492479,18.01725966207097,0.012860285269144161,0.012278149913375577
190,0.25,0.001,0.010936200828029869,0.007725633314570014,17.992020639140954,0.012842270263483908,0.014144136880834898
191,0.25,0.001,0.010933569485970428,0.00772413881914167,17.985650309016197,0.012837723275529048,0.015494854810337225
192,0.25,0.001,0.010806627718082974,0.007664178032428026,17.610289112905438,0.012569799509568477,0.013260787430529794
193,0.25,0.001,0.010878346912730276,0.007673016717929518,17.962670422671884,0.01282132078706059,0.015367454383522272
194,0.25,0.001,0.010875550391717573,0.007667896986593691,17.975689362943843,0.012830613392536647,0.01397682617728909
195,0.25,0.001,0.010881846624144008,0.007691513181904729,17.87862846288788,0.012761333663731536,0.015466881295045217
196,0.25,0.001,0.011045654095039608,0.007908183903422919,17.582382759351407,0.01254988062765982,0.020786103637268145
197,0.25,0.001,0.010930783303684733,0.007677099447739259,18.23364506410749,0.01301473594868486,0.020597991533577442
198,0.25,0.001,0.010797261208128394,0.007600932219850548,17.912228059232906,0.012785316244991367,0.013532594932864109
199,0.25,0.001,0.010794326485124198,0.007631439924909828,17.724816590212704,0.012651546459823486,0.01625945131915311
200,0.25,0.001,0.010846406273711263,0.00769840462363503,17.641402405299498,0.012592007427051747,0.01665115123614669
201,0.25,0.001,0.0108741196081712,0.007765260640155064,17.42204580414161,0.01243543597726025,0.016185093050201733
202,0.25,0.001,0.01081719540394424,0.007585379692694444,18.111096928628644,0.012927264046130368,0.016977697145193815
203,0.25,0.001,0.010847462487689565,0.007648723686553454,17.925733180528276,0.012794955874752517,0.016145339235663414
204,0.25,0.001,0.010836427612753396,0.00768597134169233,17.655157303542232,0.0126018253415719,0.01203977782279253
205,0.25,0.001,0.010730358824301301,0.0074940660361493576,18.136184199472492,0.012945170734812628,0.013514823280274868
206,0.25,0.001,0.010824147821142433,0.007654864958414201,17.76066113589855,0.01267713143176199,0.012651550738761822
207,0.25,0.001,0.010703551886456737,0.0076014386081879725,17.384242754304008,0.012408453072308357,0.012655332839737335
208,0.25,0.001,0.010783463057256146,0.00761984588494629,17.728911903467072,0.012654469595622464,0.015306080070634684
209,0.25,0.001,0.010730702953224772,0.007488549781147014,18.16902531398816,0.012968611930041514,0.013086033364137014
210,0.25,0.001,0.010767126267545678,0.007600636608647496,17.745008918676483,0.012665959256728396,0.013920365832746029
211,0.25,0.001,0.010744768330890142,0.00756526275360015,17.817949552214547,0.012718022521209526,0.01563045638613403
212,0.25,0.001,0.010854770272467913,0.00767352684202154,17.827688088577784,0.012724973653517333,0.02110230503603816
213,0.25,0.001,0.010769950791021412,0.007569473655371184,17.935474460044603,0.012801908965056818,0.027700860208521288
214,0.25,0.001,0.010807448422557183,0.007704604082228093,17.388339374842268,0.012411377141215037,0.023047266838451225
215,0.25,0.001,0.01085000384724542,0.007676096005218752,17.786579367819797,0.012695631240413846,0.020529657291869324
216,0.25,0.001,0.010677454626878326,0.007429824681596809,18.199717768122643,0.012990519463328081,0.015357729668418566
217,0.25,0.001,0.010738688175765317,0.007603867591641257,17.56753572185388,0.012539283170488136,0.017865285743027925
218,0.25,0.001,0.010875222356885338,0.007672961644326033,17.94546926691291,0.012809043017068457,0.02378134646763404
219,0.25,0.001,0.010797721637266406,0.0075071603478340625,18.440306224180073,0.013162245698915113,0.014567984268069267
220,0.25,0.001,0.010828035768498195,0.007637861734151505,17.877734537874716,0.012760695601623637,0.02367575466632843
221,0.25,0.001,0.010840247102667776,0.007723478396328982,17.46637127908428,0.012467074431894562,0.018765166867524385
222,0.25,0.001,0.010818426277530328,0.0076767996717453674,17.605675472302384,0.012566506404212979,0.017945562954992056
223,0.25,0.001,0.010661940404287215,0.007514258668747511,17.63960868321108,0.0125907271114997,0.018700225744396448
224,0.25,0.001,0.010776741199948814,0.007614748259441236,17.719809650035387,0.012647972626720476,0.015907388646155596
225,0.25,0.001,0.01071294340608495,0.007503599326094884,17.98516547813844,0.012837377214945354,0.014531918646146854
226,0.25,0.001,0.01067958382910557,0.007495517816310853,17.843506459439737,0.012736264425010519,0.01060628006234765
227,0.25,0.001,0.010712100946333972,0.007499518181626382,18.003313664639933,0.012850330952633784,0.017566596002628405
228,0.25,0.001,0.01068130357379324,0.007635211875515707,17.070298269893346,0.012184367073442788,0.015289547387510538
229,0.25,0.001,0.010576963571182797,0.007364036018300927,18.005245873097625,0.012851710116415149,0.013395955475668112
230,0.25,0.001,0.010694259955558214,0.00757541051762325,17.478032487162043,0.01247539792088654,0.02094532223418355
231,0.25,0.001,0.010648439439494959,0.007513939183247224,17.565738292222612,0.01253800020858145,0.01563720917329192
232,0.25,0.001,0.010586055121227596,0.007402021265222451,17.843326997221187,0.012736136329208557,0.018227155941228073
233,0.25,0.001,0.010561754822396161,0.0074495381853553685,17.44086314854997,0.01244886734371875,0.016802068644513685
234,0.25,0.001,0.01063492785343963,0.007475456348463391,17.70567878980315,0.012637886359602534,0.009778681909665465
235,0.25,0.001,0.01056752981764547,0.0073169861250462825,18.216046986954936,0.01300217486577797,0.0099408277310431
236,0.25,0.001,0.010547198648198267,0.007388177474311898,17.703155967626678,0.012636085629997629,0.011527853552252054
237,0.25,0.001,0.010568276633707326,0.0074847107020656715,17.280304576573748,0.012334264508617951,0.013261174007008473
238,0.25,0.001,0.010639417885143436,0.007440476521347346,17.926868374428054,0.012795766148770916,0.013866784827162823
239,0.25,0.001,0.010627433887860749,0.007423751919498939,17.953433561860844,0.012814727738658703,0.013804983114823699
240,0.25,0.001,0.010513507802918386,0.007306280744712005,17.97330093383789,0.012828908589463162,0.011894008455177149
241,0.25,0.001,0.010505236999204989,0.007307400220607439,17.920678363757187,0.012791347868491924,0.009738190254817406
242,0.25,0.001,0.010488894464594594,0.0073729870171191985,17.461546351400653,0.012463630514918382,0.019925400304297607
243,0.25,0.001,0.010527848402101003,0.007348848083004188,17.815117032340403,0.012716000736859674,0.014189130005737146
244,0.25,0.001,0.010533757664765536,0.007374259287470512,17.70582805590683,0.012637992902146204,0.014088692764441172
245,0.25,0.001,0.010565237864182236,0.007443555745850788,17.493906085410813,0.012486728112356042,0.019117791826526325
246,0.25,0.001,0.010582714603188333,0.00739967209820667,17.837769669093444,0.012732169642464986,0.020025831336776417
247,0.25,0.001,0.010490161795796973,0.007346926769764906,17.614689537648406,0.012572940426587013,0.022390419462074835
248,0.25,0.001,0.010576262023676647,0.007361190524370818,18.017260369290128,0.012860285773940133,0.019795074127614498
249,0.25,0.001,0.01052843631778875,0.007409080747891678,17.480867943067228,0.012477421800904517,0.01952775102108717
250,0.25,0.001,0.010549447949180443,0.0073226257488968665,18.083111945162997,0.012907289040087793,0.017195479323466618
251,0.25,0.001,0.01051770495983322,0.00739185284990608,17.517274985152685,0.012503408269202487,0.01086265609289209
252,0.25,0.001,0.010550553868577051,0.007425756769233875,17.51136413317048,0.012499189245660586,0.012560178991407156
253,0.25,0.001,0.010519548873887972,0.007429588078573513,17.316140807076785,0.012359843545379575,0.015151900084068378
254,0.25,0.001,0.010588675088594469,0.00736739185084118,18.052071924959677,0.012885133422526536,0.02068458404392004
255,0.25,0.001,0.010724703226698919,0.007557706865534353,17.74784761064508,0.012667985446570365,0.03144123281041781
256,0.25,0.001,0.010670837705557266,0.007512692707391937,17.69824535927076,0.012632580556224668,0.033153456170111895
257,0.25,0.001,0.010649339850531535,0.007494437225748983,17.680074241723908,0.012619610450909285,0.025866288381318252
258,0.25,0.001,0.010763051720817438,0.0076366766784968,17.52020677287927,0.012505500908550514,0.027352341761191685
259,0.25,0.001,0.01057363213615471,0.0072996320485482725,18.3474968685193,0.013096000619928123,0.023438894500335056
260,0.25,0.001,0.01063811071635632,0.007521001329080442,17.468281799487855,0.012468438115266135,0.028695435573657353
261,0.25,0.001,0.010632034359771884,0.007446456255830741,17.85198102372416,0.012742313364542585,0.024262246986230213
262,0.25,0.001,0.010594971770985742,0.007394513486769427,17.935368334309437,0.012801833215067407,0.024361313475916784
263,0.25,0.001,0.010542821128632916,0.007423869580072299,17.47860458459747,0.01247580627023374,0.01545567779491345
264,0.25,0.001,0.010439306099930505,0.007300780714604627,17.588297276014693,0.012554102266962665,0.016120498379071552
265,0.25,0.001,0.010464560177721334,0.00734954501052251,17.456545433301603,0.012460060980229552,0.016438267814616363
266,0.25,0.001,0.010465031950159019,0.007322927910750837,17.60835253254751,0.0125684172252302,0.015526261956741413
267,0.25,0.001,0.01044787737551365,0.007305806602110688,17.608165590950613,0.012568283790828418,0.01705565939967831
268,0.25,0.001,0.010499405099099942,0.007361338159927492,17.585727220170952,0.012552267823105605,0.02065588068217039
269,0.25,0.001,0.010447209868370817,0.007299213377193788,17.641373237867032,0.012591986608042135,0.02960955196370681
270,0.25,0.001,0.010723863246986706,0.007567791885623102,17.68662396977457,0.012624285488775568,0.030269913996259373
271,0.25,0.001,0.010581999462558313,0.007392771039785964,17.872437230656654,0.012756914511532231,0.03003758347282807
272,0.25,0.001,0.010539997274872292,0.0074869739519578685,17.10914365361246,0.012212093971172348,0.021062536165118217
273,0.25,0.001,0.010497348403997636,0.007261753731061903,18.132271691654505,0.012942378081123845,0.023280553209284943
274,0.25,0.001,0.010361805976776595,0.007246074905053953,17.46055665176906,0.012462924091198473,0.01396356662735343
275,0.25,0.001,0.010378031394957157,0.007238533515273855,17.593746313888037,0.012557991658735215,0.01581626556192835
276,0.25,0.001,0.010371940063961436,0.007299647488620844,17.217127424947332,0.012289170181975255,0.01070785072321693
277,0.25,0.001,0.01035634789281012,0.007159739758903056,17.913792063680926,0.01278643259363378,0.018953782971948385
278,0.25,0.001,0.010355602395249887,0.007242553040720104,17.445528844769083,0.012452197605117118,0.015414162073284388
279,0.25,0.001,0.010409698654175474,0.007241979659943098,17.751896826069007,0.012670875678850113,0.0160152530297637
280,0.25,0.001,0.010293706215583207,0.007155462712300628,17.586716748355478,0.012552974124450734,0.01613390166312456
281,0.25,0.001,0.010372416942976834,0.007273553823529,17.366029696518115,0.012395453031062181,0.016311502705017727
282,0.25,0.001,0.010309822187664804,0.007158154156059027,17.661947936154483,0.012606672331302271,0.014663509869327148
283,0.25,0.001,0.010319971992226128,0.007254343694389871,17.179782481675737,0.01226251426243807,0.012651800488432249
284,0.25,0.001,0.010359527972223384,0.007210548464836699,17.646882067905384,0.012595918678019546,0.013732925057411194
285,0.25,0.001,0.010294228698011864,0.007200645052650002,17.336441832981752,0.012374333927895612,0.011705743459363779
286,0.25,0.001,0.010208262789868907,0.007198216581947348,16.86829931280586,0.01204018509122474,0.013834010188778242
287,0.25,0.001,0.010399460729755712,0.007215176463085279,17.844729991441362,0.012737137752634804,0.013949781656265259
288,0.25,0.001,0.010388703995876098,0.007170970855134256,18.032176950004665,0.012870932869382345,0.012433101500694951
289,0.25,0.001,0.01039422591206398,0.007293464014243879,17.376669830150817,0.012403047701749334,0.018651473025480907
290,0.25,0.001,0.010384414365954614,0.007198213332782636,17.855469435788272,0.012744803308913828,0.015101086581125855
291,0.25,0.001,0.010342634042327324,0.007174391048342994,17.75483407867089,0.012672972218894282,0.01589615736156702
292,0.25,0.001,0.010403391633057193,0.007225647469291861,17.80807883016179,0.012710977037945603,0.015143457955370346
293,0.25,0.001,0.010452405068228084,0.007337781804707948,17.454349582114915,0.012458493634628776,0.015953869093209505
294,0.25,0.001,0.010477476617258586,0.0072463111470589476,18.107451428188366,0.01292466197586607,0.02032216576238473
295,0.25,0.001,0.010425631459174531,0.007328523615940234,17.356192663814245,0.012388431594442716,0.023222029053916533
296,0.25,0.001,0.010363080203951745,0.007219610086987528,17.616007151228658,0.012573880907372346,0.019587344489991665
297,0.25,0.001,0.010341016722194264,0.0071864294442819075,17.6783071582237,0.012618349149338829,0.015713464779158432
298,0.25,0.001,0.010283878512596815,0.00715405068600948,17.539555453182608,0.012519311529752039,0.013492379803210497
299,0.25,0.001,0.010309082529183184,0.007225813569103399,17.27863913975405,0.012333075759995753,0.013901449274271727
300,0.25,0.001,0.010308605985025341,0.0071589084854872705,17.650905651992627,0.01259879061526954,0.012380623103429874
301,0.25,0.001,0.010329845570697544,0.0072038893305351225,17.51785837666372,0.01250382467998838,0.015739943521718185
302,0.25,0.001,0.01032750460245971,0.0072192823660842485,17.41847734772757,0.012432888899163148,0.018979862953225773
303,0.25,0.001,0.010299137217944928,0.0071779587096796275,17.491084388132844,0.012484714052914235,0.013625990599393845
304,0.25,0.001,0.010324344750535622,0.0072133662859291845,17.433924278516447,0.012443914545693395,0.013925710382560888
305,0.25,0.001,0.010284936421791489,0.007119357816121551,17.7399018319805,0.01266231394145646,0.012662510387599468
306,0.25,0.001,0.01038180086552427,0.007323888219432549,17.136541216560964,0.012231649690621673,0.01682612005000313
307,0.25,0.001,0.010405270968762677,0.007172239719356379,18.11790766340963,0.012932125384303803,0.014013872792323431
308,0.25,0.001,0.01029103785083535,0.00719089861540647,17.373180925176385,0.012400557405550596,0.013900342552612225
309,0.25,0.001,0.010319699125176066,0.007130699064791872,17.87115624245633,0.012756000173059478,0.015917018832017977
310,0.25,0.001,0.01029653280052576,0.0072041803845361374,17.329543724488676,0.01236941022447443,0.011665032245218754
311,0.25,0.001,0.01027181845032767,0.007142907782886805,17.534414655706854,0.012515642152538796,0.012579571610937515
312,0.25,0.001,0.010206267760878199,0.0069973848634556435,17.982579606302668,0.012835531482014752,0.012393082492053509
313,0.25,0.001,0.010320812453296078,0.007191748368773568,17.535275041387322,0.012516256275080174,0.025436932997157175
314,0.25,0.001,0.010409751708169332,0.007367925048711595,17.046396984143204,0.012167306912307782,0.028182508579144876
315,0.25,0.001,0.010237527487987882,0.00705105270353261,17.857005280055358,0.01274589955749847,0.018850358358273905
316,0.25,0.001,0.010221356955053431,0.007117199538840672,17.395698461639746,0.012416629879828512,0.01596786252533396
317,0.25,0.001,0.010220083355736197,0.007088661267097746,17.548488702666894,0.0125256878677137,0.015807094673315685
318,0.25,0.001,0.010268882482071941,0.0071813643679776214,17.30245170164644,0.012350072592181613,0.01366277722020944
319,0.25,0.001,0.010209599331942168,0.007040643164615953,17.758830424105184,0.012675824713850953,0.013784824560085932
320,0.25,0.001,0.010303359761248144,0.007138355404891995,17.736683813373695,0.01266001699741163,0.014848950784653425
321,0.25,0.001,0.01030502828319421,0.007164260602734062,17.600862653067942,0.012563071129955704,0.023026373237371445
322,0.25,0.001,0.01032052015404353,0.007226182189717722,17.340668881877086,0.012377351093416906,0.01682410916934411
323,0.25,0.001,0.010192048725452317,0.0069939522020351355,17.922133692194908,0.012792386646820062,0.012339367065578699
324,0.25,0.001,0.010226103728323171,0.0070948351771057995,17.547628488433496,0.012525073867547106,0.014802012126892805
325,0.25,0.001,0.010356386328178846,0.007249330677971077,17.41193992100405,0.0124282226416874,0.017724474892020226
326,0.25,0.001,0.01032132211695896,0.007158800541015154,17.722771205259175,0.012650086513389846,0.014865499765922626
327,0.25,0.001,0.01026245378208964,0.007112908009648993,17.650054481592072,0.012598183070372642,0.012043609439084927
328,0.25,0.001,0.010286972408046883,0.007147971749975441,17.59095995613698,0.012556002823795133,0.013079602271318436
329,0.25,0.001,0.010266081796268398,0.007105991689048791,17.70914448513074,0.012640360089315303,0.013627827943613132
330,0.25,0.001,0.010281595391001595,0.007080770667977213,17.937421798706055,0.012803298928412601,0.012383945907155672
331,0.25,0.001,0.010180931705772207,0.007055705962597989,17.5137644349859,0.012500902523187652,0.016294660822798807
332,0.25,0.001,0.010282791146401609,0.007186620208445225,17.350941325841326,0.012384683316089455,0.018002882755051058
333,0.25,0.001,0.010262505078081335,0.007118350015220682,17.619844415214626,0.01257661985382914,0.017107905664791662
334,0.25,0.001,0.010159338364021832,0.007065165746078062,17.339743089140132,0.012376690284896597,0.018134950349728268
335,0.25,0.001,0.010189426665225725,0.007181065408199021,16.858855836846857,0.012033444565914958,0.01135641879712542
336,0.25,0.001,0.01022712207200487,0.007086048075364212,17.60257937399189,0.012564296483934255,0.011318493789682785
337,0.25,0.001,0.010227524225464028,0.007100708604779806,17.522674667701292,0.01250726243233497,0.013427146089573702
338,0.25,0.001,0.010208587319161116,0.007027319815595833,17.827824731891074,0.012725071186217754,0.015270631605138382
339,0.25,0.001,0.010181667011105613,0.0071128226837582804,17.1978030472659,0.01227537690739893,0.01306511671282351
340,0.25,0.001,0.010105712203246154,0.0069806823046522195,17.5126678809691,0.01250011982938551,0.012730305315926671
341,0.25,0.001,0.01024634266544259,0.007052230973089679,17.89980258298724,0.012776447239819584,0.015741579855481785
342,0.25,0.001,0.010211199584804225,0.0070488158602979075,17.721999157680553,0.012649535444454357,0.011609595734626055
343,0.25,0.001,0.010237532060886368,0.007097939348497083,17.594278142693337,0.012558371265305736,0.011652863739679256
344,0.25,0.001,0.0102034362995725,0.0070670183245720485,17.576487809084774,0.012545672954378854,0.014688788137088219
345,0.25,0.001,0.010153253709248612,0.006984212974693333,17.759304818142667,0.012676163324869856,0.014533248264342546
346,0.25,0.001,0.010173561867703212,0.007080139241735922,17.335540235712287,0.012373690389516264,0.010789661668241024
347,0.25,0.001,0.010220622392685225,0.00702234957199753,17.923121548770517,0.012793091755011076,0.018766752754648525
348,0.25,0.001,0.010138693610938746,0.007096861473420698,17.04642782318458,0.012167328924471506,0.019195961921165388
349,0.25,0.001,0.010218369868699085,0.007041138199189406,17.805205441592783,0.01270892608250734,0.01519666239619255
350,0.25,0.001,0.010223021490101734,0.007102068204935012,17.489822537711497,0.012483813374526408,0.017899100358287495
351,0.25,0.001,0.010132045223471824,0.006979570760695117,17.666466466496498,0.012609897549248036,0.015202493562052647
352,0.25,0.001,0.010115381288394499,0.007042466270412957,17.220614765467268,0.012291659361504116,0.014018018419543902
353,0.25,0.001,0.010340212069954096,0.007297572449603108,17.050953147116672,0.012170558991517968,0.01919844172274073
354,0.25,0.001,0.01029073978575428,0.00708789811626579,17.948723675159926,0.012811365935160546,0.02761241514235735
355,0.25,0.001,0.010318373434580443,0.007290741658947441,16.966848652014573,0.01211052723198756,0.025991556389878195
356,0.25,0.001,0.010240640983069212,0.007096177976829618,17.621570072816997,0.012577851586593145,0.023308693586538237
357,0.25,0.001,0.010351916168178066,0.007136239251645094,18.020653135321112,0.012862707448480452,0.01985882579659422
358,0.25,0.001,0.010191251795864506,0.007157468938090828,17.00131825650676,0.012135130804073347,0.01864336694901188
359,0.25,0.001,0.010273486647880479,0.007038955179074507,18.12631362743592,0.012938125358626639,0.016815931536257267
360,0.25,0.001,0.010134022494547822,0.006988680837780572,17.626494611247203,0.012581366603317061,0.011832971358671784
361,0.25,0.001,0.010224573063046744,0.007088616589774911,17.57389949412828,0.012543825477607623,0.022582491549352806
362,0.25,0.001,0.01014429610222578,0.00699564910315898,17.645017130991047,0.01259458753104286,0.02064058945203821
363,0.25,0.001,0.010093402870920268,0.007060453939262066,16.996646816810866,0.012131796443119819,0.015369688160717487
364,0.25,0.001,0.010113888032985538,0.006951023374548119,17.72469370552663,0.012651458747699235,0.02105166995897889
365,0.25,0.001,0.010158726066518365,0.007097523083931275,17.15498131312681,0.012244811786671528,0.01303250358129541
366,0.25,0.001,0.010217864767470386,0.007045106480965454,17.780138294348557,0.012691033757564994,0.016411664274831612
367,0.25,0.001,0.010168581698717696,0.006955433050903042,18.006485178229514,0.012852594702519283,0.01586099900305271
368,0.25,0.001,0.010192436092857565,0.00708140011123392,17.434245463167684,0.012444143799548668,0.01360365430203577
369,0.25,0.001,0.010065991829118033,0.007001069363918197,17.175825740514178,0.012259690036055801,0.017633117424945038
370,0.25,0.001,0.010028045007100935,0.006895347205356935,17.555638774057453,0.012530791416172343,0.017489658979078133
371,0.25,0.001,0.01016790529692106,0.00705924586215046,17.420927690655997,0.012434637894829405,0.014571349446972212
372,0.25,0.001,0.01011081136177095,0.006952948020666503,17.696666567513113,0.012631453652757396,0.015109954246630272
373,0.25,0.001,0.010228402588223473,0.007122501082132372,17.40547137314014,0.012423605548279901,0.01982932568838199
374,0.25,0.001,0.01026271672898464,0.006999007154130534,18.28982925415039,0.013054838868058808,0.016547667638709147
375,0.25,0.001,0.010136493460767055,0.007004813850972425,17.54993200837896,0.012526718064510322,0.015791853424161673
376,0.25,0.001,0.010208698303511973,0.007135308933643143,17.223274552420285,0.012293557853262159,0.020279118170340855
377,0.25,0.001,0.010138107819503613,0.007018216665876046,17.483870667018248,0.012479565072818164,0.02038094401359558
378,0.25,0.001,0.010260021837239855,0.0070534608944245935,17.96956685955605,0.012826243297327658,0.025259061406056087
379,0.25,0.001,0.01023796447709705,0.0071469598836945685,17.321989188033545,0.012364017978610668,0.030480119710167248
380,0.25,0.001,0.010220314512092077,0.007043855222925711,17.80087790328465,0.01270583719006756,0.025462262021998566
381,0.25,0.001,0.010190605614962203,0.007013072809099816,17.806894002335795,0.01271013133642812,0.019603499211370945
382,0.25,0.001,0.010136958881375495,0.00704710895007246,17.315518561373935,0.012359399401408948,0.0170382815413177
383,0.25,0.001,0.01007287750501981,0.006969173962061995,17.393155258693053,0.012414814602921523,0.011392726097255945
384,0.25,0.001,0.01011364557518718,0.006997192006432608,17.46460582433122,0.012465814292884524,0.016982894701262314
385,0.25,0.001,0.010167154682318815,0.007017660320977147,17.64976617191615,0.012597977281881619,0.01678530949478348
386,0.25,0.001,0.01001394186378195,0.006893041616912638,17.489526362901323,0.012483601972092308,0.011892797502999505
387,0.25,0.001,0.010214350824610571,0.007139496123313569,17.23148532395952,0.012299418503896875,0.01633171085268259
388,0.25,0.001,0.010040993258105904,0.006900279918748341,17.600557177254323,0.012562853088689738,0.018754121847450733
389,0.25,0.001,0.010007806206017399,0.006925715280047963,17.272036970331428,0.012328363290743346,0.019301644681642454
390,0.25,0.001,0.010046540979254111,0.007036133632691724,16.870322516794953,0.012041629205421095,0.01411358422289292
391,0.25,0.001,0.010098085498039642,0.006972587892388025,17.515289435225927,0.0125019910315674,0.017519145117451746
392,0.25,0.001,0.010173684341853924,0.007085226889532269,17.307715876718586,0.0123538300333466,0.025776687543839216
393,0.25,0.001,0.010057787777165348,0.006887873990482159,17.7641974674182,0.01267965557988451,0.018045045901089907
394,0.25,0.001,0.010066604314978873,0.006991044649582231,17.23543600018105,0.01230223840127127,0.019513041557123263
395,0.25,0.001,0.010122569822026103,0.007054926157834825,17.191074692801145,0.01227057437030774,0.018702102825045586
396,0.25,0.001,0.010030810972361753,0.006886593118477403,17.62019718898816,0.012576871655237803,0.018027087828765314
397,0.25,0.001,0.010041810634933162,0.006920086319317643,17.49414330386044,0.012486897433162341,0.019690025908251602
398,0.25,0.001,0.010054278930418947,0.006948028230683857,17.407429470105118,0.01242500319065319,0.020464847330003977
399,0.25,0.001,0.010110787021812428,0.006963009673976496,17.640145248241637,0.012591110098673546,0.013171940110623837
400,0.25,0.001,0.01003275861900844,0.006929256791102417,17.3920251010509,0.012414007923662313,0.013026086147874594
401,0.25,0.001,0.010124410931648833,0.006965937349275591,17.70008734370885,0.012633895320277554,0.011774161209662756
402,0.25,0.001,0.010105565211243844,0.007000493006048243,17.400824793269127,0.012420288931669613,0.011847187920163075
403,0.25,0.001,0.010056818092472098,0.006924523176688156,17.553381459096844,0.012529180199212593,0.014869706549992165
404,0.25,0.001,0.010068200486764479,0.00695133927079399,17.4668895635712,0.012467444370857388,0.017505172174423933
405,0.25,0.001,0.010003299138435487,0.006931696144675606,17.213264315315847,0.012286412787520233,0.012122648302465677
406,0.25,0.001,0.010056571595454485,0.006972977038724034,17.280463593729426,0.012334378011227285,0.015704595018178225
407,0.25,0.001,0.01011039029932424,0.007016969154055199,17.335532949211892,0.012373685188588075,0.016267672336349886
408,0.25,0.001,0.010037934459913312,0.0069248524881648215,17.445711735928995,0.012452328148414701,0.019226512561241787
409,0.25,0.001,0.01009631117157052,0.006982896968806058,17.447572536682813,0.012453656343099796,0.019351432255158823
410,0.25,0.001,0.009960218657101139,0.006903223808478104,17.131398854630717,0.012227979196738556,0.012713120629390081
411,0.25,0.001,0.009980987778372979,0.006952341986045743,16.972531286518226,0.012114583359399161,0.019214080180972815
412,0.25,0.001,0.01009359618837244,0.006987578387298946,17.40612379352698,0.012424071230211978,0.015147992875427008
413,0.25,0.001,0.00993129409054357,0.006711185349967707,18.045489836274907,0.012880435286420348,0.01246716252838572
414,0.25,0.001,0.01010159644811006,0.007067591668724009,17.00256281220511,0.012136019137905145,0.018531956089039642
415,0.25,0.001,0.010087740304095021,0.006920546523473236,17.74895277987705,0.012668774289705247,0.026702965299288433
416,0.25,0.001,0.010048953753508878,0.007032665999585323,16.903276014863774,0.012065150617318896,0.02168327911446492
417,0.25,0.001,0.010070632138613905,0.006946126375807805,17.509731185570192,0.01249802368705938,0.020325652944544952
418,0.25,0.001,0.010064857687508122,0.006963118827075101,17.382145120856467,0.01240695583216022,0.015103982528671622
419,0.25,0.001,0.010010004514472539,0.006841272345921966,17.75757701745194,0.012674930062421085,0.014287982136011124
420,0.25,0.001,0.01004461913756775,0.006956372614112798,17.306533963492747,0.01235298641220039,0.012662405613809824
421,0.25,0.001,0.010045268133366377,0.006958590574520692,17.297740550523393,0.012346709886169446,0.013783753383904696
422,0.25,0.001,0.010022164709614903,0.00678752406154958,18.126926079225004,0.012938562511937904,0.014755517554779848
423,0.25,0.001,0.00996803863790263,0.006916940290731996,17.09835628981001,0.012204394211142049,0.013751942664384842
424,0.25,0.001,0.010020419557610254,0.006908767322978277,17.437698492843115,0.012446608488824493,0.01646676876892646
425,0.25,0.001,0.009984196498571487,0.006976909019848269,16.852838709113303,0.012029149685305713,0.011593959759920835
426,0.25,0.001,0.010041389886415406,0.006872432724980826,17.758836703354053,0.012675829195827304,0.014145939300457636
427,0.25,0.001,0.01007223642023092,0.0069142750914344625,17.697216119659082,0.0126318459098209,0.016724632897724707
428,0.25,0.001,0.009994794509970071,0.006843299992131383,17.66097587414002,0.012605978496887953,0.013535761429617802
429,0.25,0.001,0.010014095228542103,0.006995870323663347,16.91413317905383,0.012072900199181892,0.013523319270461798
430,0.25,0.001,0.010004553420657522,0.0067552078850148765,18.20933211251591,0.012997381950403933,0.013888676961263021
431,0.25,0.001,0.010028933645801598,0.0069910817978422295,17.024120866582635,0.012151406757018297,0.014660563164701065
432,0.25,0.001,0.009957741694838812,0.006818141673136963,17.59431883994113,0.012558400314019365,0.013878075794006387
433,0.25,0.001,0.010000051763117983,0.006930145696642694,17.203754210739994,0.012279624704311203,0.013737620320171118
434,0.25,0.001,0.010058340271202367,0.006916187886734692,17.608622711695983,0.01256861007258814,0.011028099805116653
435,0.25,0.001,0.010053600038119247,0.006849126984480392,17.957867183042378,0.012817892350494202,0.014716395487387976
436,0.25,0.001,0.00997627584075325,0.006808617372023925,17.751558453849192,0.01267063415692305,0.018516843828062218
437,0.25,0.001,0.01001602609045385,0.006939655468077137,17.239981254834806,0.012305482694386013,0.013583489072819551
438,0.25,0.001,0.010040311467195496,0.006877434963172072,17.72476003411111,0.012651506091442619,0.01735509807864825
439,0.25,0.001,0.009957802534270822,0.0068532701665430925,17.39779847391536,0.012418128817926737,0.014285634271800518
440,0.25,0.001,0.009942908771336079,0.0067985000329489785,17.621267490172656,0.01257763561040161,0.015837616908053558
441,0.25,0.001,0.009964569900812728,0.006870828459060259,17.337328278616575,0.012374966651403694,0.01226008761053284
442,0.25,0.001,0.009989344912549753,0.006889039650559425,17.374111282691526,0.012401221472299448,0.01400446038072308
443,0.25,0.001,0.00996156959804926,0.006832894398255295,17.53309609916773,0.012514700998692169,0.01178176204363505
444,0.25,0.001,0.009978446199066853,0.006810835196395938,17.751291339317063,0.01267044349701432,0.012008904634664455
445,0.25,0.001,0.00999717948058348,0.006869123369622766,17.5296274678091,0.012512225173311277,0.012710480950772762
446,0.25,0.001,0.009944766226193209,0.006800222325693356,17.622024471840163,0.012578175925653221,0.015587630681693554
447,0.25,0.001,0.010048936110701455,0.006959454941280772,17.313452624203116,0.01235792478529844,0.020524762260417145
448,0.25,0.001,0.010040186450220225,0.006939858805095212,17.374237724904265,0.012401311723700403,0.01354260075216492
449,0.25,0.001,0.009906336141938574,0.0068159978522845865,17.318257449718004,0.012361354353831552,0.012745920879145464
450,0.25,0.001,0.009919032789348217,0.006864892151416018,17.115405136279847,0.012216563266438149,0.012122112791985273
451,0.25,0.001,0.00991719024611658,0.006882156977911343,17.008325876814595,0.012140132674385865,0.014152238766352335
452,0.25,0.001,0.009973363762491205,0.006855073902923404,17.474896398822914,0.012473159456690159,0.020224626486500103
453,0.25,0.001,0.009954442730529254,0.006859967809463485,17.341438914952654,0.012377900724448719,0.013618548090259234
454,0.25,0.001,0.009936647102487891,0.0068401902014117565,17.35254472025325,0.012385827780337793,0.01422269425044457
455,0.25,0.001,0.009925540013427145,0.006813253459175316,17.44125503368592,0.012449147061874319,0.01698511792346835
456,0.25,0.001,0.009902494049139237,0.006887879269720798,16.893900260496675,0.01205845843004759,0.01297883844623963
457,0.25,0.001,0.009991210979524623,0.006852537969106369,17.589123436574187,0.012554691960438392,0.012016427237540483
458,0.25,0.001,0.009949901915584387,0.006874736026975881,17.23323004433278,0.01230066384320684,0.014548158273100853
459,0.25,0.001,0.00993300261750315,0.0068780894998168,17.119731667336453,0.01221965143992609,0.012390233110636473
460,0.25,0.001,0.009971534142668327,0.006875975067947018,17.347513091698122,0.012382236325266326,0.02075897886728247
461,0.25,0.001,0.010057785820341511,0.006927550597681424,17.541838142309295,0.012520940858179369,0.02137991599738598
462,0.25,0.001,0.009990434193711602,0.006824246241470401,17.74331643608179,0.012664751203484505,0.016534103080630302
463,0.25,0.001,0.00992067554819115,0.00685422368389502,17.184396743774414,0.012265807811402152,0.016795033123344183
464,0.25,0.001,0.009968204559821092,0.006832464744619439,17.57268609893456,0.012542959385392263,0.014272014300028482
465,0.25,0.001,0.00995298039712263,0.006875061335858334,17.24865789091989,0.012311675867894284,0.012187975458800793
466,0.25,0.001,0.00996162270436461,0.0067151529934215415,18.193216602454026,0.012985879088118506,0.011299286503344774
467,0.25,0.001,0.009905260464364893,0.006770701435384121,17.56606918506408,0.012538236391908694,0.012093625962734222
468,0.25,0.001,0.0099623588677705,0.006841227443616712,17.490819652428787,0.012484525090955594,0.013553401998554667
469,0.25,0.001,0.009818200576590018,0.0067325398336384405,17.292044157392525,0.012342643938181673,0.011748929973691702
470,0.25,0.001,0.009818905943565154,0.006749832767239782,17.199086671464897,0.012276293127383937,0.015458553719023863
471,0.25,0.001,0.00992787101965272,0.006938155855606781,16.754363885086573,0.011958860731682064,0.011905317660421133
472,0.25,0.001,0.009900874343146099,0.006778394855726301,17.49837498182661,0.012489917902802721,0.014062259501467148
473,0.25,0.001,0.00998067669570446,0.006877781613991501,17.388622776845867,0.012411579426727957,0.01852819478760163
474,0.25,0.001,0.009998402244338159,0.006863283150400338,17.5692081451416,0.012540476905882657,0.022672077796111505
475,0.25,0.001,0.009988980765423079,0.006940869457517447,17.08161559801423,0.012192445109217867,0.01790527394041419
476,0.25,0.001,0.009889296549006124,0.006647258677802394,18.168381080198824,0.012968152091505227,0.01470882911235094
477,0.25,0.001,0.009996353910210427,0.006940602675457014,17.124429381295535,0.0122230045548148,0.01647874340415001
478,0.25,0.001,0.009883839909112855,0.006758456730566333,17.51464751597201,0.012501532845090655,0.015357991214841604
479,0.25,0.001,0.009835577182722896,0.00673990331987819,17.348156318235933,0.012382695444850773,0.011935382770995298
480,0.25,0.001,0.009844374225548144,0.006826858099005865,16.910161586289995,0.012070065372084222,0.01272258705769976
481,0.25,0.001,0.009928197526697363,0.006753798610834258,17.78933092181602,0.012697595233273391,0.01299807095589737
482,0.25,0.001,0.00984248604751035,0.006738863754598947,17.3926999381419,0.012414489606097001,0.014947529571751753
483,0.25,0.001,0.009941882684073422,0.006834205177225424,17.415424754110614,0.012430710031485092,0.01711438929972549
484,0.25,0.001,0.00989420504801059,0.006843822171095382,17.094345371374924,0.012201531314328997,0.011328288198759159
485,0.25,0.001,0.00991478604212236,0.006771861983651525,17.612945299470024,0.01257169543145612,0.012584926405300697
486,0.25,0.001,0.009931194198349218,0.006876139195238272,17.120527696073726,0.012220219626034066,0.020818404698123533
487,0.25,0.001,0.0099633779544174,0.006794433920445402,17.758762081017654,0.012675775932203892,0.01889568381011486
488,0.25,0.001,0.009868656149071254,0.006798626943962292,17.204444220896516,0.012280117216914,0.012686362490057945
489,0.25,0.001,0.009970059273031991,0.006869432322806522,17.375914820124596,0.012402508793807705,0.01569527154788375
490,0.25,0.001,0.00993849906358826,0.006825161333917902,17.447144947694927,0.012453351140396094,0.01812803139910102
491,0.25,0.001,0.009966446850658133,0.006820003407892216,17.632669363129004,0.012585773992240545,0.011651777662336826
492,0.25,0.001,0.009954938665032387,0.006861259668981761,17.33697760506962,0.012374716349086096,0.014434870022038618
493,0.25,0.001,0.00997580485313796,0.006920232500336813,17.12342742319857,0.012222289381298051,0.01802044439439972
494,0.25,0.001,0.009878337477448951,0.006733298437732659,17.624799364068537,0.012580156576779826,0.01570539642125368
495,0.25,0.001,0.009963415740999612,0.006907802242576406,17.123657612318404,0.012222453684738333,0.011877353924016157
496,0.25,0.001,0.009811830633644308,0.00665496311705099,17.6910852796576,0.012627469864138187,0.015718583793689806
497,0.25,0.001,0.009853407928950331,0.006767457466195809,17.293667161062864,0.012343802399045584,0.014047275142123302
498,0.25,0.001,0.009883177006261403,0.006806215637604173,17.24329125479366,0.012307845292500829,0.014299309890096387
499,0.25,0.001,0.009889415078116267,0.006803730439938856,17.292176643114413,0.012342738503293656,0.012887292231122652
500,0.25,0.001,0.009911874560325334,0.0068202294733668315,17.325579118192866,0.012366580384149084,0.012455173923323551
