epoch,beta,learning_rate,train_loss,train_reconstruction_loss,train_kl_unnormalized,train_kl_normalized,mean_unclipped_gradient_norm
1,0.0,0.001,0.10690253243801441,0.10690253243801441,0.8253732336328384,0.0005891315015223686,0.14083492010831833
2,0.02,0.001,0.10273160119640067,0.1025965063178793,9.46348230889503,0.006754805359668116,0.1590026542544365
3,0.04,0.001,0.09611937134189809,0.0951953279845258,32.36458676926633,0.02310106122003307,0.2045479118824005
4,0.06,0.001,0.0864076592186664,0.08300934953892485,79.35048448278549,0.05663846144381548,0.26534897089004517
5,0.08,0.001,0.07576193438565478,0.06691380827984911,154.95277632043718,0.11060155340502296,0.2853264808654785
6,0.1,0.001,0.07092479457880588,0.05429790184852925,232.94278181360124,0.166268937768452,0.20335830748081207
7,0.12,0.001,0.06849636470383787,0.04791116120016321,240.33227376734956,0.17154337884892903,0.16324185580015182
8,0.14,0.001,0.06413347622815599,0.04509921942619567,190.47853023447888,0.135958979467865,0.1485789343714714
9,0.16,0.001,0.05828736429201796,0.043567728647526276,128.8888127753075,0.09199772503590829,0.11670227721333504
10,0.18,0.001,0.05362430753860068,0.04372819283224167,77.0247551126683,0.05497841192909943,0.07976230978965759
11,0.2,0.001,0.05134451310051248,0.045347547832321616,42.008733952299075,0.029984820808207763,0.12391403689980507
12,0.22,0.001,0.05011974806164173,0.04610481810696582,25.56780746135306,0.018249684126590334,0.16370078176259995
13,0.24,0.001,0.04816586183423691,0.04439395158848864,22.01852141035364,0.015716289372129648,0.12416315823793411
14,0.25,0.001,0.044789811635905126,0.040562890470027924,23.68767032217472,0.01690768759612757,0.07959821820259094
15,0.25,0.001,0.043773167152354055,0.03963429528347989,23.194231560889712,0.016555482912840622,0.11482729390263557
16,0.25,0.001,0.04145531982500503,0.03832169249653816,17.560849940523187,0.012534511021072938,0.07702170684933662
17,0.25,0.001,0.04153996555412069,0.03958992525301081,10.928028269016997,0.0078001629329171995,0.17068474367260933
18,0.25,0.001,0.040341215406326535,0.0385164183346515,10.226165933811918,0.007299190530915003,0.10213065147399902
19,0.25,0.001,0.04010917270120154,0.03773850242191173,13.285239158792699,0.009482683196854174,0.13964109122753143
20,0.25,0.001,0.03944260111831604,0.03709107312433263,13.177968897718065,0.009406116272461146,0.10519318282604218
21,0.25,0.001,0.03902282272564604,0.0371708205722748,10.378627817681496,0.0074080141453829376,0.09835439966991544
22,0.25,0.001,0.03905863845919041,0.037271385576496736,10.015773955811845,0.007149017812856421,0.09039328992366791
23,0.25,0.001,0.038948610900564395,0.036850381404795546,11.75847857049171,0.008392918322977665,0.07088128849864006
24,0.25,0.001,0.03907346709611568,0.03685977666618976,12.405524537918415,0.00885476412413877,0.15347349643707275
25,0.25,0.001,0.038622361865449456,0.036755037196773165,10.464495253055654,0.007469304249147505,0.07095601037144661
26,0.0,0.001,0.036557637155056,0.036557637155056,9.745278520787016,0.006955944697207007,0.19052527844905853
27,0.02,0.001,0.036332731551312385,0.03615446238124624,12.48770222765334,0.008913420576483469,0.15743793547153473
28,0.04,0.001,0.035799965975766485,0.035411586469792304,13.60298643720911,0.009709483538336266,0.08063656091690063
29,0.06,0.001,0.03586689755320549,0.03528963592141233,13.479087849880786,0.00962104771583211,0.06300116004422307
30,0.08,0.001,0.03553114244912533,0.03466754573139739,15.123748129986701,0.010794966545315275,0.08295752853155136
31,0.1,0.001,0.035404173934713325,0.03410135169929646,18.252548055445896,0.013028228447855743,0.04816312715411186
32,0.12,0.001,0.03544003088423546,0.03370134667196172,20.299129486083984,0.014489028897989996,0.09108171984553337
33,0.14,0.001,0.03516599551794377,0.033143498241267305,20.239429149221866,0.01444641623784573,0.15294360928237438
34,0.16,0.001,0.03458336170049424,0.03221959644492636,20.697722901689247,0.014773535261733937,0.07654364220798016
35,0.18,0.001,0.03459437365861649,0.03176788787575478,21.99947276013963,0.015702692905167473,0.13845784217119217
36,0.2,0.001,0.03419854056010855,0.03131537357384854,20.19657759970807,0.014415829835623176,0.10782473906874657
37,0.22,0.001,0.033744659354078006,0.030990367993078333,17.539831648481652,0.012519508671293113,0.09103871881961823
38,0.24,0.001,0.03273846098083131,0.0298481692183525,16.87207639978287,0.012042881084784346,0.058042049407958984
39,0.25,0.001,0.03199965023296945,0.029064145216599425,16.450570938435007,0.01174202065555675,0.04941145330667496
40,0.25,0.001,0.030863417272872114,0.02796287291703072,16.25465076527697,0.011602177562653084,0.030417129397392273
41,0.25,0.001,0.030159723489208423,0.027201519843111647,16.577773520287046,0.011832814789641004,0.03316966723650694
42,0.25,0.001,0.029921618825260628,0.026763685126887992,17.69705687177942,0.012631732242526353,0.06498481519520283
43,0.25,0.001,0.02898866746653902,0.025423848961896086,19.977243220552484,0.014259274247360803,0.053109005093574524
44,0.25,0.001,0.02797627199361933,0.024256256032497325,20.84697110602196,0.014880065029280486,0.0640585608780384
45,0.25,0.001,0.027857149059468126,0.023965525222902604,21.808661805822496,0.015566496649409347,0.0754593163728714
46,0.25,0.001,0.02725509581889244,0.022994061456398762,23.87883653032019,0.017044137423497637,0.03350285766646266
47,0.25,0.001,0.026346824508398137,0.022011203413948098,24.296822202966567,0.017342485512467212,0.047816887497901917
48,0.25,0.001,0.025503800825235692,0.02125086433234367,23.83346204554781,0.0170117502109549,0.06569855660200119
49,0.25,0.001,0.025224467382786123,0.02095617060648634,23.919532491805704,0.01707318521899051,0.04188196547329426
50,0.25,0.001,0.02491128793422212,0.020655078100080184,23.851800675087787,0.01702483988228964,0.06136637553572655
51,0.0,0.001,0.020631079621454503,0.020631079621454503,22.849615299955328,0.016309504139868185,0.051827894523739815
52,0.02,0.001,0.020299204486481686,0.019936595072454596,25.400814827452315,0.018130488813313573,0.07863783650100231
53,0.04,0.001,0.01985295073307575,0.018989521811934227,30.241588430201755,0.021585716224269632,0.026229128241539
54,0.06,0.001,0.01974247170097016,0.018201253674131758,35.987430166690906,0.025686959433755107,0.028592722490429878
55,0.08,0.001,0.019914133077923286,0.01750589609938733,42.17425642622278,0.030102966756761444,0.04170345887541771
56,0.1,0.001,0.020245065516296852,0.01690302365162271,46.82200443998296,0.03342041715915986,0.04776971414685249
57,0.12,0.001,0.02090507832930443,0.016763393588839694,48.35416525982796,0.03451403658802852,0.03782736137509346
58,0.14,0.001,0.02113997016815429,0.01642946352032905,47.13871172641186,0.03364647517945172,0.05486712232232094
59,0.16,0.001,0.021270905997841916,0.016210738688390305,44.308087531556474,0.031626043919740526,0.074086575768888
60,0.18,0.001,0.021463950263692976,0.01650401898362535,38.604796795134845,0.027555172587533795,0.07161829993128777
61,0.2,0.001,0.021386419759785877,0.016665550503642,33.06968762012238,0.023604345196375717,0.03733529057353735
62,0.22,0.001,0.021275319713861384,0.016596194713356646,29.797521023040122,0.0212687516224412,0.05104503966867924
63,0.24,0.001,0.021522322273317802,0.01703697550011442,26.18321098165309,0.018688944312386217,0.06157655827701092
64,0.25,0.001,0.021407536805627195,0.017252706387575638,23.283672089272358,0.016619323404191547,0.05029862932860851
65,0.25,0.001,0.0210608525716878,0.01705039530358416,22.47460397760919,0.016041830105359877,0.03197547420859337
66,0.25,0.001,0.021228915555997097,0.017230230760067067,22.408633211825755,0.01599474176432959,0.04745167773216963
67,0.25,0.001,0.02069837433543611,0.01669382724039098,22.44148169172571,0.016018188216792083,0.03935255203396082
68,0.25,0.001,0.019812501491384304,0.015550494629968988,23.884288706678024,0.0170480290554447,0.044910989701747894
69,0.25,0.001,0.019987370501807395,0.015597051643627756,24.60334481584265,0.017561273958488686,0.029058861546218395
70,0.25,0.001,0.0196476779640355,0.015313675547850894,24.287749675994224,0.017336009761594735,0.08941111527383327
71,0.25,0.001,0.019463710764304122,0.015006274896416259,24.97947100375561,0.01782974375714176,0.06833295337855816
72,0.25,0.001,0.019274862007574833,0.014893140207896841,24.555168598256213,0.017526886936656827,0.050689118448644876
73,0.25,0.001,0.01936453679933193,0.015207245945930481,23.297457268897524,0.016629162932831922,0.07536738738417625
74,0.25,0.001,0.018663293900007896,0.014508444082705265,23.28378194443723,0.016619401816157908,0.018961274530738592
75,0.25,0.001,0.018514859985480917,0.014301228951266471,23.61318827689962,0.01685452410913606,0.03923928365111351
76,0.0,0.001,0.014197147471156525,0.014197147471156525,23.893644616958944,0.017054707078486043,0.044881509616971016
77,0.02,0.001,0.013815871162458937,0.01343760944585851,26.497235764848426,0.018913087626587027,0.033206802792847157
78,0.04,0.001,0.013811702225753602,0.012926949386266953,30.988481399860788,0.022118830406752884,0.03918234910815954
79,0.06,0.001,0.013668348457902036,0.012130453330563737,35.90985456426093,0.02563158784030045,0.016150304581969976
80,0.08,0.001,0.014578979541646673,0.012242479745219362,40.9179490272035,0.029206244844542113,0.022749217227101326
81,0.1,0.001,0.015063314797713402,0.011863612371714825,44.8278348395165,0.031997027008933976,0.03701146971434355
82,0.12,0.001,0.015136312515019103,0.011148012461180383,46.56341179381025,0.033235839967030875,0.032156385481357574
83,0.14,0.001,0.01585642085906039,0.01128985536621606,45.6982667801228,0.03261832032842456,0.03278970345854759
84,0.16,0.001,0.01625240867600796,0.011378868364114711,42.67394313406437,0.030459631073564863,0.05999671667814255
85,0.18,0.001,0.016290357058986703,0.011322296660472738,38.668068013292675,0.0276003340565972,0.021038695238530636
86,0.2,0.001,0.01642078654642435,0.011608175319084462,33.71234321594238,0.024063057256204414,0.033193268813192844
87,0.22,0.001,0.016828702881615212,0.012286573390852897,28.925108767570332,0.020646044801977396,0.031478638760745525
88,0.24,0.001,0.017077814312057293,0.012739121993171407,25.3271155661725,0.018077884058652748,0.023509036749601364
89,0.25,0.001,0.01692392942594721,0.012789885255884616,23.16718844149975,0.016536180186652212,0.014184084255248308
90,0.25,0.001,0.016933981170679662,0.013024392418880412,21.909337266962577,0.01563835636471276,0.05316697433590889
91,0.25,0.001,0.01706195963507003,0.013019535591469166,22.653745570081345,0.0161696970521637,0.06826192606240511
92,0.25,0.001,0.01706915538995824,0.012915605817862014,23.276492098544505,0.016614198500031766,0.09821329824626446
93,0.25,0.001,0.01678379252552986,0.012544535635475149,23.756794381648938,0.016957026682119156,0.03200828656554222
94,0.25,0.001,0.016756467521190643,0.012441875809367666,24.178972650081555,0.01725836734481196,0.051604749634861946
95,0.25,0.001,0.016657541406915544,0.012365513996399463,24.052520467879923,0.017168108827894307,0.031538862735033035
96,0.25,0.001,0.016587893498387744,0.01225154292076192,24.300911680180977,0.017345404482641668,0.03419955726712942
97,0.25,0.001,0.016531944235271597,0.012182206985481243,24.375923440811484,0.01739894606767415,0.04229446314275265
98,0.25,0.001,0.01669292191558696,0.012483087051263515,23.59191334501226,0.016839338576025882,0.03279350884258747
99,0.25,0.001,0.016526661654736135,0.01242990357840949,22.95823020123421,0.016387030835998722,0.0453193373978138
100,0.25,0.001,0.01715959628370214,0.01293384582993198,23.68110279326743,0.01690299985243928,0.03071646112948656
101,0.25,0.001,0.01675777977451365,0.012346070636301599,24.72321745689879,0.01764683615767223,0.0675902497023344
102,0.25,0.001,0.016490507989804795,0.012107464148009077,24.56257844478526,0.017532175906342085,0.04481408931314945
103,0.25,0.001,0.016313029730573615,0.011933931823265045,24.540464320081345,0.0175163913776455,0.04454238247126341
104,0.25,0.001,0.016441417263543354,0.012098053133392588,24.340212679923848,0.017373456588096966,0.048352088779211044
105,0.25,0.001,0.016227830280648902,0.012044546511420545,23.443120307110725,0.016733133695296734,0.04201586078852415
106,0.25,0.001,0.01635988005139726,0.01242046749734498,22.076465850180767,0.015757648715332452,0.03371002897620201
107,0.25,0.001,0.016181980160639643,0.012361747014554256,21.40858325552433,0.015280930232351414,0.026555012445896864
108,0.25,0.001,0.015728433438121005,0.0117993914383523,22.018350641778174,0.01571616748164038,0.0409002173691988
109,0.25,0.001,0.016036120441524273,0.012112254039087195,21.989346362174825,0.01569546492660587,0.03351412806659937
110,0.25,0.001,0.015963388250229207,0.012112990556720724,21.577630793794672,0.015401592286791343,0.048820026218891144
111,0.25,0.001,0.016263158873040626,0.01237344484221428,21.797957318894408,0.015558856044892511,0.01633483124896884
112,0.25,0.001,0.016224256062761268,0.01219618447283481,22.573311298451525,0.016112285009601376,0.062273647636175156
113,0.25,0.001,0.015729294257595183,0.011586551732839422,23.215930045919215,0.01657097076796518,0.03677418176084757
114,0.25,0.001,0.0160192562306815,0.011821734283040179,23.52290957024757,0.016790085346358008,0.044190119951963425
115,0.25,0.001,0.016041376687427784,0.011711675178338873,24.263651502893325,0.01731880906701879,0.04101939871907234
116,0.25,0.001,0.01594015714177426,0.011545308568376177,24.628731423235955,0.017579394306378268,0.030194413848221302
117,0.25,0.001,0.015846663907645865,0.011600400598600824,23.796062753555624,0.01698505549861215,0.03466195147484541
118,0.25,0.001,0.015731263588717643,0.011686389889330306,22.667474706122217,0.016179496578245692,0.036933016031980515
119,0.25,0.001,0.015916471904579628,0.011991447214274965,21.9958367449172,0.01570009760522284,0.018749477341771126
120,0.25,0.001,0.015207889192598932,0.011275865850930518,22.035059462202355,0.015728093834548432,0.07215566188097
121,0.25,0.001,0.01585458900700224,0.011977358958981138,21.727994959405127,0.01550891860057468,0.05982670374214649
122,0.25,0.001,0.01577662985692633,0.011851278847043819,21.99766625749304,0.015701403467161344,0.05047368351370096
123,0.25,0.001,0.015477414936461348,0.011381940975626732,22.95103470822598,0.01638189486668521,0.06155597139149904
124,0.25,0.001,0.015683828952147604,0.011592591498443421,22.92729223535416,0.01636494806235129,0.03710517566651106
125,0.25,0.001,0.01572052167451128,0.01167003687550413,22.698914020619494,0.01620193720244075,0.029762915335595608
126,0.25,0.001,0.015615538317472377,0.011583426590771117,22.595951242649807,0.016128444855567314,0.027208181098103523
127,0.25,0.001,0.015504356275530571,0.01151508602135359,22.355871403470953,0.01595708165843751,0.028837638441473246
128,0.25,0.001,0.015564437202633695,0.011574617487953064,22.3589507569658,0.015959279626670805,0.04105399735271931
129,0.25,0.001,0.015131357700583782,0.011107616879521533,22.549046780200715,0.016094965581870603,0.052763763815164566
130,0.25,0.001,0.015019507048294899,0.010876565715892518,23.217043896938893,0.016571765807950674,0.02992035634815693
131,0.25,0.001,0.015196146919055189,0.011107986000307064,22.91005422713909,0.016352643987965088,0.025297711603343487
132,0.25,0.001,0.014791360521253119,0.010937054839698559,21.599531741852456,0.01541722465514094,0.018875385634601116
133,0.25,0.001,0.015057654496520124,0.01143004180506823,20.329141008093004,0.014510450398353322,0.022913241758942604
134,0.25,0.001,0.015403220905585492,0.011850189377969883,19.911187476300178,0.014212125250749592,0.028654090128839016
135,0.25,0.001,0.015026390869566735,0.011347346285239179,20.617367318336,0.014716179384965026,0.04583816975355148
136,0.25,0.001,0.015289178672940173,0.011409418360191458,21.742176339981405,0.015519040927895364,0.03352660313248634
137,0.25,0.001,0.014958948511233989,0.010941334465082655,22.514708052290246,0.016070455426331367,0.0455350037664175
138,0.25,0.001,0.014687475015191322,0.010601516456363048,22.89771542650588,0.016343836849754375,0.017027633730322123
139,0.25,0.001,0.015087332933190022,0.010994267095118127,22.93754179934238,0.01637226395384895,0.06243976019322872
140,0.25,0.001,0.014910084373773412,0.01099221388551783,21.955745981094687,0.015671481785221045,0.0545522216707468
141,0.25,0.001,0.015169014321996811,0.011331624272180365,21.50473367406967,0.015349560081420178,0.031389967538416386
142,0.25,0.001,0.014562006940708515,0.010756101716864617,21.328292643770258,0.01522362073074251,0.014834153465926647
143,0.25,0.001,0.014863541726260743,0.011101313153321439,21.0835289650775,0.015048914321968239,0.0301184612326324
144,0.25,0.001,0.014743848366940275,0.011026287173971217,20.833214577208174,0.014870245950898055,0.04116418398916721
145,0.25,0.001,0.015141542921675013,0.011430813891297959,20.794924553404464,0.014842915455677704,0.02461277414113283
146,0.25,0.001,0.014575977512496584,0.010743290344451336,21.47837963510067,0.015330749204211755,0.029504532925784588
147,0.25,0.001,0.014733820182687424,0.010825101385249737,21.90445851265116,0.015634874027588265,0.017422263277694583
148,0.25,0.001,0.014947933442098028,0.010944067044778074,22.437669226463804,0.01601546697106624,0.025240903720259666
149,0.25,0.001,0.01484632266170167,0.010842286208842663,22.438620831104036,0.01601614620350038,0.045958468690514565
150,0.25,0.001,0.014922529776045617,0.010994587450268422,22.012187714272358,0.015711768532671203,0.0266738161444664
151,0.25,0.001,0.01451377782653621,0.01060940888016782,21.880084260981132,0.015617476274790244,0.027300978545099497
152,0.25,0.001,0.014909598243204838,0.010929805603116117,22.30275555874439,0.015919168849924618,0.0403621019795537
153,0.25,0.001,0.014673478663601774,0.01070470067652616,22.241033026512632,0.01587511279551223,0.03136102203279734
154,0.25,0.001,0.014731269864801397,0.010884110558223217,21.559480707696142,0.015388637193216375,0.040487684309482574
155,0.25,0.001,0.014675282734505673,0.010857940136276662,21.392388485847636,0.015269370796465122,0.023920420557260513
156,0.25,0.001,0.014531687575768917,0.01060824952227004,21.986949271344123,0.01569375394100223,0.013054305221885443
157,0.25,0.001,0.014331031075500428,0.01025323223005584,22.85198365881088,0.01631119461728114,0.03201556112617254
158,0.25,0.001,0.014989528428525366,0.011012996705447106,22.28448506619068,0.015906127813126822,0.014263931661844254
159,0.25,0.001,0.014944016695656676,0.011008777081015263,22.053083825618664,0.01574095919030597,0.02260582521557808
160,0.25,0.001,0.014652207434335922,0.010689066584281464,22.20944335612845,0.015852564850912527,0.018207902554422617
161,0.25,0.001,0.01483034132484426,0.010842804063824898,22.346159143650784,0.015950149281692208,0.022828010376542807
162,0.25,0.001,0.014831709417890995,0.010805983314330274,22.56017039684539,0.016102905351067374,0.03009840101003647
163,0.25,0.001,0.014508411644938145,0.010623403289850722,21.771588021136346,0.015540034276328583,0.014325813855975866
164,0.25,0.001,0.014397116179795975,0.010555749362770548,21.52701921665922,0.015365466964067966,0.021194892935454845
165,0.25,0.001,0.014563185063765404,0.010620636290850792,22.094042351905337,0.01577019439821937,0.04477977566421032
166,0.25,0.001,0.014086496619943609,0.010064220709845107,22.540834021061023,0.016089103512534633,0.03036296460777521
167,0.25,0.001,0.014441501943671957,0.01052324172664196,21.957930179352456,0.015673040813242296,0.039050374180078506
168,0.25,0.001,0.014225985438741267,0.010517646657659653,20.781532084688227,0.014833356234609726,0.02394201699644327
169,0.25,0.001,0.014131028244787075,0.010532837559251076,20.164260377275184,0.014392762581923757,0.029813216999173164
170,0.25,0.001,0.013886017368194904,0.0102825499872895,20.19383255978848,0.014413870492354375,0.041648740880191326
171,0.25,0.001,0.01448211058023128,0.010771294322578197,20.795412063598633,0.014843263428692815,0.01631785510107875
172,0.25,0.001,0.014004371267683963,0.01027747586448776,20.88552085389482,0.01490758090927539,0.021626434288918972
173,0.25,0.001,0.014218925835287317,0.010519343903882707,20.732456531930477,0.014798327289029606,0.023967630695551634
174,0.25,0.001,0.013755783676467043,0.010065202858853848,20.682014708823345,0.01476232313263622,0.011081989854574203
175,0.25,0.001,0.014043992841021811,0.010424668008976795,20.28269694713836,0.014477299748135873,0.033726347610354424
176,0.25,0.001,0.014431083039875994,0.010743213520246618,20.666822189980365,0.014751479079215108,0.01355359423905611
177,0.25,0.001,0.01380369542761052,0.01006479394879747,20.952802536335398,0.014955604950988863,0.05494443140923977
178,0.25,0.001,0.014286944642663002,0.010681972422815383,20.2022630813274,0.014419887995237258,0.016502641141414642
179,0.25,0.001,0.013983677379152876,0.010356340834752042,20.32759329613219,0.01450934567889521,0.048052944242954254
180,0.25,0.001,0.01408379980699813,0.010390793211124044,20.695608666602602,0.014772026171736332,0.031353747472167015
181,0.25,0.001,0.014151253717693877,0.010369311463325582,21.194006250259726,0.015127770342797806,0.06312894262373447
182,0.25,0.001,0.014005397525715066,0.010301413410838614,20.757125692164646,0.014815935540445857,0.03171359747648239
183,0.25,0.001,0.013682286849522845,0.010037980537782324,20.422691142305414,0.014577224227198725,0.02125616744160652
184,0.25,0.001,0.014043053295067016,0.010359892899051626,20.640429476474193,0.014732640597055098,0.0654455553740263
185,0.25,0.001,0.014051472986156636,0.010197189418559379,21.599403543675198,0.015417133150374874,0.05306447111070156
186,0.25,0.001,0.014242402773271216,0.010268681543938656,22.268735073982402,0.015894885848666954,0.05973909702152014
187,0.25,0.001,0.01422229825340687,0.010337036439871534,21.773007981320646,0.015541047809650712,0.0593573278747499
188,0.25,0.001,0.014240467326438173,0.010527774136751256,20.805933404476086,0.014850773307977221,0.05088255926966667
189,0.25,0.001,0.013823315620105317,0.010133299877510426,20.678848915911736,0.014760063466032645,0.04673033952713013
190,0.25,0.001,0.013897459518085135,0.010121548310556311,21.16020653095651,0.01510364491859851,0.051547231152653694
191,0.25,0.001,0.013614775177012099,0.009862567991652388,21.02736736865754,0.01500882752937726,0.04056117031723261
192,0.25,0.001,0.014154920156331772,0.010499320329820856,20.485981677440886,0.014622399484254736,0.03785014059394598
193,0.25,0.001,0.013844661949638357,0.01023456028246499,20.23101031526606,0.014440407077277702,0.02129668928682804
194,0.25,0.001,0.01416706159076792,0.010481800983085278,20.65220183514534,0.01474104342265906,0.048099370673298836
195,0.25,0.001,0.01376021857512124,0.009942990331415167,21.391749726965074,0.015268914865785205,0.03326444700360298
196,0.25,0.001,0.01406079176020749,0.01021079780494279,21.575368515988615,0.015399977527472245,0.04775889776647091
197,0.25,0.001,0.013723111037719758,0.009941135354815646,21.194192521115568,0.015127903298440805,0.03166765905916691
198,0.25,0.001,0.01380254524423087,0.01008971659664778,20.806694071343603,0.01485131625363569,0.05349590443074703
199,0.25,0.001,0.014194238177956418,0.010554761724903229,20.395626758007293,0.014557906322631901,0.05216538719832897
200,0.25,0.001,0.013405071452577064,0.009721467727200781,20.64291637501818,0.014734415685237817,0.018578043207526207
201,0.25,0.001,0.013415090700096272,0.009651472237198911,21.091319023294652,0.01505447467758362,0.026798884849995375
202,0.25,0.001,0.013383685274327055,0.009593125313837478,21.242297395746757,0.015162239397392403,0.019936577882617712
203,0.25,0.001,0.01389634179228798,0.010166688941102078,20.900976546267245,0.014918612809612595,0.020672805607318878
204,0.25,0.001,0.013072310808174153,0.009445435486416867,20.325009244553588,0.014507501245220263,0.012802979908883572
205,0.25,0.001,0.013111851752755489,0.009583985492428566,19.770163718690263,0.014111465894853863,0.008041324792429805
206,0.25,0.001,0.013523439797473715,0.010078952944976217,19.302904778338494,0.013777947736144535,0.03151901066303253
207,0.25,0.001,0.01331630103448604,0.009815107713988486,19.620686591939723,0.014004772728008368,0.026732941856607795
208,0.25,0.001,0.013772085626074609,0.010156233061818367,20.263239556170525,0.014463411531884744,0.015666817780584097
209,0.25,0.001,0.01355388915126628,0.009794597038404738,21.06707203641851,0.015037167763325131,0.012739114928990602
210,0.25,0.001,0.013282776314844476,0.009441275288291435,21.52777002212849,0.015366002870898279,0.01913705514743924
211,0.25,0.001,0.013463494189559146,0.009651197754639261,21.36410960745304,0.015249186015312664,0.0164381368085742
212,0.25,0.001,0.013300499304177914,0.009448494960335976,21.586634859125663,0.015408019171395905,0.019481409341096878
213,0.25,0.001,0.01337762176990509,0.009483233708491984,21.824153372581968,0.015577554156018535,0.038091208785772324
214,0.25,0.001,0.01304878369766347,0.009301845915615559,20.99784209880423,0.014987753104071543,0.022483070380985737
215,0.25,0.001,0.013666232255228023,0.010088253409621563,20.050994386064247,0.014311916050010169,0.03729304205626249
216,0.25,0.001,0.013395846484506384,0.009781593357787487,20.254276478544195,0.014457013903314915,0.016927998047322035
217,0.25,0.001,0.01331161711602769,0.009635259377512527,20.60230961251766,0.014705431557828452,0.025142078287899494
218,0.25,0.001,0.013433917247234507,0.009718634425959688,20.82044568974921,0.01486113182708723,0.024270220659673214
219,0.25,0.001,0.013159496353027668,0.00938582172656947,21.147674235891788,0.015094699668730756,0.031109163537621498
220,0.25,0.001,0.01316330482826588,0.009373131604429255,21.2401308911912,0.015160692998708923,0.028110637329518795
221,0.25,0.001,0.013232596258216716,0.009452282946477545,21.18487625933708,0.015121253575543956,0.026617578696459532
222,0.25,0.001,0.01330814260910166,0.009662123119577449,20.432293668706368,0.01458407827887678,0.02928257454186678
223,0.25,0.001,0.013023998707215836,0.0095026913951052,19.733407771333734,0.01408523038639096,0.018057473935186863
224,0.25,0.001,0.013511764737678336,0.010052006335017528,19.38848702451016,0.01383903427873673,0.031918599270284176
225,0.25,0.001,0.013249037807133603,0.009724715407541457,19.750304364143535,0.01409729076669774,0.027104226872324944
226,0.25,0.001,0.013323018228278515,0.009709842186024848,20.248236960553108,0.01445270304108002,0.03481964208185673
227,0.25,0.001,0.012808379221786844,0.009149399150083674,20.50492440893295,0.014635920348988545,0.019400938879698515
228,0.25,0.001,0.012886248310988254,0.009199928096000185,20.658138680965344,0.014745280999975264,0.01670329924672842
229,0.25,0.001,0.013220041197665195,0.009496273671058899,20.86799207646796,0.0148950692908408,0.04145335778594017
230,0.25,0.001,0.012885757622883675,0.009209818563404236,20.599963411371757,0.014703756896054073,0.013831721618771553
231,0.25,0.001,0.013091187428762304,0.009515003321018624,20.040936287413253,0.014304736821851,0.05404377728700638
232,0.25,0.001,0.013134578104190369,0.009652123410016932,19.515676173758,0.013929818824952176,0.030163869261741638
233,0.25,0.001,0.01283059689275762,0.009316508440261191,19.69295177053898,0.014056353869049949,0.07401665672659874
234,0.25,0.001,0.012885618756743187,0.009385627971843202,19.613950769952,0.013999964860779444,0.04553685337305069
235,0.25,0.001,0.01285871150011712,0.009359074300749505,19.61196595049919,0.013998548144539037,0.056225717067718506
236,0.25,0.001,0.013031022266504612,0.009451707428757181,20.05848097293935,0.014317259795103033,0.021361882332712412
237,0.25,0.001,0.012809141479591106,0.00921726826221702,20.128857227081948,0.014367492667438935,0.027841415256261826
238,0.25,0.001,0.012820736683429555,0.009293204787722293,19.76828851091101,0.014110127416781592,0.03853673301637173
239,0.25,0.001,0.012804754791741675,0.009281350854546466,19.745153630033453,0.014093614296954642,0.02030093315988779
240,0.25,0.001,0.012849342038339756,0.009235231839913004,20.2534754327003,0.014456442136117272,0.052409520372748375
241,0.25,0.001,0.013239235696481897,0.009604564966990593,20.368697308479472,0.014538684731248731,0.015238299500197172
242,0.25,0.001,0.012986720876490816,0.009422266618051428,19.975203412644408,0.014257818281687658,0.05503457598388195
243,0.25,0.001,0.01279070406676607,0.009304465290079725,19.536881710620637,0.013944954825567906,0.02791045978665352
244,0.25,0.001,0.012632494970680551,0.009151236629708017,19.508971437494804,0.013925033145963458,0.04041355662047863
245,0.25,0.001,0.0126331423983929,0.009080369560483923,19.90973712028341,0.014211090021615568,0.02821208070963621
246,0.25,0.001,0.012694212390070266,0.009159619602909747,19.80785909612128,0.014138371945839601,0.008830702863633633
247,0.25,0.001,0.012576078639385547,0.009049158999101912,19.76485861108658,0.01410767923703539,0.04000065475702286
248,0.25,0.001,0.012860895411923845,0.009411595900483589,19.329874363351376,0.013797197975268648,0.03523625386878848
249,0.25,0.001,0.012641591475682055,0.009225516698937467,19.14368118123805,0.013664297773902963,0.05322028696537018
250,0.25,0.001,0.012690041174596928,0.00931451362656786,18.91645447751309,0.013502108834770227,0.039212051779031754
251,0.25,0.001,0.012406107513828481,0.009092352709713135,18.57028153602113,0.013255018940771685,0.0240255412645638
252,0.25,0.001,0.012684605896789977,0.009355702457275796,18.655174701771838,0.013315613634383895,0.03465478401631117
253,0.25,0.001,0.012423658921839074,0.008996903935962535,19.203536824977146,0.013707021288349141,0.01352155115455389
254,0.25,0.001,0.012671956059304958,0.0091617170800554,19.67137925168301,0.014040955925541049,0.024672370636835694
255,0.25,0.001,0.012433483721093928,0.008852587695768539,20.067340972575735,0.01432358384909046,0.02582723367959261
256,0.25,0.001,0.012430821941729555,0.00886840987554256,19.9637568453525,0.014249647998110277,0.033997471909970045
257,0.25,0.001,0.012392712737176013,0.008959978184801466,19.23704370539239,0.013730937691215125,0.014690232928842306
258,0.25,0.001,0.012652014758675657,0.009274813386195518,18.925837171838637,0.013508805975616444,0.021434391848742962
259,0.25,0.001,0.012284322285113182,0.008836292364495867,19.322759668877783,0.013792119677999846,0.025368627160787582
260,0.25,0.001,0.012292058504325278,0.008843295157272765,19.32687110089241,0.013795054318981021,0.015268465504050255
261,0.25,0.001,0.01227315015932347,0.008826854618939948,19.313041321774747,0.013785182956298892,0.008985840249806643
262,0.25,0.001,0.012131115976483264,0.008727406131777358,19.074389356247924,0.013614838940933564,0.01935607846826315
263,0.25,0.001,0.012121618982959301,0.008772591644145072,18.76795139718563,0.013396110918762048,0.022794914431869984
264,0.25,0.001,0.012311493581596842,0.008990409328265394,18.611358155595497,0.013284338440824765,0.021391398273408413
265,0.25,0.001,0.012168266453800048,0.00879510353378793,18.90320530343563,0.013492651893958338,0.008634572848677635
266,0.25,0.001,0.012126303258094382,0.008707729881589717,19.157686761085024,0.013674294618904372,0.013791233533993363
267,0.25,0.001,0.012309630619401627,0.008820568726576388,19.552703086366044,0.013956247741874407,0.018026586156338453
268,0.25,0.001,0.012380060640738365,0.008826168551248438,19.916010552264275,0.014215567846013044,0.015864863991737366
269,0.25,0.001,0.012195072037742493,0.008605361896309447,20.116735823610995,0.014358840702077798,0.022156290244311094
270,0.25,0.001,0.012136266546997619,0.00859165278838036,19.864014199439517,0.014178454103811218,0.02539973985403776
271,0.25,0.001,0.012316498073174599,0.008868073113262653,19.324972112128076,0.01379369886661533,0.024283486418426037
272,0.25,0.001,0.012230028101104372,0.008879428055692227,18.776761399938707,0.013402399286180375,0.017794118262827396
273,0.25,0.001,0.012057542364965094,0.008742197020415296,18.579194008035863,0.013261380448276848,0.016769014298915863
274,0.25,0.001,0.012099132139949089,0.008749709682578736,18.770162907052548,0.013397689441150998,0.02446569874882698
275,0.25,0.001,0.01220256969966787,0.008711677827337321,19.562958534727706,0.013963567833495864,0.02256557811051607
276,0.25,0.001,0.012399322690164789,0.008823590947592512,20.038399310822182,0.014302925989166439,0.01923774927854538
277,0.25,0.001,0.012035186937514772,0.008469845366446262,19.980173800853972,0.014261366024877924,0.015930037945508957
278,0.25,0.001,0.012262578280840783,0.008827438280778997,19.25052427738271,0.013740559798274597,0.02708473987877369
279,0.25,0.001,0.01196157926336882,0.008641460137639908,18.605947494506836,0.013280476441475257,0.018765457440167665
280,0.25,0.001,0.012249049235214578,0.008928418020777245,18.608816877324532,0.013282524537704876,0.039228443056344986
281,0.25,0.001,0.0121362095579822,0.008793576957380518,18.73211503536143,0.013370531788266546,0.013878860976547003
282,0.25,0.001,0.012238536148946336,0.008873557929504425,18.857338073405813,0.013459912971738625,0.0334060974419117
283,0.25,0.001,0.011942109350669892,0.008481693929655755,19.39216877551789,0.013841662223781507,0.012546074111014605
284,0.25,0.001,0.012231260577731945,0.008669762693821116,19.958633463433447,0.014245991051701247,0.018512916285544634
285,0.25,0.001,0.012268975634682686,0.008643090011591607,20.319464582078,0.014503543598913635,0.02790576685220003
286,0.25,0.001,0.011699121802094136,0.008180221146408548,19.719917906091567,0.014075601646032524,0.017474111169576645
287,0.25,0.001,0.012039927567573303,0.00865404844838888,18.97446522814162,0.013543515509023284,0.04346870817244053
288,0.25,0.001,0.012097392845502559,0.008794048345310891,18.511942518518325,0.013213377957543414,0.022652672603726387
289,0.25,0.001,0.011801592946211074,0.008485727685880153,18.582107543945312,0.01326346005991814,0.029396414756774902
290,0.25,0.001,0.012084499338364347,0.00879951978617526,18.40902344723965,0.01313991680745157,0.019356410484761
291,0.25,0.001,0.011968803393872494,0.00865949844901866,18.545343967194253,0.013237219105777482,0.029982317239046097
292,0.25,0.001,0.011944534455208069,0.008522819053936512,19.17529256293114,0.013686861215511164,0.03027283400297165
293,0.25,0.001,0.012200455716315737,0.008696363208458778,19.63693484854191,0.014016370341571669,0.03380333259701729
294,0.25,0.001,0.01204245220473472,0.008544297373675286,19.60365887905689,0.01399261875735681,0.02037867158651352
295,0.25,0.001,0.011853886134129889,0.008394927301622451,19.384004795804938,0.01383583497202351,0.023354677483439445
296,0.25,0.001,0.011948392548142596,0.008530350144397705,19.154710485580118,0.013672170225253475,0.028452974744141102
297,0.25,0.001,0.011754144121833305,0.008359705335757833,19.022433909964054,0.013577754396833728,0.019205345772206783
298,0.25,0.001,0.011689812697945758,0.008270406362382656,19.16235485482723,0.013677626591596883,0.01798440609127283
299,0.25,0.001,0.011700421968039046,0.008286093421121861,19.133898633591674,0.013657315227403051,0.013514562975615263
300,0.25,0.001,0.011831207022546454,0.008406655288281594,19.191188406437,0.013698207285108495,0.019691959023475647
301,0.25,0.001,0.01170904629249522,0.008289401716691382,19.163687888612138,0.013678578078952276,0.008072919910773635
302,0.25,0.001,0.011881576375441348,0.008499500975805395,18.953149957859768,0.013528301183340306,0.011403096839785576
303,0.25,0.001,0.011503554444680823,0.00813438178614733,18.88084427853848,0.013476691133860443,0.026404814794659615
304,0.25,0.001,0.011758774479335926,0.008368365704379183,18.9998522007719,0.013561636117610208,0.025244356133043766
305,0.25,0.001,0.0118522283601317,0.008469531877323034,18.956632654717627,0.013530787048335208,0.010264690732583404
306,0.25,0.001,0.011836466478540543,0.008471665448172296,18.856346008625437,0.013459204859832574,0.010652132797986269
307,0.25,0.001,0.01167630689575317,0.00831465407254848,18.838701248168945,0.013446610455509597,0.00956126069650054
308,0.25,0.001,0.01175948367156881,0.008369764531070882,18.99598616742073,0.013558876636274612,0.021433250978589058
309,0.25,0.001,0.01163679040334326,0.008240833601101916,19.03094222697806,0.013583827428249864,0.01315916609019041
310,0.25,0.001,0.011789671204825665,0.008402544430437241,18.981460043724546,0.01354850823963208,0.028391591273248196
311,0.25,0.001,0.011584740647293151,0.008240673175834596,18.740154266357422,0.013376269997400016,0.016402132343500853
312,0.25,0.001,0.011610683925608371,0.00829537827125255,18.5789720657024,0.013261222031193717,0.023090926930308342
313,0.25,0.001,0.011453164246012556,0.008114664478504912,18.7089523558921,0.013353998826475448,0.021949380170553923
314,0.25,0.001,0.011514831235275623,0.008132576764105483,18.954152655094227,0.013529016884435564,0.02482473198324442
315,0.25,0.001,0.011486517721192633,0.008074527110983717,19.120794783247277,0.013647962015165794,0.022966021206229925
316,0.25,0.001,0.01129356732076787,0.00793323741155736,18.83129014360144,0.013441320587866838,0.029177933931350708
317,0.25,0.001,0.011618043414931348,0.008382284637302794,18.133191940632273,0.012943034932642592,0.016053327824920416
318,0.25,0.001,0.01140023809560436,0.008172379905714634,18.088915682853536,0.012911431608032502,0.03083048854023218
319,0.25,0.001,0.011482687805719833,0.008186408913040415,18.472348355232402,0.013185116599023841,0.01593249198049307
320,0.25,0.001,0.011442346855046902,0.008110420936916737,18.672112241704415,0.01332770324175904,0.014448112808167934
321,0.25,0.001,0.011518427686012805,0.008181838407874741,18.698245231141435,0.013346356339144494,0.014241036027669907
322,0.25,0.001,0.01156853329628072,0.008251209406459585,18.590283251823262,0.013269295682957361,0.030398692935705185
323,0.25,0.001,0.011370792370685872,0.008081699562992187,18.432077407836914,0.0131563721683347,0.015650241635739803
324,0.25,0.001,0.011418500221631628,0.008158536251396575,18.26883705626143,0.013039855143655552,0.015340829268097878
325,0.25,0.001,0.011398702503201808,0.008152258919274553,18.193069498589697,0.01298577408892912,0.013560407795011997
326,0.25,0.001,0.011350891136742652,0.008123718519160088,18.08507428270705,0.012908689709284119,0.00912845553830266
327,0.25,0.001,0.011333127724046403,0.008082363140234288,18.21728564323263,0.01300305898874563,0.010668413247913122
328,0.25,0.001,0.011323531495129808,0.008056624227778074,18.307747739426635,0.013067628650554343,0.009925243444740772
329,0.25,0.001,0.01142311831341779,0.008168912958353758,18.236567111725503,0.013016821635778374,0.011149306315928698
330,0.25,0.001,0.01155687761592104,0.008281735802425983,18.353894010503243,0.013100566745541215,0.018151613883674145
331,0.25,0.001,0.01141150646466524,0.00807039923173316,18.723565852388422,0.01336442958771479,0.011231157928705215
332,0.25,0.001,0.011476363134669496,0.008068282018475075,19.09888653045005,0.013632324432869413,0.015675929840654135
333,0.25,0.001,0.011340991455189724,0.007900544065744319,19.280268730001247,0.013761790670950211,0.01345245074480772
334,0.25,0.001,0.011636097122855644,0.008208911588534396,19.205948687614278,0.013708742817711833,0.024482400622218847
335,0.25,0.001,0.01131231147558131,0.007920988439086904,19.004976394328665,0.013565293643346656,0.03247808665037155
336,0.25,0.001,0.011400990842029135,0.008105234401498703,18.46941887064183,0.013183025603598738,0.009340775664895773
337,0.25,0.001,0.011255401563137136,0.008011934773481272,18.176385554861515,0.012973865492406506,0.011723351664841175
338,0.25,0.001,0.010892663586963999,0.007637344657423648,18.242807023068693,0.013021275533953386,0.03815138898789883
339,0.25,0.001,0.011416339236212538,0.008129434224138869,18.419816808497654,0.013147620848320952,0.01654525101184845
340,0.25,0.001,0.011369791119656664,0.008023948111432665,18.750106365122694,0.013383373565398067,0.04652070812880993
341,0.25,0.001,0.01150712549210863,0.00814478891961118,18.842534572520155,0.013449346589950145,0.02600261988118291
342,0.25,0.001,0.011571355084789561,0.00823561698594626,18.69347661606809,0.013342952616750956,0.05252976343035698
343,0.25,0.001,0.011443974569122842,0.008169171093229918,18.35199806538034,0.013099213465653348,0.04191227024421096
344,0.25,0.001,0.01151174711103135,0.008285648030962081,18.07906057479534,0.012904397269661198,0.03719685040414333
345,0.25,0.001,0.011174054380427016,0.007898865881910983,18.354159010217543,0.013100755895944,0.015532920137047768
346,0.25,0.001,0.011321343243756193,0.007994804392628212,18.641923985582718,0.013306155592849906,0.030457003973424435
347,0.25,0.001,0.011336736519761543,0.007974432612908013,18.842348950974486,0.013449214097769084,0.017578477505594492
348,0.25,0.001,0.011272720655703799,0.007863940552194068,19.10280467094259,0.013635121107025402,0.02500281296670437
349,0.25,0.001,0.011315530641598905,0.007871000135832645,19.303149121872924,0.01377812214266447,0.015180676244199276
350,0.25,0.001,0.010915154274156753,0.007495779880976423,19.162173372633912,0.013677497053985662,0.01728252647444606
351,0.25,0.001,0.011035873336677856,0.00774068415085686,18.466239685707905,0.013180756378092722,0.011428367346525192
352,0.25,0.001,0.011175524899141585,0.007995879802694346,17.818729522380423,0.01271857924509666,0.019456361420452595
353,0.25,0.001,0.011205294585608422,0.007959857117384672,18.187432552905793,0.012981750573094785,0.019787275232374668
354,0.25,0.001,0.010931601906393437,0.007638616249599355,18.453893255680164,0.013171943794204256,0.016558579169213772
355,0.25,0.001,0.010937910903482995,0.007749968703756941,17.865228003643928,0.01275176873921765,0.014068151358515024
356,0.25,0.001,0.01132939117861555,0.008250474157009987,17.254253955597573,0.012315670203852658,0.02798286732286215
357,0.25,0.001,0.011221243266729599,0.008097809214303468,17.503726796900974,0.012493737899286919,0.021715275943279266
358,0.25,0.001,0.0111245222865267,0.007840598180414514,18.40310916494816,0.013135695335437658,0.026881600730121136
359,0.25,0.001,0.011067030079504277,0.007693961827441099,18.90267400538668,0.013492272666228893,0.016438628546893597
360,0.25,0.001,0.011110354492321927,0.007753798817383482,18.81013801250052,0.013426222706995375,0.028598754666745663
361,0.25,0.001,0.011058030531127402,0.007751622950618571,18.529107154683864,0.01322562966073081,0.016873567597940564
362,0.25,0.001,0.010971615526904451,0.007679992494113902,18.44625578535364,0.013166492352143925,0.02156280353665352
363,0.25,0.001,0.010940917470353716,0.007683141117400312,18.256579094744744,0.01303110570645592,0.019036035053431988
364,0.25,0.001,0.010819450952112675,0.007552435542357729,18.30835484443827,0.01306806198746486,0.03952629305422306
365,0.25,0.001,0.010856063759073298,0.007607336582100772,18.20586695569627,0.012994908605065145,0.024446715600788593
366,0.25,0.001,0.01099036289180847,0.007776283302364197,18.011704505758082,0.012856320132589638,0.059971341863274574
367,0.25,0.001,0.010862372300409257,0.007691928026999565,17.767172184396298,0.012681778861096572,0.013887790031731129
368,0.25,0.001,0.01124045561919821,0.008046570620400475,17.89853124415621,0.012775539788833841,0.05543544888496399
369,0.25,0.001,0.01094776738752076,0.007707637199696074,18.15769073810983,0.012960521583233284,0.04294099658727646
370,0.25,0.001,0.011116080382402907,0.007863244774969334,18.22889190024518,0.013011343254992992,0.039928244426846504
371,0.25,0.001,0.011023542823943687,0.007758210432973314,18.298924588142558,0.013061330898031805,0.025787157006561756
372,0.25,0.001,0.010874869123576804,0.007532834610406389,18.72876102366346,0.013368137775634161,0.010221888776868582
373,0.25,0.001,0.010851561072024894,0.007471955757825933,18.939306705556017,0.013518420203822996,0.016211620066314936
374,0.25,0.001,0.011120722569683765,0.007762973682281185,18.816827855211624,0.013430997755325927,0.05011097341775894
375,0.25,0.001,0.01095816615889681,0.0076653768625506696,18.452791335734915,0.013171157270331845,0.019803291652351618
376,0.25,0.001,0.01086718593030534,0.00761879610016625,18.203977990657727,0.012993560307393095,0.031164024025201797
377,0.25,0.001,0.010745721512493934,0.007498510598026691,18.19737117848498,0.012988844524257658,0.014810563996434212
378,0.25,0.001,0.011032193978416158,0.007753752944792839,18.372382671275037,0.013113763505549634,0.03273321874439716
379,0.25,0.001,0.010647911221740093,0.0072850695553612205,18.845364428581075,0.013451366472934385,0.017131895758211613
380,0.25,0.001,0.010775516582454773,0.007426806705746245,18.766169527743724,0.01339483906334313,0.01962510636076331
381,0.25,0.001,0.010915496802710473,0.007723131335954717,17.89001801673402,0.012769463252486811,0.012409367132931948
382,0.25,0.001,0.010928331577080362,0.00787120084575516,17.13215978094872,0.012228522327586522,0.024278830736875534
383,0.25,0.001,0.010868669348828335,0.007793685322270748,17.232208373698782,0.012299934599356733,0.02995636872947216
384,0.25,0.001,0.010828692426389836,0.007626675643977967,17.94409962917896,0.01280806540269733,0.01786044565960765
385,0.25,0.001,0.010695003963848378,0.007400470974042695,18.462561708815553,0.013178131126920452,0.022395270876586437
386,0.25,0.001,0.010731108585729244,0.007443173818210972,18.425586132293052,0.013151738852457568,0.016922954935580492
387,0.25,0.001,0.010653709913504885,0.007433865140093134,18.044008660823742,0.01287937805911759,0.016255964059382677
388,0.25,0.001,0.010832512156760439,0.007692308145317625,17.597703000332448,0.012560815846061705,0.022106763906776905
389,0.25,0.001,0.010631002485752106,0.0075417019208853546,17.312440141718437,0.01235720209972765,0.01948819262906909
390,0.25,0.001,0.010795499752969184,0.007667008846839692,17.532064559611868,0.012513964710643732,0.057390203699469566
391,0.25,0.001,0.0108480988506307,0.0076664030611356525,17.83022369222438,0.012726783506227251,0.027230663690716028
392,0.25,0.001,0.010854821592727874,0.007596473308636787,18.259784333249357,0.013033393528372132,0.03130819741636515
393,0.25,0.001,0.010722282203905125,0.007392985884972075,18.65737841991668,0.013317186595229607,0.025408447720110416
394,0.25,0.001,0.010884057334128847,0.0075779816413179355,18.52724781442196,0.013224302508509606,0.034742871299386024
395,0.25,0.001,0.010712228041697056,0.007424591188418104,18.423917932713284,0.013150548131843886,0.012321272399276495
396,0.25,0.001,0.010687262652085182,0.00738936490280197,18.4814195835844,0.01319159142297245,0.04532718099653721
397,0.25,0.001,0.010708938828332628,0.007435335708346138,18.345273525156873,0.01309441365107557,0.024235849734395742
398,0.25,0.001,0.010984726408694653,0.007720961790294089,18.290136540189703,0.013055058201420201,0.040026986971497536
399,0.25,0.001,0.010958664852412456,0.007719133683341615,18.154333317533453,0.012958125137425733,0.013769061770290136
400,0.25,0.001,0.010667802567811722,0.007444300223141909,18.064509614985038,0.012894011145599599,0.03340410906821489
401,0.25,0.001,0.010892247860418989,0.007683594255371296,17.98129345508332,0.012834613458303584,0.023556276690214872
402,0.25,0.001,0.010765816421901926,0.007553620957472223,18.00114367870574,0.012848782069026225,0.02307822648435831
403,0.25,0.001,0.010825138816491086,0.007601447126015704,18.06556868045888,0.012894767080984212,0.027932772412896156
404,0.25,0.001,0.01068166094495261,0.007398525332199766,18.39869373402697,0.013132543707371143,0.011440167669206858
405,0.25,0.001,0.010680680698219766,0.0073856308342928586,18.465458119169195,0.013180198514753173,0.029879882000386715
406,0.25,0.001,0.010634193177077365,0.0073451044216276485,18.432051597757543,0.01315635374572273,0.014317879918962717
407,0.25,0.001,0.010734773894890826,0.007478179885668957,18.24995251919361,0.013026375816697794,0.03224069345742464
408,0.25,0.001,0.010679894741228286,0.007466880386655635,18.005732150788003,0.012852057209698788,0.01975484425202012
409,0.25,0.001,0.010517801930929752,0.0072296530483885015,18.42678828949624,0.01315259692326641,0.03030756302177906
410,0.25,0.001,0.010682921262180551,0.00736293185779706,18.605219496057387,0.013279956813745459,0.013843643479049206
411,0.25,0.001,0.01065993162387229,0.007391160571987325,18.318194612543632,0.013075085376547916,0.041134003549814224
412,0.25,0.001,0.010720247957617678,0.007485504083810968,18.127506418431057,0.01293897674406214,0.018547256477177143
413,0.25,0.001,0.010864152414526077,0.007678085640865437,17.85471611834587,0.012744265609097694,0.030144039541482925
414,0.25,0.001,0.010743847552766191,0.007547515910118818,17.912242037184694,0.012785326222116127,0.02380499243736267
415,0.25,0.001,0.010774783988265282,0.007529346391241601,18.187432715233335,0.012981750688960268,0.023524532560259104
416,0.25,0.001,0.010679746542046679,0.007383334470239092,18.4730922211992,0.01318564755260471,0.021511996164917946
417,0.25,0.001,0.010470680515975394,0.007119734137457736,18.778702066299765,0.013403784487009112,0.02597852051258087
418,0.25,0.001,0.010787305778803978,0.007462198846042156,18.63390029744899,0.013300428477836537,0.016771100461483
419,0.25,0.001,0.010392320124392814,0.007155148094480342,18.14111344357754,0.01294868911033372,0.027075341437011957
420,0.25,0.001,0.01082508743522649,0.007656393374534364,17.757360742447226,0.012674775690540489,0.01936997566372156
421,0.25,0.001,0.010544100221484266,0.007377452147688637,17.745898104728536,0.012666593936280182,0.017047875560820103
422,0.25,0.001,0.010859880318984072,0.0076349798609760215,18.072344029203375,0.012899603161458512,0.04129062034189701
423,0.25,0.001,0.010648755178331061,0.007392979643129288,18.245365670386782,0.013023101834680072,0.020030640996992588
424,0.25,0.001,0.010675493687232758,0.0073928091516520114,18.396163128791972,0.013130737422406832,0.02459847228601575
425,0.25,0.001,0.010534187818461277,0.00724015834721479,18.459738995166536,0.013176116342017513,0.018634562380611897
426,0.25,0.001,0.010624808041339225,0.007374386035619264,18.215366282361618,0.013001688995261683,0.027749856933951378
427,0.25,0.001,0.010411231560592956,0.007199326272499054,17.99951877999813,0.012847622255530428,0.010165263433009386
428,0.25,0.001,0.010493846808342224,0.00730173134225163,17.888615141523644,0.012768461914006884,0.029405193403363228
429,0.25,0.001,0.010425857545689065,0.007258754065062137,17.748447174721576,0.01266841340094331,0.017890045419335365
430,0.25,0.001,0.010463178910790606,0.007339116433595723,17.50724739724017,0.012496250818872356,0.011337556410580873
431,0.25,0.001,0.010388941107753744,0.007257906947919029,17.546317973035446,0.01252413845327298,0.011815916746854782
432,0.25,0.001,0.010397391215442343,0.007234907005616325,17.722560557913273,0.01264993615839634,0.01565959956496954
433,0.25,0.001,0.010411918579422414,0.007215779502578872,17.91116470986224,0.012784557251864555,0.01170965377241373
434,0.25,0.001,0.010208653840929904,0.006992894284268643,18.021117352424785,0.012863038795449526,0.011024623177945614
435,0.25,0.001,0.01030437117244335,0.007094556247775859,17.98780246491128,0.012839259432484854,0.01269434578716755
436,0.25,0.001,0.010285213332068412,0.0071195117396084555,17.74059206374148,0.012662806612235176,0.010930456221103668
437,0.25,0.001,0.010324863419729345,0.007196414076346666,17.531828860019115,0.012513796473960824,0.023240722715854645
438,0.25,0.001,0.010346955916983015,0.00724633934689646,17.37585469509693,0.012402465878013512,0.019030061084777117
439,0.25,0.001,0.010386077706959653,0.007296663461292678,17.313077601980655,0.012357657103483695,0.022080549504607916
440,0.25,0.001,0.010185149359576245,0.007086302342012208,17.36594098679563,0.012395389712202448,0.008505019126459956
441,0.25,0.001,0.010404282031541175,0.0072681248742849265,17.57502572079922,0.012544629351034418,0.01375929219648242
442,0.25,0.001,0.010175328899888283,0.007001396268606186,17.786719991805704,0.012695731614422345,0.01121259294450283
443,0.25,0.001,0.010182352776223041,0.006994376533684578,17.865416547085378,0.012751903316977429,0.01599742705002427
444,0.25,0.001,0.010207817632150142,0.0070314618283288275,17.800299989416246,0.012705424689090824,0.013238036539405584
445,0.25,0.001,0.01003877339052393,0.006902097120009204,17.577935442011405,0.012546706239836834,0.010336726438254118
446,0.25,0.001,0.010358360219509043,0.007289148064607636,17.19986489478578,0.01227684860441526,0.01082998444326222
447,0.25,0.001,0.010322158264511444,0.007275614917199028,17.072827684118394,0.012186172508292929,0.0245390422642231
448,0.25,0.001,0.010155920434663904,0.007038790673176025,17.46839450268035,0.012468518560085903,0.014165946282446384
449,0.25,0.001,0.010281975341445588,0.00706088860974984,18.050970889152364,0.012884347529730453,0.020374341867864132
450,0.25,0.001,0.010308358838107991,0.007029980896635258,18.37203135388963,0.01311351274367568,0.025286832824349403
451,0.25,0.001,0.010387098218532318,0.007145237187518084,18.167390011726543,0.01296744469073986,0.017449975945055485
452,0.25,0.001,0.010308099910616875,0.007116608618897327,17.88511828158764,0.012765965939748495,0.013885966502130032
453,0.25,0.001,0.010336432328566592,0.007158745100047994,17.807760603884432,0.012710749895706233,0.020869793836027384
454,0.25,0.001,0.010355066983623708,0.00719515217388881,17.70815975108045,0.012639657209907531,0.014299141243100166
455,0.25,0.001,0.010440631155320939,0.007249910136724406,17.880801261739528,0.012762884555131712,0.019988857675343752
456,0.25,0.001,0.010197413431361635,0.006951516504062617,18.19000804170649,0.012983588894865446,0.012328428216278553
457,0.25,0.001,0.010258545187559533,0.007003077989483767,18.243638505326942,0.013021869025929295,0.021083236671984196
458,0.25,0.001,0.01017271868012687,0.006982530675273627,17.87781467843563,0.012760752804022576,0.023866980336606503
459,0.25,0.001,0.010339874774217606,0.007275823087609829,17.170945593651304,0.012256206704961673,0.024314251728355885
460,0.25,0.001,0.010114222626261254,0.007112561199972604,16.8213096375161,0.012006644994658174,0.017154515255242586
461,0.25,0.001,0.010178662717659423,0.007155231081266353,16.943313395723383,0.012093728333849666,0.014057378750294447
462,0.25,0.001,0.010330861810832582,0.007232057366599428,17.365699524575092,0.012395217362294856,0.01523240003734827
463,0.25,0.001,0.010453834138969158,0.007259207539894479,17.902687275663336,0.01277850626385677,0.015190666075795889
464,0.25,0.001,0.010101685042869537,0.006829155192888798,18.339258924443673,0.013090120574192485,0.01632308540865779
465,0.25,0.001,0.01021333577785086,0.0069635648855028,18.21171577940596,0.012999083354322599,0.014022637158632278
466,0.25,0.001,0.010146008784625125,0.006973029827659434,17.781373977661133,0.01269191575850188,0.015310695860534906
467,0.25,0.001,0.010078439013438021,0.006966794187084157,17.437656159096576,0.012446578272017542,0.02085616998374462
468,0.25,0.001,0.010134462504944902,0.006967393612053166,17.74825388319949,0.012668275434118121,0.019230608828365803
469,0.25,0.001,0.01025035799025221,0.007006154247024592,18.180516587926988,0.012976814124144889,0.01599948387593031
470,0.25,0.001,0.01024350127641191,0.007053780636968131,17.875194346651117,0.012758882474411933,0.02495242329314351
471,0.25,0.001,0.009954440863208567,0.00686091566062037,17.336117358917885,0.012374102326136963,0.03179324138909578
472,0.25,0.001,0.009977941757979546,0.00696282481100965,16.896715894658517,0.012060468161783381,0.01849235501140356
473,0.25,0.001,0.010140728324334672,0.0071308952954379804,16.867104753534843,0.012039332443636575,0.04043165221810341
474,0.25,0.001,0.009905906255416413,0.006851220800680049,17.118458808736598,0.012218742904166023,0.00955994101241231
475,0.25,0.001,0.010128379244595132,0.00701465317979455,17.449322030899374,0.012454905089863936,0.028518241830170155
476,0.25,0.001,0.010038973010600881,0.006901740730601422,17.581050507565763,0.012548929698476633,0.01710170228034258
477,0.25,0.001,0.010081829423917102,0.006977022724582794,17.399335374223426,0.012419225820287956,0.01790786674246192
478,0.25,0.001,0.010286807756316154,0.007169705577828782,17.468238749402634,0.012468407387153914,0.013224925845861435
479,0.25,0.001,0.009897348312462898,0.006729713918522317,17.75142365313591,0.012670537939426059,0.0226999344304204
480,0.25,0.001,0.010174755720382041,0.007000938156976345,17.786074739821412,0.012695271049123064,0.02504022605717182
481,0.25,0.001,0.010252807229915832,0.007072231405355195,17.82394713543831,0.012722303451419208,0.02297722827643156
482,0.25,0.001,0.010010563510846584,0.006849883669155075,17.712451407249937,0.012642720490542424,0.015775184612721205
483,0.25,0.001,0.010211523820428139,0.007084733766919755,17.522533376166162,0.01250716158184594,0.015739144291728735
484,0.25,0.001,0.01011427416604884,0.006952998961539979,17.715786467207238,0.012645100975879542,0.019308874383568764
485,0.25,0.001,0.01027625404853136,0.007105212153351688,17.770518120298995,0.012684167109421125,0.018035962712019682
486,0.25,0.001,0.010262564220961104,0.007149096310852056,17.44787431270518,0.012453871743544027,0.011476603802293539
487,0.25,0.001,0.010118468268279066,0.007039768958186849,17.253028788465134,0.012314795709111445,0.016434112098068
488,0.25,0.001,0.01016042468712685,0.007053869548550946,17.4091350880075,0.012426220619562812,0.014575893059372902
489,0.25,0.001,0.010197036800549385,0.006989860629781764,17.97301377641394,0.012828703623421799,0.022293529007583857
490,0.25,0.001,0.010167102686109696,0.006923205714593542,18.17879847262768,0.012975587774894846,0.013944922480732203
491,0.25,0.001,0.010006817751266855,0.006816387780882577,17.879171330878076,0.012761721149805907,0.015200107358396053
492,0.25,0.001,0.010031993679226713,0.006936440997301264,17.347476269336457,0.012382210042352931,0.021972824819386005
493,0.25,0.001,0.010236960439447393,0.007169180906357917,17.191834997623523,0.012271117057547127,0.020860881078988314
494,0.25,0.001,0.01001810767945457,0.006913857782219953,17.396218969466837,0.012417001405757914,0.010488349478691816
495,0.25,0.001,0.010203879009535972,0.007059658659582442,17.620212514349756,0.012576882594111174,0.020345901139080524
496,0.25,0.001,0.009963678691456927,0.006757190777979633,17.969158253771194,0.0128259516443763,0.01687009632587433
497,0.25,0.001,0.009992352369776431,0.006766240162021936,18.07913512371956,0.012904450480884767,0.03122717421501875
498,0.25,0.001,0.010176375983877385,0.007038004458584684,17.58743562089636,0.012553487238327167,0.029143824242055416
499,0.25,0.001,0.0100374014929254,0.006915105407700893,17.497346918633642,0.012489184096098246,0.03361272858455777
500,0.25,0.001,0.010153330268060907,0.006943175915945718,17.989705593027967,0.012840617839420391,0.048994507640600204
