epoch,beta,learning_rate,train_loss,train_reconstruction_loss,train_kl_unnormalized,train_kl_normalized,mean_unclipped_gradient_norm
1,0.0,0.001,0.08912508362445279,0.08912508362445279,14.083890006162118,0.010052740903755974,0.09935208989514245
2,0.02,0.001,0.06912156485992929,0.06567222517037737,241.62619018554688,0.17246694517169656,0.11412828663984935
3,0.04,0.001,0.05033337427438169,0.04309152347454126,253.64579894577247,0.18104625192417736,0.13050220244460636
4,0.06,0.001,0.039382050866666046,0.03474211703608002,108.34244559467703,0.0773322238363148,0.09039976447820663
5,0.08,0.001,0.03684439445319383,0.03363283183695613,56.24249637990758,0.04014453703062639,0.06729755943848027
6,0.1,0.001,0.03493316336602405,0.032420692992383156,35.19970611903978,0.025124701012876362,0.06850701508422692
7,0.12,0.001,0.0333019286070181,0.031247788905233578,23.98208499300307,0.01711783368522703,0.062355714125765696
8,0.14,0.001,0.03108343805955804,0.028765430404008297,23.196632938108582,0.016557196957964728,0.04665534177588092
9,0.16,0.001,0.028455333298315174,0.025719420336510822,23.95633940765823,0.01709945710753621,0.027760512402488127
10,0.18,0.001,0.026846334662126457,0.023635839881456417,24.98834996983625,0.017836081348919522,0.028972553813623056
11,0.2,0.001,0.025701067450901737,0.02253289275087308,22.19306370831918,0.015840873453475502,0.01884242643912633
12,0.22,0.001,0.02466207086716009,0.021314652609652367,21.316968143850133,0.01521553757591016,0.017483928965197668
13,0.24,0.001,0.024135198957030323,0.020589161178340084,20.69999559374823,0.014775157454495525,0.03645714900145928
14,0.25,0.001,0.023487089984658836,0.01988756710636443,20.171725038169086,0.01439809067678022,0.03313642150412003
15,0.25,0.001,0.023048553750782772,0.01939162363608678,20.49343744913737,0.014627721234216538,0.02945440790305535
16,0.25,0.001,0.022608227865851444,0.01902410903594632,20.085402364316195,0.014336475634772444,0.05171377325637473
17,0.25,0.001,0.02159568095120831,0.01801441615258438,20.069408389105313,0.014325059521131557,0.05650965745250384
18,0.25,0.001,0.02104715403655301,0.017584970571856567,19.402075256126516,0.013848733230639912,0.048322186080945864
19,0.25,0.001,0.020497098970024483,0.0168401888585177,20.493324169214223,0.014627640377740345,0.026950261555612087
20,0.25,0.001,0.02050431331862574,0.01701617826694164,19.547510147094727,0.013952541147105443,0.06065832492378023
21,0.25,0.001,0.020156886644553448,0.016698748737141705,19.379404454991437,0.01383255135973693,0.06232714497794708
22,0.25,0.001,0.019810780531902245,0.01636819503661515,19.292249154353488,0.013770342008817622,0.03800475359376934
23,0.25,0.001,0.01955008315111416,0.016176683234347813,18.904534602510758,0.013493600715567993,0.022565443793104753
24,0.25,0.001,0.01945740807855475,0.016016594998106575,19.282316152600274,0.013763252071806047,0.018708138002289668
25,0.25,0.001,0.019350574689282887,0.015884612201024658,19.423253819562387,0.013863849978274365,0.03157898566375176
26,0.0,0.001,0.015143762072683245,0.015143762072683245,25.78309620290563,0.01840335203633521,0.03053538625439008
27,0.02,0.001,0.01449379597561083,0.013777515149094921,50.175478230351985,0.03581404584607565,0.0326940082013607
28,0.04,0.001,0.014885982700988003,0.012975859455764294,66.90207119264464,0.04775308436305827,0.025326276508470375
29,0.06,0.001,0.015370092800130014,0.012897762780388197,57.72890920224397,0.041205502642572424,0.02499701227578852
30,0.08,0.001,0.015491269164435242,0.013222749371999416,39.727456853009656,0.028356500251969775,0.023551875570168097
31,0.1,0.001,0.015831767392439255,0.013560995675515438,31.81351103298906,0.022707716654524666,0.020487154885712597
32,0.12,0.001,0.016135971183362213,0.013436887048832748,31.511810523876246,0.02249237010983315,0.012623804828359021
33,0.14,0.001,0.016483322055875393,0.013553920323434084,29.31494082575259,0.020924297520166016,0.025178851042356756
34,0.16,0.001,0.01681143172301244,0.013706052095453808,27.19148237808891,0.019408624109984948,0.027973322818676632
35,0.18,0.001,0.017066125393561695,0.01380508314764154,25.38177658855051,0.01811689977769487,0.02037561498582363
36,0.2,0.001,0.017259209619268127,0.013916973470021849,23.41236614835435,0.01671118211873972,0.028910367025269404
37,0.22,0.001,0.01759290954341059,0.014081686006292053,22.36010996500651,0.01596010704140365,0.04116105350355307
38,0.24,0.001,0.01780426612906698,0.014138417966339899,21.39939004096432,0.015274368337590521,0.03138951543304655
39,0.25,0.001,0.017810493950610577,0.014118216162466484,20.69152442268703,0.014769110936964334,0.01961685251444578
40,0.25,0.001,0.017550889375633087,0.013986608688382135,19.974228789840918,0.01425712261944391,0.016699974839058187
41,0.25,0.001,0.017520244759709938,0.013987928655916367,19.795100861701414,0.014129265425911074,0.012761278181440301
42,0.25,0.001,0.017406185845965923,0.01387404481731895,19.794120346290477,0.014128565557666293,0.014434072137292888
43,0.25,0.001,0.01724392445623011,0.013774966281177341,19.44004249572754,0.013875833330283754,0.020325435015062492
44,0.25,0.001,0.017145431506029075,0.013689765328730362,19.365551464799523,0.013822663429549981,0.013319775358670287
45,0.25,0.001,0.017068658051067505,0.013627388798024343,19.284874542899754,0.013765078189079053,0.013815249316394329
46,0.25,0.001,0.016992804256902225,0.01368001093952984,18.56489366724871,0.01325117321002763,0.01777036741582884
47,0.25,0.001,0.016862727080782253,0.01347550911747891,18.981971160225246,0.013548873062259277,0.022079693774382275
48,0.25,0.001,0.016948551803395367,0.013658494850539642,18.43747995901799,0.01316022837902783,0.02269508544769552
49,0.25,0.001,0.016789208071819252,0.013322347532147947,19.428285460541215,0.013867441442213573,0.02961158886965778
50,0.25,0.001,0.01670392967112686,0.013428245090704033,18.356938873512156,0.013102740095297756,0.019838651331762474
51,0.0,0.001,0.012675253161485645,0.012675253161485645,25.182679936505746,0.017974789390796393,0.023535202981697187
52,0.02,0.001,0.012270531077207863,0.011561100978566252,49.69558312236399,0.035471508295763024,0.018004321131027408
53,0.04,0.001,0.012872676216605781,0.011118883334532164,61.42660080177197,0.04384482569719626,0.016826487560239103
54,0.06,0.001,0.013219795837674452,0.011157958714318449,48.14389883953592,0.03436395349003278,0.013273088520185815
55,0.08,0.001,0.013478032839686974,0.011596442605166332,32.95135055763134,0.023519879056125157,0.010655564204272296
56,0.1,0.001,0.013732059548298517,0.011720833868004274,28.17727047464122,0.020112255870550478,0.009490416385233402
57,0.12,0.001,0.014129443782503191,0.011677590050343155,28.625389956045844,0.020432112745214736,0.01537613606908255
58,0.14,0.001,0.014359911039903544,0.011751880815279657,26.09893088409866,0.018628787212061855,0.017358206626441743
59,0.16,0.001,0.014752356443500174,0.012026471355794996,23.868531627931457,0.017036782032784765,0.01521045652528604
60,0.18,0.001,0.015056770132935566,0.012039638704795769,23.483336932417274,0.016761839352189344,0.01876158096517126
61,0.2,0.001,0.015311749341587225,0.012189181737493778,21.873585659524668,0.015612837729853439,0.021950417715642188
62,0.22,0.001,0.015496317459189373,0.01227570400721785,20.5094515759012,0.01463915173154975,0.018104420509189367
63,0.24,0.001,0.01566739307473535,0.012378783586124579,19.19725749803626,0.013702539256271422,0.01278690890305572
64,0.25,0.001,0.015838628850769306,0.012403552555411623,19.250170251597527,0.013740307103210227,0.02689123505519496
65,0.25,0.001,0.015751637896333916,0.012511164732817291,18.159612130427707,0.012961893026714993,0.017460954530785482
66,0.25,0.001,0.01576041333053423,0.012453088307402271,18.534250480541285,0.013229300842641888,0.01763173896405432
67,0.25,0.001,0.015606863424181938,0.01238088290868462,18.078395097152047,0.01290392226777448,0.021629709026051894
68,0.25,0.001,0.015418721794866133,0.012211515676176203,17.973182512366254,0.0128288240630737,0.012922357043458356
69,0.25,0.001,0.015446690005668695,0.01226737884723622,17.816859811976336,0.012717244690918155,0.020123743089950748
70,0.25,0.001,0.0155714877165746,0.01232889378308386,18.171496405117754,0.012970375735273201,0.020498249783284135
71,0.25,0.001,0.015361878804970478,0.012226424638883791,17.571085224980894,0.01254181672018622,0.015547494197057353
72,0.25,0.001,0.015320095760018929,0.012168259184429611,17.66289296357528,0.01260734686907586,0.0157116515458458
73,0.25,0.001,0.01528426184170488,0.012127162443230982,17.692384719848633,0.01262839737319674,0.019612872145242162
74,0.25,0.001,0.015268983400386313,0.012155771660416023,17.446438609689906,0.012452846973368955,0.013472134350902505
75,0.25,0.001,0.015136983002657476,0.01194150861946569,17.907437780629035,0.012781897059692387,0.009996229213558964
76,0.0,0.001,0.011598643320410149,0.011598643320410149,23.50543030448582,0.016777609068155473,0.01910766602183382
77,0.02,0.001,0.011192167258780935,0.010510850603273813,47.72623786373415,0.034065837161837365,0.009764173533767462
78,0.04,0.001,0.011821857842522255,0.010221579098615093,56.04976759095123,0.040006971870771756,0.010608335439529683
79,0.06,0.001,0.012091342440765837,0.010357125230349493,40.49397222546563,0.028903620432166762,0.014118897159480386
80,0.08,0.001,0.012313836753584337,0.01071255744529375,28.042403373165406,0.020015990987270096,0.00846140795490808
81,0.1,0.001,0.012694392771716568,0.01082315933013308,26.215980667998824,0.01871233452391065,0.010297286220722728
82,0.12,0.001,0.01296163517711819,0.010775549134806446,25.52255470165308,0.01821738379846758,0.011175060851706399
83,0.14,0.001,0.013262737231949965,0.010906781501852083,23.57638596797335,0.016828255508903177,0.02063032943341467
84,0.16,0.001,0.013634160673920658,0.011043508631595667,22.68439793241197,0.016191575968887914,0.023585945316072967
85,0.18,0.001,0.01402855522768653,0.011309486746356108,21.16341593645621,0.015105935714815283,0.031439290588928595
86,0.2,0.001,0.014295856522369211,0.011326746677682884,20.798614806023195,0.014845549468967306,0.023894421911487978
87,0.22,0.001,0.014501327419302601,0.011392983621445255,19.79449825010438,0.01412883529629149,0.019224408496585157
88,0.24,0.001,0.014745443546469662,0.011585957262719023,18.443502094434656,0.013164526834000469,0.02625262426833312
89,0.25,0.001,0.0148060057528209,0.011535178370557833,18.3297157564025,0.013083308891079585,0.014295255558358299
90,0.25,0.001,0.01480176618349725,0.011596945681325768,17.959814596867215,0.012819282367499796,0.010036011692136526
91,0.25,0.001,0.014717507729495781,0.01146845530340637,18.20769022513127,0.012996210010800336,0.010839917800492711
92,0.25,0.001,0.01469251113957253,0.011599677655359974,17.332238791645437,0.012371333898390747,0.01324504976057344
93,0.25,0.001,0.014786478644911793,0.011600949801504612,17.851704473080844,0.012742115969365342,0.013244507109953297
94,0.25,0.001,0.014691611886888311,0.011541886349627073,17.651062481645226,0.012598902556491954,0.012532847674770487
95,0.25,0.001,0.014762897503332815,0.011598456772449224,17.733525179434515,0.01265776244070986,0.016614821118613083
96,0.25,0.001,0.014758117415982744,0.01155449564744165,17.95309655562691,0.012814487191739408,0.014943024712718196
97,0.25,0.001,0.014620502924789553,0.011495884683361088,17.510360275489695,0.012498472716266735,0.015176771726045344
98,0.25,0.001,0.014635417313463446,0.011525498608640139,17.42798365717349,0.012439674273499991,0.01667786172280709
99,0.25,0.001,0.014607301197838093,0.011451282322514748,17.686329800149668,0.01262407551759434,0.021136953598923154
100,0.25,0.001,0.01454568198085695,0.011512270588697731,16.99923708818961,0.012133645316338051,0.014273362130754523
101,0.25,0.001,0.014549675856487474,0.011462668199901995,17.299590401027512,0.012348030264830487,0.01694595751663049
102,0.25,0.001,0.01445593429810327,0.011365705790619055,17.317640111066293,0.01236091371239564,0.016376525370611086
103,0.25,0.001,0.014590886907409067,0.011498393018500528,17.33033561706543,0.012369975458290813,0.025064103719260957
104,0.25,0.001,0.014507498187215431,0.011446160196826078,17.155738526496336,0.012245352267306449,0.017394601833075285
105,0.25,0.001,0.014442059022468933,0.011349330710220163,17.331648868063223,0.012370912825170038,0.016777657489809725
106,0.25,0.001,0.014389681022452272,0.011317738601802916,17.215165345565133,0.012287769697048631,0.010432222081969181
107,0.25,0.001,0.01429576232381489,0.011206808972401896,17.310494215592094,0.012355813144605349,0.011142767034471035
108,0.25,0.001,0.014328502793458925,0.01130694820397142,16.9327934652135,0.012086219461251605,0.011824491795980267
109,0.25,0.001,0.014480435491903969,0.011293856980468052,17.85758756554645,0.012746315178834011,0.012603328873713812
110,0.25,0.001,0.014239490504606047,0.011239431339545526,16.81233220860578,0.012000237122488067,0.012289978046384122
111,0.25,0.001,0.014344758381122265,0.011309995086512703,17.006813574528348,0.012139053229499177,0.014800516164137257
112,0.25,0.001,0.014378660115534845,0.011260766967915106,17.472673277924027,0.012471572646626714,0.01774862077501085
113,0.25,0.001,0.01428965414347856,0.011283251699870047,16.847880183786586,0.012025610409555023,0.01622130111273792
114,0.25,0.001,0.014255300056243288,0.011179121980524582,17.238901774088543,0.01230471218707248,0.012577844524963034
115,0.25,0.001,0.01419860129986984,0.011169515482649424,16.974998059480086,0.0121163440824269,0.01767804494334592
116,0.25,0.001,0.01432631368600372,0.011246982705441938,17.25657167296479,0.012317324534592998,0.02035627607256174
117,0.25,0.001,0.014369969755627108,0.01132561537720587,17.06056263135827,0.012177418009534811,0.024067733022901747
118,0.25,0.001,0.014318539207612259,0.011320735422381456,16.799692319787066,0.01199121507479448,0.021752220371531114
119,0.25,0.001,0.014312410592169,0.011210917589673098,17.380766716556273,0.012405971960425605,0.02216117073678308
120,0.25,0.001,0.014286093751265518,0.011307633549406908,16.69129070337268,0.01191384061625459,0.02595750345951981
121,0.25,0.001,0.014231898592434067,0.011186726161859173,17.065145713695582,0.012180689303137461,0.01754011596656508
122,0.25,0.001,0.014093217021529224,0.011100127226740553,16.77327551357988,0.011972359395845738,0.013771810724089542
123,0.25,0.001,0.014234340614706709,0.011178866973605709,17.122873444488082,0.012221893964659588,0.01178714426027404
124,0.25,0.001,0.014258270084426023,0.01121033348844967,17.08063628708107,0.012191746100700264,0.014927330789052777
125,0.25,0.001,0.014151236163857191,0.011185376095059126,16.620680822842363,0.011863440987039517,0.014620117739670806
126,0.25,0.001,0.01415469658061646,0.011119649300108786,17.00840471792912,0.012140188949271321,0.0171236510698994
127,0.25,0.001,0.014096203287118587,0.011065440063459286,16.984396008477695,0.012123052111690003,0.015482343112428984
128,0.25,0.001,0.014099030215563118,0.011107641380226267,16.763742585113082,0.011965555021493992,0.01386642393966516
129,0.25,0.001,0.014213553062923576,0.011155288194076738,17.13851632933686,0.012233059478470278,0.01868162749128209
130,0.25,0.001,0.014053786807842012,0.011039854796684307,16.890075697415117,0.012055728549189949,0.013877475634217262
131,0.25,0.001,0.014044331629639086,0.01099995508844006,17.060686443163,0.012177506383413991,0.013142269001238875
132,0.25,0.001,0.014007073408667591,0.010995698147925777,16.875747763592265,0.012045501615697549,0.012421611799961992
133,0.25,0.001,0.014161973638271076,0.01114063367139602,16.93158959651339,0.012085360168817552,0.018653156235814095
134,0.25,0.001,0.014036339289252308,0.011024991549767446,16.875592687855598,0.012045390926378014,0.01883244152284331
135,0.25,0.001,0.014183676518175913,0.01114418635657732,17.033304103906605,0.012157961530268812,0.018369189153114956
136,0.25,0.001,0.014027871029532474,0.010971187114499617,17.129656943722047,0.012226735862756636,0.012315510358247492
137,0.25,0.001,0.01402170753673367,0.010952989314345346,17.197097128716067,0.012274873039768784,0.014461301939768923
138,0.25,0.001,0.014075860732059547,0.011062925276548966,16.88449093915414,0.012051742283479045,0.015345987242956957
139,0.25,0.001,0.0140269894854746,0.010923442606260811,17.39227657041688,0.012414187416428893,0.013446055818349123
140,0.25,0.001,0.01391716980361852,0.01092387056922999,16.77444845006086,0.011973196609608036,0.011759405127829976
141,0.25,0.001,0.013958330657603085,0.01090695973539698,17.09988230553226,0.012205483444348509,0.01182843962063392
142,0.25,0.001,0.01400327196587687,0.010972898669432903,16.98221154143845,0.01212149289181902,0.010314014843768544
143,0.25,0.001,0.013980731584023739,0.01098600542847661,16.782445714093637,0.011978904863735644,0.01894388089163436
144,0.25,0.001,0.013937657591009485,0.01091840541989043,16.919889118360437,0.012077008649793317,0.01568980897880263
145,0.25,0.001,0.013930032880085966,0.010979278283058733,16.53602904167728,0.01180301858792097,0.012361152718464533
146,0.25,0.001,0.013873521454524303,0.010820071253439655,17.11153519671896,0.012213800996944298,0.010500222444534302
147,0.25,0.001,0.013882020258925098,0.010892243866903194,16.754705981931824,0.011959104912156905,0.010172877098537154
148,0.25,0.001,0.013902378147063047,0.010888151500536047,16.891726065373074,0.01205690654202218,0.009446540847420692
149,0.25,0.001,0.013870176886194859,0.010867570324436478,16.826607013094254,0.012010426133543365,0.012817226867708895
150,0.25,0.001,0.013846206762220549,0.010881652799097525,16.613359548043512,0.011858215237718423,0.014463410971479284
151,0.25,0.001,0.013859242632769156,0.010781325858788214,17.248646445896316,0.012311667698712574,0.011633961513224576
152,0.25,0.001,0.01385981349301511,0.0108641120267735,16.787910903709523,0.01198280578423235,0.011464803893533018
153,0.25,0.001,0.013857562364875406,0.010842155125262081,16.898342063461524,0.01206162888184263,0.011354330513212416
154,0.25,0.001,0.013809826279032057,0.010746367586155733,17.167623105256453,0.012253835192902535,0.014771492582642369
155,0.25,0.001,0.013859532233597576,0.010855838453964047,16.832700480585512,0.012014775503629916,0.01398387447827392
156,0.25,0.001,0.013851616504615631,0.010829933757043404,16.933511540509652,0.012086732006073984,0.012014659121632576
157,0.25,0.001,0.013886866470177969,0.010852539075025614,17.0043711454972,0.01213730988258187,0.01483958690530724
158,0.25,0.001,0.013865964460200157,0.010915795732559502,16.532745775969133,0.011800675072069331,0.015691561262226768
159,0.25,0.001,0.01388119314999684,0.010788895203259544,17.329238311104152,0.012369192227768845,0.020354462166627247
160,0.25,0.001,0.013733239641979984,0.010808267009754976,16.391547244528066,0.011699890966829454,0.012155361628780762
161,0.25,0.001,0.013832475166713846,0.01088565115587435,16.514001791028008,0.0117872960678287,0.011712572071701288
162,0.25,0.001,0.013860292341290176,0.010827212135536947,16.997382868891176,0.012132321819337029,0.012922945484105084
163,0.25,0.001,0.0138277441425168,0.010810910494647163,16.906336051830348,0.012067334797880334,0.017282999586313963
164,0.25,0.001,0.01374575706279796,0.010786640849234402,16.5828877877498,0.011836465230371022,0.013544149489866363
165,0.25,0.001,0.01375128840352746,0.010768385725500791,16.716187186863113,0.011931611125526848,0.009930292765299479
166,0.25,0.001,0.013764375888243101,0.010711866822363674,17.106260935465496,0.01221003635650642,0.010515322132656971
167,0.25,0.001,0.013780068228210228,0.010812218989367071,16.631826843040578,0.011871396747352304,0.015065227376504077
168,0.25,0.001,0.01380445426194996,0.010776872652164404,16.966567854950394,0.012110326805817554,0.017675144597887993
169,0.25,0.001,0.013706643647257832,0.010727457648170168,16.695357364156973,0.011916743300611687,0.009480111921826998
170,0.25,0.001,0.013711402206209259,0.01068880546676076,16.93863252280415,0.0120903872396889,0.010957361612882879
171,0.25,0.001,0.01372394915940105,0.010692890625501024,16.98605233344479,0.012124234356491641,0.011924353790365987
172,0.25,0.001,0.013707258333654507,0.010704036802053452,16.830053992893387,0.012012886504563445,0.011782415625121858
173,0.25,0.001,0.013679309748113155,0.010683960294809895,16.785938470259957,0.01198139790882224,0.014132677266995112
174,0.25,0.001,0.013711040488619736,0.01077827253797348,16.43523201044055,0.011731072098815526,0.018610341474413872
175,0.25,0.001,0.013718847225865593,0.010728639375040497,16.757124334141828,0.011960831073620148,0.01507908571511507
176,0.25,0.001,0.013731019490438959,0.010756847205693308,16.667260156161543,0.01189668819140724,0.015761195164587762
177,0.25,0.001,0.013739528242444647,0.010783331090773361,16.566529108130414,0.011824788799522066,0.017885179362363286
178,0.25,0.001,0.013721391329190868,0.010616886591457802,17.3976451486781,0.01241801937807145,0.013624316909246974
179,0.25,0.001,0.013691525906324387,0.010688281078161537,16.83018452188243,0.01201297967300673,0.013616822866929902
180,0.25,0.001,0.013779532704232395,0.010758285626661087,16.93107002368872,0.01208498931027032,0.02317079808562994
181,0.25,0.001,0.013776286086742428,0.010795873319865137,16.702232968979988,0.011921650941456094,0.025237799104717042
182,0.25,0.001,0.013689414206622303,0.010721212401446224,16.63380335379338,0.011872807533043097,0.018926318320963118
183,0.25,0.001,0.013579995303914167,0.010591176945878111,16.74933897930643,0.011955274075165188,0.011224531827287542
184,0.25,0.001,0.013644611503442993,0.010666866206388542,16.687284469604492,0.011910981063243748,0.01034274288556642
185,0.25,0.001,0.013575499121477638,0.010531322382714437,17.05956727179928,0.012176707545895275,0.014385901494986482
186,0.25,0.001,0.013665957902760609,0.010667828532556692,16.801516380862914,0.011992517045583807,0.010182396301792728
187,0.25,0.001,0.013681708160193934,0.010694943233460619,16.73783020351244,0.011947059388659843,0.011425876162118383
188,0.25,0.001,0.013645022257190683,0.010601024264874666,17.058564890985902,0.012175992070653749,0.01553958902756373
189,0.25,0.001,0.013701285289573496,0.010684337547939756,16.906975787618887,0.012067791425852167,0.01632063856555356
190,0.25,0.001,0.013616266916843428,0.010557803311857624,17.139630331509355,0.012233854626345008,0.0102866027607686
191,0.25,0.001,0.013596038185599922,0.010623037086232849,16.660699015078336,0.011892005007193673,0.01247892425292068
192,0.25,0.001,0.013687730861314829,0.010624205545130848,17.167996199234672,0.012254101498383064,0.011360125409232246
193,0.25,0.001,0.013633669988400694,0.010596691185365553,17.019229363704074,0.012147915320274143,0.011797719945510229
194,0.25,0.001,0.013584997734405857,0.010568374740904656,16.905155955881312,0.012066492473862465,0.013672688355048498
195,0.25,0.001,0.013667431700488796,0.010686937787070654,16.70268766430841,0.011921975492011714,0.013375863743325075
196,0.25,0.001,0.013590401254486347,0.010582963180174862,16.853683167609617,0.012029752439407293,0.013715048631032309
197,0.25,0.001,0.013535436526264833,0.010509310357704542,16.958411285842676,0.01210450484357079,0.011569518802894486
198,0.25,0.001,0.013530347577255705,0.01054934012717095,16.705565438754316,0.011924029577983095,0.012395910194350613
199,0.25,0.001,0.013565676205832026,0.010542172128739565,16.943716491478078,0.012094016053874432,0.01065187632209725
200,0.25,0.001,0.013542805042495762,0.010563246676347393,16.69744494341422,0.011918233364321355,0.01224523332590858
201,0.25,0.001,0.013639253159256085,0.010622054392444914,16.908381945845008,0.012068795107669528,0.01603689230978489
202,0.25,0.001,0.013540273478281671,0.01051752307060836,16.939494450887043,0.012091002463159917,0.011113634126053916
203,0.25,0.001,0.013598769079839838,0.010598544058376465,16.813261612601902,0.012000900508638047,0.014701695698830817
204,0.25,0.001,0.013571860525163187,0.010562755585904571,16.863024366074715,0.012036419961509432,0.013047744054347277
205,0.25,0.001,0.013519693611432676,0.01049443227711363,16.95356529346411,0.012101045891123562,0.014186742456836833
206,0.25,0.001,0.013565973257241041,0.010583936911670195,16.711332072382387,0.011928145661943173,0.01727204392146733
207,0.25,0.001,0.013479390883467335,0.010487897807489271,16.764328237892926,0.011965973046319005,0.016705782618373632
208,0.25,0.001,0.013542856575678225,0.010575450308944868,16.62934474668641,0.011869625086856824,0.021518137202494673
209,0.25,0.001,0.013467917461758074,0.01051421224585046,16.55256444129391,0.011814821157240479,0.013042772913144695
210,0.25,0.001,0.013447039288239203,0.010472174544913181,16.671143545620684,0.011899460061113979,0.013723165521191226
211,0.25,0.001,0.013516346154653507,0.010556239040865414,16.588441019472867,0.011840428993199762,0.011829410369197527
212,0.25,0.001,0.013547619359324808,0.01054535861518504,16.824669271275617,0.012009043020182453,0.016460837175448734
213,0.25,0.001,0.013533981854392998,0.010566616349894068,16.62911721934443,0.011869462683329357,0.016763376796411142
214,0.25,0.001,0.013520426143878612,0.01050255280257999,16.912163195402727,0.01207149407237882,0.01887740862245361
215,0.25,0.001,0.013523927471344021,0.010524820239431616,16.806997796763543,0.011996429548011094,0.016406080685555935
216,0.25,0.001,0.01354061063055111,0.010553863034516142,16.737732845803965,0.011946989897076349,0.015236384959684478
217,0.25,0.001,0.013509933256368706,0.01057689534365267,16.43674502165421,0.011732152049717495,0.014199094225962957
218,0.25,0.001,0.013430544188705044,0.010442087926186514,16.74730922864831,0.011953825288114424,0.011900325098799335
219,0.25,0.001,0.013497470297675201,0.010519305729995604,16.689633797908176,0.011912657957107905,0.010881119304233126
220,0.25,0.001,0.013512827982397183,0.010457630836121414,17.12132534082385,0.012220788965613027,0.013968227741618952
221,0.25,0.001,0.013407707821739756,0.01047133477539688,16.455435269120812,0.011745492697445263,0.014400530813468827
222,0.25,0.001,0.013464824633969776,0.010460941485412743,16.83376099406809,0.01201553247256823,0.014023525019486746
223,0.25,0.001,0.013376096708943014,0.010386038517606432,16.756286510522816,0.011960233055333915,0.009652965081234774
224,0.25,0.001,0.013455593405102474,0.010451488115865252,16.835007017937258,0.012016421854344938,0.01963664943145381
225,0.25,0.001,0.013435833075124285,0.01048026568647744,16.562999283058055,0.01182226929554465,0.019022564714153607
226,0.25,0.001,0.013476042238914448,0.010575617704054584,16.25397831460704,0.011601697583588179,0.016959371666113537
227,0.25,0.001,0.013470082138867481,0.010346342148124308,17.50543948187344,0.012494960372500672,0.012508377018902037
228,0.25,0.001,0.013383114197547886,0.01046879899998506,16.331822823787082,0.011657261116193491,0.010572204883727763
229,0.25,0.001,0.013396043492400127,0.010484960497073505,16.313709618388742,0.01164433234717255,0.010506424328519238
230,0.25,0.001,0.013373647897463778,0.010384555123206497,16.750876025877137,0.01195637118192515,0.011338691227138042
231,0.25,0.001,0.013428082973088907,0.010432558593110762,16.786918529565785,0.011982097451510196,0.014664737404220633
232,0.25,0.001,0.013422053820197132,0.01042870773623387,16.774710917818375,0.011973383952761152,0.011696546338498592
233,0.25,0.001,0.013422474616031715,0.010445388587380665,16.68358996294547,0.011908344013522818,0.013231876616676649
234,0.25,0.001,0.013429704932091028,0.010431369280685549,16.80267275934634,0.011993342440646924,0.01387744541797373
235,0.25,0.001,0.013397947345198929,0.010401672238241072,16.79112644471984,0.01198510095982858,0.014106560394995742
236,0.25,0.001,0.01339656311640705,0.010451389598133772,16.504752421724625,0.011780694091166756,0.013826935034659173
237,0.25,0.001,0.013461593079610147,0.010480167816622534,16.70790760758994,0.011925701361591679,0.013826698064804077
238,0.25,0.001,0.013464310543908588,0.010381331491837467,17.27701460796854,0.0123319162084001,0.013967267548044523
239,0.25,0.001,0.013376608450451622,0.010419080762759499,16.573985749396726,0.011830111170161832,0.014113075617286894
240,0.25,0.001,0.013327525010791378,0.010338993554098019,16.747729895771414,0.01195412555015804,0.014025761642389827
241,0.25,0.001,0.01345994941674281,0.010474335145799147,16.731382701707922,0.011942457317421785,0.013246429773668448
242,0.25,0.001,0.0134100501385072,0.010374778098818184,17.009665198948074,0.012141088650212758,0.012795755743152566
243,0.25,0.001,0.013356989398058773,0.010394412862217945,16.60227902730306,0.011850306229338371,0.016853927324215572
244,0.25,0.001,0.01343074057629143,0.010468751785979755,16.5989853264629,0.011847955265141255,0.022135522526999313
245,0.25,0.001,0.01344615040158016,0.010498543485891128,16.518389245738152,0.011790427727150716,0.01966595867027839
246,0.25,0.001,0.013374781735457373,0.01035228264990492,16.938085638958476,0.012089996887193774,0.016701227467921045
247,0.25,0.001,0.0133679433307354,0.010450900424325811,16.3471096702244,0.01166817249837573,0.01288828957411978
248,0.25,0.001,0.01340104335838038,0.010332690956799881,17.195047350897305,0.012273409957813923,0.012964910724096827
249,0.25,0.001,0.013321932270259096,0.010381326538281164,16.479154006294582,0.011762422559810552,0.012214765263100466
250,0.25,0.001,0.013258271243261255,0.010315773779175419,16.489756086598273,0.011769990068949517,0.01290960382256243
251,0.25,0.001,0.013282003313087034,0.010328485252524632,16.55151483286982,0.011814071972069821,0.009891324314392276
252,0.25,0.001,0.013387524711804977,0.010375225538576859,16.880924363067184,0.01204919654751405,0.01739423866901133
253,0.25,0.001,0.013143936739019726,0.010187962146448916,16.565281522446785,0.011823898302959875,0.012047540499932237
254,0.25,0.001,0.01336793444942737,0.01044498304364042,16.38021969449693,0.011691805634901449,0.01334537234571245
255,0.25,0.001,0.013332376526533693,0.010362404493102129,16.64372358460357,0.011879888354463648,0.010497744816044966
256,0.25,0.001,0.013312437666067179,0.010299948435546696,16.881990764452063,0.012049957719094976,0.009705961992343267
257,0.25,0.001,0.013289505696814993,0.01034058622368004,16.525744894276496,0.01179567801161777,0.011296036446260082
258,0.25,0.001,0.013283565559464952,0.010290605232011581,16.77254956010459,0.011971841227769158,0.011265172105696466
259,0.25,0.001,0.013241681013850199,0.010312083379729935,16.417465361995973,0.011718390693787275,0.012420795030064054
260,0.25,0.001,0.013281601602616518,0.010354889124847841,16.401296394458715,0.01170684967484562,0.012501926471789679
261,0.25,0.001,0.013267458672972693,0.010265212843491547,16.824585928433184,0.012008983532072222,0.012730994572242102
262,0.25,0.001,0.01332073704596015,0.010354193885797176,16.62450729591259,0.011866172231200992,0.014703277291523086
263,0.25,0.001,0.013227686771880026,0.010257927322949188,16.64253196163454,0.011879037802737002,0.010749120575686296
264,0.25,0.001,0.013354808659009312,0.010361028349269991,16.777145081672117,0.01197512140019423,0.012307420631663667
265,0.25,0.001,0.013286271240508211,0.010311235403777033,16.672100053317305,0.011900142793231481,0.013442246036397086
266,0.25,0.001,0.013296704077958197,0.010291405548544033,16.841693352961887,0.01202119439897351,0.012199946989615759
267,0.25,0.001,0.013290045823415985,0.01026617114742597,16.94579395349475,0.012095498896141864,0.012750966888335016
268,0.25,0.001,0.013297294118050217,0.010353773170947165,16.495491912399512,0.011774084163026062,0.014878018966151608
269,0.25,0.001,0.013260682504894077,0.010314937249041986,16.507956988569617,0.011782981433668535,0.01054269028827548
270,0.25,0.001,0.013221225687775059,0.010246430226750132,16.67075390746628,0.01189918194679963,0.010345492201546827
271,0.25,0.001,0.013212899326522282,0.010246560463438864,16.62336410301319,0.011865356247689644,0.014530493877828121
272,0.25,0.001,0.013294110560546751,0.010312649124450441,16.708109814187754,0.011925845691782837,0.01954747260444694
273,0.25,0.001,0.013285567808518375,0.010329742726964363,16.564444666323453,0.011823300975248717,0.01719299941841099
274,0.25,0.001,0.013292782413570778,0.010290919330672941,16.82244154335796,0.012007452921740158,0.011249983010606633
275,0.25,0.001,0.01324885959426562,0.0102943224373503,16.55722709324049,0.011818149245710556,0.012722244382732444
276,0.25,0.001,0.013215851335637812,0.0102419459760405,16.66576653632565,0.01189562208160289,0.012986239252818955
277,0.25,0.001,0.013167676205436388,0.010188624181825182,16.69460780378701,0.01191620828250322,0.010863848341008028
278,0.25,0.001,0.013212218637699667,0.01025927568907323,16.548292629960656,0.011811772041370919,0.014805457554757595
279,0.25,0.001,0.013290985581883486,0.01031818008725194,16.659601543260656,0.011891221658287406,0.015473560637070073
280,0.25,0.001,0.013217501558255459,0.010267322221635908,16.53280494524085,0.011800717305667988,0.013626062104271518
281,0.25,0.001,0.01326824362943138,0.010259263730351475,16.862323097560715,0.01203591941296268,0.013901228602561686
282,0.25,0.001,0.013201102452433628,0.010255293434728746,16.508314685545106,0.011783236749139975,0.01365073501235909
283,0.25,0.001,0.013223585983117422,0.010264320946905924,16.583721105603203,0.011837060032550466,0.012658212747838762
284,0.25,0.001,0.013281855448756529,0.010255059321829374,16.962166178053703,0.012107184995041901,0.013833323183159033
285,0.25,0.001,0.013268007640389429,0.010250290248381056,16.91128827523494,0.01207086957547105,0.010895434249606397
286,0.25,0.001,0.01322800150492053,0.01029635196470696,16.428965720577516,0.011726599372289447,0.013710867303113142
287,0.25,0.001,0.013171604524056116,0.010186442538448002,16.728847033735633,0.01194064741879774,0.013890170181790987
288,0.25,0.001,0.013139435589529467,0.010236311204515505,16.269109698309414,0.011612498000220852,0.011604609485301707
289,0.25,0.001,0.013215779718281567,0.010259839544153732,16.565088797306668,0.011823760740404475,0.014328463830881648
290,0.25,0.001,0.013208200925610203,0.010255589973235476,16.546431430871937,0.01181044356236398,0.01958024191359679
291,0.25,0.001,0.013236002699620482,0.010334268495764421,16.261318123858906,0.01160693656235468,0.021596515758170023
292,0.25,0.001,0.01322309888791347,0.010259980848733929,16.605313314907793,0.011852472030626547,0.02088356835560666
293,0.25,0.001,0.01324622030707373,0.010355799823351528,16.197917026022207,0.011561682388309926,0.01830191630870104
294,0.25,0.001,0.01328490509827068,0.010207448519118454,17.246065913767055,0.012309825777135656,0.014465522124535508
295,0.25,0.001,0.013173883200447628,0.010217874715833561,16.56547134509985,0.011824033793790044,0.01146003200362126
296,0.25,0.001,0.013147031564427458,0.01020877350769613,16.465997917064723,0.011753032060717147,0.009908275575273566
297,0.25,0.001,0.013182503292741983,0.010219660358152527,16.60377226014068,0.011851372062912691,0.012699343057142364
298,0.25,0.001,0.013197986517047537,0.010145879930992058,17.104005509528562,0.012208426487886198,0.01227212386826674
299,0.25,0.001,0.013188605966127438,0.010227690180898577,16.592972672503926,0.011843663577804373,0.010491282472179996
300,0.25,0.001,0.013198826421538124,0.010235058481170647,16.608955272729848,0.011855071572255424,0.012792900618579652
301,0.25,0.001,0.013088060367474522,0.010134342990383722,16.552633174951527,0.011814870217667042,0.010828612837940454
302,0.25,0.001,0.013219630102748457,0.010210805653553942,16.861452047375664,0.012035297678355221,0.01091347448527813
303,0.25,0.001,0.01318249697594539,0.010164477794930555,16.91297868369282,0.012072076148246125,0.011467049519220987
304,0.25,0.001,0.013153524367489677,0.010263034115558949,16.19830770077913,0.011561961242526144,0.010961076865593592
305,0.25,0.001,0.013099128285935823,0.010089610365853794,16.86533831167912,0.012038071600056474,0.010395076850222217
306,0.25,0.001,0.013233164568310198,0.010225585567346518,16.854472782300867,0.01203031604732396,0.012863630221949683
307,0.25,0.001,0.013050424596429735,0.010115234383746334,16.448805643164594,0.01174076063038158,0.01006638217303488
308,0.25,0.001,0.013097333343888538,0.010155977384335753,16.483359157175258,0.011765424095057287,0.012070270876089731
309,0.25,0.001,0.013143554910261562,0.010254828677769157,16.188421802244324,0.011554904926655478,0.015624022111296654
310,0.25,0.001,0.0131238860928494,0.010168617942195007,16.56132175611413,0.011821071917283462,0.016277187089953158
311,0.25,0.001,0.013119628976868547,0.01014553036108829,16.666849246923473,0.011896394894306547,0.013590425252914429
312,0.25,0.001,0.013110364085414272,0.010160760562596977,16.529579217883125,0.01179841485930273,0.013451283176740011
313,0.25,0.001,0.01311210880352967,0.010089894932141338,16.936486036881156,0.012088855129822381,0.010661107436236408
314,0.25,0.001,0.013075790381517963,0.010146968836045784,16.41311590222345,0.011715286154335081,0.010669418248451419
315,0.25,0.001,0.013130841155846914,0.010161758238530678,16.638740705407184,0.011876331695508339,0.014824881011413204
316,0.25,0.001,0.013145829402450203,0.01015032705027556,16.786795878755875,0.01198200990632111,0.015212040601505173
317,0.25,0.001,0.013185915550675945,0.01014617027417905,17.034731671430063,0.012158980493526098,0.017360330714533728
318,0.25,0.001,0.013137014231820038,0.010213871553972147,16.381293117136195,0.011692571818084365,0.011809371101359526
319,0.25,0.001,0.013170046097450499,0.010177480664266192,16.770336565764055,0.011970261645798754,0.011741796818872293
320,0.25,0.001,0.013201867567672245,0.01020286314567362,16.80642078233802,0.011996017689034988,0.016637441391746204
321,0.25,0.001,0.013408901736788128,0.010403855703771114,16.84027840434641,0.0120201844427883,0.031731168636017375
322,0.25,0.001,0.013162701147729937,0.0101865169632694,16.67853591753089,0.011904736557837895,0.01701323946730958
323,0.25,0.001,0.013114417457710142,0.010200559849972311,16.329258932583574,0.011655431072507905,0.014644088844458262
324,0.25,0.001,0.013108269203508245,0.010131834452782852,16.67993990580241,0.011905738690794011,0.01327312220301893
325,0.25,0.001,0.013068673322382181,0.010143655068848444,16.39180222110472,0.0117000729629584,0.012505979070232974
326,0.25,0.001,0.013055363265068634,0.010077443689215874,16.688261695530105,0.011911678583533265,0.012348441458824608
327,0.25,0.001,0.01307818091110043,0.010143468831328379,16.446126744367074,0.011738848497050017,0.010746300944851505
328,0.25,0.001,0.013084696605801582,0.010054308435191278,16.982295934704766,0.012121553129696478,0.00953030265453789
329,0.25,0.001,0.01309079378573359,0.010152740377014961,16.464851462322734,0.011752213748981253,0.011509242053661082
330,0.25,0.001,0.013064914099548174,0.010102476681704107,16.601498811141305,0.011849749329865314,0.011501812376081944
331,0.25,0.001,0.01309897669631502,0.010075593043280684,16.94304289334062,0.01209353525577489,0.016261038266950183
332,0.25,0.001,0.01312828530975874,0.010151149907513805,16.683867661849312,0.011908542228300723,0.011140964304407438
333,0.25,0.001,0.013052445795872936,0.010107870470138563,16.501400436180226,0.011778301524753908,0.01174274656093783
334,0.25,0.001,0.013049613967861818,0.010146047326101772,16.271587620610777,0.011614266681378143,0.011913366770992676
335,0.25,0.001,0.013104201132512611,0.010147724071166653,16.568097653596297,0.011825908389433475,0.019037122631238565
336,0.25,0.001,0.013084619481494461,0.01009449203485164,16.756674365720887,0.01196050989701705,0.011368652391764853
337,0.25,0.001,0.013102865359489468,0.010136692244829475,16.622434284376062,0.011864692565578917,0.010851632338017225
338,0.25,0.001,0.01316471373581368,0.010181590482808542,16.717423231705375,0.0119324933845149,0.0161422917412387
339,0.25,0.001,0.01308865148736083,0.010132823449869951,16.564460505609926,0.01182331228094927,0.012938674642807908
340,0.25,0.001,0.01316407761550036,0.010188451752174591,16.675407603167105,0.011902503642517564,0.0193897747538156
341,0.25,0.001,0.013092592061645742,0.010109432284598764,16.71762712450995,0.011932638918279764,0.013491053496383958
342,0.25,0.001,0.01293997714916865,0.010060612719667994,16.135959487030473,0.01151745859174195,0.011293566630532345
343,0.25,0.001,0.01308704494242219,0.010144310989889545,16.491081569505774,0.011770936166670787,0.012093190621170733
344,0.25,0.001,0.01311770594422368,0.010111989574911802,16.844034581944562,0.012022865511737733,0.012262001840604676
345,0.25,0.001,0.013030702653138534,0.010065777605210526,16.61543894505155,0.011859699461136011,0.012854291540053155
346,0.25,0.001,0.013053879236289557,0.010112762235213017,16.4820207512897,0.011764468773226053,0.010434623962889114
347,0.25,0.001,0.013001295009061047,0.009997128940902758,16.835347078848578,0.012016664581619256,0.01036379455278317
348,0.25,0.001,0.012966013189567171,0.010046246529057406,16.36237300651661,0.01167906709958359,0.011820990178320143
349,0.25,0.001,0.013098846878046575,0.010115220818830572,16.720240855562515,0.01193450453644719,0.011035872623324394
350,0.25,0.001,0.013011562395031038,0.010068702484494534,16.491787288499914,0.011771439891862894,0.012736432875196138
351,0.25,0.001,0.013089655952501124,0.010076540589764498,16.885499401368957,0.0120524620994782,0.011864526507755121
352,0.25,0.001,0.013062604001142841,0.010085181157658066,16.6854790120885,0.011909692371226624,0.011649071963296996
353,0.25,0.001,0.013053422726258852,0.01007760951862387,16.676457073377527,0.011903252729034638,0.010953564300305314
354,0.25,0.001,0.0130600748664659,0.010107541699772295,16.545996043993078,0.011810132793713832,0.011734785615570016
355,0.25,0.001,0.013119811381118885,0.01008406022320623,17.012349418971848,0.012143004581707244,0.01634014004634486
356,0.25,0.001,0.013075812544295753,0.010125354107847248,16.534368929655656,0.011801833640011175,0.012270499227775468
357,0.25,0.001,0.013051747006998547,0.010054479231653006,16.79668841154679,0.011989070957563732,0.013340259177817239
358,0.25,0.001,0.013071175705155601,0.010106982960217241,16.611336860103883,0.011856771491865727,0.010724348895665672
359,0.25,0.001,0.01297895980162033,0.010022561308806356,16.567657553631328,0.011825594256696166,0.013699774733848043
360,0.25,0.001,0.013018989868030168,0.01007194657796535,16.515230178833008,0.011788172861408285,0.011583579186764028
361,0.25,0.001,0.01299505418949369,0.010076133844753107,16.35762958250184,0.011675681357959914,0.01067007715917296
362,0.25,0.001,0.013022980288318966,0.010025169767871283,16.799730135046918,0.011991242066414646,0.013663822888500161
363,0.25,0.001,0.013001175786274067,0.010126695657769838,16.10858707151551,0.01149792082192399,0.015557296574115753
364,0.25,0.001,0.01301087382371011,0.010029710721278536,16.706437981646992,0.011924652378049246,0.014571560443275504
365,0.25,0.001,0.012992508925389553,0.010049656343956789,16.491745423579562,0.011771410009692763,0.012100036980377303
366,0.25,0.001,0.013007181750583475,0.01003029486299425,16.682473638783332,0.011907547208267902,0.013638366013765335
367,0.25,0.001,0.012983468428686045,0.010044644654229067,16.46916787520699,0.011755294700361876,0.01583560049119923
368,0.25,0.001,0.013026309672041216,0.010075910826740057,16.534036028212395,0.01180159602299243,0.013467972684237692
369,0.25,0.001,0.012992932474699573,0.009983593759977299,16.864333830017973,0.012037354625280494,0.01181821214656035
370,0.25,0.001,0.0129657003596641,0.010046002509045427,16.361987652985945,0.011678792043530296,0.015113570210006502
371,0.25,0.001,0.013023458448225174,0.010062411643456722,16.593706766764324,0.011844187556576962,0.014890537597239017
372,0.25,0.001,0.013013350520876871,0.010002961517244146,16.87021952090056,0.012041555689436515,0.012943859832982222
373,0.25,0.001,0.013025056462788927,0.010082748853534029,16.488691689311594,0.011769230327845534,0.015479837440782122
374,0.25,0.001,0.01301892355516337,0.01004020539044902,16.692736750063688,0.01191487276949585,0.010532969505422644
375,0.25,0.001,0.013019691032451996,0.010104563978055248,16.336373121842094,0.011660509009166377,0.011437481683161523
376,0.25,0.001,0.012982778939539972,0.009984058638413748,16.8048289478689,0.011994881475994932,0.014636541820234723
377,0.25,0.001,0.013048254844287167,0.010068160711207252,16.70044762155284,0.011920376603535218,0.01344956343786584
378,0.25,0.001,0.013010045486515846,0.010058830411213896,16.538609739662945,0.011804860627882188,0.016020418455203373
379,0.25,0.001,0.012999331956540329,0.010040596491940643,16.580753741057023,0.011834941999326927,0.016645934639705554
380,0.25,0.001,0.013023185638197954,0.010062030651539133,16.59431212881337,0.011844619649402834,0.012496959418058395
381,0.25,0.001,0.012952370353151058,0.01001920630696459,16.43745085121929,0.011732655853832468,0.010738496461676227
382,0.25,0.001,0.01299503301202819,0.010055892142480698,16.4709454688473,0.011756563503816774,0.012120809664742814
383,0.25,0.001,0.012970192911292332,0.010000749086232288,16.640763296597246,0.01187777537230353,0.014722316267175807
384,0.25,0.001,0.01292249365993168,0.010005337739552277,16.347742274187613,0.011668624035822708,0.014778185739285417
385,0.25,0.001,0.012959267066764658,0.010041078390634579,16.353529819543812,0.011672755046069816,0.013702109249101745
386,0.25,0.001,0.0129463748358514,0.009967281699072624,16.694837072621223,0.011916371929065826,0.014660501335230138
387,0.25,0.001,0.01298277592961339,0.010061052060969498,16.373340026192043,0.011686895093641715,0.013253197073936462
388,0.25,0.001,0.012933756076339363,0.00994856380250143,16.72901720240496,0.01194076888108848,0.012953455042507913
389,0.25,0.001,0.012897770986824797,0.009995282695129297,16.26554502957109,0.011609953625675296,0.012524786612225903
390,0.25,0.001,0.012931268878173138,0.009938797738025154,16.769808810690176,0.01196988494695944,0.01215399263633622
391,0.25,0.001,0.012914653597534567,0.00999329895105051,16.371270884638246,0.011685418190319947,0.012517030040423075
392,0.25,0.001,0.013052021004799484,0.010009068982216759,17.052703138710797,0.012171808093298214,0.013923540194001462
393,0.25,0.001,0.012983723138661488,0.01003351000448068,16.532994394717008,0.011800852530133481,0.015061838862796625
394,0.25,0.001,0.013029956879715124,0.010168345807039219,16.036469141642254,0.01144644478347056,0.019190196465286944
395,0.25,0.001,0.012976873787524908,0.009988309761536295,16.74791266952736,0.011954256009655502,0.0193827206061946
396,0.25,0.001,0.012898825297968975,0.009958834184900574,16.4757100119107,0.011759964319707852,0.014423773624002934
397,0.25,0.001,0.013042092026359793,0.010092855053211468,16.527523759482563,0.011796947722685627,0.01889234460476372
398,0.25,0.001,0.012940094239361908,0.00995494106757468,16.728798603666,0.011940612850582441,0.014214860999749767
399,0.25,0.001,0.012921836767075718,0.010017991470901863,16.27314911717954,0.011615381239956844,0.014508937899437215
400,0.25,0.001,0.012937186582796816,0.009971123661144056,16.621817574984785,0.011864252373293922,0.012797363723317782
401,0.25,0.001,0.012881324747982233,0.009947298715511957,16.442282386448074,0.01173610448711497,0.011779859869016541
402,0.25,0.001,0.012965361493221228,0.009986810224211735,16.691801679307137,0.011914205338548992,0.01209368287689156
403,0.25,0.001,0.012962724379115347,0.010030765302371288,16.430698201276254,0.011727835975215027,0.01056380026663343
404,0.25,0.001,0.012894114128489426,0.009915673700363739,16.69118071293485,0.011913762107733655,0.012510113625062836
405,0.25,0.001,0.012917599249361218,0.00998974615788978,16.40768971650497,0.01171141307387935,0.014097509698735343
406,0.25,0.001,0.012900405091004095,0.00998486803871566,16.338669376096863,0.011662148020054863,0.014609965806206068
407,0.25,0.001,0.012891511392334232,0.009969667410073072,16.37401312676029,0.011687375536588357,0.013475883338186476
408,0.25,0.001,0.01288815479779589,0.009931592189747354,16.56857769731162,0.011826251033056118,0.009966024197638035
409,0.25,0.001,0.012924891559110172,0.009984788484871387,16.47633671415025,0.011760411644646859,0.011778280138969421
410,0.25,0.001,0.012947878368414831,0.009972979490091835,16.671332898347273,0.011899595216521966,0.01586472832908233
411,0.25,0.001,0.012987700803880241,0.009992394407374271,16.785697467085242,0.01198122588657048,0.012130865309801366
412,0.25,0.001,0.012918449128451555,0.00991214922480825,16.84730463442595,0.012025199596306888,0.013643230932454268
413,0.25,0.001,0.012974655255675316,0.009978436311517937,16.790811096412547,0.011984875871814809,0.011561150559120707
414,0.25,0.001,0.012896753618142742,0.009915199400722116,16.708630409793578,0.01192621728036658,0.01030198453615109
415,0.25,0.001,0.01294594699435908,0.009951582360688759,16.780420192773793,0.011977459095484507,0.011660226103332307
416,0.25,0.001,0.012889991041974745,0.00992218201197144,16.631602549898453,0.011871236652318668,0.01407837826344702
417,0.25,0.001,0.012886246369368788,0.009919193343839783,16.62736555458843,0.01186821238728653,0.013162648615737757
418,0.25,0.001,0.012939238056972406,0.009965619558225508,16.664158696713656,0.011894474444477984,0.01740700823979245
419,0.25,0.001,0.012929122773525507,0.009998769445371801,16.421701016633406,0.011721414001879663,0.015623079405890571
420,0.25,0.001,0.012968445763639782,0.009954402034265408,16.89070179151452,0.01205617544005319,0.013519332744181156
421,0.25,0.001,0.012955548714144506,0.009993523372796135,16.599189855050348,0.011848101252712597,0.013227471046977572
422,0.25,0.001,0.012938841462027336,0.009978178672600483,16.59155411651169,0.011842651046760664,0.014813884264893003
423,0.25,0.001,0.012966739675165087,0.009997718873015348,16.638393139493637,0.011876083611344495,0.014039689054091772
424,0.25,0.001,0.012810006751206474,0.00988362378616264,16.399450924085535,0.01170553242261637,0.009666842718919119
425,0.25,0.001,0.01288052657754093,0.009922727605031021,16.575506459111754,0.011831196616068346,0.011398860149913363
426,0.25,0.001,0.012921124980177568,0.009953258127190065,16.63192679916603,0.011871468093623149,0.010537578983025419
427,0.25,0.001,0.01288155647183674,0.009926399135071299,16.5607018954512,0.011820629475696787,0.011956422486239009
428,0.25,0.001,0.012867753326460936,0.009894217243013174,16.663696095563363,0.011894144250937447,0.010111420622302426
429,0.25,0.001,0.01288231784828763,0.00995052214441956,16.429782259291496,0.01172718219792398,0.012002664928634962
430,0.25,0.001,0.012865955387984497,0.00990272456429143,16.605945531872734,0.011852923291843493,0.011943481655584441
431,0.25,0.001,0.01288684369807226,0.009959807039063046,16.403112922889598,0.011708146269014702,0.01044049227817191
432,0.25,0.001,0.01283279089662044,0.009873685683461203,16.582826116810676,0.011836421211142523,0.012057373403675027
433,0.25,0.001,0.012830380134392475,0.009892025557549103,16.46653844308162,0.011753417875147481,0.011444746930566099
434,0.25,0.001,0.012850184465987959,0.009871615339880404,16.691901027292445,0.011914276250744073,0.011185992819567522
435,0.25,0.001,0.012876254762860312,0.009951369364516459,16.39105827220972,0.01169954195018538,0.011419044083191289
436,0.25,0.001,0.012893064595434977,0.009909300565503645,16.721013055331465,0.011935055714012465,0.015340985937250985
437,0.25,0.001,0.01282965170516484,0.009941411798522957,16.18569725147192,0.011552960208045625,0.013625742350187566
438,0.25,0.001,0.012888027530541454,0.009954803177843924,16.43779008284859,0.011732897989185288,0.011718508580492603
439,0.25,0.001,0.012933789374495762,0.009953903925159702,16.699276813562367,0.011919540909038092,0.013214313114682833
440,0.25,0.001,0.012838374823331833,0.009855344324656155,16.716903700344805,0.011932122555563744,0.01266849734303024
441,0.25,0.001,0.012913270192085833,0.009988616112673628,16.389760805212934,0.011698615849545277,0.013375333820780119
442,0.25,0.001,0.012875730576722519,0.00992466124665478,16.53779295216436,0.011804277624671206,0.01123824684570233
443,0.25,0.001,0.012857690291560215,0.009941200685241947,16.344008238419242,0.011665958771177189,0.01277464193602403
444,0.25,0.001,0.01282003009016963,0.009878161390298519,16.486233089281164,0.011767475438459076,0.01331319473683834
445,0.25,0.001,0.012786944599255272,0.009873134758917318,16.328990134640016,0.01165523921102071,0.011800543094674746
446,0.25,0.001,0.012807105195479116,0.009835764954703442,16.65139151310575,0.01188536153683494,0.01018658270024591
447,0.25,0.001,0.012847123154695484,0.009952430127431517,16.22186016690904,0.01157877242463172,0.01203849223545856
448,0.25,0.001,0.012843658904666487,0.009946342301217543,16.236562286598094,0.011589266442967948,0.012777737031380335
449,0.25,0.001,0.012957677366616934,0.009930052969982658,16.966808291449063,0.012110498423589624,0.016247596074309614
450,0.25,0.001,0.012928210752273815,0.009901247972595518,16.963098885356516,0.012107850739012502,0.016241577143470447
451,0.25,0.001,0.012982917922562447,0.010038940519418406,16.49805008155712,0.011775910122453334,0.019279680421782866
452,0.25,0.001,0.012904572692038357,0.009972822069581867,16.42952985348909,0.01172700203675167,0.016875472126735583
453,0.25,0.001,0.012877828239098839,0.009917949785248957,16.58715972347536,0.011839514435028807,0.012068346711910434
454,0.25,0.001,0.012859488338016081,0.009902483392236889,16.571055509042047,0.011828019635290541,0.011386088406046232
455,0.25,0.001,0.012909866410537043,0.009988758186607258,16.36989104229471,0.01168443329214469,0.015004743614958392
456,0.25,0.001,0.012915649410823116,0.009938418757224428,16.684401304825492,0.01190892312978265,0.017359463704956904
457,0.25,0.001,0.012784112190854723,0.009829065452019373,16.560081592504527,0.011820186718418649,0.010931377454350391
458,0.25,0.001,0.012865820859113464,0.009935253164798452,16.422900213711504,0.01172226995982263,0.011621732885638872
459,0.25,0.001,0.012864739782568337,0.009870995888891428,16.77694141000941,0.011974976024275096,0.011860715432299508
460,0.25,0.001,0.01286112896396198,0.009899471360056297,16.59713001527648,0.01184663098877693,0.013986939719567696
461,0.25,0.001,0.012827109788422998,0.00992728421545547,16.250622569650844,0.01159930233379789,0.012473939969721768
462,0.25,0.001,0.012950877713012522,0.009924352681939152,16.96064689193947,0.012106100565267286,0.01536784465942118
463,0.25,0.001,0.012872954587573591,0.009934308520261791,16.468171921329223,0.011754583812511937,0.014388970823751556
464,0.25,0.001,0.01274287253888189,0.009865362588586151,16.125565888225168,0.011510039891666787,0.011246697615004249
465,0.25,0.001,0.01286569075739902,0.009924165877527084,16.484305063883465,0.011766099260445015,0.01324800391578012
466,0.25,0.001,0.012843982856450737,0.009900684630417305,16.494242986043293,0.01177319270952412,0.014278255506522126
467,0.25,0.001,0.012852094689573067,0.009872470941880474,16.69781137549359,0.011918494914699207,0.012701356576548683
468,0.25,0.001,0.012785094344745512,0.009858534414915071,16.40044228926949,0.011706240035167372,0.012508193134433694
469,0.25,0.001,0.012752661832432816,0.009799274696928003,16.55078213456748,0.011813548989698415,0.010881456236044565
470,0.25,0.001,0.012807126467426619,0.00987860719686833,16.41142133353413,0.011714076612087173,0.011026421665317483
471,0.25,0.001,0.012853915843626728,0.0098762481432894,16.68685067218283,0.0119106714291098,0.012582245903710524
472,0.25,0.001,0.012869745034022608,0.009904480660739153,16.617342437523,0.011861058128139186,0.015628919212354556
473,0.25,0.001,0.012810594753186771,0.00985009667288134,16.590631236200746,0.011841992317059777,0.011646498201621903
474,0.25,0.001,0.012856979570958925,0.009953299510306206,16.272223209989242,0.011614720349742499,0.01637289259168837
475,0.25,0.001,0.012843266156488571,0.009868459938013035,16.670814486517422,0.011899225186664827,0.012661957285470433
476,0.25,0.001,0.012824358796511871,0.00987861294677292,16.50796002927034,0.011782983604047352,0.01286818211277326
477,0.25,0.001,0.012852857658720535,0.009905769179264704,16.515483842379805,0.011788353920328197,0.012368266470730305
478,0.25,0.001,0.012757817404749601,0.009765501633502436,16.768938230431598,0.01196926354777416,0.011887701952622997
479,0.25,0.001,0.012836515390570614,0.009867252269084904,16.639750356259555,0.011877052359928305,0.011693824910455279
480,0.25,0.001,0.012762374150148336,0.009803608073380547,16.580925623575848,0.011835064684922089,0.012402790391610729
481,0.25,0.001,0.012813197975249394,0.009899627795253975,16.327647416487984,0.011654280811197704,0.013305503564576307
482,0.25,0.001,0.012779855398812157,0.00988787565164376,16.206653885219406,0.011567918547622702,0.01156462925589747
483,0.25,0.001,0.012782982091648855,0.009823977866250536,16.582260325335074,0.011836017362837311,0.013109644357528951
484,0.25,0.001,0.012858283368573673,0.009939675448813301,16.355878995812457,0.01167443183141503,0.013746512329412831
485,0.25,0.001,0.012799873610661514,0.00978959218153487,16.869617628014606,0.012041126072815564,0.011025986530714564
486,0.25,0.001,0.012791720178464184,0.009872642615675062,16.358510915783867,0.01167631043239391,0.014262712664074369
487,0.25,0.001,0.012804047056082367,0.009806064996814383,16.800690415976703,0.011991927491774948,0.01439134424759282
488,0.25,0.001,0.012757442527167175,0.009858409847146359,16.246178640835527,0.011596130364622075,0.014619467469553152
489,0.25,0.001,0.012733117744758509,0.009818545758616234,16.333261876866437,0.011658288277563482,0.010692364484485652
490,0.25,0.001,0.012819132727125416,0.00987489849490964,16.49948983952619,0.011776937786956597,0.017189486573139828
491,0.25,0.001,0.012797802619204142,0.009904984735708305,16.211352293042168,0.011571272157774566,0.013977778144180775
492,0.25,0.001,0.01279161838085755,0.009848329751495865,16.49418888921323,0.011773154096511942,0.010533958259556029
493,0.25,0.001,0.012761061147287272,0.009767058872334335,16.778388783551645,0.011976009124590752,0.010596376585049761
494,0.25,0.001,0.012809817071842112,0.009855578181104383,16.555554072062176,0.011816955083556157,0.014215146812299887
495,0.25,0.001,0.012767349761249363,0.009834670974616554,16.434732050135516,0.011730715239211646,0.012424437432653375
496,0.25,0.001,0.012827427477400372,0.009859056292992571,16.634753351626188,0.011873485618576865,0.012507957716782888
497,0.25,0.001,0.01277834985513186,0.009763523504353952,16.895087255947832,0.012059305678763621,0.015226607521375021
498,0.25,0.001,0.01278274252578832,0.009860534382903057,16.37605487436488,0.011688832886770077,0.01469212408281035
499,0.25,0.001,0.01278298906981945,0.009819806135003117,16.60567709328472,0.011852731686855616,0.011797175225284364
500,0.25,0.001,0.012763748525817326,0.009852844708855602,16.31270516437033,0.011643615392127287,0.012568955516649617
