epoch,beta,learning_rate,train_loss,train_reconstruction_loss,train_kl_unnormalized,train_kl_normalized,mean_unclipped_gradient_norm
1,0.0,0.001,0.06615038635290188,0.06615038635290188,135.91099439869757,0.09700998886416672,0.08611590291062991
2,0.02,0.001,0.04889570947574533,0.0437638755466627,359.48501276430875,0.2565917293107129,0.09187694100870027
3,0.04,0.001,0.0398610590139161,0.036634828020697056,112.99874308710513,0.08065577665032486,0.09304255122939746
4,0.06,0.001,0.036713260282640874,0.03307260843722717,85.00921905517578,0.060677529661081926,0.04514449772735437
5,0.08,0.001,0.035153268627498464,0.03201001246662243,55.046267899223,0.039290698000872946,0.038535243107212916
6,0.1,0.001,0.033062743758377824,0.030473138129581575,36.28038492285687,0.025896063470989914,0.029040862081779376
7,0.12,0.001,0.03051476196102474,0.027949511078388795,29.949298613175102,0.021377086804550395,0.028504800465371873
8,0.14,0.001,0.027952395467006643,0.024953066768205683,30.014711171025816,0.021423776710225422,0.026185975617004767
9,0.16,0.001,0.026416716416892798,0.023005816930014154,29.866691078517746,0.02131812353927034,0.05652478337287903
10,0.18,0.001,0.024998336521827657,0.021659438318532447,25.987756526781165,0.018549433637959432,0.03560647565043635
11,0.2,0.001,0.023869004981673284,0.020444335296102192,23.989811112777048,0.017123348403124232,0.04148329566750261
12,0.22,0.001,0.022680053331929705,0.019100022024434546,22.798292634383493,0.01627287125937437,0.04111369150794215
13,0.24,0.001,0.022250634551696156,0.01855409863850345,21.578530090995457,0.015402234183437157,0.07748863266574012
14,0.25,0.001,0.021509962933866873,0.01773312412202358,21.16540609276813,0.015107356240376967,0.045698617585003376
15,0.25,0.001,0.02076363329978093,0.017061790227890016,20.74512958029042,0.014807373005203727,0.024675360052949853
16,0.25,0.001,0.02052810109503891,0.017093658661064895,19.24661457227624,0.013737769145093675,0.03616909320569701
17,0.25,0.001,0.020326416126411895,0.016795344858065896,19.78812518575917,0.014124286356716038,0.06077207624912262
18,0.25,0.001,0.020304903514359308,0.016816045603026516,19.551559265800144,0.013955431310349853,0.051231910267637834
19,0.25,0.001,0.01982948670892612,0.016503091185637142,18.64112060878588,0.01330558216187429,0.03865706641227007
20,0.25,0.001,0.019747734730658325,0.016266988405714864,19.506102865467902,0.013922985628456747,0.04594898389445411
21,0.25,0.001,0.019753255322575568,0.016315532268389412,19.265001665198284,0.01375089340842133,0.049098399416026145
22,0.25,0.001,0.019468230174287504,0.01613520148007766,18.6782936759617,0.013332115400400928,0.05269723778797521
23,0.25,0.001,0.01900356844391512,0.015678734640064446,18.632370496003524,0.01329933654247218,0.027341541420254443
24,0.25,0.001,0.01900462778042192,0.015685525915544965,18.600245202105977,0.01327640628273089,0.020417227513260312
25,0.25,0.001,0.018809277214433835,0.015510171412125878,18.488189229550567,0.013196423432941161,0.026241075661447313
26,0.0,0.001,0.014802564434383226,0.014802564434383226,26.23225165989088,0.018723948365375363,0.016831901855766773
27,0.02,0.001,0.014229645630263764,0.013464601540371128,53.59133566151495,0.03825220247074586,0.018629539913187425
28,0.04,0.001,0.0148676573112607,0.012961422146662422,66.76587794428286,0.04765587290812481,0.02550739815665616
29,0.06,0.001,0.015103469345232715,0.01293803449396206,50.562903488822606,0.03609058064869565,0.01635652594268322
30,0.08,0.001,0.015324588097307993,0.013397120580725048,33.75477247486944,0.024093342237594177,0.023960932209673855
31,0.1,0.001,0.01571860586495503,0.013490622960354972,31.21404344973357,0.022279831156126743,0.018244109633896086
32,0.12,0.001,0.015987015319583207,0.013433468709497349,29.81265927522079,0.02127955694162797,0.019542115016116038
33,0.14,0.001,0.016247939590526665,0.013615664836505186,26.341549277927566,0.01880196236825665,0.016706097560624283
34,0.16,0.001,0.016654886813915293,0.01372950303327778,25.61539299674656,0.018283649533723457,0.014025924313399527
35,0.18,0.001,0.016833657696843148,0.01381796166786681,23.47216762708581,0.016753866971510215,0.02265864372667339
36,0.2,0.001,0.016992219579608545,0.013850067711394767,22.01077356753142,0.015710759148844695,0.016653620844913855
37,0.22,0.001,0.01728457441472489,0.013948622673102047,21.24394608207371,0.015163416189916994,0.02346505369577143
38,0.24,0.001,0.017381109151503316,0.013994594417188479,19.768778789354407,0.014110477365706215,0.01946802602873908
39,0.25,0.001,0.01756389483809471,0.014066878314251486,19.597279702891473,0.013988065455311545,0.023143596222831145
40,0.25,0.001,0.017328054360721424,0.013891072304028532,19.260846786499023,0.013747927756244841,0.020428686816659238
41,0.25,0.001,0.017338198339161667,0.014035146242898443,18.510305520762568,0.013212209508038949,0.03318610539038976
42,0.25,0.001,0.0172230514138937,0.014001836715185125,18.051688643745756,0.012884859845642938,0.02803652971569035
43,0.25,0.001,0.01709732015819653,0.013847526328071303,18.211844611789868,0.01299917531177007,0.025457780083848372
44,0.25,0.001,0.017042946446201076,0.01376195512873971,18.38667622441831,0.013123965898942404,0.02015321846637461
45,0.25,0.001,0.01692062122018441,0.013699114685473236,18.053321722279424,0.012886025497701232,0.02735537952846951
46,0.25,0.001,0.016828433003114616,0.013561469441198784,18.308063463957414,0.013067854007107362,0.019636312396162085
47,0.25,0.001,0.01653192989528179,0.013406653125648912,17.514052525395932,0.012501108155171971,0.011423518984682031
48,0.25,0.001,0.016488138929657316,0.013366439348977546,17.49400373707647,0.012486797813759078,0.014786361199286249
49,0.25,0.001,0.016367846920114497,0.013211023059228192,17.690841542119564,0.012627295890163858,0.014106456707749102
50,0.25,0.001,0.016265759801735048,0.013196007170430991,17.202893915591034,0.012279010646389033,0.014644014545612864
51,0.0,0.001,0.01260184463923392,0.01260184463923392,24.605645758587382,0.017562916315908197,0.0198940501237909
52,0.02,0.001,0.01235365453135708,0.011634938669917376,50.346049041748046,0.0359357951761228,0.014083754219528701
53,0.04,0.001,0.012919694510814936,0.011288567789546821,57.13021148681641,0.04077816665725654,0.013288654904398654
54,0.06,0.001,0.013103658506727737,0.0113983117238335,39.8198502648395,0.028422448440285155,0.011655285281853544
55,0.08,0.001,0.01334502780890983,0.011767675379372162,27.623385198841923,0.01971690592351315,0.0162481892750495
56,0.1,0.001,0.01368371559549933,0.011736784078504729,27.276510006448497,0.01946931477976338,0.011390977849562963
57,0.12,0.001,0.01396163485944271,0.01177705860008364,25.504930234162703,0.018204803878774236,0.01242216650603546
58,0.14,0.001,0.014217417065216148,0.011872155408820381,23.469368767116382,0.016751869212788283,0.011546800326969888
59,0.16,0.001,0.014552321576553843,0.012036870167307232,22.025922586192255,0.015721572152885263,0.021250104531645775
60,0.18,0.001,0.014770789624232313,0.012040225188045399,21.252893059771996,0.015169802326746607,0.008874484182645878
61,0.2,0.001,0.015011275269739006,0.012115647470497566,20.283872747006622,0.014478139005714935,0.012326870734492937
62,0.22,0.001,0.015225434303283691,0.01224438357612361,18.98387391131857,0.013550231200084634,0.017654542707734637
63,0.24,0.001,0.015582462400197982,0.012506560022416322,17.95558009603749,0.012816259882967517,0.01962878658539719
64,0.25,0.001,0.015546127599866493,0.012336423908886703,17.98717932327934,0.012838814649021655,0.018225526695864067
65,0.25,0.001,0.015456474036302256,0.012322493336446907,17.56282734083093,0.012535922441706588,0.01134380248064796
66,0.25,0.001,0.0154071243463651,0.012375469475012758,16.989394710374913,0.012126620064507434,0.010967545263055298
67,0.25,0.001,0.01537022516131401,0.012341171402646147,16.97481807542884,0.012116215614153348,0.012271711395846473
68,0.25,0.001,0.015478116251204325,0.012373998934484046,17.395473387345024,0.012416469227226999,0.02473204531189468
69,0.25,0.001,0.015350361101977203,0.012433974373599757,16.343432348500126,0.011665547714846628,0.012564773878289593
70,0.25,0.001,0.015283553671577703,0.012210683425807434,17.220364933843197,0.012291481037718198,0.014877219167020585
71,0.25,0.001,0.015318889336093612,0.012343687586810278,16.67303215690281,0.011900808106283233,0.018156757164332602
72,0.25,0.001,0.015267202633878459,0.012291627911769826,16.67512176513672,0.011902299618227493,0.020577559661534097
73,0.25,0.001,0.0152748880373395,0.012358307767173518,16.344515178514563,0.011666320612786982,0.024121941791640386
74,0.25,0.001,0.015137535359548485,0.01220345342774754,16.442595282844874,0.011736327825014185,0.014866441333045563
75,0.25,0.001,0.015088302084933157,0.012131455943960211,16.570166140017303,0.01182738482513726,0.013553483101228872
76,0.0,0.001,0.01159450994885486,0.01159450994885486,23.868103073783544,0.017036476141173124,0.017211729246709082
77,0.02,0.001,0.01141393144817456,0.010708550556522348,49.411926017429515,0.03526904069766561,0.01162309841149383
78,0.04,0.001,0.01198003349420817,0.01047007466463939,52.886307472560716,0.03774897035871572,0.010805633436474536
79,0.06,0.001,0.012188532859410928,0.010714756235804247,34.41268355659817,0.024562943295216393,0.008027577048374547
80,0.08,0.001,0.012374265817520411,0.010904176541320657,25.744942975251572,0.01837611918290619,0.01044462833346592
81,0.1,0.001,0.01276731358760077,0.010994398763970188,24.838538546354876,0.017729149569132675,0.010894427282942666
82,0.12,0.001,0.013057010238585265,0.01101841297486554,23.800621437404466,0.01698830937716236,0.009594554133299325
83,0.14,0.001,0.013310159632693167,0.0111047146210204,22.070203479269278,0.015753178786059443,0.010629705412106382
84,0.16,0.001,0.013585424842717854,0.011190064424729865,20.9743764661706,0.0149710039016207,0.010774337686598301
85,0.18,0.001,0.013928428825152958,0.011387971493860949,19.773224606721296,0.014113650682884579,0.009902908777197203
86,0.2,0.001,0.01415127780450427,0.011383457133627456,19.388582408739172,0.013839102361698195,0.012875865213572979
87,0.22,0.001,0.014432486972731093,0.011593529112313105,18.079000615658966,0.012904354472276208,0.012166334574835168
88,0.24,0.001,0.01473620842008487,0.011651584872085115,18.006491825269617,0.012852599447016144,0.011300960452192359
89,0.25,0.001,0.01473076729832784,0.011650572913172452,17.26141062197478,0.012320778459653662,0.011077917491396269
90,0.25,0.001,0.014848043296648109,0.01179149117320776,17.128919641245968,0.012226209594037094,0.015325442111740509
91,0.25,0.001,0.01480670255811318,0.01179867879042159,16.856966217704443,0.012032095801359345,0.015232610205809275
92,0.25,0.001,0.01474155691978724,0.011765854638879714,16.675834980840268,0.011902808694389913,0.012427312787622213
93,0.25,0.001,0.01482436253324799,0.011831405141755291,16.772533486407735,0.01197182975475213,0.01570788522561391
94,0.25,0.001,0.014832804514014203,0.011908352085105751,16.38863103451936,0.011697809446480628,0.021415232370297115
95,0.25,0.001,0.01474352880988432,0.011722491869459981,16.92989211372707,0.01208414854655751,0.012278509119318591
96,0.25,0.001,0.014683687552485777,0.01177210289499034,16.31652111551036,0.011646339125988836,0.016768577612108655
97,0.25,0.001,0.014754419741423233,0.011789506362832112,16.6153745933201,0.011859653528422628,0.015966919768187735
98,0.25,0.001,0.014737528285578541,0.011789373765173165,16.521458945896313,0.011792618805065177,0.013008572057717376
99,0.25,0.001,0.014682637615048367,0.011738508027856765,16.498902455205503,0.011776518526199502,0.01450014067813754
100,0.25,0.001,0.014586533648164377,0.011666507921789004,16.36382520924444,0.011680103646855417,0.014435976484997405
101,0.25,0.001,0.014487299648639948,0.011583910458113836,16.27059370621391,0.011613557249260463,0.009104824728435941
102,0.25,0.001,0.014593455762318942,0.011695288923447547,16.24132757767387,0.011592667792772213,0.012328985768059889
103,0.25,0.001,0.014566074846231418,0.011663375360810238,16.266728097666864,0.011610798071139803,0.015439200628962781
104,0.25,0.001,0.014656772445077482,0.011647865660488605,16.861913355951724,0.012035626949287455,0.01849395942149891
105,0.25,0.001,0.014467844509560129,0.011598745053229125,16.0784342724344,0.011476398481395004,0.011711427631477514
106,0.25,0.001,0.014549171383614126,0.01165982917437087,16.191873573634936,0.011557368717797957,0.007309169094595645
107,0.25,0.001,0.014486950276338536,0.01156364805024603,16.382185927681302,0.01169320908471185,0.010827415777991215
108,0.25,0.001,0.014528032316137914,0.011574457268352094,16.551833877563478,0.011814299698475002,0.010161956306546926
109,0.25,0.001,0.014469810938057692,0.011597457748392354,16.096666137031885,0.011489411946489569,0.014183604003240665
110,0.25,0.001,0.014492464379771896,0.011542386425578076,16.532237296726393,0.011800312131853242,0.019384283986356523
111,0.25,0.001,0.014454009400113769,0.011623502778618231,15.862158568009086,0.01132202610136266,0.018485494371917512
112,0.25,0.001,0.014379698002467984,0.011487178844602212,16.209676861970323,0.011570076275496305,0.02287487473545803
113,0.25,0.001,0.014423240606227647,0.01162769961292329,15.66621234562086,0.011182164415146937,0.01665385543472237
114,0.25,0.001,0.014384720335188119,0.011439834538361301,16.503140209032143,0.0117795433326425,0.00951670989808109
115,0.25,0.001,0.01430062304534342,0.011521048309362453,15.576736775273861,0.011118298911687268,0.011581758088949654
116,0.25,0.001,0.014343378908284332,0.01145071351495774,16.2104971247134,0.011570661759252962,0.013629913330078125
117,0.25,0.001,0.014366313219070434,0.011517687959839469,15.963696819802989,0.011394501655819407,0.010431136418547895
118,0.25,0.001,0.014331152759816336,0.011476117639761904,15.999617419035538,0.01142014091294471,0.016356880362663005
119,0.25,0.001,0.01429856329832388,0.011445926254534203,15.986178834334664,0.011410548775399475,0.011784765093276897
120,0.25,0.001,0.014323085392622843,0.011481257903835048,15.92560171376104,0.01136731028819489,0.012626508199092414
121,0.25,0.001,0.014331256820131904,0.011474374284886795,16.00997055882993,0.011427530734353984,0.015992955822083686
122,0.25,0.001,0.014242290149888266,0.01145524937659502,15.618576301906419,0.011148162956392876,0.014117126767006185
123,0.25,0.001,0.01436258370137733,0.011498730260392893,16.049035281305727,0.01145541419079638,0.012500183863772286
124,0.25,0.001,0.014289501869808072,0.011432531143984069,16.010463699672535,0.011427882726390103,0.010211307710657517
125,0.25,0.001,0.014242265891769659,0.011450785404962043,15.643456427532694,0.011165921789816341,0.011773991501993604
126,0.25,0.001,0.014221862444411154,0.011349815439594828,16.094951609735904,0.01148818815826974,0.010530712652123637
127,0.25,0.001,0.014281014202405577,0.011437246018777722,15.936476952925972,0.011375072771538881,0.013615212092796961
128,0.25,0.001,0.014275710854841315,0.011447513077570045,15.849220289147418,0.01131279107005526,0.014304748322400782
129,0.25,0.001,0.014277807242520478,0.011415371433224367,16.04109050253163,0.01144974339938018,0.012353210709989071
130,0.25,0.001,0.014209860892075559,0.01139608635040729,15.768392695551332,0.01125509828376255,0.013698683741192022
131,0.25,0.001,0.014280026318586391,0.011422100357063439,16.015817380158797,0.011431704054360312,0.01437294938498073
132,0.25,0.001,0.014280612416889356,0.011427670035349287,15.987889787425166,0.011411770012437664,0.012019723860753907
133,0.25,0.001,0.014218038874475852,0.01136766003039868,15.973522206182066,0.01140151477957321,0.01541152513689465
134,0.25,0.001,0.014194605564293654,0.011442641312985316,15.422007290384045,0.011007856738318375,0.01471732732736402
135,0.25,0.001,0.014198272754640683,0.011415516964119413,15.594564267034116,0.011131023745206364,0.011538952382074462
136,0.25,0.001,0.014196144588615584,0.011322674715648526,16.102926260906717,0.011493880271882025,0.013618911616504192
137,0.25,0.001,0.014198526887466078,0.011425680889059668,15.539028967152472,0.011091383987974641,0.012297169408864446
138,0.25,0.001,0.014204661504405997,0.011356843177067196,15.959173222417418,0.011391272821140198,0.011860302183777094
139,0.25,0.001,0.014161148725644402,0.011328184194862843,15.875932792995288,0.01133185781084603,0.009973791841831472
140,0.25,0.001,0.014135605049845965,0.011270923376407312,16.05367681088655,0.01145872720263137,0.014924352005538013
141,0.25,0.001,0.014109896768046462,0.011237571004616177,16.096512656833813,0.01148930239602699,0.010979121550917625
142,0.25,0.001,0.014086284707097904,0.0112879961291733,15.681609782343326,0.011193154734006656,0.016890496481209993
143,0.25,0.001,0.014158903391140959,0.011299866999944915,16.02204101894213,0.011436146337574681,0.013952138161079751
144,0.25,0.001,0.014071106152689975,0.011268822933020799,15.703995570307193,0.011209133169384149,0.01464912916223208
145,0.25,0.001,0.014098295483576214,0.011267683959525564,15.86274766839069,0.011322446587002634,0.015040768155207237
146,0.25,0.001,0.014116389903685321,0.01128917423279389,15.843717394289763,0.01130886323646664,0.012629942502826452
147,0.25,0.001,0.01409907856065294,0.011207547421040742,16.204140880418862,0.011566124825423884,0.012754897587001324
148,0.25,0.001,0.013999163560245349,0.011246516241327576,15.425834566199262,0.011010588555459859,0.009655040119671159
149,0.25,0.001,0.014121758950793225,0.011281781781302846,15.915232905512271,0.011359909283020893,0.012102531062232124
150,0.25,0.001,0.014118015215448712,0.011273274042684099,15.941930701214334,0.01137896552549203,0.012231250190072589
151,0.25,0.001,0.014006745731053144,0.011203843087929747,15.707466719254203,0.011211610791758888,0.011914513487782743
152,0.25,0.001,0.014072360645817674,0.011207520271772924,16.054565520908522,0.01145936154240437,0.012781724644203981
153,0.25,0.001,0.014062148149570693,0.011257107290236846,15.719449149422024,0.011220163561329068,0.011345605055491129
154,0.25,0.001,0.013973769216757753,0.011154097809415797,15.801438739610754,0.011278685752755714,0.01032997936838203
155,0.25,0.001,0.013937572506458863,0.011137865572843863,15.689557921368143,0.011198827923888753,0.01181172351870272
156,0.25,0.001,0.013953633794318075,0.01120431649134211,15.40717397938604,0.010997269078790891,0.010280268784198496
157,0.25,0.001,0.014016094810288886,0.011205523195474043,15.750443163332731,0.011242286340708587,0.016421061733530626
158,0.25,0.001,0.013989051794228347,0.011179646342668844,15.743908001443614,0.011237621699816997,0.013452208807898892
159,0.25,0.001,0.013975430535881416,0.01117622936387425,15.686723362466564,0.011196804684130309,0.011846801679995324
160,0.25,0.001,0.013987675030594287,0.011183869155204815,15.712528144173,0.011215223514755889,0.011899757198989391
161,0.25,0.001,0.013941290840182615,0.011157680962072767,15.599349743386973,0.011134439502774427,0.013555981270554993
162,0.25,0.001,0.013939818769045499,0.01114790376599716,15.645893140046493,0.01116766105642148,0.010995507861177126
163,0.25,0.001,0.013963913185440976,0.011115149577026782,15.964471360911494,0.01139505450457637,0.009860771035568582
164,0.25,0.001,0.013941203495082648,0.011162608623828577,15.571246772434401,0.011114380280110208,0.013676082922352685
165,0.25,0.001,0.014004085279353286,0.011132435464988584,16.09272643379543,0.011486599881367188,0.014355348733564218
166,0.25,0.001,0.013919798009421515,0.011179043108030506,15.359190504654594,0.010963019632158882,0.01626411597761843
167,0.25,0.001,0.013925468544273272,0.011060098385357339,16.057534330616825,0.011461480607149768,0.010673097696983151
168,0.25,0.001,0.013819753514683765,0.011117161946452183,15.145323002027428,0.010810366168470684,0.010118569506125318
169,0.25,0.001,0.013861429289631222,0.011040625897762568,15.807783443616785,0.011283214449405271,0.01144326188498073
170,0.25,0.001,0.013910004613192185,0.011141909626515015,15.512404115096382,0.011072379810918189,0.018923496310081746
171,0.25,0.001,0.013846195362832235,0.011087643432876338,15.458925605442213,0.011034208140929489,0.014840358764761023
172,0.25,0.001,0.013910845134245313,0.01111556778135507,15.664734915028447,0.01118110986083401,0.016259038510421913
173,0.25,0.001,0.01394821427276601,0.011132277485145175,15.780509869119395,0.011263747229921054,0.017512638121843338
174,0.25,0.001,0.013794326728776745,0.010960935244093771,15.87832642264988,0.011333566325945668,0.009603225419090854
175,0.25,0.001,0.013823488503694534,0.01108378333080074,15.35330877221149,0.010958821393441462,0.010708170839481883
176,0.25,0.001,0.013937373723348846,0.011090086019881394,15.95620088328486,0.011389151237176915,0.009958654072963528
177,0.25,0.001,0.013798342117148896,0.011020831621211508,15.565169281337573,0.01111004231358856,0.009958228717247644
178,0.25,0.001,0.013784827198023382,0.01101165978157002,15.540829754705014,0.01109266934668452,0.01219185245119863
179,0.25,0.001,0.013823933965809967,0.011054233173313348,15.521402596183446,0.011078802709624158,0.014804993756115437
180,0.25,0.001,0.013878839145536007,0.011039487319472043,15.911728217083475,0.011357407720973215,0.012684615121947395
181,0.25,0.001,0.013767610739754594,0.01096363475303287,15.713481551460598,0.01121590403387623,0.009742640683220493
182,0.25,0.001,0.013782693045618742,0.010969106148442497,15.767341713283374,0.011254348117975285,0.009897551188866297
183,0.25,0.001,0.013814379697584587,0.010998477326787036,15.78031702456267,0.011263609582128959,0.011551298770225711
184,0.25,0.001,0.013800970158823159,0.011029461929979532,15.531532411989959,0.011086033127758714,0.014386794581595395
185,0.25,0.001,0.013759253232375436,0.010968632563624693,15.63863848976467,0.011162482862073284,0.01243323227390647
186,0.25,0.001,0.0137835630013243,0.010967044548495956,15.783769731936248,0.011266074041353496,0.01474208477884531
187,0.25,0.001,0.01375625386186268,0.010938547917682192,15.79042487434719,0.01127082432144696,0.01141033751062221
188,0.25,0.001,0.013783202683148177,0.011031019579133262,15.423234239661175,0.011008732505111474,0.012856991444196966
189,0.25,0.001,0.013816860904512198,0.011023049902008928,15.65651718803074,0.011175244245560843,0.01019586974547969
190,0.25,0.001,0.013815605015210484,0.011013382979385231,15.70365244658097,0.011208888255946445,0.008935819793906476
191,0.25,0.001,0.013712894424148228,0.010951729807192865,15.473567345660665,0.011044659061856293,0.01027725331692232
192,0.25,0.001,0.013840400605745937,0.011072277157850887,15.512563304071842,0.011072493436168339,0.013512971293595102
193,0.25,0.001,0.013828236962790074,0.01097205893015084,16.006022206182067,0.011424712495490411,0.012869729867411984
194,0.25,0.001,0.013741152924687966,0.010918477154944255,15.818274902675462,0.011290702999768353,0.010027720230735011
195,0.25,0.001,0.013759116235634555,0.011046414461148821,15.201981466542119,0.010850807613520428,0.009659065451059077
196,0.25,0.001,0.013742306520757468,0.010891287713918996,15.977109028360118,0.011404074966709577,0.011616907755119933
197,0.25,0.001,0.013733375566485136,0.01094635537137156,15.618461149464483,0.011148080763357947,0.010599445344673263
198,0.25,0.001,0.013698547061370766,0.010888391287754411,15.74811236837636,0.011240622675500614,0.009943789336830378
199,0.25,0.001,0.013718135429789191,0.010961901407850826,15.445935386989428,0.011024936036395023,0.011063852657874426
200,0.25,0.001,0.013690558221677075,0.010844562317690125,15.94896024952764,0.011383983047485825,0.01391265613751279
201,0.25,0.001,0.013762125776189824,0.010986425001984058,15.5550277245563,0.011102803515029479,0.010965347496999634
202,0.25,0.001,0.01374008667209874,0.010927164256572723,15.76361760844355,0.011251689941786974,0.011142483498487208
203,0.25,0.001,0.013854766167376352,0.011014271791538466,15.918130519701087,0.011361977530122119,0.013269612151715491
204,0.25,0.001,0.01379793576248314,0.011042506257477014,15.441426612190579,0.011021717781720614,0.01240859708438317
205,0.25,0.001,0.013817122076516567,0.010958589352667332,16.019217693494713,0.011434131115984807,0.011791472944120565
206,0.25,0.001,0.013684222098925839,0.01093280802278415,15.418924301810886,0.01100565617545388,0.013681884958512254
207,0.25,0.001,0.013798631034467532,0.010989413884994777,15.742854236105215,0.011236869547541195,0.01603075686014361
208,0.25,0.001,0.013774315008650655,0.010966023580859536,15.73766542683477,0.011233165900667216,0.01719777544753419
209,0.25,0.001,0.013716031636880791,0.010944014266133308,15.534385533540146,0.011088069617087899,0.015104808741145663
210,0.25,0.001,0.013658831485587618,0.010901185118633768,15.453850091021994,0.011030585361186292,0.011417493482844697
211,0.25,0.001,0.01369642608191656,0.010908271743227607,15.624818050550378,0.011152618165988849,0.013888761608137025
212,0.25,0.001,0.013651279306606106,0.010822945376453192,15.849984399546747,0.01131333647362366,0.010855638784252934
213,0.25,0.001,0.013659240823724996,0.010910430032273998,15.40433554276176,0.010995243071207538,0.010127159456411997
214,0.25,0.001,0.013707084186051204,0.010887195144010627,15.802658492378567,0.011279556382854081,0.012337907476143705
215,0.25,0.001,0.013697908852735292,0.010927911964447602,15.523062425696331,0.011079987455886032,0.01438548183068633
216,0.25,0.001,0.013745121384120505,0.010948033439724341,15.674880349532417,0.011188351427218,0.01588571433805757
217,0.25,0.001,0.013664033174838709,0.01084840250727923,15.77879438980766,0.011262522762175346,0.010675083949334092
218,0.25,0.001,0.013655705233306989,0.010895115875679514,15.47034377720045,0.011042358156459993,0.012487757744060623
219,0.25,0.001,0.013656987100839615,0.010849969767681931,15.73052560225777,0.011228069666136882,0.011748521174821589
220,0.25,0.001,0.01365285376491754,0.010817583250286786,15.888856428395147,0.011341082390003674,0.011218560135198964
221,0.25,0.001,0.013675951466936133,0.010872596173506716,15.710003559278405,0.011213421526965315,0.010599365095711417
222,0.25,0.001,0.0136592513549587,0.010866093122116897,15.652858966329823,0.011172633095167611,0.0117314035176403
223,0.25,0.001,0.013605963103473187,0.01076136379138283,15.94113405144733,0.011378396896108015,0.010425478582166962
224,0.25,0.001,0.013575952584328858,0.010809055001515409,15.505693994605023,0.011067590288797304,0.011770205365286933
225,0.25,0.001,0.013661179273672726,0.010889384067900803,15.533141401539678,0.011087181585681427,0.010827637587984404
226,0.25,0.001,0.013642818030455839,0.010830318542278332,15.761247555276622,0.011249998255015433,0.010533222204281224
227,0.25,0.001,0.013612725951749345,0.010800661135302937,15.758811058376146,0.011248259142309883,0.010030517354607582
228,0.25,0.001,0.013636845713076384,0.010817144205388816,15.801607044054114,0.011278805884406934,0.010620077192369435
229,0.25,0.001,0.013570139489096144,0.010829759798943996,15.357087614639946,0.010961518639999961,0.01404586982809835
230,0.25,0.001,0.013630388115087282,0.010838154888023501,15.647675466122834,0.011168933237775042,0.014610664608577887
231,0.25,0.001,0.01356517441732728,0.010845520749040272,15.240940095652705,0.010878615343078305,0.009471107170813613
232,0.25,0.001,0.013615682977049248,0.010770919217687585,15.94205584484598,0.011379054849997131,0.011245014456411203
233,0.25,0.001,0.013520396134775618,0.010823874732722406,15.111305820630944,0.010786085525075621,0.011542829270992015
234,0.25,0.001,0.013584133759140969,0.010773670741397401,15.74983528137207,0.011241852449230599,0.009893475307358636
235,0.25,0.001,0.013636855029541513,0.010832919846086399,15.713253173828125,0.011215741023431924,0.011149917729198933
236,0.25,0.001,0.013525410840368788,0.01073514677422202,15.6366397857666,0.011161056235379444,0.011624532337817881
237,0.25,0.001,0.01365281981618508,0.01082921103776797,15.82350413446841,0.011294435499263676,0.012434040454940664
238,0.25,0.001,0.01366009800978329,0.010845091994041982,15.775294511214547,0.01126002463327234,0.014708148419029184
239,0.25,0.001,0.013529675393972708,0.010754727528471014,15.550808321082073,0.01109979180662532,0.012065879483189847
240,0.25,0.001,0.013501074158627054,0.010784977177238983,15.221007416766623,0.010864387877777746,0.011747477369176017
241,0.25,0.001,0.013636199849779191,0.010837008752252745,15.686667571689771,0.011196764862019822,0.012790635642078187
242,0.25,0.001,0.013516659778745279,0.010766902472014013,15.409640259120776,0.010999029449765009,0.010457115040885078
243,0.25,0.001,0.013556606790617756,0.010770436036198035,15.613701440562373,0.01114468339797457,0.010440559540357854
244,0.25,0.001,0.013519717688145845,0.010726843809951907,15.65126514268958,0.011171495462305196,0.011576019330985017
245,0.25,0.001,0.01353389974521554,0.010777534155741982,15.446672711579696,0.01102546232089914,0.010101790850361189
246,0.25,0.001,0.013531215790173282,0.010744623969430508,15.616060429448666,0.011146367187329526,0.010251409322437312
247,0.25,0.001,0.013509787505735522,0.01069216485256734,15.789957522516666,0.011270490736985486,0.012547333362615772
248,0.25,0.001,0.013550975457157778,0.010782492040939952,15.514580307006836,0.011073933124201882,0.016102631990280416
249,0.25,0.001,0.01355442888872779,0.010767110051668208,15.620134682033372,0.011149275290530601,0.01431304288821088
250,0.25,0.001,0.013490644085990346,0.010756453330750052,15.322404470029085,0.010936762648129254,0.01345821956379546
251,0.25,0.001,0.013564744552840357,0.010767225248982076,15.677297902314558,0.011190077018068921,0.014425506608353721
252,0.25,0.001,0.013581741367993148,0.0107824350035061,15.68731368686842,0.011197226043446409,0.012965416742695702
253,0.25,0.001,0.013541824328510657,0.010790451193309349,15.418694663669752,0.011005492265288902,0.014424380742841296
254,0.25,0.001,0.013568203946494538,0.010745253859330778,15.819812237283458,0.011291800312122383,0.012658588639977906
255,0.25,0.001,0.013476683589751307,0.010708803009727727,15.511203175420347,0.011071522609150855,0.01184011333518558
256,0.25,0.001,0.013516540373473064,0.01071453375822824,15.70244423907736,0.01120802586657913,0.01131022142039405
257,0.25,0.001,0.013529973336212014,0.010769637346915576,15.46892275934634,0.011041343868198671,0.015755063233276207
258,0.25,0.001,0.013559751285483007,0.010718755380291005,15.920941553530486,0.011363983978251595,0.014006089833047655
259,0.25,0.001,0.013557295925591304,0.010763283054465833,15.657647713370945,0.011176051187274052,0.01046898795498742
260,0.25,0.001,0.013498360534077105,0.01068383715722872,15.772589698459791,0.011258094003183292,0.011298611294478178
261,0.25,0.001,0.013492791621905306,0.010742867867583814,15.410572872991148,0.010999695127045787,0.011860082960791059
262,0.25,0.001,0.01344628338418577,0.010657378665131072,15.629021948109502,0.011155618806644898,0.009575877390387986
263,0.25,0.001,0.013480286190043326,0.010681382079163323,15.685059575619904,0.01119561711321906,0.011363947039677037
264,0.25,0.001,0.013480281168999879,0.010691584852402625,15.627854285862135,0.011154785357503309,0.012072886029879252
265,0.25,0.001,0.013511188253760338,0.01073885666773371,15.536146482384723,0.011089326539889166,0.012202389020886686
266,0.25,0.001,0.013514015396004138,0.010761656161883603,15.424221642535667,0.011009437289461575,0.012113703000876639
267,0.25,0.001,0.013517130095025767,0.010713176369343115,15.71335672793181,0.011215814937852826,0.011956033917764822
268,0.25,0.001,0.013533148538807164,0.010757916498443355,15.552400376693063,0.011100928177511108,0.009494297051181396
269,0.25,0.001,0.01351873852312565,0.010690187445801237,15.851200221517812,0.011314204298014142,0.010890609688229032
270,0.25,0.001,0.013477616041250851,0.010685387292633885,15.647649574279786,0.011168914756802132,0.01111613493412733
271,0.25,0.001,0.013496666997671127,0.010775431980905326,15.249801040317701,0.010884940071604355,0.008850901232411465
272,0.25,0.001,0.013410502612266851,0.010582446264831916,15.848427099144978,0.011312224910167722,0.01049554358339972
273,0.25,0.001,0.013540143040211304,0.010755126160448013,15.607234359409498,0.01114006735147002,0.010148410530140003
274,0.25,0.001,0.013427062217632065,0.010626412837401681,15.69483910602072,0.011202597506081885,0.010328394050399462
275,0.25,0.001,0.013419155024963877,0.01065025534318841,15.516913495271103,0.011075598497695292,0.010357166330019632
276,0.25,0.001,0.013464471053170122,0.010702459224216317,15.478313933662747,0.011048047061857778,0.01000239234417677
277,0.25,0.001,0.013501180403906366,0.010710931708631308,15.636553615072499,0.011160994728816915,0.01211840845644474
278,0.25,0.001,0.013518090196277784,0.01071373640033214,15.71559802511464,0.011217414721709236,0.010200473428186443
279,0.25,0.001,0.013475249064681323,0.010697735787733741,15.56518463300622,0.011110053271239272,0.011574511726697287
280,0.25,0.001,0.01348392645140057,0.01064663715498603,15.900169067382812,0.011349157078788589,0.012967105851405196
281,0.25,0.001,0.01341085958092109,0.010728881796417029,15.029802667369013,0.01072791054059173,0.012466457672417164
282,0.25,0.001,0.013446721092838308,0.01063683584332466,15.74659717393958,0.011239541166266652,0.010963364090356562
283,0.25,0.001,0.013367192822953929,0.010635997503995895,15.305619337662407,0.01092478182559772,0.012499790845645798
284,0.25,0.001,0.01350015248293462,0.010713211987977443,15.618014496513036,0.011147761953256985,0.012907933650745286
285,0.25,0.001,0.013441668139851612,0.010610545698715293,15.865610053020974,0.011324489688094914,0.011271399652792348
286,0.25,0.001,0.013451359819458879,0.010689472246753132,15.477617369942044,0.011047549871478974,0.013271512049767707
287,0.25,0.001,0.013446314820776815,0.010669177969836671,15.563074566385021,0.011108547156591736,0.013667355808946822
288,0.25,0.001,0.01339106970993073,0.010689501772108286,15.139586481840714,0.01080627157875854,0.01088577788323164
289,0.25,0.001,0.013435785163031972,0.01055442727940238,16.14712842858356,0.011525430712764854,0.012995619016389051
290,0.25,0.001,0.013473494119294311,0.010759397573445155,15.2097976883598,0.010856386644082654,0.014397721116741499
291,0.25,0.001,0.013441363885674788,0.010644492573388245,15.673667493073836,0.011187485719538783,0.013419625970224539
292,0.25,0.001,0.013479169032172016,0.01069227773372246,15.617738066963527,0.011147564644513582,0.012194279374347793
293,0.25,0.001,0.013384210778319318,0.010634785887339841,15.40777720409891,0.010997699646037766,0.010380279065834152
294,0.25,0.001,0.01336591621617908,0.010602373450022677,15.486893479720406,0.011054170934846829,0.00938754068273637
295,0.25,0.001,0.01335569422206153,0.010588493807160336,15.507390601116677,0.011068801285593632,0.010676611007915603
296,0.25,0.001,0.013366986451589543,0.010588286470459856,15.571834708504054,0.011114799934692401,0.009799876095106205
297,0.25,0.001,0.01339023045061723,0.01060699425637722,15.5972552092179,0.011132944474816489,0.010082073871874146
298,0.25,0.001,0.013379519703271597,0.010621532332961973,15.455761111715566,0.011031949401652795,0.01139983938386043
299,0.25,0.001,0.013431705545796,0.010592252145642819,15.912297043178393,0.011357813735316483,0.015133426214257876
300,0.25,0.001,0.013428500851859216,0.01064296345833851,15.610151692266049,0.011142149673280548,0.011468017059895728
301,0.25,0.001,0.01334658587432426,0.010601419361065264,15.383914609162703,0.010980667101472307,0.014745432262619337
302,0.25,0.001,0.013390247659838718,0.010667713240760823,15.257082685387653,0.010890137534181051,0.010833093586067358
303,0.25,0.001,0.013372905856889227,0.010489940588241039,16.156138091709302,0.011531861592940259,0.010928966829346286
304,0.25,0.001,0.013360908193432766,0.010651914720302042,15.18119931925898,0.010835973818172005,0.011117945632172955
305,0.25,0.001,0.013380583814628746,0.010568966723006704,15.756303236588188,0.011246469119620406,0.010824419040646818
306,0.25,0.001,0.013378760644599148,0.010588317281850007,15.637644951861837,0.011161773698687963,0.010133368997938104
307,0.25,0.001,0.013405850871425607,0.010608937311107697,15.673904355919879,0.011187654786523825,0.011776611260655854
308,0.25,0.001,0.013434334912377855,0.010662126103821008,15.535458229728366,0.011088835281747585,0.012002005034850704
309,0.25,0.001,0.01342368797439596,0.010603410669642946,15.804834712484608,0.011281109716263104,0.009203076983491579
310,0.25,0.001,0.013388468879072562,0.010609493424063143,15.573378614342731,0.011115901937432357,0.009888378230647909
311,0.25,0.001,0.013435766918827658,0.010576528587742991,16.02317098202913,0.011436952877965118,0.01126966035614411
312,0.25,0.001,0.013373711642039859,0.01064284211591534,15.303793265301248,0.010923478419201462,0.01022719271067116
313,0.25,0.001,0.013301563243503156,0.010537717018438423,15.488593706877335,0.011055384515972402,0.008474464942183759
314,0.25,0.001,0.013348606086295584,0.010561690680358721,15.617873578278914,0.011147661369221209,0.009324296532819668
315,0.25,0.001,0.01338396912359673,0.010597616208960181,15.614720870308254,0.011145411042332801,0.011368119468291601
316,0.25,0.001,0.013333083559637485,0.010536567706452763,15.671674476291823,0.011186063152242558,0.010728920551223887
317,0.25,0.001,0.013380768095021662,0.010610238187338994,15.52605047143024,0.011082120250842428,0.010619670514845185
318,0.25,0.001,0.013407129318169925,0.01061763737026764,15.632313763162363,0.011157968424812537,0.014188498155110411
319,0.25,0.001,0.013333113896458046,0.010555357539459416,15.566546939352284,0.011111025652642601,0.01128345365739531
320,0.25,0.001,0.013389175877622936,0.01056471544439378,15.828275413513184,0.01129784112313575,0.009866878700753054
321,0.25,0.001,0.013323088403305282,0.01054888599106799,15.546630567467732,0.011096809826886319,0.011007993068132136
322,0.25,0.001,0.013343016871291658,0.010555666782285856,15.620309405119523,0.011149400003654192,0.010357624333765771
323,0.25,0.001,0.013299738942928937,0.010542214684512304,15.453166595127271,0.011030097498306404,0.012697919582327208
324,0.25,0.001,0.013319758938058562,0.010576506385012813,15.37318700707477,0.010973009997912042,0.010461456349326504
325,0.25,0.001,0.01329156713479239,0.010565508145677006,15.27683481796928,0.010904236129885283,0.014497440308332443
326,0.25,0.001,0.013340817762781744,0.010612749235461587,15.288095101066258,0.010912273448298542,0.017738820984959602
327,0.25,0.001,0.013435169481064962,0.010660165865784107,15.551120200779128,0.011100014418828784,0.014548285346892145
328,0.25,0.001,0.013348153018109177,0.010561713631386343,15.615207051816194,0.011145758066963735,0.011235881286362806
329,0.25,0.001,0.013371750509933285,0.010563190644202025,15.739169958363409,0.011234239798974595,0.012338089446226755
330,0.25,0.001,0.013278800409449183,0.010477716252207756,15.697275256281314,0.011204336371364249,0.010513997895436155
331,0.25,0.001,0.013290157206356526,0.010554731310061786,15.329328470644743,0.010941704832722872,0.010945298398534456
332,0.25,0.001,0.013426201952540356,0.010629238427981087,15.674182493790337,0.011187853314625507,0.01588147971779108
333,0.25,0.001,0.013318173282820246,0.010541035275420416,15.563081684941832,0.011108552237645846,0.01104778465297487
334,0.25,0.001,0.013326048731156018,0.010552468800350375,15.543142127990723,0.01109431986294841,0.011092737317085266
335,0.25,0.001,0.013319753968845244,0.010555262285406175,15.492211370053498,0.011057966716669164,0.01161464707305034
336,0.25,0.001,0.013315545458184636,0.010564123304641765,15.41897040159806,0.011005689080369778,0.013356562186446454
337,0.25,0.001,0.013304929509758949,0.010530125889117304,15.549999310037364,0.011099214354059504,0.00984391730485691
338,0.25,0.001,0.013321632859499558,0.010546995976372906,15.549065206776495,0.011098547613687719,0.010433572758403089
339,0.25,0.001,0.01330503997919352,0.010621325344495152,15.039537592348845,0.010734859095181189,0.011364087979826663
340,0.25,0.001,0.013297544275612935,0.010475937375879806,15.812285595769467,0.011286427976994622,0.01117815656794442
341,0.25,0.001,0.013384020305846048,0.010591498943774596,15.649289066480554,0.011170084986781266,0.015126682714455657
342,0.25,0.001,0.01337765346078769,0.010578708136859148,15.685290474269701,0.01119578192310471,0.012488760261072053
343,0.25,0.001,0.01334716844331959,0.010544279154552066,15.707391350787619,0.011211556995565752,0.010155473939246602
344,0.25,0.001,0.013303428761984992,0.010506180949185205,15.675777213055154,0.011188991586763137,0.010917396905521551
345,0.25,0.001,0.013283051409475182,0.010557072645296222,15.276384249148162,0.010903914524731021,0.0106632589466042
346,0.25,0.001,0.013310933058028636,0.010522326036639836,15.62735361016315,0.011154427987268487,0.0095735605702632
347,0.25,0.001,0.013353701104288516,0.010520634911954404,15.876503302532694,0.01133226502678993,0.009505005915545754
348,0.25,0.001,0.013226829135547513,0.010441274971741698,15.610244920150093,0.011142216217094998,0.008869755806194412
349,0.25,0.001,0.013313938576890075,0.010535433467315591,15.570742925560992,0.011114020646367588,0.012968905063139068
350,0.25,0.001,0.013295089408107426,0.010538758789391622,15.446476601310398,0.011025322342120197,0.010657483090957006
351,0.25,0.001,0.013302990133347719,0.010488427049763825,15.772811501544455,0.011258252320873987,0.012163406237959862
352,0.25,0.001,0.013237805599751679,0.010518195635598639,15.240694188657015,0.01087843982059744,0.011131566328306993
353,0.25,0.001,0.013304163439442282,0.010530443034418252,15.543929781706437,0.01109488207116805,0.010861985902819369
354,0.25,0.001,0.013344753169171188,0.010545580089092255,15.686565346095874,0.011196691895857154,0.013164541270169947
355,0.25,0.001,0.013270491445841996,0.01049479954916498,15.554977962659754,0.011102767996188262,0.01255412461857001
356,0.25,0.001,0.013217920933080756,0.01048408120708621,15.320437928904658,0.010935358978518672,0.011218213062319491
357,0.25,0.001,0.013303507103220277,0.01054108122282702,15.480634478693423,0.011049703410916076,0.009893132166730033
358,0.25,0.001,0.013299260925015677,0.010493652316863122,15.722630369766899,0.011222434239662312,0.009674222415520085
359,0.25,0.001,0.013229161209386327,0.010444926600093427,15.602850114573602,0.011136937983278802,0.010358296748664644
360,0.25,0.001,0.01319727694372768,0.01045953379539044,15.34231318100639,0.010950973005714768,0.009620428344027864
361,0.25,0.001,0.013278293884966685,0.010491273309225621,15.618464377030083,0.011148083067116404,0.011782344637645615
362,0.25,0.001,0.013219016487507717,0.010461015725589317,15.455835947783097,0.011032002817832332,0.009515191221402751
363,0.25,0.001,0.013262392243613367,0.010487489909257578,15.550552595387334,0.011099609275793957,0.01086138380277488
364,0.25,0.001,0.013227468291702477,0.010468554942180281,15.460950722072436,0.011035653620322938,0.010093439111693038
365,0.25,0.001,0.013232192824716153,0.010476108332690985,15.445097774008046,0.011024338168456849,0.009454333999504646
366,0.25,0.001,0.013292451646664868,0.010486541432530984,15.724321061839229,0.011223641014874539,0.009923830835355653
367,0.25,0.001,0.013218857644368772,0.010467857158054476,15.416607267960257,0.01100400233259119,0.010749559539059797
368,0.25,0.001,0.013268022613356942,0.010530008197478626,15.343833050935165,0.010952057852202117,0.01491943969287806
369,0.25,0.001,0.01326420274441657,0.010442591278773287,15.812311316780422,0.011286446336031706,0.011591000999841426
370,0.25,0.001,0.01326755809881117,0.010523939937677073,15.375236292300016,0.010974472728265535,0.01049503694391913
371,0.25,0.001,0.013292185371012791,0.010460109399712604,15.870953624559485,0.011328303800542103,0.010494141529003779
372,0.25,0.001,0.013261345190846402,0.010481584854423999,15.577777379906696,0.011119041670168948,0.01198324499030908
373,0.25,0.001,0.013282910506038562,0.010463262673305428,15.801306397811226,0.011278591290372038,0.011294984569152197
374,0.25,0.001,0.013252939452295718,0.010443357465707738,15.744897018100904,0.011238327636046326,0.009632369141197868
375,0.25,0.001,0.013212924549437087,0.010475430201901042,15.340918640468432,0.010949977616322935,0.009584755326310793
376,0.25,0.001,0.013214058863080066,0.010458737365577533,15.440821612814199,0.011021285947761741,0.011183051392436028
377,0.25,0.001,0.013252907635077187,0.01047349832304146,15.575810026085895,0.0111176374204753,0.01033881896485885
378,0.25,0.001,0.013230069621425608,0.010466897084337214,15.484818864905316,0.011052690124843195,0.010247597677840127
379,0.25,0.001,0.013280701805715975,0.010456991875949112,15.824070349983547,0.011294839650238078,0.0094377218435208
380,0.25,0.001,0.013245122643268627,0.01048300068501545,15.478931164948836,0.011048487626658698,0.013311333850853972
381,0.25,0.001,0.013246327943128088,0.010480974397581557,15.497042274475097,0.011061414899696715,0.012009967635903094
382,0.25,0.001,0.013259915317530218,0.010479219870074935,15.583017531685208,0.011122781964086515,0.011889568943944242
383,0.25,0.001,0.013210921086694883,0.010449949980753919,15.4724827326899,0.011043884891284725,0.010638708455695046
384,0.25,0.001,0.013236102571953897,0.010425855582175047,15.74862425762674,0.011240988049697889,0.01218481201471554
385,0.25,0.001,0.013248659657395405,0.010453983883818855,15.661362788988196,0.011178702918621126,0.01090181375750237
386,0.25,0.001,0.013207569598503735,0.010428153972910798,15.575845350182576,0.011117662633963294,0.011247968508137597
387,0.25,0.001,0.013210233851619388,0.010439022836153921,15.529866197005562,0.01108484382370133,0.011332709807902575
388,0.25,0.001,0.013161769075238186,0.010392248970658883,15.520390482363494,0.011078080287197355,0.010818062712334924
389,0.25,0.001,0.013250867002036261,0.01051502559657978,15.331655421049698,0.010943365753782797,0.010941736089686552
390,0.25,0.001,0.013176247134156849,0.01036936583078426,15.729762707585873,0.011227525130325391,0.008948637689981196
391,0.25,0.001,0.013257404821722404,0.010500262596684953,15.4510251186205,0.011028568964040327,0.010092134690947004
392,0.25,0.001,0.013203494140635366,0.010426230568276799,15.563785892984141,0.011109054884356989,0.00964108875228299
393,0.25,0.001,0.013207442734552466,0.010415564007733179,15.645689002327297,0.011167515347842468,0.010083540860149596
394,0.25,0.001,0.013253030879018099,0.010533994136621122,15.23748195482337,0.010876147005584133,0.015133972331467602
395,0.25,0.001,0.0132978777360657,0.010467054494049239,15.86393394138502,0.011323293320046411,0.011871902479065789
396,0.25,0.001,0.013227296175192232,0.010435592645536299,15.64470727008322,0.011166814611051549,0.010680692580838999
397,0.25,0.001,0.013236483233454435,0.010438754991020845,15.67846979058307,0.01119091348364245,0.012332178859247101
398,0.25,0.001,0.013250815000223078,0.010529775821968266,15.248704319829526,0.010884157258978962,0.014660516236391332
399,0.25,0.001,0.013244815057386523,0.01037696094940538,16.0714546817282,0.011471416617935902,0.010811136932008795
400,0.25,0.001,0.013169927457752435,0.010450332176102244,15.240612496085788,0.010878381510410984,0.011332675142006742
401,0.25,0.001,0.013169939448328121,0.010414598333122938,15.440931791222614,0.011021364590451544,0.009833232344438633
402,0.25,0.001,0.013171892211489055,0.010446625335708908,15.272395410952361,0.010901067388260072,0.009477771456456847
403,0.25,0.001,0.01319422127921944,0.010416067511491154,15.568773511803668,0.011112614926340948,0.011657356594999632
404,0.25,0.001,0.013210240994458613,0.01044665193428164,15.487152066438094,0.011054355507807348,0.01246688918521007
405,0.25,0.001,0.013220669623950253,0.010455430781711702,15.496398852804433,0.011060955640831144,0.011652388816906346
406,0.25,0.001,0.013208757841392704,0.010407515025657156,15.698165419205376,0.011204971748183709,0.010894326441403892
407,0.25,0.001,0.013151660712192887,0.010409017872551213,15.36977163563604,0.010970572188177045,0.011342370986110635
408,0.25,0.001,0.013229251682110454,0.010434110980966816,15.663968502542247,0.011180562814091539,0.010591226112511423
409,0.25,0.001,0.013201601641333622,0.010401330684190212,15.692717650040336,0.011201083261984537,0.01127536077466276
410,0.25,0.001,0.013121734651858391,0.010394308278742043,15.284497644175653,0.010909705670360923,0.00934954546391964
411,0.25,0.001,0.013169507181838803,0.010409586343752301,15.466596479001252,0.011039683425411315,0.010636735500560867
412,0.25,0.001,0.013174620316080425,0.010404137884793075,15.52578339949898,0.01108192962134117,0.010070289692117108
413,0.25,0.001,0.013176472681048124,0.010423495165355828,15.427687056168265,0.011011910818107255,0.011169069136182467
414,0.25,0.001,0.013197173992900746,0.01039541033461042,15.701083418804666,0.011207054545899119,0.009845491809149584
415,0.25,0.001,0.013179320090490838,0.010440765633855178,15.346860036435334,0.010954218441424222,0.011141106589800782
416,0.25,0.001,0.013208343891993813,0.01037750577311153,15.864016242649244,0.011323352064703243,0.012254380207094882
417,0.25,0.001,0.013101178090209546,0.010383023136983747,15.232540449059528,0.010872619877986815,0.010167159347070588
418,0.25,0.001,0.013175945507119532,0.010385747015800166,15.636272324271824,0.01116079395022971,0.012386748567223549
419,0.25,0.001,0.013167503673745239,0.010390816776324873,15.56055368838103,0.011106747814690242,0.011708324671619467
420,0.25,0.001,0.013115442814710348,0.01035825908831928,15.451256669085959,0.011028734239176273,0.012889736228519015
421,0.25,0.001,0.01319111231714487,0.010404840957211411,15.614265213012695,0.011145085805148247,0.011418398469686508
422,0.25,0.001,0.01320845800249473,0.010421715484041234,15.616905615433403,0.011146970460694792,0.013040947520898448
423,0.25,0.001,0.013163416939585105,0.010366199311354886,15.67560860177745,0.011188871236100963,0.012699200357827876
424,0.25,0.001,0.013128966316580773,0.010381593367327814,15.39627750230872,0.010989491436337416,0.010636622914009623
425,0.25,0.001,0.01313126360916573,0.010347053721223189,15.602712103802224,0.011136839474519789,0.010254258134712776
426,0.25,0.001,0.013172855678459872,0.010419606270025606,15.429209594726563,0.011012997569397975,0.012497107808788618
427,0.25,0.001,0.013226711772706198,0.010466848082192566,15.466276211945907,0.011039454826513853,0.01617686998926931
428,0.25,0.001,0.013142549659570922,0.010388325878783413,15.434669753364895,0.01101689489890428,0.011787029707597362
429,0.25,0.001,0.013157607394716013,0.010399055108428002,15.458926537555197,0.011034208806249248,0.0091088248623742
430,0.25,0.001,0.013093652572968732,0.010408514916248944,15.047511727706246,0.010740550840618306,0.010795956684483422
431,0.25,0.001,0.013106289399058923,0.010307196573070858,15.686116644817849,0.0111963716237101,0.009521725277105967
432,0.25,0.001,0.01306999099643334,0.010346760764394117,15.260982354205588,0.010892921023701348,0.010204822911570469
433,0.25,0.001,0.01318805863837833,0.01036861912873776,15.800139292841372,0.011277758239001694,0.00995339836097426
434,0.25,0.001,0.013133034359501757,0.010357891960960368,15.551898282921833,0.011100569795090531,0.010049975114978023
435,0.25,0.001,0.013170450289288293,0.010360024720430374,15.749625716831373,0.011241702867117325,0.009291589156621032
436,0.25,0.001,0.01312877559143564,0.01037425179520379,15.436351006549337,0.01101809493686605,0.010615597375565104
437,0.25,0.001,0.013115318663742232,0.010324243124088516,15.641187142081883,0.01116430202860948,0.010579969009591473
438,0.25,0.001,0.013123614718408689,0.010375374886004821,15.401136540951937,0.010992959700893602,0.010544656155010065
439,0.25,0.001,0.013137771482376949,0.010364297417842824,15.542549043738324,0.011093896533717576,0.011150994131134616
440,0.25,0.001,0.013144445723813514,0.010390003245809803,15.435896215024203,0.01101777031764754,0.012342213653028011
441,0.25,0.001,0.01310882029650004,0.010328554002487141,15.580612089737603,0.011121065017657104,0.0129342470318079
442,0.25,0.001,0.013227440397376599,0.010441857051590215,15.610410449815832,0.011142334368176897,0.013112812096046077
443,0.25,0.001,0.013148599362567716,0.010357858213069646,15.639313518690026,0.011162964681434708,0.010886192735698488
444,0.25,0.001,0.013142883840786374,0.01034366708572792,15.686811025868291,0.011196867256151528,0.010363756368557612
445,0.25,0.001,0.013089781505582125,0.010321779275394004,15.51188514875329,0.011072009385262876,0.010023688535309501
446,0.25,0.001,0.013119813586058824,0.01033585350798524,15.60131259918213,0.011135840541885888,0.010034288486672772
447,0.25,0.001,0.01309852577260007,0.010301203530119813,15.67619381448497,0.011189288946812969,0.009473423577017255
448,0.25,0.001,0.013137014100085134,0.01034813704536013,15.62886794546376,0.011155508883271777,0.011186291153232256
449,0.25,0.001,0.013120516038135343,0.01036206653908543,15.45835251186205,0.011033799080558208,0.010887311978472603
450,0.25,0.001,0.013166099153459072,0.010346899962295656,15.798792200503142,0.011276796716990108,0.00956886742884914
451,0.25,0.001,0.013191560476046542,0.010404169462297273,15.620538837598717,0.01114956376702264,0.010807418574889502
452,0.25,0.001,0.013125666937102442,0.010340481384292893,15.608179679538893,0.011140742098171943,0.00996400612509913
453,0.25,0.001,0.013135142339312513,0.01030723362999118,15.84759986711585,0.01131163445190282,0.010233185150557093
454,0.25,0.001,0.013132001979519492,0.01030160264638455,15.861558172806449,0.011321597553751925,0.010474585669322146
455,0.25,0.001,0.013109087088833685,0.010393503831456537,15.218129244265349,0.010862333507684046,0.01186093527616726
456,0.25,0.001,0.013168461588413819,0.01034534856191148,15.820726256992506,0.011292452717339405,0.01344427259431945
457,0.25,0.001,0.01318597786128521,0.010399828969460467,15.613578063301418,0.011144595334262253,0.014170937240123749
458,0.25,0.001,0.013194438531670882,0.010386083916477535,15.73801843062691,0.01123341786625761,0.01167164918863111
459,0.25,0.001,0.013078617903849354,0.010307283691414024,15.530557874596637,0.011085337526478684,0.011961885624461703
460,0.25,0.001,0.013160934838587823,0.010358974476871284,15.702185917729917,0.011207841483033488,0.01176523044705391
461,0.25,0.001,0.013175694905221462,0.01036556587918945,15.747963515571925,0.011240516427959975,0.01278192839688725
462,0.25,0.001,0.013129076175391673,0.010351545381481232,15.565284181677777,0.011110124326679356,0.01397918573477202
463,0.25,0.001,0.013099407929441203,0.010392826834450598,15.167681007385253,0.010826324773294257,0.010041887716700634
464,0.25,0.001,0.013084877424913904,0.010293843172814536,15.640956621584685,0.011164137488640032,0.013100390167286
465,0.25,0.001,0.013182883103904516,0.010397024381419886,15.61195226918096,0.011143434881642371,0.015594485112362437
466,0.25,0.001,0.013164633455807748,0.010382134235747482,15.593125454446543,0.011129996755493607,0.01275913655343983
467,0.25,0.001,0.013182103374729985,0.010376513305565585,15.722527177230171,0.01122236058331918,0.012851785040564008
468,0.25,0.001,0.01315051237364178,0.01035016693174839,15.69313580720321,0.011201381732479095,0.00998373246855206
469,0.25,0.001,0.0130807856178802,0.010320712214578753,15.46745199120563,0.011040294069383033,0.011549455527630117
470,0.25,0.001,0.013109281991163025,0.010332090959924718,15.563378163213315,0.011108763856683308,0.010501080089145236
471,0.25,0.001,0.013063093077229417,0.010262825673689012,15.692699261540952,0.01120107013671731,0.009660653976930512
472,0.25,0.001,0.013039037337445695,0.0102798776458139,15.462330972422723,0.01103663880972357,0.009722264897492196
473,0.25,0.001,0.013036885533643806,0.010350098933862604,15.056752795343813,0.010747146891751472,0.009259143482065864
474,0.25,0.001,0.013068150447114655,0.01028539831061726,15.594543302784796,0.011131008781430975,0.009678515709108777
475,0.25,0.001,0.013110875824223394,0.010315557331170724,15.66496433423913,0.011181273614731714,0.009951124071247049
476,0.25,0.001,0.013096221635199112,0.010337103482173838,15.462098967510721,0.011036473210214648,0.011301160169144472
477,0.25,0.001,0.013146335281755614,0.010358577718877274,15.62259429268215,0.011151030901272056,0.0133739717097746
478,0.25,0.001,0.013168567129127357,0.010362914100937221,15.722879328520401,0.011222611940414276,0.014994849347405963
479,0.25,0.001,0.013130048728831436,0.010397493442439515,15.313239434283712,0.010930220866726419,0.011901460381017791
480,0.25,0.001,0.01312694801584534,0.010293699477029883,15.877524856899095,0.011332994187651031,0.01167127200298839
481,0.25,0.001,0.013134525557575018,0.010356722190652205,15.566811505193296,0.0111112144933571,0.013814897690382268
482,0.25,0.001,0.013041813982569653,0.010266131867209207,15.554923798934274,0.011102729335427747,0.010624083586865
483,0.25,0.001,0.013030701073939386,0.010209395825538946,15.810594447592031,0.011285220876225575,0.008737787190410826
484,0.25,0.001,0.013115113058491893,0.01035172291909871,15.486038294253142,0.011053560524092178,0.009991644364264276
485,0.25,0.001,0.013064254715066888,0.010243733850834163,15.806199254574983,0.011282083693486784,0.011351133489774333
486,0.25,0.001,0.013097644419125889,0.010361946345023488,15.330852739085321,0.010942792818761827,0.01117986792491542
487,0.25,0.001,0.013092701367062072,0.010274656178510708,15.792324782661769,0.01127218043016543,0.01048867952906423
488,0.25,0.001,0.013091902185393417,0.010324513448969178,15.508446766397228,0.011069555150890241,0.012972762394282553
489,0.25,0.001,0.01313281993665125,0.010375361486297587,15.452797466775646,0.011029834023394466,0.012284568407469325
490,0.25,0.001,0.013027352765202522,0.010254306848282399,15.540148791437563,0.011092183291532878,0.01060965232965019
491,0.25,0.001,0.01308581350290257,0.01029904657084009,15.617041849882707,0.011147067701557963,0.010292991167969175
492,0.25,0.001,0.013091986506529476,0.010261395682135355,15.862631640226944,0.011322363768898603,0.011319895067976581
493,0.25,0.001,0.013095119512923387,0.010289004811126252,15.725466887432596,0.011224458877539326,0.012132170403169261
494,0.25,0.001,0.013057643677229466,0.010312257639091948,15.385142905193826,0.010981543829545914,0.011525919764406152
495,0.25,0.001,0.012996815177409545,0.010225642341310563,15.52965347290039,0.011084691986367159,0.01064529482068287
496,0.25,0.001,0.01307247345538243,0.010275597420075666,15.67369322569474,0.01118750408686277,0.010190818251834976
497,0.25,0.001,0.013039970415765824,0.010231569517889748,15.738279020889946,0.011233603869300461,0.009927788956297768
498,0.25,0.001,0.013021140396595,0.010222493358280347,15.68361833655316,0.01119458839154401,0.01003971809728278
499,0.25,0.001,0.013043214531372423,0.010326220613458881,15.226034502775773,0.010867976090489489,0.009905857034027576
500,0.25,0.001,0.012988762678983419,0.010202564496708953,15.613855413353962,0.011144793300038517,0.011547153091265095
