epoch,beta,learning_rate,train_loss,train_reconstruction_loss,train_kl_unnormalized,train_kl_normalized,mean_unclipped_gradient_norm
1,0.0,0.001,0.08579178714136562,0.08579178714136562,101.88314656808343,0.07272173202575548,0.11133150437048503
2,0.02,0.001,0.06475079857127768,0.05591689569639488,618.814784663384,0.4416950639995603,0.11003223700182778
3,0.04,0.001,0.05222990461778193,0.045743589529968764,227.18319874078455,0.16215788632461423,0.08554655739239284
4,0.06,0.001,0.04007336287431314,0.037160466954182014,68.01613516650849,0.04854827635011313,0.08167003308023725
5,0.08,0.001,0.03522642985196181,0.03223397210240364,52.40540747127623,0.03740571553981172,0.05244856434209006
6,0.1,0.001,0.03453974154703494,0.03195982773574026,36.14458730634949,0.02579913440852926,0.07718676541532789
7,0.12,0.001,0.03345141362206477,0.031377483316710295,24.213145600797983,0.017282759172589566,0.0757835717605693
8,0.14,0.001,0.03298722127093955,0.030860360659344097,21.283801548917527,0.015191864060612082,0.07831688172050885
9,0.16,0.001,0.03207700947920481,0.029972628135006753,18.42649347009793,0.0131523864882926,0.06640965305268764
10,0.18,0.001,0.030974789264616272,0.02868184226919228,17.846771383509388,0.012738594849043104,0.06601837516895362
11,0.2,0.001,0.029180149945644704,0.026742780038938277,17.073777131631342,0.012186850201021657,0.05925354228488037
12,0.22,0.001,0.027296488090230265,0.024078042032153395,20.495647672196508,0.014629298838113139,0.06644079461693764
13,0.24,0.001,0.025827981627812968,0.022087431377228437,21.83546145085438,0.015585625589474931,0.05583110558135169
14,0.25,0.001,0.02414785526657888,0.020184497029778543,22.210659071873053,0.01585343259948112,0.06411945261061192
15,0.25,0.001,0.022896014669901328,0.019049118968172813,21.558004576275607,0.01538758356622099,0.044637398794293404
16,0.25,0.001,0.022100952685648847,0.018504964485064918,20.15191679941097,0.014383952033840805,0.08396626423512187
17,0.25,0.001,0.02121010010825916,0.017577357109233808,20.3578905186183,0.014530971105366382,0.03119566185133798
18,0.25,0.001,0.020837448913376657,0.017070445992892057,21.110283041224232,0.015068010736062978,0.06209350962724004
19,0.25,0.001,0.02033426626607286,0.016644195255609187,20.679156809345656,0.014760283232937656,0.1077020423752921
20,0.25,0.001,0.019712058634895113,0.016100759325033062,20.237721958070853,0.014445197685989189,0.050379332554127486
21,0.25,0.001,0.019490737844031183,0.015824906274396488,20.5433216632252,0.01466332738274461,0.08953408976750714
22,0.25,0.001,0.019261052132422376,0.015665063713218123,20.151918214251737,0.014383953043720012,0.06233440113386938
23,0.25,0.001,0.018975627132004975,0.015276045507878205,20.732456225184766,0.014798327070081918,0.025058037601411343
24,0.25,0.001,0.018737015231324473,0.014997875571530749,20.9541403721196,0.014956559865895502,0.04211150482296944
25,0.25,0.001,0.018566511833751704,0.015074938461359398,19.566777941206812,0.013966294033695084,0.07008467401776995
26,0.0,0.001,0.014441401780770979,0.014441401780770979,25.444773284482284,0.018161865299416335,0.0790014551686389
27,0.02,0.001,0.013605071572770536,0.012917080413147878,48.1937788484242,0.03439955663699087,0.05633747524448803
28,0.04,0.001,0.014362852041010565,0.012402683548944098,68.65490120901188,0.04900421214062233,0.10540252072470528
29,0.06,0.001,0.014792154210798898,0.011987241033132368,65.4947206738969,0.046748551515986364,0.06944922211446933
30,0.08,0.001,0.014882049781265953,0.012191653938115762,47.1155561348642,0.03362994727684811,0.05605027744812625
31,0.1,0.001,0.015053291923143494,0.012680553498857178,33.2420637282967,0.02372738310370928,0.03866012141640697
32,0.12,0.001,0.015240885063726018,0.012703169989858714,29.6278217655952,0.021147624386577586,0.025686657987535
33,0.14,0.001,0.01567293414977235,0.012721523848043082,29.535184313993497,0.021081502008560668,0.03696619373347078
34,0.16,0.001,0.015899179713197157,0.012711738800288926,27.910027848722788,0.01992150453156516,0.025953298301569054
35,0.18,0.001,0.016179124422441345,0.012846713719513495,25.937262217203777,0.01851339201798985,0.02282586520803826
36,0.2,0.001,0.01627664328793265,0.012845097363274981,24.037977693226416,0.017157728546200155,0.02676756666707141
37,0.22,0.001,0.0166607080683322,0.013180913963298282,22.159963177963043,0.01581724709347826,0.03418669530323574
38,0.24,0.001,0.016777658082999535,0.013020850984738187,21.93036427744118,0.015653364937502627,0.034985143425209184
39,0.25,0.001,0.016876344319800257,0.013275403835474046,20.179670799506102,0.014403762169526126,0.034637087024748325
40,0.25,0.001,0.016599947691593373,0.01301302063440633,20.10113785972058,0.014347707251763441,0.025615494831332138
41,0.25,0.001,0.01679832948275575,0.01328058829837142,19.713423840876477,0.014070966338955371,0.049919508929763524
42,0.25,0.001,0.016874920244507947,0.013402738953840004,19.458105929020984,0.013888726573177005,0.06948113760777883
43,0.25,0.001,0.016493487963234316,0.013028702283269362,19.416660273019136,0.013859143663825223,0.05158129573932716
44,0.25,0.001,0.01632118843355929,0.01296767532965387,18.79308561763853,0.013414051118942562,0.0342662176117301
45,0.25,0.001,0.016359356970924166,0.012942997668760484,19.145276029345016,0.013665436138005008,0.05238414502569607
46,0.25,0.001,0.016129154309700352,0.012850434313847425,18.373945907807688,0.013114879306072582,0.031768402350800376
47,0.25,0.001,0.015924344433935037,0.01259382946215605,18.664205721286542,0.013322059758234505,0.03153637849858829
48,0.25,0.001,0.015816363912652915,0.012595939161387128,18.047260687384806,0.012881699277219705,0.028697158875209943
49,0.25,0.001,0.015739768188219396,0.012610303867660778,17.537518837082555,0.012517857842314458,0.016689343377947807
50,0.25,0.001,0.015622397714202672,0.01228746881559841,18.68894209884142,0.01333971598775262,0.028071711904236248
51,0.0,0.001,0.012064192251700192,0.012064192251700192,21.586614913224054,0.015408004934492544,0.0276448197130646
52,0.02,0.001,0.011308300894785656,0.010718486792114979,41.31647622193529,0.02949070394142419,0.02136091302548136
53,0.04,0.001,0.0118497859363055,0.010206296047449392,57.56323439190645,0.04108724795996178,0.014346008721206869
54,0.06,0.001,0.012442471756831582,0.010055019751960683,55.74700163003984,0.039790864832291106,0.013387957321746009
55,0.08,0.001,0.012716885625511548,0.01037747743473926,40.96888637990459,0.029242602698004702,0.015035043337515422
56,0.1,0.001,0.012792720551222143,0.0107153085160983,29.104541205464393,0.020774119347226547,0.013057257714016097
57,0.12,0.001,0.01303050718204656,0.010876753761000196,25.145071889313176,0.017947945674027962,0.01105619195316519
58,0.14,0.001,0.01341048137507808,0.01094256711362953,24.696771576930658,0.017627959726574344,0.012480684423020907
59,0.16,0.001,0.013741314988320982,0.010994799505097205,24.049176435515353,0.017165721938269346,0.012600266042032413
60,0.18,0.001,0.013947268589421616,0.011042824356069028,22.606257084949476,0.016135800917165936,0.018125052829938277
61,0.2,0.001,0.0142189335873779,0.011217194832336734,21.02718077467081,0.015008694343091229,0.015275995646204268
62,0.22,0.001,0.014495670996571371,0.011348256286006298,20.043309252027054,0.01430643058674308,0.02217551793104836
63,0.24,0.001,0.014626302795720771,0.01124799218763348,19.72088746621575,0.014076293694657923,0.015982743884835924
64,0.25,0.001,0.014741945871864686,0.01151107480320992,18.105801013713712,0.012923483949831343,0.014154274615326099
65,0.25,0.001,0.014659519643990647,0.011434070131973203,18.075419457305763,0.012901798327841373,0.014144417829811573
66,0.25,0.001,0.014701859658242951,0.011474739991897989,18.084778700636026,0.012908478729932924,0.022564092917101725
67,0.25,0.001,0.014690055555615906,0.01160896687545407,17.266421438942494,0.012324355059916128,0.03072850645652839
68,0.25,0.001,0.014659090168739149,0.011462684755733876,17.912655852770023,0.012785621593697375,0.022570513587977205
69,0.25,0.001,0.014467495454239174,0.01146435596381135,16.829593994248082,0.012012558168628182,0.016646520234644413
70,0.25,0.001,0.0143654511480684,0.011345673453045282,16.922834190404473,0.012079110771166647,0.01388446002134255
71,0.25,0.001,0.014377107791287798,0.011332313565126328,17.06302798633844,0.012179177720441428,0.01855527702718973
72,0.25,0.001,0.014290213375024393,0.011197589888748988,17.331062585535182,0.012370494350845954,0.021948333297457014
73,0.25,0.001,0.014201380920207276,0.011250549219024013,16.536460688416387,0.011803326686949597,0.014853720819311482
74,0.25,0.001,0.014431366683836554,0.01140311622703579,16.970315727269707,0.01211300194665932,0.026546954310366085
75,0.25,0.001,0.014242918820868075,0.011246179523462421,16.793728018030873,0.011986957900093414,0.021176742323275124
76,0.0,0.001,0.0106798065957469,0.0106798065957469,20.877756118774414,0.014902038628675528,0.01945739851466247
77,0.02,0.001,0.010333104448244326,0.009777588988413834,38.91385673916955,0.027775772119321595,0.013322350302977222
78,0.04,0.001,0.010815337536410547,0.009288156934152466,53.48950680656612,0.03817951949076811,0.009008959135306733
79,0.06,0.001,0.011287657395355019,0.009192094814574494,48.93138358962368,0.034926041106083994,0.011260634820376123
80,0.08,0.001,0.011473102962921762,0.009528636696263098,34.05246885953375,0.02430583073485635,0.01318477386874812
81,0.1,0.001,0.01171061703541749,0.009929696198535357,24.95070028528921,0.017809207912411997,0.010467514063098602
82,0.12,0.001,0.01205326135362118,0.010023854707888035,23.69332476512927,0.016911723601091555,0.00907153809177024
83,0.14,0.001,0.012303838007886645,0.009925933266189737,23.79603478158584,0.01698503553289496,0.012911234583173479
84,0.16,0.001,0.012551562768787565,0.010080648953436126,21.635939163781106,0.015443211394561817,0.014574585815093346
85,0.18,0.001,0.012914654610792236,0.010303108611891806,20.326533313088575,0.014508589088571432,0.010870836941259248
86,0.2,0.001,0.013121469777094927,0.010247066428998546,20.135194832170512,0.01437201629705247,0.019425277531679188
87,0.22,0.001,0.013293499127030373,0.010336938489036102,18.827916310986442,0.013438912427542072,0.013784203412277358
88,0.24,0.001,0.01348542095437436,0.010387335654715417,18.08507390089438,0.012908689436755445,0.012131191923149995
89,0.25,0.001,0.013635942476316236,0.010500021576181824,17.573701294375137,0.012543684007405524,0.014584376077566828
90,0.25,0.001,0.013548610788800626,0.010505642156016098,17.052796287715715,0.012171874580810645,0.013040534752820219
91,0.25,0.001,0.013508695872946523,0.010580005788817091,16.41238020955117,0.011714761034654653,0.012589423252003533
92,0.25,0.001,0.01353948822183788,0.01054077851695354,16.80477008909127,0.011994839464019465,0.020793783611484935
93,0.25,0.001,0.013525384250905872,0.010485977926969248,17.032834845529475,0.012157626584960368,0.020181135540562018
94,0.25,0.001,0.01358170352194091,0.010659814930297959,16.374262975415153,0.011687553872530445,0.02003920464111226
95,0.25,0.001,0.013433755493499863,0.010413267002594023,16.926818023824914,0.01208195433534969,0.010045606110777174
96,0.25,0.001,0.013374855217169707,0.010423893808548999,16.537187370336113,0.011803845374972243,0.019429445399769714
97,0.25,0.001,0.013381334515769438,0.010473266305148322,16.296814287212534,0.011632272867389389,0.015902860090136528
98,0.25,0.001,0.013312727449015833,0.01041589495878964,16.233850953724463,0.011587331158975348,0.01608221365937165
99,0.25,0.001,0.013326148550625139,0.010449886523152182,16.118573067893443,0.01150504858522016,0.014408404473215342
100,0.25,0.001,0.013305256676645906,0.010398377546332252,16.290151434884944,0.011627517084143429,0.012399738055786915
101,0.25,0.001,0.013273955611380893,0.01031513662545334,16.58122247149687,0.011835276567806472,0.0145355010671275
102,0.25,0.001,0.01325369335955857,0.010386978529673506,16.065068598644274,0.011466858385898839,0.01759711586471115
103,0.25,0.001,0.013232556753245318,0.010339869116323655,16.210621730822353,0.011570750700087333,0.020486054808965752
104,0.25,0.001,0.013267158215839259,0.010366183176566738,16.25706330151625,0.01160389957281674,0.023082248999604156
105,0.25,0.001,0.013241438750404988,0.010399419932403195,15.926674426441462,0.011368075964626311,0.023958709223994186
106,0.25,0.001,0.013195289736132666,0.010247673996737306,16.518438760103756,0.011790463069310319,0.019816058820911815
107,0.25,0.001,0.013047899683596383,0.010238400301917897,15.744434504441813,0.011237997504954899,0.013624699653259345
108,0.25,0.001,0.013068555928591831,0.010188082539139779,16.14217374918047,0.011521894182141662,0.016740283662719384
109,0.25,0.001,0.013021173003728681,0.010167306481462688,15.993068542838657,0.011415466483111104,0.011114850108112608
110,0.25,0.001,0.013101326288576697,0.01028286780672314,15.794641235065013,0.011273833858005006,0.014963617681392602
111,0.25,0.001,0.013052687949627778,0.010119619263344808,16.436916199088657,0.01173227423204044,0.018125572374888828
112,0.25,0.001,0.013026000979955488,0.010203084663571046,15.819623127789564,0.011291665330328026,0.014263135913227285
113,0.25,0.001,0.012995248835341472,0.010154270645703229,15.9208417319356,0.011363912728005424,0.015778870920517614
114,0.25,0.001,0.013068594117189797,0.010146549929090788,16.375135439662305,0.011688176616461318,0.027834352238902023
115,0.25,0.001,0.013015611551946877,0.010187041945755482,15.851303669208653,0.011314278136480123,0.027480964814977988
116,0.25,0.001,0.013006371445953846,0.010279207827059876,15.283025472936496,0.010908654870047463,0.02299316187522241
117,0.25,0.001,0.012930662716638314,0.009984731158250375,16.509000240916937,0.011783726082024937,0.01320149895868131
118,0.25,0.001,0.01288042825694795,0.010061126009959011,15.799369946332044,0.0112772090980243,0.012317198860858167
119,0.25,0.001,0.012860912252479876,0.010072577311854127,15.62582960710839,0.011153340190655524,0.012026614642568998
120,0.25,0.001,0.012805360413108353,0.009989371383344063,15.78080233721666,0.011263955986592905,0.01291280153340527
121,0.25,0.001,0.012863713307874584,0.010013812567006813,15.970844179251944,0.011399603268559561,0.018714374596519128
122,0.25,0.001,0.012744413382710425,0.009994343688335497,15.411391200034272,0.011000279229146518,0.02621080992477281
123,0.25,0.001,0.012798131268663865,0.010007348794822402,15.639546067502017,0.011163130669166322,0.01749881822615862
124,0.25,0.001,0.012805844626516244,0.009913347246116595,16.209555961716344,0.011569989979811809,0.012373635146234716
125,0.25,0.001,0.012834556951699123,0.010019208501342317,15.777213651809333,0.011261394469528433,0.0172703391207116
126,0.25,0.001,0.012747094341217072,0.009915583880679429,15.867785288134652,0.01132604231844015,0.013509882747062616
127,0.25,0.001,0.012733032104904663,0.009927247974479423,15.723613148004237,0.011223135723057985,0.014774277274097716
128,0.25,0.001,0.012754431825148668,0.009959365551670393,15.6635512186328,0.011180264966904212,0.017325069289654493
129,0.25,0.001,0.012694685160239258,0.009815007859202618,16.137712832347887,0.01151871008732897,0.011958397392715727
130,0.25,0.001,0.012689400175717515,0.00988505018586424,15.715577344939183,0.011217399960698917,0.013153953876878535
131,0.25,0.001,0.012591599281265142,0.009814343284028517,15.56374355548984,0.011109024664874975,0.011564085260033607
132,0.25,0.001,0.012596972780783132,0.009822630773827504,15.547412379806591,0.011097367865672085,0.011079533291714532
133,0.25,0.001,0.012666809892920261,0.009813026092211964,15.99260451088489,0.011415135268297566,0.014265136128025395
134,0.25,0.001,0.012611176311410089,0.009863216805975761,15.399564496788061,0.010991837613695975,0.011206607334315777
135,0.25,0.001,0.0126318702684112,0.00982141858972434,15.7497719016993,0.01124180721034925,0.014520370800580298
136,0.25,0.001,0.01267481723826536,0.009805520852161964,16.079536885722703,0.01147718550015896,0.010874486395290919
137,0.25,0.001,0.01266084363500417,0.009822767105460727,15.904582144508899,0.011352307026772947,0.01745145714708737
138,0.25,0.001,0.012534953046047912,0.009770202721543435,15.493661343211858,0.011059001672528093,0.012172528143439974
139,0.25,0.001,0.012564222568847204,0.009696484910665264,16.070800861842194,0.011470949937075085,0.012849260454199143
140,0.25,0.001,0.012543389787941192,0.009782076738949673,15.47439852342919,0.011045252336494782,0.01919181871094874
141,0.25,0.001,0.01248957866042013,0.009723838624225257,15.499206480285931,0.011062959657591671,0.013743156434169837
142,0.25,0.001,0.012351933949814996,0.009612979065679329,15.349103453013818,0.010955819738054116,0.00882764539814421
143,0.25,0.001,0.012419322435634797,0.00972064784312612,15.123373156981849,0.01079469889863087,0.015319747251591511
144,0.25,0.001,0.012461662327459721,0.009670532763249157,15.641489991559668,0.01116451819526029,0.011556458326854877
145,0.25,0.001,0.012442590655680274,0.009692997829070394,15.408717464393293,0.01099837078115153,0.010881595978779452
146,0.25,0.001,0.012422469317773138,0.00963115868346652,15.642504074204137,0.011165242022986535,0.013566543348133564
147,0.25,0.001,0.012440449964832252,0.009674115945965471,15.50253617819486,0.011065336315628024,0.012874140670256955
148,0.25,0.001,0.012402253474672916,0.009638931130019712,15.485659035158829,0.01105328981810052,0.015843391817595278
149,0.25,0.001,0.012406158379056084,0.00965783393946192,15.401610558021796,0.01099329804284211,0.01764262081789119
150,0.25,0.001,0.012419453559731933,0.00963341519498909,15.612959409543606,0.011144153754135336,0.017058663868478367
151,0.25,0.001,0.012404314137365617,0.009630339032152728,15.545356840035165,0.011095900670974422,0.010664437431842089
152,0.25,0.001,0.012363440418362338,0.009594440416481014,15.517476775836498,0.011076000553773375,0.010224281810224056
153,0.25,0.001,0.012350219100748709,0.009582567225459596,15.509920254559583,0.01107060689119171,0.010516661751483167
154,0.25,0.001,0.012390249675498323,0.00962364302397194,15.5040633018028,0.01106642633961656,0.016774031200579236
155,0.25,0.001,0.012469175966902517,0.00963348040505894,15.891237070862676,0.011342781635162509,0.028393787997109548
156,0.25,0.001,0.01240401666943736,0.009624345398599833,15.577277564106973,0.011118684913709475,0.0231100662744471
157,0.25,0.001,0.012471730060035914,0.009753633679673426,15.23221257706763,0.010872385850869115,0.021499761513301303
158,0.25,0.001,0.012358880300127285,0.009586383623591332,15.537070829543708,0.011089986316590798,0.022480921553713933
159,0.25,0.001,0.01236158852058817,0.00958914469332902,15.536775830765846,0.01108977575358019,0.01505548773067338
160,0.25,0.001,0.012269100244266326,0.00951851154087295,15.414299476874266,0.011002355086990911,0.01185872605336564
161,0.25,0.001,0.012307801568102388,0.009528905105178065,15.572935896860042,0.011115585936374048,0.019929887061672553
162,0.25,0.001,0.012330067392106348,0.009563435446208631,15.504206026104134,0.01106652821277954,0.02184383544538702
163,0.25,0.001,0.012228909967370995,0.009473943085947506,15.438835448502376,0.011019868271593417,0.012301382475665637
164,0.25,0.001,0.012312327975083685,0.009552659956572201,15.465179452314063,0.011038671985948652,0.010837971765015806
165,0.25,0.001,0.012213872255923602,0.009397749985817452,15.781548911976703,0.011264488873645041,0.013087510730006866
166,0.25,0.001,0.01226336467014232,0.00952654584647624,15.337132458395802,0.0109472751309035,0.015559632730271136
167,0.25,0.001,0.012190208442404236,0.00940302138964475,15.619396603723088,0.01114874846803932,0.017315436154603958
168,0.25,0.001,0.012291673780746862,0.009590535398415277,15.137179562743281,0.010804553577975218,0.01985059997865132
169,0.25,0.001,0.012181785123798769,0.009461621430313363,15.243797929074283,0.01088065519562761,0.012205599008926324
170,0.25,0.001,0.012203643120335582,0.00940615982866623,15.677097750381686,0.011189934154448028,0.02165124924587352
171,0.25,0.001,0.012166942115610754,0.009440879424937734,15.276855200109347,0.01090425067816513,0.013042284441845757
172,0.25,0.001,0.01218540972194901,0.009414007231383257,15.530939469315078,0.011085609899582497,0.017345622181892395
173,0.25,0.001,0.012189439755860069,0.009461696386477198,15.286273222014378,0.010910973034985281,0.01834038325718471
174,0.25,0.001,0.012179727163253256,0.009436966707064232,15.3704311388759,0.010971042925678728,0.015218948014080524
175,0.25,0.001,0.012140424209406399,0.00937335861260902,15.50663623451627,0.011068262836913825,0.01074639627976077
176,0.25,0.001,0.012142609428841744,0.00942145693749889,15.24933822166192,0.010884609722813647,0.012253201034452234
177,0.25,0.001,0.012036158454040406,0.009344357455000632,15.084853132006149,0.010767204234122876,0.01135255822113582
178,0.25,0.001,0.01214068687735169,0.009399600396973426,15.361048944679224,0.010964346141812437,0.014026693068444729
179,0.25,0.001,0.012100095930618579,0.009364971082150376,15.327639449929967,0.010940499250485344,0.013872821083558457
180,0.25,0.001,0.012054672727072743,0.009299640150242289,15.439201690781285,0.011020129686496278,0.0156377162784338
181,0.25,0.001,0.012127913464682763,0.009409169570276155,15.235840945176676,0.010874975692488706,0.014069049752184324
182,0.25,0.001,0.012157623153267332,0.00935823044044451,15.687797322519508,0.011197571250906145,0.016997809388807843
183,0.25,0.001,0.012109839733462658,0.00940831869560788,15.139323328582334,0.010806083746311444,0.01468403052006449
184,0.25,0.001,0.01211181248892361,0.009375460966197258,15.334514362711301,0.010945406397367095,0.014553610368498735
185,0.25,0.001,0.01206169289235078,0.009284111343219246,15.565567294196903,0.011110326405565241,0.0190459483835314
186,0.25,0.001,0.012119740514443235,0.00948354214027594,14.773256982436202,0.010544794420011565,0.015409986887659346
187,0.25,0.001,0.012127459910588926,0.009333768575299235,15.655847030066548,0.011174765902973982,0.015873483648257598
188,0.25,0.001,0.012078130810123653,0.0093572573876227,15.247775418097984,0.010883494231333321,0.014452976573790823
189,0.25,0.001,0.01216193583264877,0.009362223155866486,15.68958950490459,0.011198850467455097,0.012037763239017554
190,0.25,0.001,0.012063145934835847,0.009265830539201906,15.676154884374197,0.011189261159439114,0.013916992582380772
191,0.25,0.001,0.012112944155161929,0.009346567203636181,15.502776642920265,0.011065507953547656,0.018060962935643538
192,0.25,0.001,0.012028290015675932,0.009239689914833212,15.62731563317384,0.011154400880209735,0.016037491549338614
193,0.25,0.001,0.011968139576520159,0.009204978748561351,15.484753447519221,0.011052643431491236,0.01260688342154026
194,0.25,0.001,0.01202487037845061,0.009255523071952269,15.519422289351342,0.011077389214383542,0.009653301244335515
195,0.25,0.001,0.012023082357162321,0.009300414988762336,15.257828869170426,0.010890670142163045,0.010252916320626224
196,0.25,0.001,0.011925681638465802,0.009173698867605606,15.422110311302221,0.011007930272164327,0.010915077424475126
197,0.25,0.001,0.011937511651973489,0.009221070782749306,15.222934373667542,0.010865763293124584,0.011467409719313894
198,0.25,0.001,0.011961979161895496,0.009193101797270384,15.516788590122276,0.011075509343413474,0.011863602990550655
199,0.25,0.001,0.01202372567806865,0.009294980865828868,15.291885013311681,0.010914978596225325,0.015639737647558962
200,0.25,0.001,0.01211215976293378,0.009359781341758413,15.424328065254318,0.011009513251430634,0.021554496405380114
201,0.25,0.001,0.012081771000275309,0.009335657957713928,15.389217667736357,0.010984452296742582,0.02503147122583219
202,0.25,0.001,0.01209289307308169,0.009380603567675247,15.199670375232966,0.010849158012300476,0.02340987098536321
203,0.25,0.001,0.012000833296964705,0.009271468359434829,15.2953618770474,0.010917460297678372,0.013457276060112886
204,0.25,0.001,0.011906513576986084,0.009227145244607902,15.015179893780202,0.010717473157587582,0.01448897844446557
205,0.25,0.001,0.012061787725474353,0.009272708400139506,15.63000097856835,0.011156317614966703,0.01136983438794102
206,0.25,0.001,0.01200976943763349,0.009234908404169788,15.550321068562253,0.011099444017531943,0.012477142536746604
207,0.25,0.001,0.011967847281148736,0.009291155539243154,15.000180271309866,0.010706766788943516,0.015030954033136368
208,0.25,0.001,0.011879928121474427,0.009147315386665258,15.313561273852425,0.010930450588045985,0.013275401799806527
209,0.25,0.001,0.011860330269929949,0.009167062407228308,15.093073952365929,0.010773072057363262,0.016101790059890066
210,0.25,0.001,0.011941175969063956,0.00916748247306112,15.543778298606336,0.011094773946185821,0.014100797208292144
211,0.25,0.001,0.011933792312520211,0.00913431182801024,15.688288334949476,0.011197921723732674,0.01433878717944026
212,0.25,0.001,0.011915005446179931,0.009190669528125597,15.267179148857583,0.0108973441462224,0.019077729433774948
213,0.25,0.001,0.011858665082656162,0.00906497273734058,15.65585273420307,0.011174769974449014,0.011728177312761545
214,0.25,0.001,0.011850067952149351,0.009132768783910733,15.227744577076514,0.010869196700268747,0.010381459657635008
215,0.25,0.001,0.011882698661844495,0.009227496305122061,14.879753479935195,0.01062080905063183,0.011210567450949125
216,0.25,0.001,0.011870661890352836,0.009089975665922456,15.582965259820643,0.01112274465369068,0.01486113973494087
217,0.25,0.001,0.011980807329987136,0.00922395260960843,15.449413169717564,0.011027418393802687,0.02193550845342023
218,0.25,0.001,0.011886978504453466,0.009154472460734173,15.312963808086556,0.010930024131396543,0.017486596879150187
219,0.25,0.001,0.011962910274594602,0.009236218512687884,15.280381247471196,0.010906767485703923,0.021977561792092665
220,0.25,0.001,0.011972403171266749,0.00919894540918545,15.542456989556971,0.01109383082766379,0.018488169980368445
221,0.25,0.001,0.011923429149557168,0.009200365282595158,15.260050478115888,0.010892255873030613,0.012738598776715142
222,0.25,0.001,0.011859107605168517,0.009062136357274134,15.674227181734613,0.011187885211802008,0.014840617110686643
223,0.25,0.001,0.011843467957641877,0.009159311608459468,15.042011449034785,0.010736624874400275,0.013511507505817073
224,0.25,0.001,0.011849905377332593,0.009178416829713633,14.97102153581073,0.010685953987016937,0.010723225572811705
225,0.25,0.001,0.011792282206596623,0.009011631586671995,15.582766868698766,0.011122603046894193,0.008998531781669174
226,0.25,0.001,0.011884824342221162,0.009226848283878795,14.895297063908107,0.010631903685873023,0.013258221293134349
227,0.25,0.001,0.01188128541700297,0.00908104237606268,15.692562515187152,0.01120097253046906,0.010338955758405583
228,0.25,0.001,0.011852507125323927,0.00914675783925633,15.163018123644619,0.010822996519375174,0.010567881433027131
229,0.25,0.001,0.011814565633908964,0.009084355894983374,15.300095571598536,0.010920839094645637,0.012725908242698227
230,0.25,0.001,0.01185650936384716,0.009101053236375951,15.441576201031465,0.011021824554626313,0.014803702676934856
231,0.25,0.001,0.011824970863794497,0.00904846179163512,15.559558192329227,0.01110603725362543,0.012956678667770965
232,0.25,0.001,0.01185201266299531,0.009103051133174013,15.405181311665567,0.010995846760646372,0.01308076096964734
233,0.25,0.001,0.011837048700927569,0.00907676261652943,15.468644616749366,0.011041145336723316,0.012734850602490562
234,0.25,0.001,0.011816829714067105,0.009036636876353355,15.58020075945787,0.01112077142002703,0.010729082860052586
235,0.25,0.001,0.011755295893605886,0.00906313381249636,15.086875015581159,0.010768647405839514,0.012208656940077032
236,0.25,0.001,0.011800718673028296,0.009043695768035353,15.450357661001,0.011028092548894362,0.013138833987925733
237,0.25,0.001,0.011770880855445011,0.009033057856167986,15.342759141339942,0.010951291321441785,0.016979865995900973
238,0.25,0.001,0.01180424800081432,0.009076631942790158,15.285560787003925,0.010910464516062758,0.01834728103131056
239,0.25,0.001,0.01174999407094689,0.009074132753964601,14.995526958519305,0.010703445366537691,0.014238591572003705
240,0.25,0.001,0.011706179016632652,0.00901104919087719,15.103507225502264,0.010780519076018747,0.011011495986687285
241,0.25,0.001,0.011744059578563686,0.009021945595041688,15.254726571096501,0.010888455796642757,0.013596473527806146
242,0.25,0.001,0.011822052020142335,0.009078403047237877,15.375409829224779,0.010974596594735745,0.01834614934133632
243,0.25,0.001,0.011744324371498515,0.00902648527227657,15.23077098864345,0.010871356879831156,0.014570142807705062
244,0.25,0.001,0.011711306262219176,0.009008383785020297,15.147178963316438,0.010811690908862553,0.012684842305524009
245,0.25,0.001,0.011748131600693918,0.009042407040584816,15.162880328899258,0.010822898164810319,0.011735337121146066
246,0.25,0.001,0.011729798445854108,0.008935780360630141,15.657677010191438,0.011176072098637715,0.011127474318657602
247,0.25,0.001,0.011702552254141216,0.009067630325334733,14.766103529594314,0.010539688457954543,0.013556653234575475
248,0.25,0.001,0.011786123213004058,0.008982067324326073,15.713930004639245,0.011216224128935935,0.013218722705330168
249,0.25,0.001,0.011754853685906796,0.008976886612953434,15.567727290408712,0.011111868158749972,0.016030282713472843
250,0.25,0.001,0.01179677617469444,0.009087482222438978,15.182882429848254,0.010837175181904536,0.021440000273287296
251,0.25,0.001,0.01181604403635146,0.00907954497988655,15.335340598379503,0.010945996144453607,0.016697695744889125
252,0.25,0.001,0.011712412275548832,0.008993225137182804,15.238325307067011,0.010876748970069244,0.01646941527724266
253,0.25,0.001,0.011769530966772999,0.009098179065600528,14.970256174114388,0.010685407690302918,0.0214834458061627
254,0.25,0.001,0.011771153837897128,0.00901877735369782,15.424316880848487,0.011009505268271583,0.016353292457227196
255,0.25,0.001,0.011753674242383157,0.009041239822309621,15.200482046100456,0.010849737363383623,0.01747619267553091
256,0.25,0.001,0.01166620500770533,0.008932993200743143,15.316920490891722,0.010932848316125426,0.012202044549797262
257,0.25,0.001,0.011641995001916594,0.008972920431480022,14.957493755179392,0.010676298183568446,0.00933779969013163
258,0.25,0.001,0.011751915070232651,0.008997785631444813,15.434141351583419,0.011016517738460685,0.015253060896481787
259,0.25,0.001,0.011778904181935697,0.008953875604089997,15.831461355719767,0.011300115171819962,0.0168617507442832
260,0.25,0.001,0.011579144680479042,0.00890871573746764,14.96508390131131,0.010681715846760392,0.010978513663368565
261,0.25,0.001,0.011653445145124001,0.008878590794883564,15.550283449916213,0.011099417166249974,0.011235418330345835
262,0.25,0.001,0.011743031197310613,0.00904902143342674,15.097231108258027,0.010776039334945059,0.011403147530342852
263,0.25,0.001,0.011634533590868886,0.008891860932601449,15.369938237006675,0.010970691104216041,0.016090665012598038
264,0.25,0.001,0.011605836656556724,0.008891806942126561,15.209422644315191,0.010856118946691785,0.011348949146590062
265,0.25,0.001,0.011753128561685342,0.009017136442024664,15.332500457763672,0.010943968920602192,0.010666331675435816
266,0.25,0.001,0.011716369150355108,0.008922068380309102,15.659261806470127,0.011177203287987242,0.011499819079680102
267,0.25,0.001,0.011589968428365502,0.00891471902092158,14.99209801579865,0.010700997869949071,0.01384561216192586
268,0.25,0.001,0.011676181335124611,0.008961558193318162,15.212749243901929,0.010858493393220505,0.012250185012817383
269,0.25,0.001,0.011668489209677972,0.008861961394128665,15.727781779329542,0.011226111191527154,0.01459116249212197
270,0.25,0.001,0.01166523118096758,0.008928462373258922,15.336852946751554,0.010947075622235227,0.011856871390981334
271,0.25,0.001,0.011630075069870188,0.008950007790830774,15.019097126705546,0.010720269183944002,0.012009776064327784
272,0.25,0.001,0.011677001812823221,0.008943747991407422,15.317154602265694,0.010933015419176084,0.015243831223675184
273,0.25,0.001,0.011588978108910608,0.008893711509908869,15.104273428939317,0.010781065973546979,0.013682812319270201
274,0.25,0.001,0.011608446707747912,0.008929473151203612,15.012967235045814,0.010715893815164749,0.011744227127305098
275,0.25,0.001,0.011609546844563294,0.008859167024143424,15.413128328994967,0.011001519149889342,0.01368486209373389
276,0.25,0.001,0.011665544258386876,0.008993193336670667,14.975856028812032,0.010689404731486104,0.013818698669118541
277,0.25,0.001,0.011638992168708865,0.008917157839931232,15.253160284158769,0.010887337818814253,0.015725189420793737
278,0.25,0.001,0.011714898207238023,0.008973292499220986,15.363958981115493,0.0109664232556142,0.021316659104611193
279,0.25,0.001,0.01157754909754359,0.00884445781159289,15.316244344756077,0.01093236569932625,0.016875152609177997
280,0.25,0.001,0.011579919239165078,0.008884527427559727,15.104975740674515,0.010781567266719853,0.010891333821096591
281,0.25,0.001,0.01157156281837835,0.00890422049918575,14.947786335654103,0.010669369261708852,0.012066091543861799
282,0.25,0.001,0.011612661007984143,0.008863896743652407,15.404074547995984,0.010995056779440389,0.015312422000403916
283,0.25,0.001,0.01161804086060871,0.008912832944046163,15.159985206496547,0.0108208316962859,0.014148102474531956
284,0.25,0.001,0.011659359961678165,0.008932613522828745,15.280688070915115,0.010906986488875885,0.01760000762130533
285,0.25,0.001,0.01159454395058849,0.008851150024524877,15.37398002069321,0.010973576031900936,0.012805209495127201
286,0.25,0.001,0.011566945990031594,0.008856971389635907,15.186697874830362,0.010839898554482771,0.012229608371853828
287,0.25,0.001,0.01159455189087861,0.008898210484412075,15.110298264194542,0.010785366355599246,0.011727008170315198
288,0.25,0.001,0.011506339771227099,0.008779770563500868,15.279694803443872,0.010906277518518111,0.010823179435517107
289,0.25,0.001,0.011547191007316392,0.008858647232464222,15.066598574320475,0.010754174571249447,0.011882000070597445
290,0.25,0.001,0.011544800249798476,0.008820148438495089,15.268948859452083,0.01089860732294938,0.011481962299772672
291,0.25,0.001,0.011554218575078557,0.008886838970189923,14.947994218745702,0.010669517643644327,0.012280942872166634
292,0.25,0.001,0.011531253166042024,0.008832080517086624,15.126162417058094,0.010796689805180653,0.010859852922814233
293,0.25,0.001,0.011529741979295939,0.008873908019716471,14.883293783161003,0.010623336033662386,0.011689052784017153
294,0.25,0.001,0.011542188528348023,0.008877743953760241,14.931547388784203,0.010657778293207854,0.012829662300646305
295,0.25,0.001,0.011500606107844712,0.008807000970826463,15.094963816969607,0.010774420997123202,0.010870011323796851
296,0.25,0.001,0.011516185407417482,0.00886477241423768,14.858519352657694,0.010605652642867733,0.01108038891106844
297,0.25,0.001,0.011581416097535213,0.00887344982212698,15.175442283702008,0.010831864585083518,0.012371125897126538
298,0.25,0.001,0.011553526676736528,0.008774029965481848,15.576299855406855,0.011117987048827162,0.011447554720299584
299,0.25,0.001,0.011533004157420056,0.008812934210515218,15.243271975450114,0.010880279782619639,0.012762463518551417
300,0.25,0.001,0.011480450053030337,0.008785627463159147,15.10178542696814,0.010779290097764554,0.012551468930074148
301,0.25,0.001,0.011571202147314805,0.008878593048859091,15.08938112840966,0.01077043620871496,0.015901468162025725
302,0.25,0.001,0.011577138248743585,0.008826940954431121,15.412105851330107,0.011000789330000076,0.012114399245807103
303,0.25,0.001,0.011553617203039742,0.008861920061770459,15.084271225011404,0.010766788882948897,0.012770828524870532
304,0.25,0.001,0.011560124432571896,0.008890492736663617,14.960617414662536,0.010678527776347278,0.01628645003906318
305,0.25,0.001,0.011501224986998968,0.008734267331799711,15.506031430383244,0.01106783114231495,0.011258800247950214
306,0.25,0.001,0.01155620046449659,0.00882243540382861,15.32002038910915,0.010935060948686046,0.013715838348226888
307,0.25,0.001,0.011519013261291343,0.008739243773087648,15.57782954901037,0.011119078907216539,0.009900715601231371
308,0.25,0.001,0.01154641325240124,0.00881954521255594,15.281368192932415,0.010907471943563465,0.011420019968811954
309,0.25,0.001,0.011580915063479696,0.008900237969284606,15.022515435733705,0.010722709090459462,0.017922844471676008
310,0.25,0.001,0.011630074776918955,0.008816326194455926,15.768246914859109,0.011254994229021492,0.022328529373875687
311,0.25,0.001,0.011588701130078993,0.008874348955045283,15.211230524269068,0.01085740936778663,0.016987510291593417
312,0.25,0.001,0.011575532963438212,0.008861734750440144,15.208124783117446,0.010855192564680547,0.017798748665622303
313,0.25,0.001,0.011589088158008638,0.00886287140122182,15.277719018604834,0.010904867250967048,0.020687979646027088
314,0.25,0.001,0.011596888190074145,0.008929938265940114,14.94558757907348,0.01066779984230798,0.018213295643883094
315,0.25,0.001,0.011648973415085407,0.008879295620245272,15.521273796547186,0.011078710775551169,0.014326239936053753
316,0.25,0.001,0.011621349425592892,0.008851375780614889,15.522933046582718,0.011079895108196087,0.01864136928426368
317,0.25,0.001,0.011586060004195138,0.008902800676058715,15.036984806329432,0.010733036978108089,0.022016219262565886
318,0.25,0.001,0.011570799151356791,0.008862967139433527,15.174690801772712,0.010831328195412358,0.017657908610999584
319,0.25,0.001,0.01154212490108931,0.008832951640369187,15.182206668764213,0.010836692839945905,0.015439341975642102
320,0.25,0.001,0.011492826726654885,0.008751081635064922,15.364739812036076,0.010966980593887277,0.012919139449617692
321,0.25,0.001,0.011465069107676336,0.008702785817320358,15.479835604278135,0.011049133193631789,0.014214782576475824
322,0.25,0.001,0.011476007565646104,0.008754488334339549,15.251394195735735,0.010886077227505878,0.01461675510342632
323,0.25,0.001,0.011508680014333255,0.008809605088662093,15.12561671386862,0.010796300295409436,0.013706318901053496
324,0.25,0.001,0.011532480246933973,0.008812463628084447,15.242973564935962,0.010880066784393978,0.011443066011582102
325,0.25,0.001,0.01149710424751603,0.008692393123124127,15.71760130152456,0.011218844612080343,0.010505989593054568
326,0.25,0.001,0.011455028816323045,0.008772901906478853,15.030638932062427,0.01072850744615448,0.011173683617796217
327,0.25,0.001,0.011372056160069687,0.00865703449964943,15.21498105671484,0.010860086407362484,0.010023932504866804
328,0.25,0.001,0.011449312987986585,0.008762478745354452,15.057018866561387,0.010747336806967442,0.012036507550094808
329,0.25,0.001,0.011456508259398276,0.008696719964730069,15.465853435892454,0.011039153059166633,0.012128222866782121
330,0.25,0.001,0.011480484201524739,0.008777285414472433,15.148726091698302,0.01081279521177609,0.010460831158395325
331,0.25,0.001,0.01151190845059677,0.008763830623471401,15.40022918987722,0.01099231205558688,0.010457599402538367
332,0.25,0.001,0.011460095775169385,0.008673736112883114,15.614760157088158,0.011145439084288479,0.009818691893347673
333,0.25,0.001,0.011429631986388578,0.008778335382296165,14.857865342511817,0.01060518582620401,0.010490329403962408
334,0.25,0.001,0.0114206007939759,0.008698160069264436,15.256557616829312,0.010889762752911715,0.01298336751226868
335,0.25,0.001,0.011438210096927316,0.008672869646213425,15.496967723112151,0.011061361686732442,0.01648041938564607
336,0.25,0.001,0.011426131096734127,0.008766666059098054,14.903643885688602,0.010637861445887653,0.01457191285278116
337,0.25,0.001,0.011517395077386932,0.008803546905272724,15.208405432007122,0.010855392885087169,0.013581859613103526
338,0.25,0.001,0.011457298195837809,0.008693925533531138,15.485940910840817,0.011053491014161896,0.014685695658304862
339,0.25,0.001,0.011410812772985356,0.008723388063096105,15.060327695568962,0.010749698569285484,0.015440496616065502
340,0.25,0.001,0.0114263033695484,0.008754517139753266,14.972689749489367,0.010687144717694053,0.015335833919899804
341,0.25,0.001,0.011488532236484295,0.008803161705008975,15.048817585331733,0.010741482930286747,0.01591371452169759
342,0.25,0.001,0.011492542026153473,0.00873299808779233,15.46448512368359,0.011038176390923332,0.01522437296807766
343,0.25,0.001,0.011427666528473997,0.008741490201840937,15.053333166059753,0.010744706042869203,0.02039301980819021
344,0.25,0.001,0.011441161488773118,0.00877758190735405,14.926699226451031,0.01065431779189938,0.01812539861670562
345,0.25,0.001,0.011509965943443664,0.008798828020586933,15.193216999931515,0.01084455174870201,0.01657037782881941
346,0.25,0.001,0.011425971757498146,0.008677406800569783,15.402958543087955,0.010994260202061353,0.014545258932879992
347,0.25,0.001,0.011493162177678005,0.008755933554589469,15.339429282246622,0.010948914548355905,0.014375770065401281
348,0.25,0.001,0.011520919245733341,0.008775905675381562,15.383056107821039,0.010980054323926508,0.023836350201496055
349,0.25,0.001,0.011552610067309628,0.008822268727694598,15.300833643881928,0.010921365912835067,0.025951513355331763
350,0.25,0.001,0.01154384931260851,0.008774399241441293,15.519997798221212,0.011077799998730344,0.02099283305662019
351,0.25,0.001,0.011448575839610167,0.008785472129047477,14.924033796283561,0.010652415272151007,0.01621248067489692
352,0.25,0.001,0.011404621397350595,0.008804206823833951,14.572724306527437,0.010401659033923939,0.016020647516208037
353,0.25,0.001,0.011418938732972728,0.008691628660324593,15.283845355253264,0.010909240082265,0.011835215879338128
354,0.25,0.001,0.011395750982695622,0.008647331277109647,15.402143178411492,0.010993678214426476,0.011193537153303623
355,0.25,0.001,0.011453081604460595,0.008796290616928971,14.888656110271041,0.01062716353338404,0.013525530695915222
356,0.25,0.001,0.011304310365566905,0.008601132238135092,15.148610415033332,0.010812712644563406,0.011757338951740946
357,0.25,0.001,0.011435826112266997,0.008744139425421545,15.08421207929441,0.010766746666163033,0.011508845258504152
358,0.25,0.001,0.011423753933027877,0.008642442126544149,15.58647111436011,0.011125247048080022,0.018259512526648387
359,0.25,0.001,0.01144647543611521,0.008722123751163203,15.267267267468949,0.010897407043161276,0.015057327358850412
360,0.25,0.001,0.011315597439875626,0.008562049093905469,15.430884195605355,0.011014192859104465,0.0112180889451078
361,0.25,0.001,0.011339086768143054,0.008671350750914762,14.949992569399551,0.010670944018129586,0.011006944546742099
362,0.25,0.001,0.011336673212897889,0.00859715052806016,15.35228547467872,0.010958090988350265,0.01015459732817752
363,0.25,0.001,0.011365410443307928,0.008682064935040305,15.03746834159457,0.010733382113914754,0.00950038991868496
364,0.25,0.001,0.011306420226577022,0.008602432810434713,15.153146018444652,0.01081595004885414,0.010825113725981541
365,0.25,0.001,0.011398420489869767,0.008669669092785864,15.291923008054635,0.010915005715956199,0.012207103494022573
366,0.25,0.001,0.011390019400578709,0.008661447945509998,15.290915399649894,0.010914286509386077,0.016546252981892655
367,0.25,0.001,0.011404944334546445,0.00871214108812697,15.090469297668744,0.010771212917679332,0.012401709466108255
368,0.25,0.001,0.011405247626520098,0.008653400916203927,15.4213487598258,0.011007386695093362,0.011438105920595782
369,0.25,0.001,0.0113358895377444,0.0086650628281731,14.967312965034878,0.010683306898668721,0.012212052808276244
370,0.25,0.001,0.011363406954202014,0.008672548952062086,15.079567689850856,0.01076343161302702,0.013462068779127938
371,0.25,0.001,0.011419963826176147,0.008665885325923491,15.433857362594964,0.011016315033972136,0.012890164740383625
372,0.25,0.001,0.011331790826445174,0.008595095601964725,15.33643968788111,0.010946780648023634,0.012495188707751887
373,0.25,0.001,0.011438559255444668,0.00882284253608313,14.658476323588912,0.01046286675488145,0.015217964404395648
374,0.25,0.001,0.01139882664270524,0.008634413679965505,15.491769432461878,0.011057651272278285,0.018716066676591123
375,0.25,0.001,0.011372545729675483,0.008689041612363757,15.038356928758219,0.010734016365994446,0.013298015110194683
376,0.25,0.001,0.011428199559799943,0.008729034606279901,15.126120186747519,0.010796659662203797,0.010091201468769993
377,0.25,0.001,0.011316783376422846,0.00857466203925755,15.36684754420894,0.010968485042261913,0.010909451703940119
378,0.25,0.001,0.011299877501849277,0.008641960300470182,14.894967508987643,0.010631668457521516,0.00924642916236605
379,0.25,0.001,0.011339049401557501,0.008599925493305557,15.350051566468718,0.010956496478564396,0.010609747975000314
380,0.25,0.001,0.011438349983326986,0.008714033124592383,15.267071209043404,0.010897267101387156,0.009754366773579801
381,0.25,0.001,0.011401603794153867,0.008664022186692332,15.34140752514763,0.010950326570412299,0.010225088867758001
382,0.25,0.001,0.0113179062584966,0.008566743864769667,15.417514586112869,0.011004649954398907,0.010893215957496847
383,0.25,0.001,0.011352297675056916,0.008667220921198806,15.04717004802865,0.010740306957907673,0.013062999051596438
384,0.25,0.001,0.011358086951076984,0.008586887961052394,15.529798839013901,0.011084795745191936,0.013165652618876525
385,0.25,0.001,0.011397341532991247,0.0086263425761895,15.528677998574127,0.011083995716327,0.011332120214189802
386,0.25,0.001,0.011394621913666737,0.008688127224119336,15.167196520057642,0.010825978957928367,0.017539733355598792
387,0.25,0.001,0.011418703484388304,0.008603696846906008,15.775296770910701,0.011260026246188938,0.020399732382169793
388,0.25,0.001,0.011365733743413512,0.008666206885811309,15.128148557994287,0.010798107464664017,0.01546569647533553
389,0.25,0.001,0.01136041669166284,0.008643525193484736,15.22546081363875,0.01086756660502409,0.015711773253445114
390,0.25,0.001,0.011271270385510485,0.008519949124767466,15.418404919440757,0.011005285452848505,0.015450915853892053
391,0.25,0.001,0.01126830060332314,0.008599634483421633,14.955205093527065,0.010674664592096405,0.014179980249277182
392,0.25,0.001,0.011461869686702047,0.008736193752869473,15.274688702793748,0.010902704284649355,0.019762558596474782
393,0.25,0.001,0.0113323987789557,0.00857875041418792,15.431445408315167,0.011014593439197121,0.01467884158981698
394,0.25,0.001,0.01129103232909676,0.008656117601643705,14.766062700692476,0.010539659315269434,0.013421265541442804
395,0.25,0.001,0.011421625065166906,0.008696194104150708,15.273315881899265,0.010901724398215035,0.021649258344301155
396,0.25,0.001,0.011378196667127766,0.008636405953848866,15.364994854994222,0.010967162637397733,0.017474689786987647
397,0.25,0.001,0.011334778627319514,0.008628310272776185,15.167048973656597,0.01082587364286695,0.014146156209920133
398,0.25,0.001,0.011353025029242878,0.008624489266128047,15.290714751946535,0.01091414329189617,0.0130644507173981
399,0.25,0.001,0.011294706947576831,0.008582857411197374,15.19720577186262,0.010847398837874818,0.010965939810765641
400,0.25,0.001,0.011292554783534275,0.008613057902406358,15.01590038801023,0.010717987428986603,0.01333421708217689
401,0.25,0.001,0.011371003909849785,0.008640394987704608,15.302332676632304,0.010922435886247183,0.012878495534615857
402,0.25,0.001,0.011293290558975067,0.008554916527174728,15.34584850436645,0.010953496434237294,0.010828235452728612
403,0.25,0.001,0.011263811291838196,0.008572747659795162,15.080719558285995,0.010764253788926478,0.010676768209253038
404,0.25,0.001,0.01125477949166102,0.008534803851004778,15.242743863746034,0.01087990282922629,0.010040635775242533
405,0.25,0.001,0.011336034544232026,0.008570228401623982,15.499577804350517,0.011063224699750547,0.010678199519004141
406,0.25,0.001,0.011289600982492518,0.008576630225553758,15.20348926329277,0.010851883842464504,0.010758734973413604
407,0.25,0.001,0.01134601095472703,0.008616506463100373,15.296143285545385,0.010918018048212267,0.012313635221549444
408,0.25,0.001,0.011336275922930296,0.008650508381321396,15.051041343402416,0.010743070195148047,0.01328982918390206
409,0.25,0.001,0.011294257796496293,0.008599138224033962,15.10345001399797,0.010780478239827244,0.016658902035227845
410,0.25,0.001,0.011250330349474166,0.008542290954312809,15.175852345748686,0.010832157277479434,0.010444163344800472
411,0.25,0.001,0.011219944052852935,0.008517461033109488,15.144714033099968,0.010809931501142019,0.010301497365747179
412,0.25,0.001,0.01133598850279207,0.008628330740010794,15.173713961677372,0.01083063095051918,0.010509037811841284
413,0.25,0.001,0.011221776834466088,0.008512953709496158,15.180245408429785,0.01083529293963582,0.010144633906228202
414,0.25,0.001,0.011196628322238934,0.008465223622119203,15.306793226322657,0.01092561971900261,0.009959450723337275
415,0.25,0.001,0.011237170236806074,0.008603933450936432,14.756658554077148,0.010532946862296323,0.011662842173661505
416,0.25,0.001,0.011243843084349878,0.008499371963487545,15.380017092530156,0.010977885148130018,0.009717296276773726
417,0.25,0.001,0.011252404116269009,0.008582186688419799,14.96389846622664,0.010680869711796317,0.011632754001766443
418,0.25,0.001,0.011287903876651621,0.008568269747173842,15.240829521501569,0.010878536417916895,0.012342121984277452
419,0.25,0.001,0.011263818773025638,0.00847598666351446,15.623010944312727,0.01115132829715398,0.009475396546934332
420,0.25,0.001,0.011305497933021734,0.008646581833526281,14.900565120535838,0.010635663897598742,0.01097681958760534
421,0.25,0.001,0.011292258950886033,0.00851585161150761,15.558986878730881,0.011105629463762227,0.011413851353738989
422,0.25,0.001,0.011265025915744159,0.008532977282581195,15.310400492708448,0.010928194498721233,0.010311056859791279
423,0.25,0.001,0.011250908215455886,0.008536506798380698,15.211506368968408,0.010857606259078093,0.011773088813892432
424,0.25,0.001,0.01123615828268405,0.008494223669136354,15.36580072322362,0.010967737846697802,0.009764004432197129
425,0.25,0.001,0.01123889446905661,0.008533729270905116,15.159745981995489,0.010820660943608486,0.011676913393395287
426,0.25,0.001,0.011184443339285716,0.008500694677653447,15.039727645300923,0.010734994750393235,0.013567245764923947
427,0.25,0.001,0.011242537763616849,0.0086052317517709,14.779463790392093,0.01054922468978736,0.009974321749593531
428,0.25,0.001,0.011263199517844429,0.00854304724508468,15.243733392634862,0.010880609131074134,0.010971508254962308
429,0.25,0.001,0.011248305890306901,0.00847714267968432,15.529598607703553,0.011084652824913313,0.012559072513665472
430,0.25,0.001,0.011198884991168136,0.008544040194542055,14.877750468366022,0.01061937934929766,0.01224802022001573
431,0.25,0.001,0.011183366236307531,0.008513495326042175,14.961957067391122,0.010679483988144984,0.009975108850215162
432,0.25,0.001,0.011237639916334913,0.00854943075737623,15.06472477890516,0.01075283710128848,0.01019624647285257
433,0.25,0.001,0.011305271792159954,0.008622237642955891,15.03572378024249,0.01073213688811027,0.01589814227606569
434,0.25,0.001,0.01123445370440052,0.00853973757825407,15.101189286496158,0.010778864587077915,0.011786572369081634
435,0.25,0.001,0.01128339382247046,0.008516643882812189,15.504866891063994,0.011066999922244107,0.010182398371398449
436,0.25,0.001,0.011260124539930217,0.008544135676967986,15.220401678846475,0.01086395551666415,0.011130668289427246
437,0.25,0.001,0.011246967129409313,0.00854275822464569,15.15438692334672,0.010816835776835633,0.010398819244333677
438,0.25,0.001,0.011186906932350336,0.008462524859173476,15.267437885624702,0.010897528826284584,0.013587314768561296
439,0.25,0.001,0.011178048852253968,0.008489579570090547,15.066182351448166,0.01075387748140483,0.010451051672654492
440,0.25,0.001,0.01132584344858015,0.008641084284464797,15.045391709591861,0.01073903762283502,0.0120698908077819
441,0.25,0.001,0.011391001495537064,0.008610541433830497,15.581697974406497,0.011121840095936114,0.014334846287965775
442,0.25,0.001,0.01136785094132166,0.008585081326429832,15.594640660174017,0.011131078272786593,0.013616311230829783
443,0.25,0.001,0.011261538361929392,0.008517277890492773,15.378834890088005,0.010977041320548183,0.009956800578428167
444,0.25,0.001,0.011228861147319207,0.008572845020169664,14.884313722171694,0.01062406404152155,0.013633201497473888
445,0.25,0.001,0.011273786053935966,0.008518439385287919,15.44096220491078,0.01102138629900841,0.01103472909224885
446,0.25,0.001,0.01125086495923884,0.008585538955606485,14.936486611343886,0.010661303791109127,0.017001116382224218
447,0.25,0.001,0.011172391614163986,0.008463290393212591,15.181803228709619,0.01083640487416818,0.012774326971599035
448,0.25,0.001,0.011220719975729784,0.008506486319145407,15.210565844611942,0.010856934935483184,0.010941436780350549
449,0.25,0.001,0.011236746397586496,0.008588897650230659,14.838544720215417,0.010591395232130919,0.012524810353560107
450,0.25,0.001,0.011241698532666959,0.008532303074995676,15.183451504774496,0.010837581373857598,0.018834782099085196
451,0.25,0.001,0.01130116165139026,0.008582523717881648,15.235246277750937,0.010874551233226936,0.016333420760929585
452,0.25,0.001,0.011243723061792728,0.008458527609566007,15.608234611475412,0.011140781307262964,0.015631472425801412
453,0.25,0.001,0.011212317373586092,0.00853216586013635,15.019569271607018,0.010720606189583882,0.012476623191365175
454,0.25,0.001,0.011140676635042044,0.008463966161747214,15.000285681424566,0.010706842028140304,0.01088898376162563
455,0.25,0.001,0.011225092605176106,0.008508658744919469,15.222895129745556,0.010865735281759855,0.01458934588091714
456,0.25,0.001,0.011205470434306933,0.008489991638791952,15.217544627301569,0.01086191622219955,0.013050502365721124
457,0.25,0.001,0.011280601218937428,0.008580010681644852,15.134109407523429,0.0108023621752487,0.014675613359681197
458,0.25,0.001,0.011295221313099625,0.00855649174344092,15.34784057778372,0.010954918328182526,0.013056282619280475
459,0.25,0.001,0.011213330573843959,0.008418936208065407,15.659786806419982,0.011177578020285498,0.011854409905416625
460,0.25,0.001,0.011216161545243622,0.008550835065018962,14.936489830554372,0.010661306088903906,0.011798217227416379
461,0.25,0.001,0.011270688129632686,0.008605825299388366,14.933891632187535,0.010659451557592816,0.015422087162733078
462,0.25,0.001,0.011173020497384206,0.008442807575346718,15.300112898920624,0.01092085146247011,0.015605810630534376
463,0.25,0.001,0.011244900389071642,0.00853436292660698,15.189851702658784,0.010842149680698632,0.012284117085593087
464,0.25,0.001,0.011188001009010374,0.00852404269848911,14.928822333823907,0.010655833214720847,0.013409866419221674
465,0.25,0.001,0.011153844565572873,0.008432405301207948,15.250945503163226,0.01088575696157261,0.011689990625849791
466,0.25,0.001,0.011144955432645872,0.008482122942455497,14.922513048413773,0.010651329799010545,0.012104139131094729
467,0.25,0.001,0.011188990108563866,0.008504264480806012,15.04520213436073,0.010738902308608658,0.013271736247198922
468,0.25,0.001,0.011155548138202916,0.008490429651167052,14.935323648049797,0.010660473695967022,0.013124839535781316
469,0.25,0.001,0.011219063594482595,0.00849799194456266,15.248886480018006,0.010884287280526771,0.015306834264525346
470,0.25,0.001,0.011230709555913026,0.008552926631880477,15.006294859407094,0.01071113123440906,0.016189238455678736
471,0.25,0.001,0.011183643022753263,0.008500783201394507,15.034746062587685,0.01073143901683632,0.012991663733763354
472,0.25,0.001,0.011127794209535413,0.008398731851276937,15.293664811362683,0.010916248973135392,0.011549106666019984
473,0.25,0.001,0.011285651894942137,0.00859784401358573,15.062475661156883,0.01075123173530113,0.013694915255265576
474,0.25,0.001,0.011239581330386406,0.00850434155321457,15.32828409347176,0.010940959381493047,0.01232407268668924
475,0.25,0.001,0.01121075103767741,0.008517233532429301,15.094472714992756,0.010774070460380269,0.014146222999053342
476,0.25,0.001,0.01127107096879695,0.008593895468213748,15.002891155475742,0.010708701752659346,0.01695909776857921
477,0.25,0.001,0.011285024712588026,0.008516762160779165,15.513342673789728,0.011073049731470185,0.013003544881939888
478,0.25,0.001,0.011122058552335685,0.008412039648531608,15.186945445101026,0.010840075264169184,0.011773473849253995
479,0.25,0.001,0.011137451469338555,0.008493083332416038,14.819038906007865,0.010577472452539519,0.011086720174976758
480,0.25,0.001,0.011111646326599826,0.008385736294125727,15.276001066109384,0.010903641017922473,0.01102283610297101
481,0.25,0.001,0.011116359697681077,0.008417940847225872,15.12193996357806,0.01079367591975593,0.01164558476635388
482,0.25,0.001,0.011224385486487212,0.008561809744003793,14.921075691079869,0.010650303848022747,0.013465549131589276
483,0.25,0.001,0.011144975751218662,0.008415679902083157,15.294974953915592,0.01091718412128165,0.015865512857479707
484,0.25,0.001,0.011162897956693117,0.008474630229349987,15.065053223444263,0.010753071537076562,0.013585748882698161
485,0.25,0.001,0.011172305197922837,0.00837197062065344,15.693074745751323,0.011201338148287882,0.012133131735026836
486,0.25,0.001,0.011211764102390675,0.008546148112017505,14.938112917080732,0.010662464608908444,0.010550117918423243
487,0.25,0.001,0.011131785879952246,0.008387938552829021,15.376520935918244,0.010975389675887397,0.010375586937048606
488,0.25,0.001,0.011159379699840231,0.008488572714194445,14.96720307757597,0.010683228463651656,0.01020625579570021
489,0.25,0.001,0.011194570427279516,0.008451376551928375,15.37285794002909,0.010972775117793784,0.011219775038106101
490,0.25,0.001,0.01115999973330979,0.008435828112800357,15.266257599485872,0.010896686366513827,0.011227915595684732
491,0.25,0.001,0.011177124433709142,0.00849033704141216,15.056756570305623,0.01074714958622814,0.011579170557005065
492,0.25,0.001,0.011159479985354652,0.008458893763627245,15.13408564178037,0.010802345211834668,0.012899116213832582
493,0.25,0.001,0.011061148914757749,0.008344282912081676,15.225316589427106,0.010867463661261317,0.0165850599296391
494,0.25,0.001,0.011116980784900591,0.008528591855101183,14.505330990177924,0.010353555310619503,0.016430909878441265
495,0.25,0.001,0.01121930788957597,0.008497870697731703,15.25093493215355,0.010885749416240934,0.01610317679920367
496,0.25,0.001,0.011110101244958913,0.008326426557234616,15.599713101633277,0.011134698859124395,0.012140097761792796
497,0.25,0.001,0.011151720022021885,0.008523638417043596,14.727769050239957,0.010512326231434659,0.015328469686210155
498,0.25,0.001,0.011140838142991626,0.00841659924426409,15.266634260544755,0.010896955218090474,0.010539653711020947
499,0.25,0.001,0.011149319133638216,0.008445133407001204,15.154257080364674,0.010816743098047591,0.013624245833073343
500,0.25,0.001,0.011128142764660674,0.008410896769256939,15.227445808374826,0.010868983446377463,0.016331852746329138
