epoch,beta,learning_rate,train_loss,train_reconstruction_loss,train_kl_unnormalized,train_kl_normalized,mean_unclipped_gradient_norm
1,0.0,0.001,0.07303374986794474,0.07303374986794474,290.27433946006016,0.2071908204568595,0.1532708161643573
2,0.02,0.001,0.058004643071193344,0.049837562223298444,572.1039827271917,0.40835402050477637,0.10682962462306023
3,0.04,0.001,0.045224732170892366,0.041593136631520186,127.19664674543068,0.09078989774834453,0.1218266955443791
4,0.06,0.001,0.03977157781223226,0.035131342820909225,108.34947692659655,0.07733724263140368,0.05977511006806578
5,0.08,0.001,0.03887769743352784,0.035102649413341735,66.11053623613529,0.04718810580737708,0.04955832181232316
6,0.1,0.001,0.03660986683488443,0.03419047585466993,33.895661087564726,0.024193905130310295,0.0356927075024162
7,0.12,0.001,0.0350611625501658,0.0329736840349835,24.371315271144102,0.017395656867340546,0.04926816134580544
8,0.14,0.001,0.033297852507639704,0.030918646509184848,23.809055235864935,0.016994329219032787,0.042560662275978496
9,0.16,0.001,0.031220334984241677,0.02865574256824566,22.45620942941714,0.016028700520640357,0.05922741562660251
10,0.18,0.001,0.02949195973764391,0.026666047666695045,21.995014278773073,0.01569951054873167,0.04911696564938341
11,0.2,0.001,0.028051225356671608,0.024911962010775095,21.990541022038624,0.015696317645994735,0.036737866566649506
12,0.22,0.001,0.026792917353279596,0.02335244547102523,21.90955090247456,0.015638508852587125,0.03085503274840968
13,0.24,0.001,0.026179378146765964,0.022738889264110603,20.08385608488087,0.014335371937816468,0.05134200730494091
14,0.25,0.001,0.025247632661365472,0.021661580198253,20.096238962221918,0.014344210536917857,0.034657014799969535
15,0.25,0.001,0.024919933654522785,0.021353860366358217,19.984275496308854,0.014264293716137655,0.05624439234712294
16,0.25,0.001,0.024409292545384677,0.020916933727216223,19.571179933966445,0.013969436069926084,0.06797486104603324
17,0.25,0.001,0.023997371207587163,0.020540886737113736,19.370138340128488,0.013825937430498564,0.07009084416287285
18,0.25,0.001,0.023424477993960195,0.01981435752716819,20.231114455789122,0.014440481410270607,0.06583842688373157
19,0.25,0.001,0.022800138517009745,0.019325984302073648,19.469159969832,0.013896616680822269,0.052462347117917876
20,0.25,0.001,0.022280990823621564,0.01865490309584361,20.32059653196269,0.014504351557432326,0.05458324109869344
21,0.25,0.001,0.021847999351438968,0.018370735237491047,19.48658929961383,0.013909057315927073,0.07513490505516529
22,0.25,0.001,0.021224613428356742,0.01761016038442181,20.255396360613183,0.014457813248117903,0.06001916474529675
23,0.25,0.001,0.02055313486786555,0.017217211244632134,18.694516968231554,0.013343695195026092,0.03668319460536752
24,0.25,0.001,0.02021758766375981,0.016678770122227987,19.831533837263358,0.014155270404898898,0.039779971087617536
25,0.25,0.001,0.019963765568497827,0.016475041502308076,19.550810146552035,0.013954896607103522,0.02577475644648075
26,0.0,0.001,0.01585658911108007,0.01585658911108007,23.53825633024784,0.016801039493396033,0.049435323370354514
27,0.02,0.001,0.014947953175830786,0.014296757586420822,45.61624962187805,0.03255977845958462,0.026553227033998286
28,0.04,0.001,0.01536123050639178,0.013522194883426947,64.41221786040907,0.04597588712377521,0.019328750337341
29,0.06,0.001,0.015917414313238155,0.013199283066044365,63.46837053012628,0.04530219167032568,0.02390154038688966
30,0.08,0.001,0.016060457502515432,0.013337954257208398,47.67784036720047,0.03403129219643145,0.017953446933201382
31,0.1,0.001,0.01619385697773505,0.013808832944781621,33.41418723531463,0.02385024071043157,0.018884887120553424
32,0.12,0.001,0.01655809348556654,0.01408165789211457,28.912385345881862,0.020636963130536663,0.021536674749638354
33,0.14,0.001,0.016818311048228524,0.01382065649568071,29.99795789476355,0.02141181862581267,0.014878410313810621
34,0.16,0.001,0.01715404261548855,0.013921005382497234,28.30928125007048,0.02020648197720948,0.018056545140487806
35,0.18,0.001,0.017513177647980202,0.014168010721322984,26.036547812798833,0.018584259680798597,0.02546784108770745
36,0.2,0.001,0.01770899012065374,0.014166614937641191,24.814339639958828,0.017711876973560903,0.03530103127871241
37,0.22,0.001,0.017946743997842005,0.014308638801888561,23.168117210441043,0.016536843119515376,0.04066435061395168
38,0.24,0.001,0.018190526091611963,0.014365404334530131,22.329149660282265,0.01593800832282817,0.024063050214733397
39,0.25,0.001,0.01806074410126336,0.014257552510871623,21.31308879367749,0.015212768589348672,0.040523294625537734
40,0.25,0.001,0.018011822479219966,0.014376579119240989,20.371903831358594,0.014540973469920481,0.03546929984752621
41,0.25,0.001,0.017941314967964316,0.01419487784833886,20.99503347119338,0.014985748373442813,0.03270736350012677
42,0.25,0.001,0.0178927329065618,0.014291057412622295,20.183791973299023,0.01440670376395362,0.030563167296350002
43,0.25,0.001,0.017761804929162284,0.014094482709419232,20.551674629193805,0.01466928952833248,0.0247969672616039
44,0.25,0.001,0.017599517449426873,0.014160280685880444,19.273481413068176,0.013756946047871645,0.02980051522276231
45,0.25,0.001,0.01766734645975104,0.014085521117093656,20.072548022721712,0.014327300515861322,0.025227131455072334
46,0.25,0.001,0.017425972172521554,0.01388394177243905,19.849538248075348,0.014168121518968842,0.023162233510187695
47,0.25,0.001,0.017244301056682926,0.013832728296742015,19.118455292170925,0.013646292142877176,0.03370580928666251
48,0.25,0.001,0.017123744296077766,0.013695662365860669,19.21097066936537,0.013712327387127316,0.020888073236814568
49,0.25,0.001,0.017142961498599407,0.013749665651668302,19.016031855523725,0.013573184764827783,0.030433198969279016
50,0.25,0.001,0.017020480930977275,0.013544279684078198,19.48063160145255,0.013904804854712741,0.026178379809217795
51,0.0,0.001,0.013002826202032748,0.013002826202032748,23.99146815205281,0.017124531157782164,0.025019771552511623
52,0.02,0.001,0.01249622535304646,0.011814042293481684,47.78692589951442,0.034109154817640555,0.01827232207038573
53,0.04,0.001,0.013036362904255165,0.011315756447303515,60.26423971867727,0.043015160398770354,0.01218206581792661
54,0.06,0.001,0.013574300871572648,0.01127964460805024,53.58022578814288,0.038244272511165515,0.01702138488846166
55,0.08,0.001,0.01376472607762585,0.0114545575719473,40.45682523872781,0.02887710580922756,0.015969136197652136
56,0.1,0.001,0.01398353502111333,0.011876810062461583,29.515214937663796,0.021067248349510202,0.012336073044155325
57,0.12,0.001,0.014310725874269669,0.01199315892915321,27.057596034871512,0.019313059268288017,0.013719057797321252
58,0.14,0.001,0.014744929711207506,0.012038583693032177,27.08279227769953,0.019331043738543562,0.012940236101193088
59,0.16,0.001,0.014989492107036482,0.012050255776036694,25.73668803243659,0.018370227003880506,0.010814518867326635
60,0.18,0.001,0.015186578306363031,0.012171111424511629,23.47038375643054,0.016752593687673477,0.014228246973029204
61,0.2,0.001,0.015510669920171931,0.012347445784536714,22.15838355225173,0.01581611959475498,0.013874233035104615
62,0.22,0.001,0.015895396006437704,0.01244861084331197,21.949753283353104,0.01566720434215068,0.0330925743494715
63,0.24,0.001,0.016040703600087563,0.012537038469940906,20.45264581059198,0.014598605146746596,0.013507668860256672
64,0.25,0.001,0.016192394328103606,0.012751202875485871,19.28443820592162,0.013764766742270965,0.01642596522080047
65,0.25,0.001,0.01607727633217053,0.012631966951830146,19.307514459376524,0.013781238015258048,0.014330626465380192
66,0.25,0.001,0.01607028758002759,0.012557246973931652,19.687079911969825,0.014052162678065543,0.02267876999186618
67,0.25,0.001,0.015860221824043067,0.012520838391216468,18.71390641809336,0.01335753491655486,0.022672810458711216
68,0.25,0.001,0.01586371578499847,0.01252063319912959,18.73463301185097,0.013372329059137024,0.015845966126237596
69,0.25,0.001,0.015749681224792714,0.012347639032895515,19.065043781976502,0.01360816829548644,0.017980783512549742
70,0.25,0.001,0.015720170094496107,0.012543002192972027,17.80484910044329,0.012708671734791782,0.017428634821304252
71,0.25,0.001,0.01565180923660688,0.012305585680396122,18.752237998310466,0.013384895073740518,0.02473594088639532
72,0.25,0.001,0.015445158515753564,0.012167019902902717,18.370688273229444,0.0131125540851031,0.01333182245226843
73,0.25,0.001,0.015552659189935094,0.012335342129232152,18.029845217909603,0.012869268535267382,0.020960638831768717
74,0.25,0.001,0.015461632244151266,0.012245816634602277,18.021432779677745,0.012863263939812809,0.023821670162890638
75,0.25,0.001,0.01549536537370423,0.012297865633549508,17.918789319573595,0.012789999514328047,0.020235553782965456
76,0.0,0.001,0.011678501032292843,0.011678501032292843,22.435964786978847,0.016014250383282545,0.025106816552579403
77,0.02,0.001,0.0113276833362929,0.010724287135978219,42.267909016950576,0.0301698137165957,0.015679567586630583
78,0.04,0.001,0.011911233007374454,0.010338750128004072,55.07621788042522,0.039312075574893086,0.019740452324705466
79,0.06,0.001,0.012374723300028067,0.010280749704645771,48.89428495094352,0.03489956099282193,0.014645397929208619
80,0.08,0.001,0.012530442981122547,0.010601112479236468,33.78740141958893,0.02411663199114128,0.01666726770677737
81,0.1,0.001,0.012773932415914591,0.010977019241841093,25.174754933451947,0.01796913271481224,0.01873732198561941
82,0.12,0.001,0.013128901165038967,0.011026752185652905,24.54259117426002,0.017517909474846553,0.019715877515929087
83,0.14,0.001,0.013434762698673487,0.010944560991802337,24.91980360616988,0.0177871546082583,0.01701750553080014
84,0.16,0.001,0.013672410250226289,0.01106896638164757,22.796406201897813,0.016271524769377453,0.010439419320651464
85,0.18,0.001,0.014011580367974816,0.011261738320558781,21.402938177624144,0.01527690091193729,0.01641281015638794
86,0.2,0.001,0.014318662026669081,0.011282263523694687,21.269969874111116,0.015181991344833059,0.012364657196615423
87,0.22,0.001,0.01451440911748668,0.011439811175917093,19.579598283657575,0.013975444884837668,0.01738384964742831
88,0.24,0.001,0.0148061964506021,0.011499630039940667,19.302082916330246,0.013777361110870983,0.017663784325122833
89,0.25,0.001,0.014912180320787788,0.011525457479730765,18.979196345833653,0.013546892466690687,0.013599313662520476
90,0.25,0.001,0.014827668892679946,0.01167506458749672,17.667193815834803,0.012610416713657962,0.01666323800704309
91,0.25,0.001,0.014865475792790532,0.011549316953188001,18.58375422453495,0.013264635420795824,0.014227369134979588
92,0.25,0.001,0.014766091237803942,0.011547294486202214,18.0381372244749,0.012875187169503855,0.0169135769829154
93,0.25,0.001,0.014662169401832872,0.011497281384213416,17.736031825217584,0.01265955162399542,0.02256305076714073
94,0.25,0.001,0.014704958937941742,0.011513191866785219,17.88666281578998,0.01276706839099927,0.021956018704388822
95,0.25,0.001,0.014690844127026497,0.011511871389029484,17.814963091878912,0.012715890857872171,0.02332320636404412
96,0.25,0.001,0.014617381380832222,0.011469461210932385,17.64094536849588,0.012591681205207624,0.019233776788626398
97,0.25,0.001,0.014606999870019751,0.01147418380360061,17.556302746779373,0.012531265343882493,0.01615068329764264
98,0.25,0.001,0.014660229863422572,0.011543721040198901,17.4649158151816,0.012466035556874805,0.014163321748908077
99,0.25,0.001,0.014636027837477573,0.011485562859830075,17.655206204561935,0.012601860245939997,0.01582456167255129
100,0.25,0.001,0.0146475531522176,0.011533279602112588,17.45238905635772,0.012457094258642198,0.014938052876719407
101,0.25,0.001,0.014616061980657572,0.01148141313378654,17.566572325884884,0.012538595521687998,0.02240334797118391
102,0.25,0.001,0.014562181194955977,0.011395010434727746,17.748826152457926,0.012668683906108442,0.02630826804254736
103,0.25,0.001,0.014438700832116824,0.011314478048981613,17.508144744273974,0.012496891323536027,0.018328112483556782
104,0.25,0.001,0.014461120003382686,0.01138512376162458,17.237882816764003,0.012303984879917204,0.016056749038398266
105,0.25,0.001,0.0144550428418206,0.0113393513197574,17.46033503331984,0.012462765905296103,0.021167818722980365
106,0.25,0.001,0.01444809417096214,0.011346243711201342,17.382768952543685,0.012407401108168226,0.020801019721797535
107,0.25,0.001,0.01434605398514323,0.01126782310692116,17.250406163944657,0.012312923743001183,0.020930018542068347
108,0.25,0.001,0.014473361554652384,0.011391248736814456,17.27216030763974,0.01232845132593843,0.02813401578792504
109,0.25,0.001,0.014430069515167565,0.011312684001224696,17.469829669450228,0.012469542947501947,0.021842523344925473
110,0.25,0.001,0.014417158689255251,0.011411989307758027,16.84096823994062,0.012020676830792732,0.02914582146331668
111,0.25,0.001,0.014226554925220116,0.011175035574316428,17.100714086660336,0.012206077149650489,0.014028443023562431
112,0.25,0.001,0.014234244780438601,0.01115588134468703,17.251149783233572,0.01231345452050933,0.019477071107498238
113,0.25,0.001,0.014234768897811204,0.011205957109844162,16.97345999261799,0.01211524624740756,0.01407554346535887
114,0.25,0.001,0.014353782704259176,0.011282032658937484,17.214087360725667,0.012287000257477278,0.0174428069564913
115,0.25,0.001,0.014257542376017186,0.01114210063552884,17.458935638498215,0.0124617670510337,0.020838663381125246
116,0.25,0.001,0.014155083701582347,0.011088048239124565,17.18766699211702,0.01226814203577232,0.013061679899692535
117,0.25,0.001,0.01419939803858621,0.01118160701221324,16.911700753086432,0.012071163992210159,0.014719355186181409
118,0.25,0.001,0.014188507290053725,0.011175959211866657,16.882319941531705,0.012050192677752822,0.02151660474815539
119,0.25,0.001,0.014186111896128908,0.01111757233695882,17.19609560757256,0.012274158178138872,0.02273032894091947
120,0.25,0.001,0.014064919074468194,0.011096490233035342,16.635076183645058,0.01187371604828341,0.013856442512146063
121,0.25,0.001,0.01402548743158097,0.011062018648564265,16.60727840538113,0.01185387466479738,0.015567318270249026
122,0.25,0.001,0.014091220968263117,0.011043265638292249,17.08074112026576,0.01219182092809833,0.017295068529035364
123,0.25,0.001,0.014119936441507957,0.011029838541346251,17.31690974598944,0.012360392395424299,0.010904176426785333
124,0.25,0.001,0.014089975970653134,0.011022624959760533,17.189435698969536,0.012269404496052488,0.015661806666425297
125,0.25,0.001,0.014082477372096676,0.01105396676911837,16.971773676178472,0.012114042595416468,0.017703219316899776
126,0.25,0.001,0.014005737142598656,0.010910054827947815,17.34820339916485,0.012382729050081975,0.017405470966228416
127,0.25,0.001,0.01407113075944623,0.011086323528655958,16.72685992965522,0.011939229071845267,0.015639915397124633
128,0.25,0.001,0.013954356428898234,0.010843729041086608,17.43195653126917,0.012442510015181419,0.014910152115459954
129,0.25,0.001,0.014090620387801536,0.010985754469009524,17.399668726579698,0.012419463759157529,0.011461876864944185
130,0.25,0.001,0.013947604905908571,0.010871426933649368,17.23890175059541,0.012304712170303647,0.013534654530563526
131,0.25,0.001,0.013988837991210935,0.010983040601479676,16.844487716639566,0.012023188948350869,0.012201479370040553
132,0.25,0.001,0.013878620087704675,0.010787128748299069,17.32471761637417,0.012365965464935166,0.012126524533544267
133,0.25,0.001,0.013962098898465032,0.010945807393924194,16.90329802779623,0.012065166329619008,0.014588980336806603
134,0.25,0.001,0.013912620306806532,0.010847517794673493,17.17683468349536,0.012260410195214391,0.01843971705862454
135,0.25,0.001,0.01390423728948928,0.010876366984761614,16.968184539407286,0.012111480756179361,0.015497181165431227
136,0.25,0.001,0.013943612717487796,0.010829554343763868,17.45118342481089,0.012456233707930685,0.023491673969796727
137,0.25,0.001,0.013953744993043965,0.010843632164181105,17.429071972606913,0.012440451086800081,0.027141469530761242
138,0.25,0.001,0.013819244567640384,0.010885821971569133,16.438900280219027,0.011733690421284103,0.022815884224006107
139,0.25,0.001,0.013892077253679755,0.010841066467276759,17.097865230216716,0.012204043704651474,0.027110992531691278
140,0.25,0.001,0.013952495452816712,0.010912513037752059,17.03606172742249,0.01215992985540506,0.02780675488923277
141,0.25,0.001,0.013903871789471382,0.010934555567542895,16.640048165794884,0.011877264929189781,0.01978140790015459
142,0.25,0.001,0.013878139437070895,0.010752367668765797,17.516825686976762,0.012503087571004113,0.01751376728394202
143,0.25,0.001,0.01378544209649739,0.010745965333668383,17.033227920532227,0.012157907152414152,0.012058751524559088
144,0.25,0.001,0.013730379681836375,0.010725901599792767,16.837094762859387,0.012017912036302203,0.020766977886004106
145,0.25,0.001,0.013869401932141246,0.010928599484368091,16.48025743515332,0.011763210160709008,0.027463088743388653
146,0.25,0.001,0.013811858736546431,0.01070836308147698,17.39199074972034,0.012413983404511305,0.023597638388829573
147,0.25,0.001,0.013806993737558707,0.010764572519903646,17.049728468439046,0.012169684845424016,0.013126891372459275
148,0.25,0.001,0.013636410898823661,0.010660748262018585,16.67561393632074,0.01190265091814471,0.013777366706303187
149,0.25,0.001,0.013721152245310108,0.010702317081581087,16.91755206039816,0.012075340514202828,0.013621028512716293
150,0.25,0.001,0.013817906839983842,0.01082814675831079,16.754615285930676,0.011959040175539384,0.021906011471790925
151,0.25,0.001,0.013785037711073428,0.010705610926480272,17.257107992370464,0.012317707346445727,0.026733605191111565
152,0.25,0.001,0.013713288383330401,0.010782931019352023,16.42172312130829,0.011721429779663305,0.015700508574289933
153,0.25,0.001,0.01371487934254196,0.010605424061830545,17.42538771948693,0.012437821355807946,0.010942475338067328
154,0.25,0.001,0.013657871272423527,0.010655980344268108,16.82259622181811,0.012007563327493297,0.011619962086634976
155,0.25,0.001,0.013724100466292808,0.010710298578420496,16.889346309952593,0.012055207930016127,0.011477249408406871
156,0.25,0.001,0.013652107043849953,0.010575922743759309,17.238937153276616,0.012304737439883381,0.014636541583708354
157,0.25,0.001,0.013627356367818064,0.010659398971336267,16.63243233854721,0.011871828935436982,0.01320494498525347
158,0.25,0.001,0.013650560353648167,0.01068323952367413,16.628865618628662,0.011869283096808467,0.021199673813368593
159,0.25,0.001,0.013708348392442248,0.01068858994175325,16.922726078341796,0.01207903360338458,0.02083417433979256
160,0.25,0.001,0.013619969147268261,0.010604934992728965,16.89625134368967,0.0120601365765094,0.019855110107788017
161,0.25,0.001,0.013677374018876712,0.010659483676522488,16.91225761078797,0.012071561463802978,0.02298660496515887
162,0.25,0.001,0.013676558139435,0.010650150028356366,16.959990935292584,0.012105632359238104,0.022646473587623665
163,0.25,0.001,0.013587569873823029,0.010566602710539831,16.929499460973584,0.012083868280495064,0.012684625972594534
164,0.25,0.001,0.013440834857334166,0.010444819699224369,16.78966996631226,0.0119840613606797,0.014847077961478914
165,0.25,0.001,0.013503646716802417,0.010480663666015546,16.940796616446338,0.012091931917520584,0.012773627880960703
166,0.25,0.001,0.013464246700167243,0.010480097806894201,16.72317004919603,0.011936595324194168,0.015299537019538028
167,0.25,0.001,0.013518728535217997,0.010545294185536838,16.663126427912548,0.011893737635911884,0.010579971862690789
168,0.25,0.001,0.013530759902253713,0.010499454727159775,16.987433171437463,0.012125219965337232,0.012566190346011094
169,0.25,0.001,0.013509171419103757,0.010537153989610028,16.655186104719412,0.011888070024781879,0.014816739596426487
170,0.25,0.001,0.013587468357511536,0.010492168889568117,17.346057354440315,0.012381197255132273,0.026613897244845117
171,0.25,0.001,0.013570572501242023,0.010564704161077118,16.844886955983643,0.012023473915762771,0.01872868343655552
172,0.25,0.001,0.01355627504786085,0.010539913558622707,16.90368944392744,0.012065445713010308,0.02071536611765623
173,0.25,0.001,0.013489361964252199,0.010426879015172601,17.162153821068603,0.012249931349799147,0.019666493205087527
174,0.25,0.001,0.013516025600511813,0.010506545718303315,16.865126123053923,0.012037920144934992,0.015770661511591504
175,0.25,0.001,0.013560742763565815,0.010511107435213364,17.09015514558788,0.012198540432254018,0.010994857243661369
176,0.25,0.001,0.013478535401697246,0.010417456050375456,17.154287915306885,0.01224431685603632,0.019744094128587415
177,0.25,0.001,0.013468276474874372,0.010465182084375111,16.82934029823638,0.012012377086535605,0.02249174871082817
178,0.25,0.001,0.013474125636625372,0.010468849901531503,16.841564491219113,0.012021102420570388,0.01304777744891388
179,0.25,0.001,0.013495008540759185,0.01045113625800706,17.057859372321783,0.01217548848845238,0.021073336846062114
180,0.25,0.001,0.013532124253260896,0.010534061665278935,16.80114235558631,0.011992250075364962,0.013820964976080827
181,0.25,0.001,0.013482896912214938,0.010418485708138959,17.17295998183464,0.012257644526648567,0.016426112236721174
182,0.25,0.001,0.013458119576267778,0.010425503253850733,16.994782582166287,0.012130465797406344,0.019169370909886702
183,0.25,0.001,0.0134503566305095,0.010428495171714324,16.93451170007296,0.0120874458958408,0.01786484635834183
184,0.25,0.001,0.01343690573429263,0.010468321579226721,16.635945221017746,0.011874336346193965,0.013186773684407984
185,0.25,0.001,0.013456937304201081,0.01039339013948314,17.168117972499505,0.012254188417201646,0.023432505716170584
186,0.25,0.001,0.013369258054409512,0.010376822371164865,16.769609332359966,0.011969742564139876,0.01852252400879349
187,0.25,0.001,0.013517555518303815,0.010530188664639107,16.741203316915392,0.011949467035628403,0.018278172771845545
188,0.25,0.001,0.013509756136969524,0.010410985462023396,17.365510671849062,0.012395082563775205,0.027510433590837886
189,0.25,0.001,0.013344471383728001,0.010387144903232953,16.572858138668067,0.011829306308828029,0.016102271487138102
190,0.25,0.001,0.013431944249856003,0.010440266626622468,16.765360208912202,0.01196670964233562,0.018496275214212283
191,0.25,0.001,0.013423876897120036,0.010343713367542823,17.261236543192876,0.012320654206418898,0.017651253512927463
192,0.25,0.001,0.013476492619834513,0.010518440428269516,16.57692445398203,0.011832208746596738,0.014984787042651857
193,0.25,0.001,0.013499743537439622,0.01043723562762451,17.162295506677783,0.012250032481568725,0.01777771394699812
194,0.25,0.001,0.01335227970403832,0.010298426458762645,17.113792965648905,0.012215412537936406,0.010614830069243908
195,0.25,0.001,0.013349495372169288,0.010345168185891374,16.83625062233306,0.01201730950915993,0.012591168417462282
196,0.25,0.001,0.013289922581637154,0.010259053839787875,16.984989408532687,0.01212347566633311,0.019354104596589292
197,0.25,0.001,0.013415810342353294,0.010391592742836502,16.94771561391359,0.012096870530987574,0.022398768391992365
198,0.25,0.001,0.013461580818334023,0.010425498887604022,17.014203666264134,0.012144328098689603,0.026070605431284224
199,0.25,0.001,0.013285615395401835,0.010322079832469895,16.607652972531923,0.011854142021792951,0.01538854358451707
200,0.25,0.001,0.013339194075546418,0.010274314104340643,17.17558763429144,0.012259520081578473,0.014879558900637286
201,0.25,0.001,0.013351628423494225,0.010386331019789738,16.61752724151964,0.011861190036773476,0.020388503558933735
202,0.25,0.001,0.01333878205456786,0.010276344643505698,17.16189890590606,0.01224974939750611,0.016916948636727675
203,0.25,0.001,0.013330306939557023,0.010297979112052064,16.99316476288899,0.01212931103703711,0.02198589500039816
204,0.25,0.001,0.013287980298728921,0.010320699657582384,16.628640547085027,0.011869122446170612,0.01273003819265536
205,0.25,0.001,0.013287082809189176,0.010281709732603945,16.84211099725948,0.0120214925033972,0.016366405811692988
206,0.25,0.001,0.013342902888102977,0.010290033455000326,17.108280340463406,0.012211477759074522,0.014939290338328906
207,0.25,0.001,0.013371179536346338,0.010369774225161478,16.81987502998898,0.012005621006416119,0.015076011818434511
208,0.25,0.001,0.013334277128977121,0.010222183723286586,17.440171530285276,0.012448373683287136,0.012830138738666261
209,0.25,0.001,0.013267285885250595,0.010261763605626846,16.842947248498508,0.012022089399356537,0.021244296138840064
210,0.25,0.001,0.01332755400594883,0.010308453709953928,16.919036702250775,0.012076400215739311,0.020609009079635143
211,0.25,0.001,0.013318864979262853,0.010230840689246705,17.30528894032397,0.012352097744699479,0.015412306812192713
212,0.25,0.001,0.013169276100039207,0.010168151301923304,16.8183037645547,0.012004499475056888,0.01826815041048186
213,0.25,0.001,0.013290167667883648,0.010270217392705467,16.923801056507276,0.012079800896864579,0.022032989987305233
214,0.25,0.001,0.013332218740470966,0.010313553309743454,16.916601392468458,0.012074661950370063,0.02175664236502988
215,0.25,0.001,0.013217062510842538,0.010156734876644391,17.15007724277417,0.012241311379567573,0.024230859774563993
216,0.25,0.001,0.013285489266794218,0.01038033376699507,16.280492828844878,0.011620623004171932,0.023796017414757183
217,0.25,0.001,0.013274189600974803,0.010228538354450093,17.067829991047706,0.012182605275551539,0.023448343920920576
218,0.25,0.001,0.013284359639187884,0.010246965520118318,17.02155757666185,0.01214957714251381,0.014031686553997653
219,0.25,0.001,0.01330951763656825,0.01023670332613842,17.22005239755397,0.012291257956855083,0.018472740559705665
220,0.25,0.001,0.013204718141990776,0.010140427084979505,17.172287075403933,0.012257164222272614,0.014984185408268656
221,0.25,0.001,0.013246302985463627,0.01024912310415754,16.79619644200279,0.011988719801572296,0.012652400548436813
222,0.25,0.001,0.013180916956851719,0.01011764554965028,17.166573522272618,0.012253086025890519,0.012386687898210116
223,0.25,0.001,0.013219903468414625,0.01015181331863029,17.19357733693464,0.012272360697312377,0.013735550721841199
224,0.25,0.001,0.013221942931499685,0.010198896748656901,16.94115048027479,0.012092184496984147,0.012402513729674476
225,0.25,0.001,0.013162988412256328,0.010175121976084164,16.74400445880846,0.011951466423132375,0.011517780965992383
226,0.25,0.001,0.013234696953232651,0.010251431005380996,16.71822216879688,0.011933063646535961,0.01458279016826834
227,0.25,0.001,0.013146488516490399,0.010104234083007169,17.04879392927844,0.012169017793917516,0.011709375639579125
228,0.25,0.001,0.013185411055010957,0.010138584270763617,17.074417656068164,0.012187307391911609,0.016221808402666023
229,0.25,0.001,0.013217949721420196,0.01022863295359438,16.7521314819195,0.011957267296159528,0.018699768531535352
230,0.25,0.001,0.013222626685734847,0.01016102799625237,17.15719885528776,0.012246394614766424,0.02201887991811548
231,0.25,0.001,0.013168556022072774,0.010129994674054498,17.028097218784392,0.012154244981287931,0.01837492734193802
232,0.25,0.001,0.013243816263853264,0.010208960672018848,17.00733112132577,0.012139422641917037,0.013536040005939347
233,0.25,0.001,0.013153750784953252,0.010027410959347428,17.520008470389914,0.012505359365017784,0.012064688439880098
234,0.25,0.001,0.013146032624411252,0.010156947508557564,16.750833427658257,0.011956340776344224,0.011265783969845091
235,0.25,0.001,0.013160187342391279,0.010011878314129061,17.64312412006475,0.012593236345513742,0.014186788350343704
236,0.25,0.001,0.013188219534590255,0.010168505413135123,16.922478730904313,0.012078857052751116,0.019416245897965773
237,0.25,0.001,0.013186293327213022,0.010106897925824684,17.256932591180604,0.012317582149308068,0.01586693019739219
238,0.25,0.001,0.013157306479905274,0.01006798799134636,17.312541190801536,0.012357274226125294,0.01836196200123855
239,0.25,0.001,0.013154462474563932,0.010140853419934355,16.88826554366678,0.012054436505115474,0.016857168238077844
240,0.25,0.001,0.013056462811301817,0.00996645371801721,17.316410672582048,0.012360036168866557,0.017715776206127236
241,0.25,0.001,0.013171068349676787,0.01014482919513904,16.95904413271721,0.012104956554402005,0.02824395229773862
242,0.25,0.001,0.013240690274254417,0.010225127339277064,16.899214848084483,0.012062251854450024,0.027905261676226343
243,0.25,0.001,0.013122394491701148,0.010087714949945379,17.006343467130947,0.012138717678180547,0.016127650892095908
244,0.25,0.001,0.013144052320742856,0.010059425155642952,17.286250852272087,0.012338508816753808,0.019145396005894457
245,0.25,0.001,0.01313483925411525,0.010132168512146137,16.826966587445476,0.01201068278904031,0.02053373772650957
246,0.25,0.001,0.013170584229705103,0.010159214074544901,16.875718647558198,0.012045480833374873,0.022235381683068618
247,0.25,0.001,0.013099442150091052,0.010092674659922134,16.849924990541666,0.012027069943284558,0.018196142544703826
248,0.25,0.001,0.013099332170143689,0.01008665478652812,16.883042434621903,0.012050708375890009,0.01316570078155824
249,0.25,0.001,0.013085125642237157,0.01007267964603788,16.881748877827068,0.012049785066257722,0.012121577214981829
250,0.25,0.001,0.013080973905139102,0.010010168758623181,17.20879370180619,0.012283221771453382,0.015307862178555556
251,0.25,0.001,0.013100891520310081,0.010064248612911955,17.017347009848226,0.0121465717415048,0.016918439950261797
252,0.25,0.001,0.013109378731760086,0.010083699743016074,16.95590537249629,0.012102716183080862,0.017697424228702272
253,0.25,0.001,0.01303889806969543,0.009986783392882236,17.10405017156799,0.012208458366572441,0.02482294357780899
254,0.25,0.001,0.013120133320071819,0.01010049449163758,16.92205659897168,0.012078555745161798,0.023104144127241204
255,0.25,0.001,0.013093945469199647,0.010034806576856427,17.14341416039588,0.012236555432116974,0.020503861164408072
256,0.25,0.001,0.013117125614892528,0.010104553337374544,16.882454808259396,0.012050288942369305,0.015227049722203187
257,0.25,0.001,0.013045976641770736,0.010054585326024209,16.763756859935736,0.011965565210518012,0.016448523184018477
258,0.25,0.001,0.013101547276794773,0.01009271742548045,16.86148234272664,0.012035319302445852,0.018918840480702265
259,0.25,0.001,0.013089328806408559,0.010040462354744416,17.085847788539827,0.012195465944710797,0.016654483574841703
260,0.25,0.001,0.013087433752094075,0.010017520629781498,17.203793695286844,0.012279652887428154,0.013889787718653679
261,0.25,0.001,0.01307793801293362,0.010086970104820871,16.76138510935301,0.011963872312172028,0.014011468605271407
262,0.25,0.001,0.013146929735399559,0.01002173082511571,17.51361510825212,0.012500795937367682,0.0199141280193414
263,0.25,0.001,0.013029862494222975,0.01003874405168909,16.76222832924224,0.011964474182185754,0.011702332911746842
264,0.25,0.001,0.01311816334913702,0.010062393390382134,17.124534430735107,0.012223079536570383,0.015908598766795227
265,0.25,0.001,0.013038642082888177,0.009919771840731348,17.478150524112973,0.0124754821728144,0.013538810291460581
266,0.25,0.001,0.01302700229935503,0.010044768338648744,16.71243959651533,0.011928936185949559,0.0159165102190205
267,0.25,0.001,0.013004223265476508,0.00996948381580464,17.0066796758709,0.01213895765586788,0.014959632685141904
268,0.25,0.001,0.013041163005330546,0.009987296082733271,17.113869889503814,0.012215467444328203,0.017188722267746925
269,0.25,0.001,0.013071081981785578,0.009947500479844234,17.504551761970784,0.012494326739450952,0.014365538555596555
270,0.25,0.001,0.013043957852756317,0.010004608072426523,17.032515796723047,0.01215739885561959,0.01164557398962123
271,0.25,0.001,0.013054319197101214,0.009995059736124638,17.144090643655897,0.012237038289547392,0.01378330441990069
272,0.25,0.001,0.013120862911294018,0.01004766955042546,17.222176104715185,0.012292773807790995,0.02071068116596767
273,0.25,0.001,0.013130792954347287,0.00999354644233305,17.581129360419222,0.012548985981741059,0.02207395727080958
274,0.25,0.001,0.013014903197422038,0.009987107652301876,16.967765887394787,0.012111181932473082,0.0157372114647712
275,0.25,0.001,0.012935283675566144,0.009940507238855539,16.782727930892698,0.011979106303278156,0.012449533811637334
276,0.25,0.001,0.012968835345626428,0.009925010895859837,17.057592189339513,0.01217529777968559,0.016990286564188346
277,0.25,0.001,0.012996631055020708,0.009925274858057637,17.21187983153874,0.01228542457640167,0.019788496794977357
278,0.25,0.001,0.012940848237613331,0.009897815330302467,17.05315717648689,0.012172132174508845,0.015068250974374158
279,0.25,0.001,0.012947389825868827,0.009927560108569699,16.923126700844005,0.012079319558061389,0.013000665897769588
280,0.25,0.001,0.01290371903061316,0.009849237742689686,17.117312288174176,0.01221792454544909,0.014517723715731077
281,0.25,0.001,0.012950546639448775,0.009902556456935186,17.080936594868366,0.012191960453153723,0.012695776564734322
282,0.25,0.001,0.0130076570797703,0.009976644862623882,16.98579328329954,0.012124049452747709,0.017892537904637202
283,0.25,0.001,0.012934565763516185,0.009869998372557807,17.17383597023768,0.012258269786036887,0.02005051781556436
284,0.25,0.001,0.013013627255382769,0.009973246649372247,17.03829310727725,0.012161522560511957,0.025681335479021072
285,0.25,0.001,0.0129364141721201,0.009868502253386908,17.19257880688815,0.012271647970655353,0.01948503963649273
286,0.25,0.001,0.012988274960023702,0.009913983279473512,17.22833112315823,0.012297167111461978,0.014593032720897878
287,0.25,0.001,0.013038116698658769,0.009993830476360563,17.060180950385043,0.012177145574864413,0.01864507102540561
288,0.25,0.001,0.012974900417201927,0.010013870075431074,16.59361465753639,0.011844121811232254,0.01815880515745708
289,0.25,0.001,0.01300386408253575,0.009890906183655625,17.445015887465267,0.01245183146856907,0.01803497810448919
290,0.25,0.001,0.013036702406822809,0.009980200407015671,17.128636789652273,0.012226007701393485,0.020263177741851126
291,0.25,0.001,0.012967534318101737,0.009899890099761806,17.19107897452339,0.01227057742649778,0.01685770494597299
292,0.25,0.001,0.012933622116511194,0.009882487350210169,17.098558729845713,0.01220453870795554,0.014960147573479585
293,0.25,0.001,0.012872426377020036,0.009810089845614675,17.1613341148676,0.012249346263288793,0.013785593477743012
294,0.25,0.001,0.012836602587450735,0.00985464120959093,16.71091177942571,0.011927845666970529,0.013214864235903536
295,0.25,0.001,0.012879112827877662,0.009800547312334283,17.252280955501845,0.012314261923984186,0.014454501148845469
296,0.25,0.001,0.012963684308009251,0.009905394319419085,17.138657717451487,0.012233160397895423,0.01584834632064615
297,0.25,0.001,0.012946254722171788,0.009842104414009057,17.395659497373373,0.012416602068075213,0.016459058171936443
298,0.25,0.001,0.012889688406526767,0.009788363152473958,17.379826754951036,0.012405301038508948,0.02259376991008009
299,0.25,0.001,0.012847074746276848,0.009853397551967007,16.776566560494157,0.011974708465734587,0.019771077537110875
300,0.25,0.001,0.012922846346525754,0.009941622216951352,16.706781255180235,0.011924897398415586,0.019837219534175738
301,0.25,0.001,0.012882623681691035,0.009868088524625153,16.893455483346283,0.012058140958848168,0.019960217443960055
302,0.25,0.001,0.012921513161486483,0.009835916246539175,17.291684315881884,0.01234238709199278,0.011556860325591905
303,0.25,0.001,0.012898432566218646,0.009817856146715254,17.26355088390324,0.01232230612698304,0.01261135855955737
304,0.25,0.001,0.012864827356940054,0.009779925215085989,17.28779082705738,0.012339608013602697,0.011219381354749203
305,0.25,0.001,0.012857057481109407,0.009781703899246716,17.234280297717653,0.012301413488734942,0.011401540067579066
306,0.25,0.001,0.012900096945051646,0.009843731135577308,17.127874184976275,0.012225463372574071,0.01608671381005219
307,0.25,0.001,0.012912115837096755,0.009844757640179393,17.189476132117573,0.012269433356258082,0.019737730601004193
308,0.25,0.001,0.01291702252836343,0.009887188778411571,16.979188478571164,0.012119335102477632,0.015641548138644015
309,0.25,0.001,0.012906243712759596,0.009866359779142343,17.03550867340581,0.012159535098790728,0.017765488076422895
310,0.25,0.001,0.012845310662156852,0.009751693749968092,17.336629695760184,0.012374468019814549,0.010613292987857546
311,0.25,0.001,0.012818308878371676,0.009803032786445585,16.897607856204274,0.012061104822415613,0.011511268027658974
312,0.25,0.001,0.012837538056884297,0.009792498379567204,17.064402247686584,0.012180158635036818,0.015485993453434535
313,0.25,0.001,0.012870017482144178,0.009840014425061178,16.980138258900983,0.012120013032763013,0.017884318317685808
314,0.25,0.001,0.012888437463938501,0.009840810239125758,17.078902590357405,0.012190508629805428,0.011805508817945207
315,0.25,0.001,0.012911157134068619,0.009835783923453464,17.234391545038026,0.012301492894388312,0.015422277551676546
316,0.25,0.001,0.012750363482837727,0.009649862232026548,17.375209504407216,0.012402005356464822,0.012474580934005124
317,0.25,0.001,0.012773125398017931,0.009796847585012263,16.6790615328465,0.011905111729369379,0.01903426886669227
318,0.25,0.001,0.01286767320126708,0.009789585409036409,17.249604372724924,0.01231235144377225,0.018925290820854052
319,0.25,0.001,0.012869878689270234,0.009818322573708882,17.10091992173404,0.0122062240697602,0.01794524717011622
320,0.25,0.001,0.012764652625294123,0.009754824850011367,16.867074539149332,0.01203931087733714,0.012653188912996225
321,0.25,0.001,0.01285733418930623,0.009788717515336448,17.19652813741847,0.012274466907507829,0.01218321334038462
322,0.25,0.001,0.012788050455271371,0.009745252163818333,17.051841480352035,0.012171193062349775,0.011832918306546552
323,0.25,0.001,0.012886271403358247,0.009785145622254382,17.37870986797518,0.012404503831531176,0.01692766509950161
324,0.25,0.001,0.012896841297283183,0.009865368688457558,16.98837133588196,0.012125889604483912,0.02192927524447441
325,0.25,0.001,0.012870225300431665,0.009774860351692722,17.346425706189443,0.012381460175724085,0.019098250594522272
326,0.25,0.001,0.012880689600013696,0.009871757959228603,16.86205295712513,0.012035726593237065,0.02194119111767837
327,0.25,0.001,0.012892545392310922,0.009811692212990056,17.265101333688644,0.012323412800634292,0.016058343861784254
328,0.25,0.001,0.012781849451466328,0.00973294066656682,17.086084524423367,0.012195634921073067,0.017206771964473382
329,0.25,0.001,0.012866030479447945,0.009920586173704397,16.50627014653512,0.011781777406520427,0.02200531187866415
330,0.25,0.001,0.012817138253214315,0.009693871265143914,17.502788385122532,0.012493068083599238,0.014804445872349399
331,0.25,0.001,0.012875331705543653,0.009834113147961487,17.042988422561187,0.012164873963284216,0.012577974370547704
332,0.25,0.001,0.01279899008210757,0.00979523865536165,16.833023080098986,0.01201500576737972,0.01259969174861908
333,0.25,0.001,0.012892439651709506,0.009875269129218461,16.908224193934206,0.01206868250816146,0.0153520011476108
334,0.25,0.001,0.012880096547563688,0.009741101093487019,17.59093029119126,0.012555981649672563,0.016191305725702217
335,0.25,0.001,0.012816996844894065,0.009764715330137529,17.10498604983711,0.01220912637390229,0.019401883174266134
336,0.25,0.001,0.012839823395581637,0.009759443510951813,17.262448802005338,0.012321519487512733,0.014994177501648664
337,0.25,0.001,0.012822979618096187,0.009737863545209238,17.288990804835226,0.01234046452879031,0.017028987407684326
338,0.25,0.001,0.012741491633013545,0.00963919653447547,17.385262421041933,0.01240918088582579,0.0129309513473085
339,0.25,0.001,0.012674873668967163,0.009755299011499172,16.361297488487896,0.011678299420762239,0.01491481185491596
340,0.25,0.001,0.012759588813671615,0.009706373156562413,17.110220268196652,0.012212862432688546,0.013539097404905729
341,0.25,0.001,0.012822437536737109,0.009757807712752467,17.17418645105516,0.012258519950788837,0.020887212428663458
342,0.25,0.001,0.012717214079603863,0.009624243094467539,17.333010222014323,0.012371884526776818,0.015586609952151775
343,0.25,0.001,0.012751133419900237,0.009715077572654907,17.014056128662673,0.012144222789909117,0.01641811284103564
344,0.25,0.001,0.012698448587888659,0.009669287489430321,16.975418302258497,0.01211664404158351,0.010890011010425431
345,0.25,0.001,0.012784915057808918,0.00968318400736769,17.382101191108827,0.012406924476166186,0.012954236806503363
346,0.25,0.001,0.012800498336433125,0.009679877861697597,17.487957317889702,0.012482482025617204,0.011943525368613856
347,0.25,0.001,0.012812301593963875,0.009765921461699191,17.07191510894282,0.012185521134149052,0.01586157815264804
348,0.25,0.001,0.01282665481485478,0.009700746774484187,17.517589406108197,0.01250363269529493,0.012108512222766876
349,0.25,0.001,0.012763306722217014,0.0096404168724704,17.500674395307932,0.012491559168670901,0.01307046612990754
350,0.25,0.001,0.01277835024456229,0.009693030218484082,17.290133474054844,0.012341280138511665,0.01312612755490201
351,0.25,0.001,0.012709609114545597,0.009688590614525193,16.9297879067084,0.01208407416610164,0.013179773730891091
352,0.25,0.001,0.01278383694976293,0.009693872792254832,17.316159017091536,0.012359856543248776,0.015103901736438274
353,0.25,0.001,0.012758290808105853,0.00962750935888318,17.5448990572958,0.01252312566545025,0.018850869366100857
354,0.25,0.001,0.012762830758308153,0.009617415742892729,17.626905894995286,0.012581660167733965,0.019705498458019326
355,0.25,0.001,0.012767530876635541,0.009722074594856273,17.066736904082617,0.012181825056447264,0.013313194470746177
356,0.25,0.001,0.01268325000786272,0.009587697297609981,17.347477796171333,0.01238221113217083,0.012513834184833936
357,0.25,0.001,0.01269550574405708,0.009649716162791703,17.0686046344854,0.012183158197348607,0.013420194387435913
358,0.25,0.001,0.012735394687837045,0.009722181722762678,16.886046988859462,0.012052852954218032,0.014488777411835534
359,0.25,0.001,0.012702032786043357,0.009550636868674403,17.66042198815467,0.012605583146434455,0.01307318186653512
360,0.25,0.001,0.012722182029527,0.009673736221640958,17.083490754935813,0.01219378355098916,0.015599954740277358
361,0.25,0.001,0.01270602960526668,0.009642450029232624,17.168300663901807,0.012254318817917064,0.01846380784575428
362,0.25,0.001,0.012779187920823797,0.009751345310575279,16.96802962569662,0.012111370182510078,0.01703435036220721
363,0.25,0.001,0.01284193183676131,0.009714295341274066,17.52727515152365,0.012510546146697823,0.018194505412663733
364,0.25,0.001,0.012778235371407405,0.009595429550589646,17.83644357729729,0.012731223110133682,0.012958324647375516
365,0.25,0.001,0.012740113084176535,0.009661576325637364,17.252119821984554,0.012314146910766991,0.014400934534413474
366,0.25,0.001,0.012697571753061809,0.00968041212467894,16.908162683042036,0.012068638603170619,0.015458880524550165
367,0.25,0.001,0.012707443550814107,0.009651740311750364,17.12416230833833,0.01222281392458125,0.014258616204772676
368,0.25,0.001,0.012686385125713316,0.009584361194755546,17.3837425416942,0.012408096032615418,0.020673664951963083
369,0.25,0.001,0.01272067465920509,0.009719000527028674,16.821381839813867,0.012006696530916393,0.016214194441480295
370,0.25,0.001,0.012726989456433071,0.00964319339026342,17.281593040836327,0.012335184183323574,0.01213804752166782
371,0.25,0.001,0.0126581233377648,0.009557591695295471,17.375378817939318,0.012402126208379242,0.011791222063558442
372,0.25,0.001,0.012731951424813297,0.009669021486065955,17.164659513336957,0.012251719852488905,0.012720302545598574
373,0.25,0.001,0.012623586625239314,0.009554628465608554,17.19844204504,0.012275833008593862,0.013111491022365434
374,0.25,0.001,0.01268372056665927,0.009635647270596192,17.08140247688558,0.012192292988497914,0.014787949222539152
375,0.25,0.001,0.012651673464349731,0.009554858543150833,17.354551614845047,0.012387260253279834,0.014342069093670164
376,0.25,0.001,0.012684111737196633,0.009596863032402534,17.300941987070697,0.012348994994340255,0.013519231895250934
377,0.25,0.001,0.012659628075433521,0.009592412809645607,17.188674213153934,0.012268860965848633,0.01145895038332258
378,0.25,0.001,0.012724290984762321,0.009641826380792721,17.274132391597053,0.012329858951889403,0.011265106499195099
379,0.25,0.001,0.01268678510832594,0.009573057902585414,17.44932722219419,0.01245490879528493,0.011560644023120403
380,0.25,0.001,0.012630423120121895,0.009505732808752505,17.510765053658783,0.012498761637158304,0.01093288790434599
381,0.25,0.001,0.012664447233132484,0.009650938096725088,16.887705232474875,0.012054036568504551,0.015007635977651392
382,0.25,0.001,0.012653569000456956,0.009576632122898486,17.24315421300452,0.012307747475377958,0.01297347407255854
383,0.25,0.001,0.012650856444951982,0.009578229726117974,17.219000673183942,0.012290507261373262,0.022282873413392475
384,0.25,0.001,0.012657671196786279,0.009578996710049087,17.252891822444923,0.012314697946070608,0.02349994158638375
385,0.25,0.001,0.012604919316001908,0.009597947945770987,16.851067778695263,0.012027885637898118,0.01445547810622624
386,0.25,0.001,0.012686980729083816,0.009596901180063467,17.316805304335666,0.012360317847491554,0.01874142898512738
387,0.25,0.001,0.012713981086848514,0.009599438993212946,17.453894326648317,0.012458168684260041,0.021409120676772937
388,0.25,0.001,0.012668563446619357,0.009632260665538404,17.015440489348308,0.012145210913167956,0.018563374477837766
389,0.25,0.001,0.012638211086839782,0.009628878611701327,16.864298857937783,0.012037329663053379,0.01675352986369814
390,0.25,0.001,0.012709097889430528,0.009630057924184044,17.254940909546463,0.012316160535008181,0.018816533631512096
391,0.25,0.001,0.01266744811578243,0.009587095661075918,17.262295645874588,0.01232141016836159,0.014191676729491778
392,0.25,0.001,0.012662739510159707,0.009545516392633353,17.468917216770095,0.01246889166079236,0.011589855487857546
393,0.25,0.001,0.01268012248039865,0.00957246587394498,17.415306879796827,0.012430625895643702,0.010946249323231834
394,0.25,0.001,0.012578763312920412,0.009451376740964813,17.52587416210571,0.01250954615425104,0.009988215086715562
395,0.25,0.001,0.012651770560643,0.009574715796574158,17.243814952929633,0.01230821909559574,0.014779849776199885
396,0.25,0.001,0.012646289484244158,0.009559441282570913,17.2986978041933,0.012347393150744682,0.014359348719673497
397,0.25,0.001,0.01258625387156051,0.009549766411148786,17.016476884449876,0.012145950666987777,0.012729264130549771
398,0.25,0.001,0.01268749178213005,0.009625599835730452,17.158841950238163,0.01224756741630133,0.0158617567004902
399,0.25,0.001,0.012627270786784262,0.009547156902292516,17.260958849970795,0.012320455995696498,0.012102404875414712
400,0.25,0.001,0.01267035236027238,0.00961605432781006,17.116285861502067,0.012217191906853725,0.015026188189429896
401,0.25,0.001,0.012585448832455463,0.00949250378024358,17.332864756947576,0.01237178069732161,0.013278449353362833
402,0.25,0.001,0.012656054663843976,0.009621201958464283,17.00731418865107,0.012139410555782347,0.018038317561149597
403,0.25,0.001,0.012713154102514302,0.0095931787396551,17.484343081643896,0.012479902270980654,0.0165771379002503
404,0.25,0.001,0.01264803627544614,0.009478964806291302,17.759476518520856,0.012676285880457428,0.018718627946717397
405,0.25,0.001,0.012595102829776928,0.009586925388208437,16.857827025803353,0.012032710225412814,0.020873152650892735
406,0.25,0.001,0.01272077046283123,0.009580649310770266,17.597239139724273,0.012560484753550516,0.016069584792213782
407,0.25,0.001,0.012689152403409844,0.009556280416769878,17.5566148824009,0.012531488138758673,0.012458380577819688
408,0.25,0.001,0.012670889746303095,0.009643004419966052,16.968269471483474,0.012111541378646305,0.01756545009889773
409,0.25,0.001,0.012598575032628023,0.009450263851354496,17.643136282165386,0.012593245026527757,0.014698474002735955
410,0.25,0.001,0.012634511488569389,0.009496433307646879,17.58579032580792,0.012552312866386809,0.010327833438558238
411,0.25,0.001,0.012567782365904119,0.009499874307965435,17.192557861292887,0.01227163302019478,0.012621014512010984
412,0.25,0.001,0.012533419311700461,0.009480383135292326,17.109214588896506,0.012212144603066742,0.01351946805204664
413,0.25,0.001,0.012553817295742504,0.00944120902998274,17.443057190188085,0.012450433397707412,0.011712356736617429
414,0.25,0.001,0.012590964346280962,0.009523381833976465,17.190732383287532,0.012270330038035356,0.01504402354891811
415,0.25,0.001,0.012603588083943924,0.00956569423180667,17.024357855182323,0.012151575913763257,0.01630752972726311
416,0.25,0.001,0.012689018531704609,0.00954669283801909,17.60959317777779,0.012569302767864231,0.01583946735731193
417,0.25,0.001,0.012645342094741985,0.009485222564851027,17.709309897301655,0.01264047815653223,0.01163007305668933
418,0.25,0.001,0.012625698716429172,0.009585091558136648,17.039562225341797,0.012162428426368164,0.015114869656307357
419,0.25,0.001,0.012626159321043563,0.009525827738708078,17.374258816655182,0.012401326778483357,0.016013333041753088
420,0.25,0.001,0.012591894539653842,0.009483622253698235,17.418757467291922,0.012433088841750123,0.011725666267531258
421,0.25,0.001,0.01256267318618215,0.009477190101222409,17.291047164529356,0.01234193230872902,0.012913723077092851
422,0.25,0.001,0.012584111584440803,0.009563122306010464,16.92962429760235,0.012083957385868914,0.01414390919463975
423,0.25,0.001,0.012539483221811318,0.009397089973900803,17.609971392237288,0.012569572728220763,0.012234230525791645
424,0.25,0.001,0.012544755494828587,0.009495916645156593,17.085692932093668,0.012195355411915538,0.01763114705681801
425,0.25,0.001,0.012609613362450247,0.009578446659752046,16.986658708603223,0.01212466717245055,0.012575585395097733
426,0.25,0.001,0.012555052078916211,0.00940973666124476,17.626346610159576,0.012581260963711332,0.01426185148635081
427,0.25,0.001,0.012597224961183363,0.009572029769781968,16.953193735030176,0.0121007806816775,0.013704047405294009
428,0.25,0.001,0.012614751948736281,0.009495239758618847,17.481746836567584,0.012478049133881217,0.015223641613764423
429,0.25,0.001,0.012605871387927278,0.009506588152181744,17.368383711535166,0.01239713327018927,0.013474503665098123
430,0.25,0.001,0.01266476975250602,0.009552202596142027,17.442826577202002,0.012450268791721628,0.013350911039326872
431,0.25,0.001,0.01261570262475322,0.00949217292413494,17.504261281143435,0.012494119401244423,0.012771436678511756
432,0.25,0.001,0.012580861832180833,0.00951891171791124,17.159169001061702,0.012247800857288866,0.0178355820743101
433,0.25,0.001,0.012568617729990642,0.009494471765934182,17.22751364146314,0.01229658361275028,0.019201936599399363
434,0.25,0.001,0.012545382862106207,0.009434465727581713,17.433580447014155,0.012443669127062209,0.015384661698979991
435,0.25,0.001,0.012581928289015767,0.009454773984178384,17.524573279858735,0.012508617615887748,0.01421395449766091
436,0.25,0.001,0.01267529788317361,0.009538226677040304,17.580147476724886,0.012548285136848598,0.02091068641415664
437,0.25,0.001,0.012727353181991098,0.009592453540489938,17.56797826648034,0.012539599048165838,0.018496304218258177
438,0.25,0.001,0.012641103273606052,0.009461083391350081,17.820831563125857,0.012720079631067707,0.02063994448898094
439,0.25,0.001,0.012573816467240005,0.009457974533354714,17.461178521911762,0.012463367967103327,0.012676727691931384
440,0.25,0.001,0.01252033798708032,0.009370914591566658,17.649369453447797,0.01259769411380999,0.015752879237490042
441,0.25,0.001,0.012558020274939906,0.00950995746647238,17.08134399220244,0.012192251243542071,0.016639576027435914
442,0.25,0.001,0.012554157135995237,0.009449228818590729,17.40001844974368,0.01241971338311469,0.016873280384710858
443,0.25,0.001,0.012583342802390353,0.009445331199202196,17.585417102170595,0.01255204646835874,0.018812672900302068
444,0.25,0.001,0.012563742327290925,0.009485748095338946,17.249079473024153,0.012311976783029374,0.01863990324948515
445,0.25,0.001,0.012550700819399423,0.009472662703441692,17.249325380038997,0.01231215230552391,0.017849113792181015
446,0.25,0.001,0.012612887589351272,0.009519747996113454,17.333954945447537,0.012372558847571404,0.020591313684625284
447,0.25,0.001,0.012719877371801101,0.009605557840601402,17.452647621031446,0.01245727881586827,0.02827807901693242
448,0.25,0.001,0.012600366456335192,0.009413447274071516,17.85949630825404,0.01274767759332908,0.017491202601896867
449,0.25,0.001,0.012570791307828167,0.00951171191688842,17.143079748880506,0.012236316737245186,0.016421188999499594
450,0.25,0.001,0.012632386083553349,0.009526745947486533,17.40400763196703,0.012422560765144204,0.020386327590261186
451,0.25,0.001,0.012593282416772622,0.009416641342705308,17.801895551263048,0.012706563562643146,0.018124041413622245
452,0.25,0.001,0.01250029245808755,0.009409829384838737,17.31895395239286,0.012361851500637303,0.012285345633115088
453,0.25,0.001,0.01249787465649857,0.009439629255245519,17.13840777989623,0.01223298199849838,0.013439573081476348
454,0.25,0.001,0.012521741589139846,0.009394813916166303,17.5233040208354,0.012507711649418558,0.012346717129860605
455,0.25,0.001,0.012538238258615102,0.009384673069431242,17.67257951643946,0.012614260896816174,0.0127396768491183
456,0.25,0.001,0.012494740721621222,0.009390052128368107,17.39867597143865,0.012418755154488686,0.015029455269021648
457,0.25,0.001,0.012552774094010748,0.009498243194340145,17.11759136455439,0.012218123743436395,0.014064296148717403
458,0.25,0.001,0.012528588464074956,0.009361554973911468,17.748054200452138,0.012668132905390534,0.013458981045654841
459,0.25,0.001,0.012551466699939126,0.009474950504874248,17.240797271904714,0.012306065147683594,0.01286542774843318
460,0.25,0.001,0.01255310950779268,0.009397469086714485,17.68420910559956,0.012622561816987551,0.013106366619467735
461,0.25,0.001,0.012434049167478882,0.009331404607889284,17.387220470789675,0.012410578494496557,0.014041941213820661
462,0.25,0.001,0.012519420774150252,0.009362031103436584,17.69401142393469,0.012629558475328116,0.014784197056932109
463,0.25,0.001,0.012536899894303868,0.00948222205429994,17.118414590320192,0.01221871134212719,0.01901927829853126
464,0.25,0.001,0.012562541039466996,0.009412692960859309,17.651749507384267,0.012599392938889556,0.017189886287919114
465,0.25,0.001,0.01247584177761857,0.00936694640889936,17.422250254324897,0.012435581908868593,0.012992703222802706
466,0.25,0.001,0.01248795657007854,0.009399376005175207,17.308405032609407,0.01235432193619515,0.019079370158059255
467,0.25,0.001,0.012538555351367723,0.009435638254099713,17.388747257118137,0.012411668277743138,0.01827788698886122
468,0.25,0.001,0.012545975871539005,0.009419992277893403,17.518012463082894,0.012503934663156954,0.01473484534238066
469,0.25,0.001,0.012502575845954463,0.009366601150629152,17.574002510405577,0.012543899008141027,0.012855669483542442
470,0.25,0.001,0.012490300999365007,0.009400928169316838,17.312845978946115,0.012357491776549689,0.016051104026181356
471,0.25,0.001,0.012519065277784305,0.00945015035905202,17.198199062920057,0.012275659573818742,0.017804086607481753
472,0.25,0.001,0.012472094692651174,0.009398966436177561,17.221810519282318,0.012292512861728992,0.017846158971743926
473,0.25,0.001,0.012478837739099807,0.00938481398735531,17.338908814392795,0.012376094799709346,0.01753945861543928
474,0.25,0.001,0.0125754197637871,0.009456946768348405,17.47592282019917,0.012473892091505474,0.017805456849081174
475,0.25,0.001,0.012454796472766521,0.009322200131798313,17.555070203115978,0.012530385583951448,0.016705990369830812
476,0.25,0.001,0.012509813700000353,0.00946512183187396,17.062452686301004,0.012178767085154179,0.016790598364812986
477,0.25,0.001,0.012520916048032996,0.009327470436778272,17.89606992532144,0.012773782958830436,0.015722988306411674
478,0.25,0.001,0.012539123899064631,0.009456582249122871,17.27456305594147,0.012330166349708401,0.024449347518384457
479,0.25,0.001,0.012630700428408784,0.009546056809226442,17.286343453387467,0.012338574913195908,0.021736512226717814
480,0.25,0.001,0.012427088948650668,0.009263358431638113,17.729544985376936,0.012654921474216228,0.01719880197197199
481,0.25,0.001,0.012582736821118183,0.009489715480037016,17.333291329082112,0.012372085174219923,0.01746738369443587
482,0.25,0.001,0.012493666100120022,0.009317051141800287,17.80175082182499,0.012706460258261948,0.011231457548482078
483,0.25,0.001,0.012401394212648582,0.009278929226668273,17.49829421803252,0.012489860255554975,0.012612777828638042
484,0.25,0.001,0.012475094093358268,0.009356778024697964,17.47504464693488,0.012473265272615903,0.012994882118489062
485,0.25,0.001,0.012410483951088876,0.009285094300349508,17.514682716915843,0.01250155797067512,0.016765379879091467
486,0.25,0.001,0.012518414388696811,0.009375558677828476,17.61256320151666,0.01257142269915536,0.015896666129784926
487,0.25,0.001,0.012470771648918922,0.009323044344524726,17.63986365514319,0.012590909104313484,0.016461338182645186
488,0.25,0.001,0.012492703127633892,0.00944847439138292,17.05985811511033,0.012176915142833925,0.014213897553937776
489,0.25,0.001,0.01242821162252517,0.009265151672822361,17.72578765393405,0.012652239581680264,0.013123815613133567
490,0.25,0.001,0.012468286624337454,0.009372189548511841,17.350528391073812,0.012384388573214713,0.01724558835849166
491,0.25,0.001,0.012413322280309492,0.009326527951237925,17.298394716364133,0.012347176813964406,0.014261743452932154
492,0.25,0.001,0.012499545423387104,0.00938235570442181,17.468732018944298,0.012468759471052318,0.019400498031505516
493,0.25,0.001,0.012389955635657899,0.009272828732572031,17.468380273902664,0.012468508403927669,0.016025454072015628
494,0.25,0.001,0.012448482327249254,0.009360196511960194,17.30675426861981,0.012353143660685089,0.01390516132648502
495,0.25,0.001,0.012382280191204426,0.009245581101135762,17.578062612520355,0.012546797011078055,0.012444150900202138
496,0.25,0.001,0.012443593047197917,0.009367398414373673,17.23899524151315,0.012304778901865205,0.014509488030203752
497,0.25,0.001,0.012409028655249307,0.00925919717698257,17.651655417391666,0.012599325779722817,0.009971662424504757
498,0.25,0.001,0.012421177188257146,0.009248267796845552,17.78098474198621,0.012691637931467672,0.013179739671094077
499,0.25,0.001,0.012393419768480587,0.009290843655723071,17.386837349202285,0.012410305031550524,0.015150314196944237
500,0.25,0.001,0.012363422141511501,0.009203095638621211,17.7104703934033,0.01264130649065189,0.012974129989743233
