188.706	289.111
191.305	286.222
193.902	279.556
196.499	284
199.096	267.556
201.69	268.222
204.284	264.222
206.877	261.111
209.47	262.889
212.062	256.222
214.652	256.667
217.242	257.333
219.83	256
222.419	257.778
225.005	263.111
227.592	261.778
230.177	261.333
232.762	256.667
235.345	261.556
237.928	257.778
240.509	260.889
243.09	264.667
245.671	261.333
248.249	267.556
250.829	263.333
253.405	263.111
255.983	273.333
258.558	270.889
261.132	264.444
263.707	256.889
266.28	262.444
268.852	275.556
271.424	257.111
273.994	252.889
276.564	261.111
279.133	269.111
281.701	271.111
284.268	264.444
286.835	279.333
289.4	258.667
291.964	264.667
294.527	272.444
297.091	264.222
299.653	274.444
302.214	273.111
304.774	266.889
307.334	277.111
309.892	273.111
312.45	262.444
315.006	272.444
317.562	266
320.118	278.222
322.672	265.556
325.225	272
327.778	280.889
330.329	270.889
332.88	270
335.43	274.667
337.978	272.889
340.528	273.333
343.075	272
345.622	273.556
348.167	277.333
350.712	277.778
353.256	278
355.799	279.556
358.341	275.111
360.883	279.556
363.423	275.333
365.963	270.889
368.502	283.778
371.04	272.889
373.577	278.667
376.114	283.333
378.649	285.111
381.184	287.111
383.718	276.667
386.251	275.111
388.783	283.333
391.314	284.222
393.844	275.111
396.373	280.222
398.902	279.333
401.43	282.444
403.957	280
406.484	279.778
409.009	287.778
411.534	285.333
414.057	283.111
416.58	280.667
419.102	285.778
421.624	285.333
424.144	290.889
426.663	282.889
429.181	288.222
431.7	290.444
434.217	290.222
436.732	282.222
439.248	286.222
441.763	287.111
444.277	288.889
446.788	285.111
449.301	286.222
451.812	292.889
454.322	290.667
456.831	292
459.341	297.778
461.847	291.333
464.355	287.556
466.861	286.222
469.366	289.111
471.871	291.556
474.374	288.444
476.877	286.444
479.378	287.111
481.88	287.556
484.381	291.111
486.879	296.667
489.379	287.333
491.876	295.111
494.373	293.556
496.869	289.556
499.365	297.333
501.858	290.444
504.353	287.111
506.845	287.111
509.338	291.333
511.828	290.222
514.319	294.222
516.808	290.667
519.296	288.889
521.785	289.778
524.272	287.556
526.759	287.778
529.244	293.778
531.728	293.111
534.212	299.111
536.695	285.333
539.178	290.444
541.659	295.333
544.139	296.222
546.619	291.778
549.098	298
551.575	300.444
554.052	291.778
556.529	303.556
559.005	306.889
561.479	305.111
563.953	295.778
566.427	301.111
568.899	302.444
571.37	300.667
573.84	293.556
576.311	293.556
578.78	296
581.248	300.889
583.715	296.667
586.181	298.444
588.647	298.444
591.113	298.444
593.577	301.556
596.04	289.556
598.503	299.111
600.964	300.889
603.425	301.556
605.885	288.222
608.344	295.111
610.803	299.333
613.26	304
615.718	299.778
618.174	309.778
620.63	302.444
623.084	297.778
625.538	310.444
627.99	305.111
630.443	304.444
632.894	306.444
635.344	300
637.792	305.556
640.241	304.889
642.689	308
645.137	298.667
647.583	304.444
650.029	306.222
652.474	302.889
654.918	299.556
657.361	301.556
659.804	305.111
662.246	301.778
664.685	307.111
667.125	304.222
669.565	306.667
672.003	298
674.441	310.667
676.877	300
679.313	303.778
681.749	296.889
684.183	301.333
686.617	301.333
689.049	300
691.481	300.667
693.913	304.889
696.342	304.667
698.772	307.778
701.201	308.889
703.63	312.444
706.056	316.889
708.483	316
710.909	313.111
713.333	317.333
715.758	305.778
718.18	316.667
720.603	317.111
723.025	312
725.445	322.889
727.866	320.667
730.284	311.778
732.703	323.556
735.122	327.111
737.538	314.444
739.955	325.111
742.369	323.778
744.784	317.778
747.197	321.778
749.611	324
752.023	321.333
754.435	303.778
756.845	311.333
759.255	307.556
761.664	311.333
764.071	304.444
766.48	308.889
768.886	302.222
771.292	303.778
773.697	304.222
776.102	307.556
778.505	305.778
780.907	306.667
783.31	315.111
785.711	314.667
788.111	303.556
790.511	306.667
792.91	313.778
795.308	313.556
797.706	301.556
800.102	310.889
802.497	302.889
804.892	317.556
807.287	312.889
809.68	301.111
812.072	308.667
814.464	318.222
816.855	311.333
819.246	304.667
821.635	310.444
824.024	303.778
826.412	304.444
828.799	302.889
831.186	308
833.572	306.889
835.956	306.667
838.34	304.444
840.723	305.556
843.106	307.333
845.487	307.111
847.868	298.444
850.248	301.778
852.628	304
855.006	304.222
857.384	304
859.761	303.556
862.138	315.111
864.513	312.444
866.888	312.222
869.262	309.111
871.636	303.778
874.008	313.556
876.38	310.222
878.751	314.667
881.121	298
883.491	313.333
885.86	310.222
888.228	306.889
890.595	311.556
892.962	309.556
895.327	306.889
897.691	306.889
900.055	315.333
902.419	316.889
904.782	313.556
907.144	317.333
909.505	317.556
911.864	317.778
914.224	306.667
916.583	302.667
918.941	302
921.298	297.111
923.654	304.444
926.01	300.667
928.366	298.667
930.719	307.333
933.073	297.556
935.426	296.667
937.777	304.444
940.129	306.889
942.479	306.667
944.828	306.889
947.178	307.556
949.526	303.556
951.873	305.333
954.22	308
956.565	312.444
958.911	305.556
961.254	304.222
963.598	311.778
965.942	302.667
968.283	301.111
970.625	302.667
972.965	307.333
975.305	301.111
977.644	306.889
979.983	303.111
982.32	307.556
984.657	309.333
986.993	303.556
989.327	311.556
991.663	313.333
993.996	303.556
996.33	301.556
998.662	299.556
1000.99	302.222
1003.32	302.222
1005.65	299.778
1007.98	294.667
1010.31	303.111
1012.64	300.444
1014.97	300.222
1017.29	299.333
1019.62	299.556
1021.94	305.778
1024.27	303.111
1026.59	310.222
1028.91	299.556
1031.24	298.889
1033.56	311.111
1035.88	305.333
1038.2	294.444
1040.51	305.778
1042.83	302.444
1045.15	294.667
1047.47	304.889
1049.78	308.444
1052.1	306
1054.41	311.111
1056.73	319.778
1059.04	315.556
1061.35	321.556
1063.66	322
1065.97	342.667
1068.28	320.889
1070.59	316.222
1072.9	313.556
1075.21	306.222
1077.52	304.444
1079.82	306.222
1082.13	303.778
1084.43	303.333
1086.74	299.111
1089.04	305.111
1091.34	296.667
1093.65	297.111
1095.95	302
1098.25	312
1100.55	311.778
1102.85	321.778
1105.14	330.222
1107.44	339.778
1109.74	346.444
1112.03	344.444
1114.33	328.222
1116.62	327.556
1118.92	316.222
1121.21	310.889
1123.5	310
1125.79	313.556
1128.09	302.667
1130.38	302.667
1132.67	305.333
1134.95	309.111
1137.24	308.667
1139.53	298.889
1141.82	299.111
1144.1	303.333
1146.39	298.889
1148.67	300.667
1150.95	308.444
1153.24	297.556
1155.52	300
1157.8	296.444
1160.08	301.333
1162.36	304
1164.64	302.222
1166.92	300.667
1169.2	302.222
1171.47	302
1173.75	303.556
1176.03	294.222
1178.3	304
1180.58	299.556
1182.85	302.667
1185.12	302.667
1187.39	296.444
1189.66	303.556
1191.94	299.333
1194.21	312.667
1196.48	298.222
1198.74	304.444
1201.01	304.444
1203.28	306
1205.54	304.444
1207.81	302.444
1210.07	298.444
1212.34	298.667
1214.6	297.111
1216.86	305.111
1219.13	304
1221.39	295.333
1223.65	297.111
1225.91	307.556
1228.17	308.222
1230.43	300.444
1232.68	308
1234.94	300.222
1237.2	304
1239.45	300.444
1241.71	307.556
1243.96	297.111
1246.22	301.556
1248.47	300.444
1250.72	302.667
1252.97	311.778
1255.22	302
1257.47	300.667
1259.72	314.889
1261.97	304.444
1264.22	300.889
1266.46	302.667
1268.71	301.556
1270.95	307.556
1273.2	314.667
1275.44	310
1277.69	314.444
1279.93	304.222
1282.17	304
1284.41	308.222
1286.65	309.333
1288.89	317.333
1291.13	324
1293.37	342.444
1295.61	334.667
1297.85	346.889
1300.08	330.889
1302.32	321.333
1304.55	304.889
1306.79	305.556
1309.02	298.444
1311.26	305.111
1313.49	306.222
1315.72	304.889
1317.95	300.889
1320.18	306.444
1322.41	298.444
1324.64	298.222
1326.86	303.111
1329.09	311.778
1331.32	290.667
1333.55	302.444
1335.77	301.111
1337.99	298.889
1340.22	295.333
1342.44	293.111
1344.66	303.111
1346.89	300.444
1349.11	296.222
1351.33	305.778
1353.55	299.556
1355.77	295.333
1357.98	296.667
1360.2	302.222
1362.42	306.667
1364.63	304.222
1366.85	309.556
1369.06	304
1371.28	297.556
1373.49	303.778
1375.7	300
1377.92	303.111
1380.13	300.889
1382.34	301.333
1384.55	300.667
1386.76	303.333
1388.97	302.889
1391.17	298.667
1393.38	294
1395.59	298.889
1397.79	304.889
1400	296
1402.2	301.333
1404.41	296.667
1406.61	305.778
1408.81	297.778
1411.01	316
1413.21	313.333
1415.41	317.111
1417.61	324.222
1419.81	329.333
1422.01	333.556
1424.21	313.778
1426.4	314.444
1428.6	310.889
1430.8	319.556
1432.99	312.889
1435.18	308
1437.38	316.667
1439.57	322.889
1441.76	339.556
1443.95	356.667
1446.14	345.333
1448.33	327.778
1450.52	330.222
1452.71	315.333
1454.9	323.111
1457.09	317.556
1459.27	313.778
1461.46	318.667
1463.64	318.444
1465.83	321.333
1468.01	325.111
1470.2	323.556
1472.38	322
1474.56	314
1476.74	312.444
1478.92	302
1481.1	307.556
1483.28	296
1485.46	305.111
1487.64	296.889
1489.81	295.556
1491.99	299.778
1494.16	302.667
1496.34	304.889
1498.51	298.222
1500.69	308
1502.86	295.111
1505.03	298.222
1507.21	292.889
1509.38	304.222
1511.55	299.333
1513.72	298
1515.89	296.444
1518.05	301.556
1520.22	297.556
1522.39	287.778
1524.55	297.333
1526.72	292.222
1528.88	297.111
1531.05	289.333
1533.21	293.778
1535.37	296.444
1537.54	307.778
1539.7	297.111
1541.86	290.667
1544.02	294.222
1546.18	294.222
1548.34	294.444
1550.5	296.444
1552.65	292.889
1554.81	296.667
1556.97	296
1559.12	294.889
1561.28	289.778
1563.43	287.778
1565.58	302.222
1567.74	286.444
1569.89	287.556
1572.04	295.111
1574.19	296.889
1576.34	302.444
1578.49	298.444
1580.64	295.333
1582.79	294
1584.94	297.778
1587.08	293.556
1589.23	294.667
1591.37	289.111
1593.52	298.444
1595.66	293.778
1597.81	297.778
1599.95	290.222
1602.09	292.222
1604.23	292.667
1606.37	286.444
1608.51	296.889
1610.65	287.333
1612.79	291.778
1614.93	297.111
1617.07	286.667
1619.21	289.111
1621.34	291.111
1623.48	290.889
1625.61	293.333
1627.75	290
1629.88	286.444
1632.01	291.111
1634.15	292
1636.28	286
1638.41	291.778
1640.54	292.667
1642.67	294.889
1644.8	287.778
1646.93	294.889
1649.05	287.333
1651.18	288.889
1653.31	287.111
1655.43	286.667
1657.56	288.889
1659.68	290.889
1661.81	285.556
1663.93	291.111
1666.05	281.778
1668.17	292.222
1670.3	287.778
1672.42	292.444
1674.54	281.556
1676.66	288.889
1678.77	282.222
1680.89	287.111
1683.01	285.333
1685.13	283.333
1687.24	282.889
1689.36	286.222
1691.47	286
1693.59	286.889
1695.7	284
1697.81	283.333
1699.92	283.556
1702.04	284
1704.15	283.556
1706.26	284.444
1708.37	286
1710.47	282.889
1712.58	285.111
1714.69	290.667
1716.8	282.889
1718.9	288.444
1721.01	287.778
1723.11	292.222
1725.22	285.333
1727.32	282.667
1729.42	276.222
1731.53	281.778
1733.63	286.222
1735.73	277.111
1737.83	283.333
1739.93	278
1742.03	274
1744.13	274.222
1746.23	281.111
1748.32	279.333
1750.42	279.556
1752.52	278.222
1754.61	277.778
1756.71	274
1758.8	273.778
1760.89	278
1762.99	280.889
1765.08	287.333
1767.17	266.222
1769.26	275.778
1771.35	273.556
1773.44	274.667
1775.53	278
1777.62	273.111
1779.71	278.889
1781.79	270.667
1783.88	273.778
1785.96	280
1788.05	270.889
1790.13	267.333
1792.22	271.111
1794.3	273.556
1796.38	277.333
1798.47	273.556
1800.55	277.778
1802.63	277.333
1804.71	276.889
1806.79	272.444
1808.87	280
1810.95	268.444
1813.02	268.222
1815.1	262.889
1817.18	281.556
1819.25	268.889
1821.33	276.889
1823.4	280.444
1825.47	276.667
1827.55	274.889
1829.62	271.111
1831.69	274
1833.76	268
1835.83	271.778
1837.9	270.444
1839.97	266.444
1842.04	262.889
1844.11	274.667
1846.18	276.667
1848.24	267.333
1850.31	262.889
1852.38	267.778
1854.44	264
1856.51	274.444
1858.57	266.667
1860.63	273.556
1862.69	263.111
1864.76	267.333
1866.82	272
1868.88	268.444
1870.94	272.222
1873	263.556
1875.06	256.444
1877.11	262.889
1879.17	262.667
1881.23	268.222
1883.28	258.444
1885.34	256.222
1887.4	250.444
1889.45	253.333
1891.5	262.222
1893.56	261.778
1895.61	256.667
1897.66	259.778
1899.71	256.222
1901.76	261.778
1903.81	260.667
1905.86	264.667
1907.91	260
1909.96	261.556
1912.01	262.222
1914.05	264.667
1916.1	261.778
1918.15	263.333
1920.19	262
1922.23	263.778
1924.28	257.778
1926.32	265.333
1928.36	258
1930.41	258.889
1932.45	260
1934.49	259.333
1936.53	256.889
1938.57	255.333
1940.61	258.444
1942.64	260.889
1944.68	260.444
1946.72	259.111
1948.76	256.889
1950.79	263.111
1952.83	254.444
1954.86	252.667
1956.89	256.889
1958.93	262
1960.96	258
1962.99	253.111
1965.03	248.444
1967.06	251.778
1969.09	250.667
1971.12	255.333
1973.14	258
1975.17	250.667
1977.2	245.778
1979.23	252.889
1981.25	244.667
1983.28	251.778
1985.31	248.889
1987.33	250.444
1989.36	247.556
1991.38	241.778
1993.4	254.889
1995.42	253.333
1997.45	254.444
1999.47	246.889
2001.49	250.222
2003.51	243.556
2005.53	247.333
2007.55	244.667
2009.56	242.667
2011.58	246
2013.6	249.111
2015.61	249.111
2017.63	249.333
2019.65	246.444
2021.66	248
2023.67	254.444
2025.69	247.556
2027.7	247.111
2029.71	244.444
2031.72	244.889
2033.73	247.333
2035.74	247.556
2037.75	246
2039.76	250
2041.77	246
2043.78	247.111
2045.79	247.333
2047.79	246.667
2049.8	243.333
2051.8	246
2053.81	246
2055.81	248.444
2057.82	245.111
2059.82	246.667
2061.82	247.556
2063.82	244.222
2065.83	247.333
2067.83	243.333
2069.83	240.222
2071.83	244.667
2073.82	234.444
2075.82	246.444
2077.82	237.778
2079.82	236.222
2081.81	238
2083.81	240.667
2085.8	238
2087.8	240.667
2089.79	240
2091.79	239.333
2093.78	235.111
2095.77	236.667
2097.76	236.889
2099.76	234
2101.75	235.333
2103.74	243.778
2105.72	237.111
2107.71	231.778
2109.7	230.444
2111.69	232.667
2113.68	237.778
2115.66	232.889
2117.65	231.111
2119.63	232.444
2121.62	236.667
2123.6	232
2125.59	229.556
2127.57	239.333
2129.55	235.778
2131.53	234
2133.51	238
2135.49	234
2137.47	228
2139.45	228.222
2141.43	238
2143.41	233.111
2145.39	234.222
2147.36	231.778
2149.34	232.444
2151.32	229.778
2153.29	228.222
2155.27	233.111
2157.24	226.667
2159.21	227.778
2161.19	226.667
2163.16	223.111
2165.13	230.222
2167.1	229.556
2169.07	231.778
2171.04	226.667
2173.01	230.222
2174.98	228.889
2176.95	229.778
2178.92	227.556
2180.88	224.667
2182.85	228.889
2184.81	224.444
2186.78	231.111
2188.74	225.333
2190.71	221.333
2192.67	226
2194.63	227.333
2196.6	223.111
2198.56	223.556
2200.52	222.667
2202.48	217.333
2204.44	220.667
2206.4	220.444
2208.36	224.222
2210.32	212.889
2212.28	219.778
2214.23	221.111
2216.19	219.556
2218.14	217.333
2220.1	224.444
2222.05	217.333
2224.01	220.222
2225.96	215.556
2227.91	224
2229.87	220
2231.82	220
2233.77	219.556
2235.72	215.778
2237.67	218.667
2239.62	224.667
2241.57	218.222
2243.52	221.778
2245.47	221.556
2247.41	213.778
2249.36	213.556
2251.31	214
2253.25	216.889
2255.2	213.556
2257.14	216.889
2259.09	216.667
2261.03	204
2262.97	210.889
2264.91	219.111
2266.85	214.222
2268.8	216
2270.74	209.556
2272.68	215.778
2274.61	214
2276.55	209.111
2278.49	215.556
2280.43	212.222
2282.37	208
2284.3	212
2286.24	212
2288.17	208.222
2290.11	208.667
2292.04	206.222
2293.98	208
2295.91	204.667
2297.84	209.778
2299.77	212
2301.7	206.222
2303.64	208.222
2305.56	208.889
2307.49	204.889
2309.42	206.889
2311.35	211.556
2313.28	207.111
2315.21	211.778
2317.13	211.333
2319.06	199.556
2320.99	206.222
2322.91	204
2324.84	208.222
2326.76	210.667
2328.68	204.667
2330.6	205.333
2332.53	206.444
2334.45	200.444
2336.37	196.667
2338.29	197.556
2340.21	197.111
2342.13	197.556
2344.05	202.222
2345.97	201.556
2347.89	195.778
2349.8	201.556
2351.72	199.111
2353.63	201.778
2355.55	203.111
2357.47	199.111
2359.38	199.778
2361.29	199.333
2363.21	198.222
2365.12	200.444
2367.03	202
2368.94	195.556
2370.85	191.333
2372.76	193.778
2374.67	198.222
2376.58	196
2378.49	192.444
2380.4	195.778
2382.31	193.333
2384.21	198
2386.12	192.222
2388.03	198.222
2389.93	194.222
2391.84	192.444
2393.74	190.444
2395.64	196.667
2397.55	191.778
2399.45	193.333
2401.35	192.444
2403.25	191.778
2405.15	191.333
2407.05	194.444
2408.95	187.111
2410.85	186.444
2412.75	191.333
2414.65	189.778
2416.55	186
2418.45	192.667
2420.34	196.444
2422.24	190.222
2424.13	189.778
2426.03	187.556
2427.92	186.444
2429.82	193.778
2431.71	189.778
2433.6	191.333
2435.49	184.667
2437.39	187.778
2439.28	183.333
2441.17	187.556
2443.06	194
2444.95	192.889
2446.83	183.333
2448.72	186
2450.61	187.556
2452.5	186
2454.39	187.111
