188.706	479.333
191.305	490.667
193.902	478
196.499	474
199.096	471.556
201.69	456.667
204.284	455.111
206.877	447.111
209.47	448
212.062	453.778
214.652	447.778
217.242	449.333
219.83	455.778
222.419	450.222
225.005	462.222
227.592	462.222
230.177	460.444
232.762	467.556
235.345	461.111
237.928	451.556
240.509	459.556
243.09	454.222
245.671	472.889
248.249	458.889
250.829	462.889
253.405	467.333
255.983	464.222
258.558	465.778
261.132	458.444
263.707	467.778
266.28	469.556
268.852	476
271.424	473.556
273.994	451.556
276.564	470.667
279.133	471.333
281.701	468
284.268	475.111
286.835	468.444
289.4	471.111
291.964	470.222
294.527	479.111
297.091	479.556
299.653	474.667
302.214	469.111
304.774	475.333
307.334	479.111
309.892	478
312.45	480.889
315.006	482.667
317.562	479.556
320.118	492
322.672	476.667
325.225	481.778
327.778	488.222
330.329	477.111
332.88	487.333
335.43	487.778
337.978	479.111
340.528	484.222
343.075	480.222
345.622	474.667
348.167	485.333
350.712	487.111
353.256	496.667
355.799	488.889
358.341	495.778
360.883	492.889
363.423	502
365.963	488.889
368.502	490
371.04	480.444
373.577	496.667
376.114	492.222
378.649	504.444
381.184	494.889
383.718	490.222
386.251	488.889
388.783	499.333
391.314	501.778
393.844	491.111
396.373	503.333
398.902	485.111
401.43	507.111
403.957	503.333
406.484	500.667
409.009	509.778
411.534	502.444
414.057	503.556
416.58	506.667
419.102	496.889
421.624	502.889
424.144	507.556
426.663	504.222
429.181	502.444
431.7	509.778
434.217	507.333
436.732	511.556
439.248	508.889
441.763	494.889
444.277	499.556
446.788	511.111
449.301	505.556
451.812	499.111
454.322	509.333
456.831	519.333
459.341	517.556
461.847	514.667
464.355	514.444
466.861	518
469.366	510.667
471.871	514.222
474.374	514.444
476.877	519.556
479.378	516.667
481.88	515.333
484.381	515.111
486.879	518.667
489.379	522.667
491.876	511.556
494.373	511.333
496.869	518.222
499.365	522.222
501.858	526.444
504.353	519.778
506.845	517.778
509.338	522.222
511.828	522
514.319	517.778
516.808	511.556
519.296	519.778
521.785	524.444
524.272	522.889
526.759	512.667
529.244	522.444
531.728	520.444
534.212	531.333
536.695	531.333
539.178	532
541.659	528.667
544.139	524.889
546.619	529.778
549.098	525.556
551.575	534.445
554.052	523.556
556.529	529.333
559.005	522.444
561.479	527.556
563.953	530.667
566.427	533.111
568.899	532.222
571.37	516.444
573.84	531.111
576.311	532
578.78	526.889
581.248	524
583.715	522.889
586.181	527.111
588.647	530.667
591.113	528.667
593.577	529.556
596.04	526.444
598.503	526.444
600.964	524
603.425	526.222
605.885	534.222
608.344	535.778
610.803	535.111
613.26	534.222
615.718	533.556
618.174	528.667
620.63	538.222
623.084	546.667
625.538	529.111
627.99	537.333
630.443	543.778
632.894	520.667
635.344	543.778
637.792	526.444
640.241	541.111
642.689	540.667
645.137	543.111
647.583	528.222
650.029	525.778
652.474	539.111
654.918	536.667
657.361	536
659.804	539.778
662.246	528.667
664.685	542.889
667.125	540.889
669.565	546.222
672.003	522.889
674.441	536.222
676.877	529.111
679.313	534.222
681.749	538.889
684.183	546.444
686.617	530.222
689.049	537.111
691.481	524.889
693.913	543.333
696.342	542.444
698.772	539.333
701.201	542
703.63	546.889
706.056	547.778
708.483	552.444
710.909	554.667
713.333	564.889
715.758	538
718.18	549.333
720.603	549.778
723.025	546.222
725.445	557.333
727.866	550.222
730.284	558.444
732.703	574.444
735.122	558.444
737.538	578.222
739.955	560
742.369	552.667
744.784	568.222
747.197	564.444
749.611	561.333
752.023	547.556
754.435	541.778
756.845	539.778
759.255	532.222
761.664	538.444
764.071	532.444
766.48	545.556
768.886	536.222
771.292	542.667
773.697	545.333
776.102	531.333
778.505	538.889
780.907	547.111
783.31	535.111
785.711	549.111
788.111	545.556
790.511	536
792.91	537.555
795.308	531.333
797.706	534.222
800.102	544
802.497	528.667
804.892	537.556
807.287	550
809.68	552.445
812.072	536.222
814.464	541.778
816.855	546.222
819.246	530.889
821.635	552.222
824.024	540.222
826.412	538.889
828.799	539.556
831.186	538
833.572	533.778
835.956	536.889
838.34	540.222
840.723	525.333
843.106	539.778
845.487	537.556
847.868	538.667
850.248	538.667
852.628	530.889
855.006	538.889
857.384	539.778
859.761	535.778
862.138	546.667
864.513	547.111
866.888	537.333
869.262	542.667
871.636	529.556
874.008	547.556
876.38	543.111
878.751	533.111
881.121	547.556
883.491	526.667
885.86	537.556
888.228	540.667
890.595	543.778
892.962	542
895.327	534.889
897.691	541.111
900.055	539.556
902.419	547.556
904.782	547.556
907.144	557.111
909.505	559.333
911.864	547.111
914.224	548.889
916.583	533.111
918.941	536.222
921.298	529.333
923.654	530.667
926.01	537.333
928.366	537.333
930.719	526.889
933.073	525.556
935.426	529.778
937.777	539.333
940.129	524.889
942.479	530.889
944.828	525.778
947.178	540.889
949.526	532.889
951.873	526
954.22	543.333
956.565	533.111
958.911	544
961.254	539.556
963.598	542.667
965.942	526
968.283	532.222
970.625	533.556
972.965	539.111
975.305	521.778
977.644	535.111
979.983	535.111
982.32	537.778
984.657	530.667
986.993	543.111
989.327	536
991.663	537.778
993.996	537.556
996.33	531.111
998.662	522
1000.99	532.444
1003.32	538.667
1005.65	532.667
1007.98	530.444
1010.31	529.111
1012.64	526.667
1014.97	531.778
1017.29	532.444
1019.62	520.889
1021.94	536.444
1024.27	530.667
1026.59	536.222
1028.91	533.111
1031.24	535.333
1033.56	535.556
1035.88	541.111
1038.2	528.667
1040.51	532.889
1042.83	530.889
1045.15	526.444
1047.47	535.778
1049.78	539.333
1052.1	539.111
1054.41	554.667
1056.73	552.444
1059.04	545.333
1061.35	568.222
1063.66	565.111
1065.97	563.111
1068.28	552
1070.59	531.778
1072.9	537.111
1075.21	533.333
1077.52	522.222
1079.82	528.444
1082.13	521.555
1084.43	527.556
1086.74	532.889
1089.04	531.556
1091.34	533.111
1093.65	522.889
1095.95	540.667
1098.25	545.556
1100.55	553.556
1102.85	543.111
1105.14	569.778
1107.44	568.667
1109.74	587.556
1112.03	582
1114.33	564.667
1116.62	552.222
1118.92	544.667
1121.21	544.667
1123.5	543.556
1125.79	538.889
1128.09	528.445
1130.38	535.778
1132.67	531.556
1134.95	532.889
1137.24	523.556
1139.53	528.667
1141.82	537.111
1144.1	528.444
1146.39	525.556
1148.67	528.667
1150.95	531.333
1153.24	524.889
1155.52	536.222
1157.8	513.333
1160.08	522.444
1162.36	530.667
1164.64	517.111
1166.92	533.333
1169.2	529.556
1171.47	521.333
1173.75	532.889
1176.03	527.333
1178.3	538.889
1180.58	518.444
1182.85	526.222
1185.12	528.667
1187.39	513.333
1189.66	525.778
1191.94	521.111
1194.21	532.667
1196.48	532.222
1198.74	524
1201.01	529.333
1203.28	523.111
1205.54	525.778
1207.81	536
1210.07	534.889
1212.34	530.889
1214.6	524.889
1216.86	530.889
1219.13	532.222
1221.39	523.333
1223.65	522.667
1225.91	525.778
1228.17	524.444
1230.43	525.556
1232.68	537.556
1234.94	530.889
1237.2	516.444
1239.45	530.222
1241.71	524
1243.96	530.667
1246.22	530.222
1248.47	534
1250.72	524.889
1252.97	525.333
1255.22	530.889
1257.47	536
1259.72	536.444
1261.97	524.445
1264.22	528.444
1266.46	527.778
1268.71	523.778
1270.95	523.778
1273.2	529.778
1275.44	528.667
1277.69	534.222
1279.93	528.667
1282.17	527.111
1284.41	536.889
1286.65	533.111
1288.89	528
1291.13	554.667
1293.37	568
1295.61	566.667
1297.85	563.778
1300.08	555.333
1302.32	536.222
1304.55	533.111
1306.79	534.667
1309.02	530.889
1311.26	525.778
1313.49	526
1315.72	527.333
1317.95	523.556
1320.18	535.778
1322.41	519.333
1324.64	520.889
1326.86	521.778
1329.09	521.111
1331.32	532
1333.55	524.667
1335.77	522.222
1337.99	521.556
1340.22	532.444
1342.44	526.889
1344.66	527.778
1346.89	527.556
1349.11	520.889
1351.33	527.333
1353.55	526.444
1355.77	529.333
1357.98	525.556
1360.2	519.111
1362.42	524.222
1364.63	523.333
1366.85	523.333
1369.06	517.556
1371.28	522.444
1373.49	526.667
1375.7	527.333
1377.92	523.333
1380.13	519.778
1382.34	524.444
1384.55	520.222
1386.76	518
1388.97	529.556
1391.17	512.222
1393.38	526.222
1395.59	528.444
1397.79	524.444
1400	523.778
1402.2	512.667
1404.41	526.889
1406.61	532.889
1408.81	532.667
1411.01	539.556
1413.21	527.778
1415.41	529.333
1417.61	555.556
1419.81	565.333
1422.01	549.556
1424.21	543.778
1426.4	532.444
1428.6	522.222
1430.8	533.556
1432.99	536.889
1435.18	536.222
1437.38	533.111
1439.57	544
1441.76	571.556
1443.95	580.889
1446.14	577.333
1448.33	548.667
1450.52	545.111
1452.71	534.444
1454.9	549.556
1457.09	536.667
1459.27	543.333
1461.46	543.778
1463.64	547.111
1465.83	549.111
1468.01	550
1470.2	536.444
1472.38	528.222
1474.56	544.444
1476.74	533.556
1478.92	524.667
1481.1	529.333
1483.28	525.778
1485.46	530
1487.64	519.111
1489.81	520.444
1491.99	528.889
1494.16	522.222
1496.34	513.556
1498.51	509.111
1500.69	513.556
1502.86	514.444
1505.03	516.222
1507.21	519.778
1509.38	505.111
1511.55	506.222
1513.72	510.667
1515.89	514.667
1518.05	520.444
1520.22	504.444
1522.39	510.222
1524.55	511.778
1526.72	512.889
1528.88	512.889
1531.05	513.111
1533.21	506.222
1535.37	500.889
1537.54	512.444
1539.7	507.778
1541.86	517.111
1544.02	516.444
1546.18	500.222
1548.34	511.333
1550.5	512.889
1552.65	513.111
1554.81	504
1556.97	513.556
1559.12	514.222
1561.28	505.111
1563.43	513.111
1565.58	507.778
1567.74	517.333
1569.89	508.444
1572.04	498.889
1574.19	499.556
1576.34	510.222
1578.49	518
1580.64	506.889
1582.79	513.778
1584.94	504.444
1587.08	516.667
1589.23	514.444
1591.37	509.556
1593.52	510.444
1595.66	515.111
1597.81	513.556
1599.95	501.778
1602.09	503.778
1604.23	521.778
1606.37	509.333
1608.51	510.444
1610.65	512.889
1612.79	508.222
1614.93	507.333
1617.07	509.111
1619.21	489.333
1621.34	503.333
1623.48	511.111
1625.61	498.889
1627.75	493.778
1629.88	502.222
1632.01	499.556
1634.15	504
1636.28	511.111
1638.41	497.556
1640.54	508.667
1642.67	497.111
1644.8	492.889
1646.93	506.222
1649.05	501.333
1651.18	499.778
1653.31	500
1655.43	500.889
1657.56	505.778
1659.68	492.222
1661.81	499.111
1663.93	501.778
1666.05	493.333
1668.17	489.778
1670.3	503.556
1672.42	504.222
1674.54	492
1676.66	498.222
1678.77	506.444
1680.89	496.667
1683.01	502.889
1685.13	492
1687.24	492.222
1689.36	496.222
1691.47	497.778
1693.59	490.889
1695.7	488.889
1697.81	495.778
1699.92	498.444
1702.04	496.667
1704.15	486.667
1706.26	483.111
1708.37	499.556
1710.47	482
1712.58	491.556
1714.69	485.111
1716.8	496.444
1718.9	485.333
1721.01	486.444
1723.11	478.222
1725.22	491.556
1727.32	487.111
1729.42	484
1731.53	478.667
1733.63	485.778
1735.73	489.556
1737.83	481.333
1739.93	487.111
1742.03	474.889
1744.13	480.667
1746.23	477.111
1748.32	482.889
1750.42	482
1752.52	483.111
1754.61	481.556
1756.71	473.556
1758.8	477.333
1760.89	473.778
1762.99	478.889
1765.08	478.444
1767.17	462.889
1769.26	483.778
1771.35	480.889
1773.44	482.667
1775.53	480.667
1777.62	470
1779.71	476
1781.79	479.556
1783.88	471.111
1785.96	476.444
1788.05	478.889
1790.13	459.111
1792.22	476.444
1794.3	478.222
1796.38	474.667
1798.47	484
1800.55	464.667
1802.63	474
1804.71	473.333
1806.79	468.667
1808.87	472.889
1810.95	470.444
1813.02	467.556
1815.1	478.222
1817.18	478.667
1819.25	477.333
1821.33	460.222
1823.4	467.556
1825.47	476.222
1827.55	458.667
1829.62	459.556
1831.69	466.444
1833.76	466.889
1835.83	466
1837.9	466.667
1839.97	474.667
1842.04	466
1844.11	466.889
1846.18	459.111
1848.24	463.778
1850.31	457.778
1852.38	454.667
1854.44	470.667
1856.51	461.556
1858.57	456.667
1860.63	449.333
1862.69	450.444
1864.76	446
1866.82	452.222
1868.88	454
1870.94	452.889
1873	455.333
1875.06	450.222
1877.11	444
1879.17	452.222
1881.23	451.556
1883.28	453.778
1885.34	448.889
1887.4	454.667
1889.45	454.889
1891.5	454.667
1893.56	450
1895.61	442.889
1897.66	452.667
1899.71	459.111
1901.76	449.111
1903.81	447.111
1905.86	448.444
1907.91	453.778
1909.96	452.667
1912.01	444.889
1914.05	455.333
1916.1	447.556
1918.15	447.556
1920.19	441.778
1922.23	448.889
1924.28	447.111
1926.32	447.556
1928.36	441.333
1930.41	440.222
1932.45	452
1934.49	439.111
1936.53	441.333
1938.57	441.778
1940.61	440.222
1942.64	440.222
1944.68	438.444
1946.72	432.444
1948.76	436.444
1950.79	432.889
1952.83	442.667
1954.86	430.889
1956.89	438.667
1958.93	440.444
1960.96	436.667
1962.99	435.556
1965.03	426
1967.06	429.333
1969.09	426
1971.12	424.667
1973.14	430.444
1975.17	430.889
1977.2	437.333
1979.23	422.667
1981.25	435.111
1983.28	426.667
1985.31	429.333
1987.33	424.222
1989.36	424.889
1991.38	416.222
1993.4	420
1995.42	426.889
1997.45	425.556
1999.47	428
2001.49	422.889
2003.51	412.889
2005.53	408.667
2007.55	422
2009.56	416.667
2011.58	427.333
2013.6	418.444
2015.61	424.444
2017.63	426
2019.65	422.667
2021.66	421.333
2023.67	423.778
2025.69	420
2027.7	421.111
2029.71	415.556
2031.72	422.444
2033.73	423.778
2035.74	428.222
2037.75	421.111
2039.76	417.333
2041.77	417.556
2043.78	418.444
2045.79	420
2047.79	414.667
2049.8	419.333
2051.8	412
2053.81	414
2055.81	415.333
2057.82	409.333
2059.82	416
2061.82	410.667
2063.82	414.222
2065.83	404.222
2067.83	406.889
2069.83	401.556
2071.83	408.444
2073.82	420
2075.82	414.889
2077.82	398.222
2079.82	412
2081.81	406.444
2083.81	413.111
2085.8	403.778
2087.8	402.667
2089.79	401.556
2091.79	395.556
2093.78	399.111
2095.77	403.556
2097.76	399.556
2099.76	402.222
2101.75	400.667
2103.74	404.667
2105.72	395.111
2107.71	403.333
2109.7	394
2111.69	396.444
2113.68	404
2115.66	396.444
2117.65	394.222
2119.63	404.222
2121.62	404.444
2123.6	396.889
2125.59	400.444
2127.57	391.778
2129.55	397.778
2131.53	389.778
2133.51	383.556
2135.49	396.889
2137.47	387.111
2139.45	392.222
2141.43	394.667
2143.41	384.222
2145.39	394.889
2147.36	389.556
2149.34	395.556
2151.32	395.111
2153.29	385.778
2155.27	384
2157.24	382.222
2159.21	384.222
2161.19	383.333
2163.16	379.333
2165.13	383.778
2167.1	388
2169.07	374.222
2171.04	384.222
2173.01	376.222
2174.98	377.556
2176.95	384
2178.92	381.556
2180.88	380.444
2182.85	379.556
2184.81	375.333
2186.78	377.111
2188.74	372.667
2190.71	375.333
2192.67	371.778
2194.63	383.111
2196.6	384.444
2198.56	373.111
2200.52	375.556
2202.48	367.556
2204.44	373.556
2206.4	368.222
2208.36	363.556
2210.32	369.111
2212.28	367.556
2214.23	368.222
2216.19	368.889
2218.14	367.778
2220.1	373.778
2222.05	356.889
2224.01	366.444
2225.96	363.556
2227.91	365.556
2229.87	356.222
2231.82	357.556
2233.77	365.333
2235.72	361.778
2237.67	359.111
2239.62	358.444
2241.57	354.222
2243.52	365.556
2245.47	352.222
2247.41	358.444
2249.36	357.778
2251.31	359.111
2253.25	359.333
2255.2	364.222
2257.14	356.667
2259.09	353.333
2261.03	357.778
2262.97	360
2264.91	352.444
2266.85	351.111
2268.8	345.111
2270.74	349.556
2272.68	365.556
2274.61	350.222
2276.55	350.667
2278.49	343.556
2280.43	356
2282.37	347.111
2284.3	343.778
2286.24	353.111
2288.17	350.444
2290.11	356
2292.04	346.889
2293.98	343.556
2295.91	343.333
2297.84	342.222
2299.77	335.556
2301.7	347.778
2303.64	340.222
2305.56	347.778
2307.49	337.556
2309.42	334.444
2311.35	342.444
2313.28	341.333
2315.21	340.444
2317.13	341.333
2319.06	340
2320.99	336
2322.91	333.778
2324.84	336.667
2326.76	332.444
2328.68	334.444
2330.6	338
2332.53	325.778
2334.45	329.556
2336.37	338.444
2338.29	333.333
2340.21	329.333
2342.13	335.111
2344.05	332.667
2345.97	331.778
2347.89	336
2349.8	331.111
2351.72	332.889
2353.63	322.889
2355.55	325.556
2357.47	336.444
2359.38	327.333
2361.29	321.333
2363.21	327.333
2365.12	326
2367.03	331.111
2368.94	320.222
2370.85	322.889
2372.76	314.889
2374.67	313.778
2376.58	321.111
2378.49	321.111
2380.4	312.889
2382.31	317.556
2384.21	315.556
2386.12	321.333
2388.03	309.111
2389.93	318.444
2391.84	315.556
2393.74	314.444
2395.64	317.556
2397.55	319.333
2399.45	314
2401.35	309.778
2403.25	321.778
2405.15	316.667
2407.05	310.444
2408.95	310
2410.85	305.778
2412.75	312.444
2414.65	304.667
2416.55	313.333
2418.45	311.556
2420.34	306.444
2422.24	308.222
2424.13	302.889
2426.03	308
2427.92	305.333
2429.82	303.111
2431.71	307.556
2433.6	306.667
2435.49	307.778
2437.39	302.889
2439.28	313.556
2441.17	299.111
2443.06	306.889
2444.95	299.556
2446.83	305.111
2448.72	302.222
2450.61	306
2452.5	306.667
2454.39	304
