188.706	361.111
191.305	364.222
193.902	358.222
196.499	352.444
199.096	344
201.69	337.778
204.284	341.111
206.877	339.556
209.47	338.889
212.062	327.333
214.652	328.444
217.242	324.444
219.83	329.556
222.419	330
225.005	327.778
227.592	336.222
230.177	340.222
232.762	328.667
235.345	335.111
237.928	333.778
240.509	329.333
243.09	332.444
245.671	333.778
248.249	336.444
250.829	342.667
253.405	331.556
255.983	333.778
258.558	332.444
261.132	337.111
263.707	339.111
266.28	332.889
268.852	335.556
271.424	335.556
273.994	339.778
276.564	332.889
279.133	335.333
281.701	337.333
284.268	333.778
286.835	339.333
289.4	335.333
291.964	347.556
294.527	350.889
297.091	347.556
299.653	350.222
302.214	343.111
304.774	346.444
307.334	343.556
309.892	344.222
312.45	339.333
315.006	349.111
317.562	358.222
320.118	350.444
322.672	352.889
325.225	357.333
327.778	344.889
330.329	346
332.88	350.222
335.43	344.889
337.978	340.667
340.528	348
343.075	352.444
345.622	349.111
348.167	352.444
350.712	352.444
353.256	351.333
355.799	356.222
358.341	364.889
360.883	358
363.423	347.333
365.963	358
368.502	350
371.04	356
373.577	360.444
376.114	349.333
378.649	360.444
381.184	360.444
383.718	360
386.251	359.111
388.783	356.667
391.314	350
393.844	359.556
396.373	359.556
398.902	356.444
401.43	366
403.957	366.444
406.484	362.444
409.009	360.444
411.534	350.889
414.057	362.444
416.58	367.111
419.102	363.556
421.624	364.444
424.144	364.667
426.663	355.778
429.181	365.778
431.7	366.222
434.217	369.556
436.732	370.222
439.248	372.444
441.763	366
444.277	364.222
446.788	367.111
449.301	360.444
451.812	361.333
454.322	371.556
456.831	381.333
459.341	373.778
461.847	373.556
464.355	370
466.861	370.444
469.366	367.111
471.871	372.889
474.374	374.444
476.877	365.111
479.378	367.556
481.88	376
484.381	373.111
486.879	374
489.379	372.444
491.876	371.333
494.373	376.222
496.869	374.667
499.365	377.556
501.858	373.333
504.353	382
506.845	375.333
509.338	378
511.828	371.556
514.319	375.778
516.808	374.667
519.296	376.444
521.785	372.667
524.272	369.778
526.759	376
529.244	369.556
531.728	375.111
534.212	384.444
536.695	376.444
539.178	377.333
541.659	383.333
544.139	371.778
546.619	379.556
549.098	371.111
551.575	377.111
554.052	390
556.529	382.667
559.005	380.667
561.479	384.222
563.953	381.778
566.427	384.667
568.899	375.111
571.37	389.333
573.84	376.667
576.311	381.333
578.78	374.222
581.248	388
583.715	382.222
586.181	378.889
588.647	388.222
591.113	380.444
593.577	376
596.04	375.333
598.503	384.667
600.964	380
603.425	374.889
605.885	366.222
608.344	380
610.803	385.333
613.26	393.556
615.718	388.889
618.174	383.778
620.63	375.333
623.084	385.778
625.538	391.778
627.99	379.111
630.443	395.333
632.894	391.778
635.344	380
637.792	384.889
640.241	390.889
642.689	388
645.137	392.222
647.583	390.222
650.029	382.667
652.474	382.444
654.918	397.778
657.361	387.778
659.804	383.556
662.246	385.111
664.685	386.889
667.125	386.444
669.565	398
672.003	388
674.441	376.222
676.877	380
679.313	383.556
681.749	383.778
684.183	378.444
686.617	390.222
689.049	388.889
691.481	384.667
693.913	391.111
696.342	397.778
698.772	399.333
701.201	397.556
703.63	410.667
706.056	404.444
708.483	396.889
710.909	406.444
713.333	400.667
715.758	397.778
718.18	406.889
720.603	400.889
723.025	397.556
725.445	396.889
727.866	407.778
730.284	399.333
732.703	421.333
735.122	421.111
737.538	416.667
739.955	414.444
742.369	414.889
744.784	408.667
747.197	418.222
749.611	416
752.023	404.222
754.435	397.111
756.845	390
759.255	393.333
761.664	400.222
764.071	389.556
766.48	392
768.886	386.889
771.292	390.444
773.697	392.444
776.102	398.667
778.505	392
780.907	409.556
783.31	394
785.711	391.333
788.111	388.444
790.511	393.111
792.91	391.111
795.308	385.111
797.706	388.667
800.102	400.222
802.497	395.778
804.892	403.111
807.287	401.111
809.68	404.222
812.072	390.444
814.464	393.556
816.855	404
819.246	400.222
821.635	397.778
824.024	397.111
826.412	396.889
828.799	384
831.186	391.778
833.572	397.556
835.956	398.222
838.34	390.889
840.723	392.889
843.106	403.778
845.487	393.778
847.868	387.333
850.248	393.556
852.628	400.889
855.006	380.222
857.384	401.111
859.761	395.778
862.138	396
864.513	392
866.888	393.111
869.262	393.111
871.636	396.889
874.008	383.778
876.38	386.667
878.751	394.667
881.121	398.222
883.491	395.111
885.86	392.222
888.228	394.667
890.595	394
892.962	401.333
895.327	394.889
897.691	398.889
900.055	390.444
902.419	401.778
904.782	406.444
907.144	426.889
909.505	409.333
911.864	407.778
914.224	399.778
916.583	397.111
918.941	392
921.298	389.333
923.654	384.222
926.01	396.444
928.366	394.444
930.719	390.222
933.073	385.111
935.426	380.889
937.777	391.556
940.129	397.333
942.479	395.556
944.828	386.889
947.178	390.667
949.526	396.444
951.873	385.778
954.22	395.556
956.565	391.333
958.911	395.333
961.254	394.444
963.598	394.889
965.942	389.111
968.283	394
970.625	403.111
972.965	398.222
975.305	394.889
977.644	399.111
979.983	391.778
982.32	397.778
984.657	405.778
986.993	395.111
989.327	400.222
991.663	394
993.996	395.111
996.33	387.556
998.662	395.778
1000.99	395.778
1003.32	396.667
1005.65	381.556
1007.98	393.556
1010.31	387.333
1012.64	384.889
1014.97	381.111
1017.29	393.778
1019.62	396.444
1021.94	393.778
1024.27	393.556
1026.59	389.778
1028.91	397.556
1031.24	388
1033.56	397.556
1035.88	389.333
1038.2	397.556
1040.51	384
1042.83	391.778
1045.15	391.556
1047.47	386.222
1049.78	390.667
1052.1	399.778
1054.41	414.222
1056.73	419.556
1059.04	408.667
1061.35	428.222
1063.66	437.778
1065.97	425.111
1068.28	410.889
1070.59	394.667
1072.9	396.222
1075.21	396.889
1077.52	395.333
1079.82	399.111
1082.13	384.444
1084.43	393.778
1086.74	387.778
1089.04	388.444
1091.34	388.444
1093.65	399.778
1095.95	394.444
1098.25	400.889
1100.55	404.444
1102.85	415.333
1105.14	426.444
1107.44	432.444
1109.74	440
1112.03	438.889
1114.33	426.667
1116.62	412.889
1118.92	404.667
1121.21	393.778
1123.5	394
1125.79	391.556
1128.09	397.333
1130.38	390
1132.67	390.889
1134.95	386.444
1137.24	388
1139.53	402
1141.82	389.778
1144.1	392.889
1146.39	386.222
1148.67	391.333
1150.95	396.222
1153.24	387.778
1155.52	394
1157.8	393.556
1160.08	387.778
1162.36	388.444
1164.64	400.444
1166.92	396.667
1169.2	390.889
1171.47	388.889
1173.75	396.444
1176.03	395.111
1178.3	398.222
1180.58	391.111
1182.85	389.333
1185.12	393.778
1187.39	389.556
1189.66	387.778
1191.94	401.111
1194.21	395.778
1196.48	395.778
1198.74	387.333
1201.01	386.444
1203.28	393.333
1205.54	397.333
1207.81	394.667
1210.07	389.111
1212.34	382.667
1214.6	390.222
1216.86	392.667
1219.13	393.556
1221.39	380.222
1223.65	384
1225.91	390.444
1228.17	384.667
1230.43	392
1232.68	384.444
1234.94	390.444
1237.2	393.111
1239.45	395.333
1241.71	391.111
1243.96	390.444
1246.22	390.889
1248.47	389.778
1250.72	384.889
1252.97	391.556
1255.22	399.556
1257.47	399.778
1259.72	398.667
1261.97	400.889
1264.22	402.222
1266.46	388.222
1268.71	401.556
1270.95	392.889
1273.2	380.444
1275.44	391.111
1277.69	390.667
1279.93	397.111
1282.17	398.222
1284.41	390.444
1286.65	395.556
1288.89	404.667
1291.13	419.111
1293.37	429.556
1295.61	427.333
1297.85	428.889
1300.08	417.333
1302.32	409.778
1304.55	388.444
1306.79	388.222
1309.02	382
1311.26	393.111
1313.49	387.333
1315.72	392.667
1317.95	391.333
1320.18	390.889
1322.41	387.111
1324.64	382.667
1326.86	388.889
1329.09	385.333
1331.32	386.667
1333.55	389.556
1335.77	396.444
1337.99	384.222
1340.22	385.556
1342.44	398.222
1344.66	395.556
1346.89	388.889
1349.11	395.778
1351.33	390.667
1353.55	394.667
1355.77	388
1357.98	388.444
1360.2	380.222
1362.42	393.556
1364.63	395.111
1366.85	387.333
1369.06	394.222
1371.28	394.444
1373.49	379.556
1375.7	392.444
1377.92	390.444
1380.13	384.889
1382.34	387.111
1384.55	390.444
1386.76	388.444
1388.97	394.222
1391.17	378.889
1393.38	386.667
1395.59	392.667
1397.79	386
1400	390.222
1402.2	388.222
1404.41	385.333
1406.61	397.111
1408.81	401.556
1411.01	399.556
1413.21	400.444
1415.41	396.444
1417.61	411.333
1419.81	432
1422.01	415.111
1424.21	410.444
1426.4	393.111
1428.6	397.333
1430.8	393.111
1432.99	399.111
1435.18	398.889
1437.38	400.889
1439.57	405.556
1441.76	427.111
1443.95	445.111
1446.14	436.889
1448.33	425.556
1450.52	410.667
1452.71	401.111
1454.9	412.667
1457.09	391.778
1459.27	415.333
1461.46	406.222
1463.64	421.111
1465.83	408.222
1468.01	419.556
1470.2	403.556
1472.38	402.889
1474.56	411.778
1476.74	404.667
1478.92	403.111
1481.1	395.778
1483.28	398.889
1485.46	392.222
1487.64	394.667
1489.81	388.222
1491.99	389.333
1494.16	384.889
1496.34	389.778
1498.51	384.889
1500.69	388.222
1502.86	383.778
1505.03	379.111
1507.21	372.444
1509.38	379.778
1511.55	380.889
1513.72	384.222
1515.89	379.111
1518.05	383.556
1520.22	383.556
1522.39	374.667
1524.55	382.667
1526.72	392
1528.88	383.556
1531.05	375.333
1533.21	375.778
1535.37	380.889
1537.54	385.778
1539.7	388.889
1541.86	383.778
1544.02	378.889
1546.18	380
1548.34	385.556
1550.5	368.889
1552.65	386.222
1554.81	385.111
1556.97	378
1559.12	380.222
1561.28	375.556
1563.43	382.444
1565.58	372.889
1567.74	378.222
1569.89	380
1572.04	373.556
1574.19	382
1576.34	378
1578.49	376.222
1580.64	378.667
1582.79	382.444
1584.94	382
1587.08	368.222
1589.23	385.111
1591.37	388.667
1593.52	389.556
1595.66	376.444
1597.81	383.333
1599.95	381.556
1602.09	378.222
1604.23	382.222
1606.37	384.222
1608.51	376
1610.65	373.111
1612.79	381.778
1614.93	380.667
1617.07	379.778
1619.21	375.778
1621.34	375.111
1623.48	376
1625.61	378.667
1627.75	376.444
1629.88	376.222
1632.01	382.667
1634.15	380.222
1636.28	384
1638.41	376.889
1640.54	378.444
1642.67	369.556
1644.8	372.889
1646.93	379.778
1649.05	378.889
1651.18	376.889
1653.31	375.111
1655.43	377.111
1657.56	373.778
1659.68	374
1661.81	368.444
1663.93	369.556
1666.05	376.444
1668.17	375.556
1670.3	368.667
1672.42	374.889
1674.54	366.889
1676.66	367.778
1678.77	372.889
1680.89	364.444
1683.01	372.444
1685.13	374.667
1687.24	372.222
1689.36	373.111
1691.47	356.222
1693.59	363.111
1695.7	365.333
1697.81	378.889
1699.92	373.111
1702.04	365.333
1704.15	365.778
1706.26	372.889
1708.37	362.222
1710.47	371.333
1712.58	362.667
1714.69	370.667
1716.8	363.778
1718.9	373.556
1721.01	360.889
1723.11	363.778
1725.22	363.333
1727.32	360.222
1729.42	372.222
1731.53	368.667
1733.63	368.444
1735.73	368.222
1737.83	366.444
1739.93	360.444
1742.03	357.111
1744.13	359.111
1746.23	359.111
1748.32	363.111
1750.42	364.889
1752.52	352.889
1754.61	352.222
1756.71	361.333
1758.8	353.556
1760.89	356.444
1762.99	362.889
1765.08	354
1767.17	352.667
1769.26	368.889
1771.35	349.333
1773.44	360
1775.53	357.556
1777.62	363.333
1779.71	356
1781.79	354.222
1783.88	356.444
1785.96	353.556
1788.05	361.778
1790.13	359.556
1792.22	350
1794.3	361.778
1796.38	363.111
1798.47	354.889
1800.55	357.778
1802.63	355.556
1804.71	360.667
1806.79	354.889
1808.87	355.333
1810.95	349.778
1813.02	351.778
1815.1	354.222
1817.18	354.444
1819.25	356
1821.33	357.111
1823.4	352.667
1825.47	340.667
1827.55	357.333
1829.62	355.778
1831.69	351.556
1833.76	354.222
1835.83	350.889
1837.9	350.444
1839.97	352
1842.04	342.667
1844.11	353.111
1846.18	343.778
1848.24	352.889
1850.31	345.333
1852.38	351.556
1854.44	342.444
1856.51	347.556
1858.57	345.556
1860.63	350.667
1862.69	343.111
1864.76	343.556
1866.82	342.444
1868.88	346
1870.94	352
1873	351.778
1875.06	345.556
1877.11	343.333
1879.17	345.111
1881.23	332.889
1883.28	352.222
1885.34	346.222
1887.4	339.778
1889.45	342.222
1891.5	336.444
1893.56	336.222
1895.61	350
1897.66	342
1899.71	340
1901.76	339.333
1903.81	337.778
1905.86	337.778
1907.91	338.889
1909.96	336.889
1912.01	342
1914.05	339.778
1916.1	330.889
1918.15	340.889
1920.19	332.889
1922.23	342.444
1924.28	329.778
1926.32	337.778
1928.36	336.667
1930.41	336.889
1932.45	331.333
1934.49	336
1936.53	331.333
1938.57	335.556
1940.61	330.889
1942.64	336.667
1944.68	340
1946.72	337.778
1948.76	330
1950.79	335.556
1952.83	333.778
1954.86	329.778
1956.89	325.111
1958.93	337.333
1960.96	329.778
1962.99	330.444
1965.03	332.444
1967.06	329.111
1969.09	326.667
1971.12	323.778
1973.14	323.556
1975.17	322
1977.2	326.667
1979.23	326
1981.25	323.556
1983.28	320.667
1985.31	319.778
1987.33	327.556
1989.36	322
1991.38	322.667
1993.4	321.333
1995.42	329.333
1997.45	324.667
1999.47	319.333
2001.49	323.111
2003.51	322.444
2005.53	317.778
2007.55	320
2009.56	314
2011.58	322.444
2013.6	315.556
2015.61	322
2017.63	313.556
2019.65	316
2021.66	320.667
2023.67	322.667
2025.69	310.667
2027.7	317.333
2029.71	316.889
2031.72	321.111
2033.73	324
2035.74	318.667
2037.75	319.556
2039.76	318
2041.77	324.222
2043.78	317.333
2045.79	316.889
2047.79	311.556
2049.8	319.778
2051.8	321.556
2053.81	307.111
2055.81	314.222
2057.82	319.111
2059.82	314.222
2061.82	313.556
2063.82	306.667
2065.83	315.333
2067.83	316.222
2069.83	315.556
2071.83	314.667
2073.82	304.667
2075.82	312.889
2077.82	312
2079.82	310.444
2081.81	304.667
2083.81	311.111
2085.8	311.333
2087.8	309.556
2089.79	306.889
2091.79	313.556
2093.78	298
2095.77	308.889
2097.76	306.444
2099.76	307.111
2101.75	305.333
2103.74	310.222
2105.72	302.444
2107.71	306.222
2109.7	298.889
2111.69	304.667
2113.68	300.889
2115.66	299.778
2117.65	307.556
2119.63	300.889
2121.62	303.333
2123.6	297.778
2125.59	300
2127.57	307.556
2129.55	300.444
2131.53	299.111
2133.51	294.889
2135.49	301.556
2137.47	299.556
2139.45	300
2141.43	294.667
2143.41	300.444
2145.39	298.222
2147.36	297.111
2149.34	297.778
2151.32	296
2153.29	298.222
2155.27	290.667
2157.24	296.889
2159.21	291.556
2161.19	291.111
2163.16	288.667
2165.13	298.444
2167.1	288.889
2169.07	290.222
2171.04	295.333
2173.01	290.889
2174.98	294.667
2176.95	289.778
2178.92	291.778
2180.88	292.667
2182.85	283.333
2184.81	288.889
2186.78	292.222
2188.74	283.556
2190.71	290.889
2192.67	286
2194.63	289.111
2196.6	282.444
2198.56	290.222
2200.52	282.889
2202.48	285.778
2204.44	285.111
2206.4	287.333
2208.36	280.667
2210.32	282.667
2212.28	288
2214.23	280.444
2216.19	282
2218.14	288
2220.1	278.667
2222.05	279.556
2224.01	280
2225.96	278.444
2227.91	278.889
2229.87	283.333
2231.82	284.889
2233.77	273.556
2235.72	280.222
2237.67	273.333
2239.62	283.556
2241.57	273.778
2243.52	280
2245.47	278.222
2247.41	277.333
2249.36	279.111
2251.31	277.111
2253.25	272.222
2255.2	276.889
2257.14	274.667
2259.09	273.333
2261.03	279.556
2262.97	271.778
2264.91	271.778
2266.85	277.556
2268.8	268
2270.74	274
2272.68	277.111
2274.61	274.444
2276.55	270
2278.49	262
2280.43	267.778
2282.37	267.333
2284.3	268.444
2286.24	262.444
2288.17	266.444
2290.11	266.667
2292.04	264.667
2293.98	262.889
2295.91	271.778
2297.84	265.333
2299.77	267.111
2301.7	264
2303.64	263.778
2305.56	262.889
2307.49	262.889
2309.42	266.889
2311.35	266
2313.28	260
2315.21	259.778
2317.13	256.889
2319.06	271.111
2320.99	269.111
2322.91	259.778
2324.84	259.111
2326.76	264.889
2328.68	259.111
2330.6	261.333
2332.53	255.111
2334.45	264.889
2336.37	258.444
2338.29	251.111
2340.21	256.889
2342.13	257.333
2344.05	258.444
2345.97	253.556
2347.89	258.444
2349.8	258
2351.72	261.778
2353.63	257.333
2355.55	259.333
2357.47	252.444
2359.38	254.444
2361.29	254.222
2363.21	255.778
2365.12	247.778
2367.03	251.333
2368.94	249.111
2370.85	250
2372.76	248
2374.67	250.222
2376.58	254.889
2378.49	245.778
2380.4	247.333
2382.31	248
2384.21	255.111
2386.12	241.333
2388.03	248.667
2389.93	246.889
2391.84	250.667
2393.74	242.889
2395.64	240.222
2397.55	252.222
2399.45	248.222
2401.35	245.111
2403.25	243.333
2405.15	249.333
2407.05	248.444
2408.95	246.444
2410.85	241.111
2412.75	240.444
2414.65	246.222
2416.55	240.889
2418.45	246
2420.34	242
2422.24	239.556
2424.13	241.111
2426.03	244.222
2427.92	245.111
2429.82	243.556
2431.71	236
2433.6	239.333
2435.49	244.889
2437.39	238.889
2439.28	234
2441.17	234.444
2443.06	240.667
2444.95	231.778
2446.83	235.778
2448.72	241.333
2450.61	238.444
2452.5	234.889
2454.39	241.111
