188.706	348.889
191.305	350
193.902	347.111
196.499	347.778
199.096	350.444
201.69	338.222
204.284	330.444
206.877	336
209.47	334
212.062	334.444
214.652	340.667
217.242	332.444
219.83	332.889
222.419	336
225.005	332.667
227.592	329.111
230.177	339.778
232.762	334
235.345	333.333
237.928	333.778
240.509	334.667
243.09	339.556
245.671	330.222
248.249	342.444
250.829	342.667
253.405	338
255.983	350.667
258.558	339.778
261.132	344.889
263.707	339.333
266.28	340
268.852	341.333
271.424	345.333
273.994	339.111
276.564	342
279.133	339.111
281.701	345.333
284.268	342
286.835	346.222
289.4	352
291.964	340.222
294.527	348.222
297.091	346
299.653	351.778
302.214	348.889
304.774	346.667
307.334	354
309.892	358.444
312.45	350.667
315.006	359.333
317.562	347.111
320.118	346.667
322.672	357.778
325.225	363.333
327.778	357.556
330.329	356.444
332.88	349.778
335.43	355.111
337.978	352.444
340.528	358
343.075	357.111
345.622	360.222
348.167	366.222
350.712	359.333
353.256	358.889
355.799	363.111
358.341	368.667
360.883	363.333
363.423	366.222
365.963	368.667
368.502	359.778
371.04	361.111
373.577	369.556
376.114	370.667
378.649	363.111
381.184	364.667
383.718	365.778
386.251	365.111
388.783	373.111
391.314	360.667
393.844	359.333
396.373	369.778
398.902	376
401.43	372.444
403.957	371.333
406.484	370.222
409.009	367.111
411.534	380
414.057	374.222
416.58	370.222
419.102	377.778
421.624	369.778
424.144	375.556
426.663	367.333
429.181	369.778
431.7	367.333
434.217	376
436.732	374.222
439.248	366
441.763	373.556
444.277	373.333
446.788	376.444
449.301	371.111
451.812	377.778
454.322	369.333
456.831	381.333
459.341	373.111
461.847	377.333
464.355	376.889
466.861	380.222
469.366	376.667
471.871	366.444
474.374	383.778
476.877	379.778
479.378	374.667
481.88	374.667
484.381	377.556
486.879	384.667
489.379	382.444
491.876	385.111
494.373	389.556
496.869	371.778
499.365	380
501.858	388.444
504.353	379.778
506.845	381.778
509.338	381.778
511.828	379.778
514.319	383.556
516.808	372.222
519.296	382.444
521.785	380.667
524.272	375.333
526.759	385.556
529.244	391.556
531.728	383.778
534.212	379.556
536.695	383.556
539.178	389.111
541.659	380.444
544.139	383.333
546.619	387.333
549.098	386.222
551.575	390.444
554.052	386.222
556.529	390.667
559.005	393.556
561.479	397.111
563.953	392.444
566.427	397.556
568.899	381.778
571.37	397.111
573.84	402.222
576.311	391.333
578.78	393.556
581.248	389.111
583.715	399.111
586.181	401.333
588.647	388.667
591.113	388.222
593.577	394.222
596.04	390.889
598.503	388
600.964	396.667
603.425	392.889
605.885	402
608.344	392.444
610.803	396
613.26	392
615.718	384.889
618.174	393.556
620.63	395.333
623.084	390.222
625.538	384.667
627.99	391.778
630.443	396.667
632.894	393.111
635.344	391.111
637.792	391.111
640.241	397.333
642.689	390.667
645.137	385.333
647.583	388
650.029	394.444
652.474	392.444
654.918	390.222
657.361	395.111
659.804	402.222
662.246	404.667
664.685	399.778
667.125	390
669.565	391.333
672.003	398.667
674.441	395.556
676.877	384
679.313	392.667
681.749	395.556
684.183	394.889
686.617	397.556
689.049	390.667
691.481	394
693.913	393.778
696.342	400.889
698.772	404
701.201	404.222
703.63	409.111
706.056	411.556
708.483	414.222
710.909	409.111
713.333	400.667
715.758	409.111
718.18	406.889
720.603	406.667
723.025	405.333
725.445	410.444
727.866	404.889
730.284	414.667
732.703	414.667
735.122	420.444
737.538	415.778
739.955	417.556
742.369	418
744.784	417.333
747.197	426.667
749.611	408.889
752.023	405.778
754.435	401.111
756.845	390.889
759.255	404.444
761.664	399.556
764.071	395.111
766.48	397.556
768.886	396.667
771.292	398
773.697	410.444
776.102	404.222
778.505	406.222
780.907	398
783.31	394.667
785.711	406.444
788.111	413.111
790.511	396.667
792.91	399.333
795.308	413.111
797.706	397.333
800.102	399.778
802.497	402.667
804.892	393.778
807.287	400.444
809.68	403.111
812.072	394.667
814.464	404.889
816.855	401.111
819.246	400.667
821.635	406
824.024	402.444
826.412	405.111
828.799	388.444
831.186	392.889
833.572	391.111
835.956	393.333
838.34	398
840.723	403.111
843.106	393.778
845.487	401.111
847.868	407.111
850.248	392
852.628	394.222
855.006	397.778
857.384	398.444
859.761	407.333
862.138	400.222
864.513	411.778
866.888	398.889
869.262	401.556
871.636	402.667
874.008	405.111
876.38	404.667
878.751	403.333
881.121	395.778
883.491	407.778
885.86	397.778
888.228	403.111
890.595	399.556
892.962	406.444
895.327	400.444
897.691	399.333
900.055	404.667
902.419	400.222
904.782	407.556
907.144	417.333
909.505	403.333
911.864	399.778
914.224	406.444
916.583	390.667
918.941	399.111
921.298	396.222
923.654	394.222
926.01	386.444
928.366	399.111
930.719	388.667
933.073	392.444
935.426	389.111
937.777	394.444
940.129	398.889
942.479	406.667
944.828	388
947.178	399.333
949.526	401.111
951.873	389.778
954.22	397.778
956.565	392.667
958.911	395.778
961.254	393.333
963.598	393.333
965.942	400.889
968.283	402.222
970.625	399.333
972.965	398.222
975.305	395.333
977.644	390.667
979.983	391.333
982.32	401.556
984.657	404.667
986.993	400.889
989.327	400.889
991.663	399.556
993.996	401.556
996.33	381.778
998.662	390.444
1000.99	393.333
1003.32	396.222
1005.65	398.889
1007.98	390.667
1010.31	390.222
1012.64	391.778
1014.97	401.778
1017.29	389.778
1019.62	394.444
1021.94	390.667
1024.27	396.889
1026.59	395.556
1028.91	396.222
1031.24	389.556
1033.56	401.778
1035.88	394.222
1038.2	408.444
1040.51	391.778
1042.83	391.333
1045.15	393.333
1047.47	393.333
1049.78	404
1052.1	398.444
1054.41	405.556
1056.73	398.444
1059.04	399.111
1061.35	418.222
1063.66	423.333
1065.97	421.778
1068.28	417.111
1070.59	402.667
1072.9	396.444
1075.21	404.889
1077.52	400.444
1079.82	391.778
1082.13	402.667
1084.43	393.333
1086.74	399.333
1089.04	398.444
1091.34	394.222
1093.65	406
1095.95	392
1098.25	402
1100.55	411.556
1102.85	408.222
1105.14	421.556
1107.44	428.222
1109.74	431.556
1112.03	426.222
1114.33	420.889
1116.62	425.556
1118.92	398.222
1121.21	398.667
1123.5	404.222
1125.79	388
1128.09	386.444
1130.38	392.222
1132.67	396.222
1134.95	390.889
1137.24	400.444
1139.53	392.667
1141.82	393.778
1144.1	388.889
1146.39	394.444
1148.67	390.667
1150.95	389.778
1153.24	392.667
1155.52	396.889
1157.8	397.556
1160.08	396
1162.36	396.889
1164.64	395.333
1166.92	400.222
1169.2	387.111
1171.47	392.444
1173.75	396
1176.03	394.889
1178.3	386.444
1180.58	396
1182.85	392.889
1185.12	401.556
1187.39	396
1189.66	399.778
1191.94	394
1194.21	397.111
1196.48	392.222
1198.74	394.444
1201.01	396
1203.28	394.667
1205.54	390
1207.81	381.333
1210.07	387.111
1212.34	378.667
1214.6	392.444
1216.86	404
1219.13	392
1221.39	392.889
1223.65	395.778
1225.91	392.889
1228.17	396.444
1230.43	379.778
1232.68	388.444
1234.94	396.889
1237.2	398.889
1239.45	393.778
1241.71	388.444
1243.96	394.667
1246.22	386.444
1248.47	404.667
1250.72	393.778
1252.97	399.111
1255.22	388.889
1257.47	396.222
1259.72	395.111
1261.97	394.889
1264.22	395.333
1266.46	387.333
1268.71	384.667
1270.95	396.667
1273.2	392.667
1275.44	389.778
1277.69	393.778
1279.93	399.556
1282.17	391.111
1284.41	394
1286.65	405.111
1288.89	394.222
1291.13	403.111
1293.37	415.556
1295.61	424
1297.85	417.778
1300.08	421.111
1302.32	397.111
1304.55	404.444
1306.79	384.444
1309.02	393.778
1311.26	401.333
1313.49	396.889
1315.72	391.556
1317.95	384.889
1320.18	385.778
1322.41	388
1324.64	385.333
1326.86	393.333
1329.09	395.556
1331.32	400.222
1333.55	378.667
1335.77	385.333
1337.99	381.556
1340.22	391.556
1342.44	396
1344.66	388
1346.89	391.111
1349.11	388.444
1351.33	396
1353.55	399.333
1355.77	387.556
1357.98	398.444
1360.2	393.333
1362.42	394.222
1364.63	387.111
1366.85	401.333
1369.06	386.222
1371.28	393.111
1373.49	396.444
1375.7	386.222
1377.92	397.111
1380.13	386.667
1382.34	386.222
1384.55	390.667
1386.76	384.667
1388.97	391.111
1391.17	388
1393.38	383.333
1395.59	388.667
1397.79	387.111
1400	389.333
1402.2	382.222
1404.41	381.333
1406.61	398.889
1408.81	385.556
1411.01	398.889
1413.21	402.444
1415.41	403.333
1417.61	403.333
1419.81	412
1422.01	409.778
1424.21	413.778
1426.4	407.778
1428.6	391.556
1430.8	398.222
1432.99	398.889
1435.18	400.222
1437.38	401.333
1439.57	408.889
1441.76	428.667
1443.95	438
1446.14	428.444
1448.33	414.222
1450.52	399.111
1452.71	403.556
1454.9	402.667
1457.09	408
1459.27	399.111
1461.46	401.778
1463.64	413.556
1465.83	400.444
1468.01	400.444
1470.2	401.333
1472.38	394.222
1474.56	394
1476.74	391.778
1478.92	404
1481.1	396.222
1483.28	390.889
1485.46	389.111
1487.64	391.778
1489.81	390
1491.99	387.333
1494.16	384.222
1496.34	394.667
1498.51	385.778
1500.69	385.556
1502.86	390.889
1505.03	384.222
1507.21	381.111
1509.38	385.333
1511.55	393.333
1513.72	391.556
1515.89	376.444
1518.05	378.444
1520.22	386
1522.39	376
1524.55	381.778
1526.72	379.333
1528.88	385.333
1531.05	382.889
1533.21	389.111
1535.37	374
1537.54	387.556
1539.7	375.111
1541.86	385.556
1544.02	378.667
1546.18	376.444
1548.34	382.889
1550.5	385.556
1552.65	385.556
1554.81	383.556
1556.97	379.333
1559.12	383.556
1561.28	385.111
1563.43	384.444
1565.58	377.778
1567.74	375.111
1569.89	383.111
1572.04	383.333
1574.19	380
1576.34	376.667
1578.49	377.333
1580.64	387.333
1582.79	378.222
1584.94	376
1587.08	383.556
1589.23	384
1591.37	377.778
1593.52	384
1595.66	381.778
1597.81	384.222
1599.95	375.111
1602.09	376.889
1604.23	381.111
1606.37	380.222
1608.51	370.444
1610.65	375.333
1612.79	382.222
1614.93	383.111
1617.07	379.111
1619.21	377.556
1621.34	374.444
1623.48	373.556
1625.61	385.778
1627.75	371.778
1629.88	381.333
1632.01	369.333
1634.15	379.111
1636.28	371.778
1638.41	376.667
1640.54	371.778
1642.67	379.778
1644.8	370.222
1646.93	376.667
1649.05	366.889
1651.18	369.778
1653.31	373.556
1655.43	374.889
1657.56	379.556
1659.68	371.778
1661.81	365.111
1663.93	375.333
1666.05	366.222
1668.17	371.556
1670.3	364.222
1672.42	373.778
1674.54	371.778
1676.66	367.333
1678.77	378
1680.89	371.556
1683.01	370.889
1685.13	354
1687.24	374.444
1689.36	376
1691.47	362.444
1693.59	373.556
1695.7	367.111
1697.81	366
1699.92	359.556
1702.04	370.889
1704.15	374.222
1706.26	367.556
1708.37	372.667
1710.47	371.333
1712.58	366.889
1714.69	368.889
1716.8	370.667
1718.9	368.444
1721.01	367.333
1723.11	371.111
1725.22	366
1727.32	376.444
1729.42	375.556
1731.53	367.778
1733.63	364
1735.73	367.556
1737.83	356
1739.93	368.444
1742.03	364
1744.13	365.333
1746.23	353.778
1748.32	363.556
1750.42	366.444
1752.52	361.778
1754.61	359.556
1756.71	357.111
1758.8	360.444
1760.89	357.556
1762.99	362.444
1765.08	355.778
1767.17	366.889
1769.26	363.333
1771.35	361.333
1773.44	343.556
1775.53	355.778
1777.62	358.444
1779.71	357.333
1781.79	348.222
1783.88	362
1785.96	357.111
1788.05	354.889
1790.13	363.111
1792.22	354.889
1794.3	353.111
1796.38	351.556
1798.47	354.889
1800.55	350.222
1802.63	357.556
1804.71	364.222
1806.79	359.333
1808.87	358.222
1810.95	349.556
1813.02	361.778
1815.1	357.333
1817.18	362
1819.25	355.778
1821.33	352.889
1823.4	351.778
1825.47	352.222
1827.55	341.556
1829.62	356.667
1831.69	341.778
1833.76	353.333
1835.83	346.222
1837.9	346.889
1839.97	341.111
1842.04	347.778
1844.11	347.556
1846.18	344
1848.24	345.556
1850.31	346.667
1852.38	346.444
1854.44	344
1856.51	356
1858.57	349.111
1860.63	347.111
1862.69	348.222
1864.76	329.333
1866.82	344.444
1868.88	336
1870.94	340.889
1873	342
1875.06	338.222
1877.11	351.333
1879.17	339.111
1881.23	340.889
1883.28	328.667
1885.34	340
1887.4	334.889
1889.45	342.444
1891.5	338.444
1893.56	341.778
1895.61	337.333
1897.66	337.556
1899.71	333.111
1901.76	337.778
1903.81	341.333
1905.86	342.444
1907.91	335.111
1909.96	334
1912.01	336.667
1914.05	340.444
1916.1	340
1918.15	339.778
1920.19	338.444
1922.23	333.111
1924.28	340
1926.32	336.222
1928.36	339.556
1930.41	332.667
1932.45	337.556
1934.49	333.333
1936.53	328.889
1938.57	335.778
1940.61	328.444
1942.64	325.556
1944.68	328.667
1946.72	324.889
1948.76	334.667
1950.79	327.556
1952.83	331.556
1954.86	337.778
1956.89	331.556
1958.93	330.889
1960.96	325.778
1962.99	328.667
1965.03	323.778
1967.06	329.556
1969.09	329.778
1971.12	327.111
1973.14	317.778
1975.17	322.444
1977.2	324.889
1979.23	322
1981.25	316.444
1983.28	322.444
1985.31	319.778
1987.33	320.444
1989.36	324.444
1991.38	325.778
1993.4	326.222
1995.42	317.556
1997.45	317.556
1999.47	323.778
2001.49	318.889
2003.51	322.889
2005.53	315.778
2007.55	319.778
2009.56	321.778
2011.58	313.333
2013.6	316.444
2015.61	318.222
2017.63	316.889
2019.65	319.111
2021.66	317.333
2023.67	321.778
2025.69	318.222
2027.7	318.222
2029.71	313.556
2031.72	313.333
2033.73	323.556
2035.74	313.333
2037.75	313.333
2039.76	323.556
2041.77	320.667
2043.78	318
2045.79	318
2047.79	316
2049.8	313.778
2051.8	312
2053.81	309.111
2055.81	310.889
2057.82	310.889
2059.82	314.444
2061.82	303.778
2063.82	310.444
2065.83	308.667
2067.83	305.778
2069.83	305.111
2071.83	306.222
2073.82	303.556
2075.82	305.111
2077.82	312
2079.82	310.889
2081.81	304.667
2083.81	308.889
2085.8	310
2087.8	311.556
2089.79	304.444
2091.79	310.889
2093.78	303.333
2095.77	301.556
2097.76	301.333
2099.76	300.667
2101.75	306.444
2103.74	304
2105.72	299.556
2107.71	297.556
2109.7	296.667
2111.69	299.333
2113.68	302.444
2115.66	305.333
2117.65	300.889
2119.63	301.111
2121.62	298.667
2123.6	289.111
2125.59	296.889
2127.57	299.556
2129.55	295.778
2131.53	294.444
2133.51	304
2135.49	303.111
2137.47	298.444
2139.45	294.889
2141.43	296.667
2143.41	295.111
2145.39	294.444
2147.36	286.889
2149.34	288.667
2151.32	295.556
2153.29	290.444
2155.27	294.444
2157.24	292
2159.21	297.333
2161.19	298.667
2163.16	284.444
2165.13	277.111
2167.1	297.333
2169.07	283.556
2171.04	289.333
2173.01	287.333
2174.98	288.667
2176.95	288.667
2178.92	285.111
2180.88	282.444
2182.85	278.444
2184.81	289.556
2186.78	286
2188.74	282.889
2190.71	285.556
2192.67	282
2194.63	282.222
2196.6	283.111
2198.56	284
2200.52	284.667
2202.48	286
2204.44	268
2206.4	277.778
2208.36	277.778
2210.32	273.111
2212.28	270.667
2214.23	276.889
2216.19	285.556
2218.14	278.222
2220.1	277.333
2222.05	279.556
2224.01	272.444
2225.96	280
2227.91	276
2229.87	280.444
2231.82	268.889
2233.77	267.111
2235.72	273.778
2237.67	275.778
2239.62	271.556
2241.57	275.556
2243.52	275.111
2245.47	275.556
2247.41	279.556
2249.36	270.444
2251.31	275.333
2253.25	269.778
2255.2	274.444
2257.14	269.111
2259.09	265.333
2261.03	267.333
2262.97	266.444
2264.91	262.444
2266.85	270.222
2268.8	264
2270.74	266.444
2272.68	269.111
2274.61	260.889
2276.55	272
2278.49	257.778
2280.43	262.667
2282.37	259.556
2284.3	266.222
2286.24	249.778
2288.17	255.556
2290.11	259.556
2292.04	253.333
2293.98	258.444
2295.91	263.778
2297.84	260.444
2299.77	257.333
2301.7	261.333
2303.64	263.111
2305.56	258
2307.49	255.556
2309.42	261.556
2311.35	259.556
2313.28	257.556
2315.21	254.444
2317.13	249.333
2319.06	251.333
2320.99	257.111
2322.91	253.333
2324.84	261.333
2326.76	250.667
2328.68	260.222
2330.6	256.889
2332.53	253.111
2334.45	250.444
2336.37	254.889
2338.29	260.889
2340.21	256
2342.13	254.222
2344.05	251.556
2345.97	251.333
2347.89	259.556
2349.8	249.333
2351.72	250.444
2353.63	244.444
2355.55	249.333
2357.47	248.889
2359.38	253.778
2361.29	247.333
2363.21	249.778
2365.12	245.111
2367.03	251.556
2368.94	245.778
2370.85	244.889
2372.76	244
2374.67	240.444
2376.58	244
2378.49	243.111
2380.4	243.333
2382.31	249.778
2384.21	237.333
2386.12	241.333
2388.03	243.556
2389.93	240.222
2391.84	236.444
2393.74	241.778
2395.64	243.111
2397.55	235.111
2399.45	242.889
2401.35	237.111
2403.25	235.778
2405.15	238.667
2407.05	244.444
2408.95	241.111
2410.85	240.222
2412.75	238.889
2414.65	243.333
2416.55	239.778
2418.45	234.889
2420.34	234
2422.24	244.444
2424.13	232
2426.03	243.111
2427.92	236.667
2429.82	235.111
2431.71	234.889
2433.6	236.667
2435.49	228
2437.39	233.556
2439.28	237.778
2441.17	232.222
2443.06	233.556
2444.95	238
2446.83	232.222
2448.72	234.667
2450.61	230.667
2452.5	229.333
2454.39	234.222
