178.677	246
181.278	249.333
183.879	247.333
186.48	244
189.078	238.222
191.677	240.444
194.275	236.222
196.871	238.889
199.467	234.222
202.061	229.778
204.656	228.222
207.248	231.333
209.841	244
212.431	240.889
215.022	240.444
217.613	246.667
220.201	252.889
222.789	251.556
225.375	260.222
227.962	248.667
230.547	248.889
233.13	252.222
235.714	266.444
238.296	269.111
240.879	267.778
243.459	262.667
246.04	262.444
248.618	267.333
251.196	265.778
253.774	260.444
256.35	269.778
258.927	266.889
261.501	262.222
264.074	257.333
266.648	251.556
269.22	248.222
271.791	240.667
274.362	238.222
276.931	240.444
279.5	226.889
282.069	225.333
284.635	227.333
287.201	219.333
289.766	216.444
292.331	216.444
294.894	214.222
297.457	211.778
300.018	206.667
302.58	212
305.14	216.667
307.699	208.444
310.257	210.222
312.814	212
315.372	211.111
317.928	205.111
320.482	206.444
323.036	211.333
325.589	215.333
328.142	214
330.693	214.222
333.243	204.667
335.795	210.444
338.343	216
340.891	212.444
343.439	217.778
345.985	210.667
348.53	217.556
351.075	213.333
353.619	215.556
356.162	217.111
358.704	214.667
361.245	214.889
363.786	217.556
366.325	223.778
368.864	217.111
371.402	218.222
373.939	216.222
376.475	221.111
379.011	217.778
381.545	219.778
384.079	216.667
386.612	228.444
389.144	224.889
391.674	224.667
394.204	217.111
396.734	217.111
399.263	224.444
401.791	223.778
404.318	228
406.844	230
409.368	222.667
411.893	236.667
414.417	218.889
416.94	232.444
419.462	225.111
421.982	224.444
424.502	224.444
427.022	226.222
429.541	222.667
432.057	227.556
434.574	229.111
437.091	225.333
439.606	223.778
442.12	236.667
444.634	231.778
447.147	232.222
449.657	229.556
452.169	229.556
454.68	230.222
457.188	227.778
459.697	230.222
462.205	233.111
464.711	231.556
467.217	229.111
469.722	232
472.227	226.889
474.731	237.556
477.232	221.333
479.735	228.889
482.235	235.556
484.736	237.778
487.234	230.667
489.734	236.444
492.23	239.778
494.728	238.889
497.223	240.444
499.719	235.333
502.213	240
504.707	232.444
507.199	241.778
509.692	238.444
512.182	243.556
514.673	244.889
517.162	241.333
519.65	244.444
522.139	238
524.625	250.222
527.112	242.222
529.597	253.333
532.081	255.111
534.565	247.556
537.047	249.333
539.529	256.222
542.011	254
544.491	263.778
546.97	262.667
549.45	259.333
551.927	266.222
554.404	262.667
556.88	267.556
559.356	266
561.831	270.667
564.304	275.556
566.777	273.111
569.25	278.889
571.721	277.778
574.191	275.556
576.661	280.444
579.129	278.889
581.599	292
584.066	277.333
586.532	284.444
588.997	282.667
591.462	266.667
593.926	275.778
596.389	268.889
598.851	267.333
601.314	267.778
603.775	259.556
606.235	265.778
608.694	257.111
611.152	263.556
613.609	257.556
616.066	268.889
618.522	268.444
620.977	267.111
623.431	259.111
625.885	269.778
628.338	266.667
630.79	267.778
633.241	268.889
635.691	260
638.141	262.667
640.589	263.778
643.036	262.889
645.483	274
647.929	266.222
650.375	262.889
652.82	257.111
655.264	265.333
657.707	264.889
660.149	263.556
662.59	259.556
665.031	265.333
667.471	265.333
669.91	258.667
672.349	265.111
674.786	262.889
677.222	261.778
679.658	264.889
682.093	253.778
684.528	259.556
686.96	261.556
689.393	259.556
691.826	265.333
694.256	258.222
696.686	265.778
699.116	266
701.545	262.444
703.972	259.556
706.4	267.111
708.826	258.444
711.251	266.444
713.676	266.222
716.099	259.333
718.523	262.667
720.946	265.778
723.366	260.889
725.788	258
728.207	266
730.627	266.444
733.044	272.444
735.462	262.222
737.88	266.222
740.295	260.889
742.711	260.889
745.125	262
747.539	262.667
749.951	257.556
752.363	268.889
754.775	262
757.185	259.778
759.595	267.556
762.003	274
764.412	274
766.819	264.889
769.225	270.444
771.632	265.556
774.036	269.333
776.441	265.333
778.844	276.222
781.246	270.444
783.649	269.778
786.05	268.667
788.449	270.889
790.85	265.111
793.248	274.444
795.646	273.556
798.042	279.333
800.44	274.667
802.835	276.889
805.23	280
807.623	278.667
810.018	274.667
812.41	277.333
814.801	280.222
817.192	280.889
819.582	278.222
821.972	276
824.361	278.222
826.748	276.222
829.135	280.889
831.521	275.778
833.907	279.556
836.291	279.111
838.675	280.222
841.059	287.778
843.442	284.889
845.823	284
848.204	293.333
850.584	292.444
852.963	296
855.342	305.111
857.72	303.556
860.097	309.111
862.473	310.667
864.848	295.778
867.223	285.778
869.597	287.111
871.97	288.889
874.343	282.889
876.714	286.444
879.084	284.667
881.454	291.333
883.824	287.556
886.192	284.444
888.56	284.889
890.927	282.889
893.294	279.111
895.66	283.778
898.023	282.889
900.387	280
902.751	285.111
905.114	277.556
907.476	279.111
909.835	278
912.196	277.333
914.555	270.667
916.914	274.889
919.271	278
921.629	274.889
923.985	275.556
926.341	274.889
928.695	277.556
931.05	270
933.404	284.222
935.755	274.222
938.107	283.556
940.459	290.889
942.808	282.222
945.158	282.889
947.508	286.444
949.855	277.111
952.202	279.556
954.548	285.111
956.894	286.889
959.239	283.778
961.583	283.333
963.928	278.222
966.27	284.222
968.612	284.444
970.953	295.778
973.294	289.778
975.633	277.333
977.972	286.667
980.31	289.556
982.647	288.444
984.984	294.222
987.32	293.111
989.656	288.444
991.989	299.111
994.324	305.778
996.656	299.556
998.988	305.556
1001.32	314.444
1003.65	327.778
1005.98	342.667
1008.31	381.111
1010.64	447.333
1012.97	509.778
1015.29	506
1017.62	436.667
1019.94	416.667
1022.27	404.444
1024.59	374.222
1026.92	350.667
1029.24	326.667
1031.56	322.889
1033.88	337.556
1036.2	360.444
1038.52	392
1040.84	378.444
1043.16	348.444
1045.48	330.667
1047.79	315.556
1050.11	311.556
1052.42	323.333
1054.74	308.667
1057.05	307.556
1059.36	305.111
1061.67	306
1063.99	303.778
1066.3	307.556
1068.61	300
1070.92	306.444
1073.22	299.778
1075.53	302.222
1077.84	301.778
1080.15	295.556
1082.45	294.444
1084.76	299.333
1087.06	289.111
1089.36	299.556
1091.66	294.444
1093.97	286.444
1096.27	295.556
1098.57	298.889
1100.87	302.222
1103.17	305.111
1105.46	306
1107.76	308.889
1110.06	296.889
1112.35	301.778
1114.65	308
1116.94	298.444
1119.24	298.667
1121.53	299.556
1123.82	302
1126.11	299.111
1128.4	299.111
1130.7	300.889
1132.98	301.556
1135.27	300.222
1137.56	292.889
1139.85	303.111
1142.13	299.556
1144.42	303.778
1146.71	301.778
1148.99	310
1151.27	312.222
1153.56	309.556
1155.84	309.111
1158.12	307.333
1160.4	305.333
1162.68	307.333
1164.96	302.889
1167.24	304.889
1169.51	312.889
1171.79	312.222
1174.07	305.333
1176.34	311.556
1178.62	312.667
1180.89	308
1183.17	310
1185.44	310
1187.71	301.333
1189.98	315.556
1192.25	317.111
1194.52	309.333
1196.79	309.333
1199.06	312.444
1201.33	316
1203.59	306
1205.86	310.222
1208.12	310.667
1210.39	311.778
1212.65	318.889
1214.92	303.333
1217.18	317.333
1219.44	314
1221.7	316.222
1223.96	314.667
1226.22	327.556
1228.48	315.778
1230.74	326.222
1233	331.111
1235.25	329.556
1237.51	330.444
1239.77	333.333
1242.02	328.667
1244.27	332.222
1246.53	323.778
1248.78	323.333
1251.03	320.889
1253.28	324.222
1255.53	316.667
1257.78	327.556
1260.03	328.444
1262.28	327.556
1264.53	329.778
1266.78	330.444
1269.02	332.667
1271.27	337.778
1273.51	326.667
1275.76	339.333
1278	335.111
1280.24	337.556
1282.48	323.556
1284.72	320.667
1286.97	330
1289.21	316.889
1291.44	326
1293.68	312
1295.92	316.444
1298.16	327.556
1300.39	319.333
1302.63	324.444
1304.86	325.556
1307.1	325.111
1309.33	314.889
1311.56	322.444
1313.8	320.889
1316.03	319.333
1318.26	322
1320.49	322.222
1322.72	324.889
1324.95	322.889
1327.17	320
1329.4	327.111
1331.63	327.111
1333.85	327.111
1336.08	324.889
1338.3	325.778
1340.53	333.333
1342.75	329.333
1344.97	340.444
1347.19	337.778
1349.41	334.889
1351.63	338.667
1353.85	341.556
1356.07	332.667
1358.29	330.444
1360.51	327.333
1362.72	330.667
1364.94	327.778
1367.16	328.444
1369.37	324.222
1371.58	327.778
1373.8	324.444
1376.01	317.778
1378.22	320.667
1380.43	325.778
1382.64	327.556
1384.85	322
1387.06	320.444
1389.27	320
1391.48	319.333
1393.68	314.222
1395.89	318.222
1398.1	314.889
1400.3	319.778
1402.51	318.222
1404.71	316
1406.91	311.111
1409.11	316.667
1411.32	317.111
1413.52	306
1415.72	311.556
1417.92	315.333
1420.11	315.333
1422.31	322.222
1424.51	316.667
1426.71	328.444
1428.9	320.222
1431.1	328.667
1433.29	311.333
1435.49	329.333
1437.68	320.667
1439.87	324
1442.06	320.667
1444.25	328.222
1446.45	326.667
1448.64	327.556
1450.82	324.667
1453.01	321.556
1455.2	306.667
1457.39	322
1459.57	319.556
1461.76	325.333
1463.94	328
1466.13	319.778
1468.31	317.778
1470.5	327.778
1472.68	327.556
1474.86	318.222
1477.04	326.889
1479.22	327.778
1481.4	326.889
1483.58	323.778
1485.76	321.333
1487.94	320.444
1490.11	320.222
1492.29	319.556
1494.46	321.333
1496.64	318.444
1498.81	328.222
1500.99	316.222
1503.16	327.333
1505.33	321.556
1507.5	317.333
1509.67	324.222
1511.84	322.667
1514.01	318.667
1516.18	312.889
1518.35	326.444
1520.52	318.889
1522.68	322.222
1524.85	326.444
1527.02	325.111
1529.18	328.889
1531.35	329.333
1533.51	325.111
1535.67	326
1537.83	344.667
1539.99	323.111
1542.16	333.556
1544.31	330.889
1546.47	321.333
1548.63	333.111
1550.79	326.667
1552.95	335.111
1555.11	331.778
1557.26	331.556
1559.42	324.667
1561.57	329.556
1563.73	327.111
1565.88	338.667
1568.03	326
1570.18	339.111
1572.34	336.667
1574.49	343.111
1576.64	341.778
1578.79	332.667
1580.93	339.778
1583.08	337.333
1585.23	341.556
1587.38	348.222
1589.52	337.778
1591.67	350.444
1593.81	358.889
1595.96	351.333
1598.1	359.778
1600.24	363.556
1602.38	368.667
1604.53	362.667
1606.67	357.333
1608.81	355.556
1610.95	351.111
1613.09	342.889
1615.22	341.556
1617.36	339.111
1619.5	327.556
1621.63	324.444
1623.77	331.556
1625.9	327.556
1628.04	332.889
1630.17	326.667
1632.3	325.111
1634.44	331.333
1636.57	322.444
1638.7	314
1640.83	327.556
1642.96	312
1645.09	311.333
1647.22	316.444
1649.34	316.889
1651.47	308.222
1653.6	303.111
1655.72	310.667
1657.85	310.222
1659.97	300.667
1662.1	301.333
1664.22	308.667
1666.34	305.556
1668.46	312.889
1670.58	304.667
1672.7	299.556
1674.82	299.778
1676.94	302
1679.06	296
1681.18	296.444
1683.3	299.111
1685.41	299.556
1687.53	296.889
1689.64	296.889
1691.76	297.778
1693.87	295.111
1695.99	305.333
1698.1	295.556
1700.21	290.889
1702.32	295.111
1704.43	289.556
1706.54	291.778
1708.65	295.778
1710.76	291.333
1712.87	281.111
1714.98	288.444
1717.08	292
1719.19	286.889
1721.29	289.111
1723.4	291.556
1725.5	282.222
1727.61	288.889
1729.71	287.111
1731.81	286.444
1733.91	282.889
1736.02	285.778
1738.12	295.778
1740.22	287.778
1742.31	288.222
1744.41	287.333
1746.51	278.889
1748.61	280.444
1750.7	283.111
1752.8	276.444
1754.9	282.667
1756.99	284.222
1759.08	283.556
1761.18	275.556
1763.27	284.444
1765.36	284.667
1767.45	278.222
1769.54	284.667
1771.63	280
1773.72	287.778
1775.81	280.222
1777.9	282.222
1779.99	281.111
1782.08	277.556
1784.16	277.556
1786.25	277.111
1788.33	269.556
1790.42	278.889
1792.5	279.778
1794.58	276.889
1796.67	275.556
1798.75	272.667
1800.83	277.333
1802.91	275.778
1804.99	272.222
1807.07	273.556
1809.15	284.889
1811.23	274.889
1813.3	272
1815.38	277.111
1817.46	270.222
1819.53	274.444
1821.61	278.667
1823.68	274.222
1825.75	274.444
1827.83	273.333
1829.9	270.222
1831.97	272.444
1834.04	277.778
1836.11	270.889
1838.18	274.222
1840.25	270
1842.32	269.333
1844.39	258.889
1846.46	267.333
1848.52	272.444
1850.59	269.111
1852.65	274.222
1854.72	268
1856.78	268.444
1858.85	269.556
1860.91	271.111
1862.97	261.778
1865.03	265.111
1867.09	269.333
1869.16	268.667
1871.22	272.667
1873.27	274.889
1875.33	266.222
1877.39	270.444
1879.45	269.333
1881.51	260.889
1883.56	263.111
1885.62	264.889
1887.67	270
1889.73	271.778
1891.78	262
1893.83	262
1895.89	268.222
1897.94	269.556
1899.99	267.778
1902.04	262
1904.09	269.333
1906.14	264.889
1908.19	266.444
1910.23	272.222
1912.28	264
1914.33	259.778
1916.37	262.222
1918.42	269.778
1920.46	267.333
1922.51	266.222
1924.55	266.889
1926.6	264.667
1928.64	260.222
1930.68	263.111
1932.72	267.556
1934.76	259.556
1936.8	258.667
1938.84	258.889
1940.88	265.111
1942.92	266.222
1944.96	267.333
1946.99	260.222
1949.03	264.889
1951.06	264.444
1953.1	257.556
1955.13	256.667
1957.17	259.333
1959.2	259.556
1961.23	264.444
1963.27	265.778
1965.3	255.778
1967.33	264.222
1969.36	259.778
1971.39	260.889
1973.42	265.778
1975.44	255.556
1977.47	250.222
1979.5	256
1981.53	259.111
1983.55	254
1985.58	259.111
1987.6	256
1989.63	258
1991.65	254
1993.67	261.778
1995.69	253.556
1997.72	256.667
1999.74	262.444
2001.76	259.111
2003.78	253.111
2005.8	257.778
2007.82	261.778
2009.83	261.333
2011.85	257.778
2013.87	258.667
2015.88	255.333
2017.9	259.333
2019.91	256.667
2021.93	252.444
2023.94	254.667
2025.96	263.556
2027.97	261.333
2029.98	260.889
2031.99	260.889
2034	256.444
2036.01	255.111
2038.02	257.111
2040.03	255.556
2042.04	255.778
2044.05	255.778
2046.05	253.556
2048.06	248.889
2050.07	262.667
2052.07	260.889
2054.08	254.444
2056.08	252.889
2058.08	250.889
2060.09	255.333
2062.09	259.111
2064.09	261.778
2066.09	256.667
2068.09	262.444
2070.09	252.222
2072.09	250.889
2074.09	256.222
2076.09	254.889
2078.09	252.889
2080.08	253.778
2082.08	243.111
2084.08	248.222
2086.07	251.556
2088.07	253.333
2090.06	253.778
2092.05	248.444
2094.05	252.222
2096.04	254.667
2098.03	252.667
2100.02	247.778
2102.01	256.889
2104	247.556
2105.99	254.222
2107.98	246.889
2109.97	253.556
2111.95	253.778
2113.94	255.333
2115.93	247.111
2117.91	252
2119.9	256.444
2121.88	256
2123.87	251.111
2125.85	259.111
2127.83	256.889
2129.81	255.778
2131.8	252.222
2133.78	260
2135.76	248.444
2137.74	259.556
2139.72	252.667
2141.69	251.556
2143.67	258
2145.65	258.667
2147.63	248.889
2149.6	249.333
2151.58	254.667
2153.55	256.667
2155.53	254
2157.5	255.556
2159.48	255.778
2161.45	254.222
2163.42	255.111
2165.39	260
2167.36	259.556
2169.33	259.333
2171.3	266.889
2173.27	259.556
2175.24	262.444
2177.21	264.667
2179.18	263.556
2181.14	263.333
2183.11	261.111
2185.07	264.444
2187.04	263.111
2189	252.667
2190.97	263.111
2192.93	256.667
2194.89	258.667
2196.86	253.333
2198.82	248
2200.78	252.222
2202.74	245.556
2204.7	252
2206.66	252.667
2208.62	250
2210.57	248.222
2212.53	246.667
2214.49	246.222
2216.45	245.333
2218.4	244.667
2220.36	239.333
2222.31	242.889
2224.27	244.667
2226.22	239.333
2228.17	240.667
2230.12	245.333
2232.08	238.222
2234.03	242.667
2235.98	242.889
2237.93	244.889
2239.88	239.333
2241.83	248
2243.78	239.778
2245.72	240
2247.67	247.111
2249.62	235.778
2251.56	243.556
2253.51	239.556
2255.45	239.778
2257.4	238
2259.34	233.333
2261.28	238.222
2263.23	241.333
2265.17	233.556
2267.11	237.556
2269.05	231.111
2270.99	235.333
2272.93	233.333
2274.87	237.333
2276.81	236.444
2278.75	234.222
2280.68	239.556
2282.62	243.333
2284.56	238
2286.49	235.778
2288.43	238.222
2290.36	238.222
2292.3	232.889
2294.23	234.889
2296.16	236
2298.09	235.778
2300.03	231.333
2301.96	229.556
2303.89	227.111
2305.82	232.444
2307.75	235.111
2309.68	229.556
2311.6	226.444
2313.53	232.889
2315.46	225.333
2317.39	235.556
2319.31	228.889
2321.24	233.556
2323.16	232.444
2325.09	231.333
2327.01	227.111
2328.93	232.889
2330.86	240.667
2332.78	227.333
2334.7	227.111
2336.62	231.333
2338.54	234.889
2340.46	223.778
2342.38	227.556
2344.3	231.333
2346.22	234.667
2348.14	229.111
2350.05	228.222
2351.97	233.778
2353.89	221.111
2355.8	226.889
2357.71	225.111
2359.63	230.889
2361.54	228.444
2363.46	228.444
2365.37	222.667
2367.28	229.556
2369.19	221.111
2371.1	231.778
2373.01	225.556
2374.92	227.778
2376.83	227.111
2378.74	225.778
2380.65	227.556
2382.56	218.667
2384.46	222.889
2386.37	230.889
2388.27	223.556
2390.18	227.333
2392.08	222.222
2393.99	227.778
2395.89	222.889
2397.8	222.667
2399.7	222.444
2401.6	216.667
2403.5	228.444
2405.4	212.667
2407.3	223.778
2409.2	221.778
2411.1	222.222
2413	221.778
2414.9	224.889
2416.8	219.778
2418.69	227.333
2420.59	220.222
2422.48	220.889
2424.38	226.889
2426.28	217.333
2428.17	223.778
2430.06	229.333
2431.96	222.222
2433.85	228.667
2435.74	220.222
2437.63	216.444
2439.52	221.333
2441.41	226.667
2443.3	220.889
2445.19	226.889
2447.08	236.222
