178.677	207.333
181.278	204.222
183.879	212.444
186.48	206.222
189.078	206.889
191.677	206.444
194.275	206
196.871	204.667
199.467	202.889
202.061	202.667
204.656	197.556
207.248	199.556
209.841	202.889
212.431	203.333
215.022	200.444
217.613	204
220.201	204
222.789	210.222
225.375	208.444
227.962	210
230.547	211.111
233.13	218
235.714	219.556
238.296	221.111
240.879	220.889
243.459	218.889
246.04	222.222
248.618	224.222
251.196	222.222
253.774	225.556
256.35	226.889
258.927	217.111
261.501	217.778
264.074	217.556
266.648	215.111
269.22	207.778
271.791	205.111
274.362	201.556
276.931	206.444
279.5	200.222
282.069	190
284.635	193.778
287.201	192.444
289.766	196.222
292.331	192.222
294.894	192
297.457	194.667
300.018	190.889
302.58	185.111
305.14	191.111
307.699	195.333
310.257	188.667
312.814	194
315.372	194
317.928	189.556
320.482	194.444
323.036	186.444
325.589	186.889
328.142	188.444
330.693	188.667
333.243	189.111
335.795	194.444
338.343	191.333
340.891	189.556
343.439	191.556
345.985	193.333
348.53	193.111
351.075	196.222
353.619	194.222
356.162	195.778
358.704	194.222
361.245	199.111
363.786	188
366.325	195.333
368.864	198
371.402	197.111
373.939	202
376.475	199.556
379.011	194.889
381.545	195.111
384.079	201.556
386.612	199.778
389.144	203.778
391.674	196.222
394.204	201.111
396.734	201.111
399.263	200.667
401.791	198
404.318	197.556
406.844	202.667
409.368	204.667
411.893	201.111
414.417	201.778
416.94	195.778
419.462	202.444
421.982	203.778
424.502	203.778
427.022	202.444
429.541	201.333
432.057	199.778
434.574	207.111
437.091	203.556
439.606	198.889
442.12	208
444.634	201.556
447.147	203.111
449.657	204.889
452.169	206.889
454.68	206.222
457.188	201.778
459.697	207.556
462.205	212.667
464.711	204.667
467.217	200
469.722	207.111
472.227	202.889
474.731	209.111
477.232	207.111
479.735	209.556
482.235	215.333
484.736	208.222
487.234	209.111
489.734	201.111
492.23	203.333
494.728	204.222
497.223	210.222
499.719	215.333
502.213	213.778
504.707	214
507.199	210
509.692	216.667
512.182	214.222
514.673	216.444
517.162	216.444
519.65	216
522.139	214.889
524.625	217.111
527.112	219.778
529.597	218.222
532.081	222.667
534.565	219.111
537.047	220.222
539.529	219.778
542.011	223.111
544.491	224
546.97	229.111
549.45	226.667
551.927	224.889
554.404	228.222
556.88	218
559.356	227.778
561.831	224
564.304	221.778
566.777	228.444
569.25	226.889
571.721	238.667
574.191	238.222
576.661	246.444
579.129	246
581.599	237.556
584.066	234.222
586.532	241.778
588.997	229.778
591.462	236.444
593.926	231.333
596.389	225.111
598.851	220
601.314	230.444
603.775	229.333
606.235	221.333
608.694	225.111
611.152	231.778
613.609	233.778
616.066	226.222
618.522	224.444
620.977	230.667
623.431	224.222
625.885	230
628.338	229.556
630.79	228.667
633.241	225.333
635.691	227.333
638.141	233.556
640.589	224.444
643.036	234.444
645.483	229.556
647.929	227.556
650.375	227.333
652.82	234.222
655.264	231.111
657.707	224.444
660.149	230.667
662.59	232
665.031	228.444
667.471	228.667
669.91	223.778
672.349	234.222
674.786	234
677.222	229.111
679.658	237.556
682.093	228.444
684.528	227.778
686.96	227.556
689.393	235.111
691.826	228.444
694.256	233.556
696.686	228.889
699.116	231.333
701.545	234.222
703.972	230
706.4	233.333
708.826	234.222
711.251	226.222
713.676	238
716.099	239.556
718.523	231.556
720.946	234.667
723.366	231.778
725.788	234.667
728.207	229.778
730.627	230.222
733.044	228.444
735.462	227.778
737.88	232.222
740.295	231.111
742.711	241.778
745.125	231.556
747.539	235.556
749.951	233.556
752.363	232.667
754.775	232.444
757.185	230.222
759.595	232
762.003	237.111
764.412	238.222
766.819	229.111
769.225	238.222
771.632	235.556
774.036	234.222
776.441	242.444
778.844	240.222
781.246	241.778
783.649	242
786.05	241.556
788.449	238.222
790.85	241.333
793.248	237.333
795.646	242.444
798.042	245.333
800.44	245.111
802.835	247.556
805.23	237.333
807.623	250.222
810.018	247.778
812.41	242.444
814.801	236.889
817.192	242.667
819.582	247.778
821.972	239.111
824.361	243.111
826.748	245.111
829.135	246.222
831.521	243.333
833.907	247.111
836.291	251.111
838.675	248.667
841.059	246.889
843.442	250.444
845.823	255.111
848.204	259.333
850.584	253.556
852.963	257.778
855.342	269.556
857.72	264.444
860.097	263.556
862.473	263.111
864.848	256.222
867.223	252.667
869.597	254.444
871.97	244.889
874.343	245.111
876.714	246.222
879.084	242.889
881.454	237.778
883.824	242.889
886.192	245.778
888.56	244.667
890.927	245.333
893.294	254.444
895.66	243.111
898.023	244.222
900.387	247.111
902.751	244.444
905.114	248.222
907.476	237.778
909.835	244.889
912.196	239.333
914.555	242.222
916.914	239.333
919.271	238.444
921.629	244.889
923.985	242.667
926.341	246.667
928.695	236.889
931.05	246.222
933.404	239.778
935.755	238.444
938.107	245.333
940.459	243.778
942.808	245.556
945.158	242.667
947.508	245.111
949.855	238.667
952.202	250.222
954.548	240.222
956.894	245.556
959.239	241.111
961.583	248
963.928	246
966.27	240.667
968.612	246.889
970.953	244
973.294	247.556
975.633	252
977.972	252
980.31	253.333
982.647	254.444
984.984	244
987.32	248
989.656	249.556
991.989	254.444
994.324	258
996.656	255.333
998.988	262.889
1001.32	262.667
1003.65	276.889
1005.98	280
1008.31	297.333
1010.64	341.778
1012.97	359.556
1015.29	361.556
1017.62	324.444
1019.94	332.222
1022.27	333.333
1024.59	319.333
1026.92	295.778
1029.24	282.222
1031.56	286.667
1033.88	281.111
1036.2	290.667
1038.52	302.444
1040.84	290.667
1043.16	275.333
1045.48	270.222
1047.79	275.111
1050.11	273.778
1052.42	263.556
1054.74	274.444
1057.05	254.889
1059.36	260
1061.67	258
1063.99	266.222
1066.3	257.333
1068.61	261.111
1070.92	258.222
1073.22	252.222
1075.53	259.778
1077.84	249.333
1080.15	251.556
1082.45	248.667
1084.76	246
1087.06	249.778
1089.36	249.556
1091.66	252.222
1093.97	257.778
1096.27	249.333
1098.57	260.222
1100.87	253.778
1103.17	256.222
1105.46	257.111
1107.76	251.556
1110.06	257.333
1112.35	264.222
1114.65	257.333
1116.94	251.556
1119.24	259.333
1121.53	245.556
1123.82	249.556
1126.11	242.889
1128.4	250.889
1130.7	248
1132.98	249.333
1135.27	250.889
1137.56	249.778
1139.85	256.222
1142.13	254.444
1144.42	242.889
1146.71	254.667
1148.99	252
1151.27	254.222
1153.56	253.333
1155.84	255.111
1158.12	255.556
1160.4	259.778
1162.68	262.222
1164.96	258.667
1167.24	252.222
1169.51	253.556
1171.79	252.889
1174.07	253.778
1176.34	260.444
1178.62	262.667
1180.89	261.556
1183.17	261.111
1185.44	261.778
1187.71	258.667
1189.98	258.444
1192.25	259.556
1194.52	260.222
1196.79	250.889
1199.06	247.333
1201.33	252.444
1203.59	254.667
1205.86	264.444
1208.12	255.111
1210.39	259.556
1212.65	262.444
1214.92	265.333
1217.18	258.667
1219.44	261.778
1221.7	260.222
1223.96	261.111
1226.22	256.444
1228.48	266.889
1230.74	278.222
1233	265.778
1235.25	270.222
1237.51	274.222
1239.77	272.444
1242.02	270.667
1244.27	268
1246.53	273.111
1248.78	268
1251.03	260
1253.28	264.889
1255.53	272.222
1257.78	268.889
1260.03	270
1262.28	268.222
1264.53	264
1266.78	269.333
1269.02	280.222
1271.27	269.556
1273.51	273.333
1275.76	273.333
1278	277.111
1280.24	274
1282.48	271.333
1284.72	267.556
1286.97	266
1289.21	271.778
1291.44	264.667
1293.68	272
1295.92	270.444
1298.16	273.333
1300.39	279.333
1302.63	275.333
1304.86	269.556
1307.1	255.556
1309.33	270.889
1311.56	262.444
1313.8	266.667
1316.03	260.667
1318.26	264.444
1320.49	262.667
1322.72	261.778
1324.95	265.111
1327.17	267.556
1329.4	264.444
1331.63	264.667
1333.85	267.111
1336.08	271.111
1338.3	267.111
1340.53	266.444
1342.75	270.667
1344.97	272.444
1347.19	278.222
1349.41	275.556
1351.63	270.667
1353.85	273.111
1356.07	269.333
1358.29	269.111
1360.51	271.778
1362.72	268
1364.94	267.111
1367.16	277.556
1369.37	268.667
1371.58	270.444
1373.8	270.667
1376.01	260.667
1378.22	267.778
1380.43	265.333
1382.64	273.333
1384.85	270.889
1387.06	262.889
1389.27	266
1391.48	265.778
1393.68	260.889
1395.89	263.111
1398.1	263.778
1400.3	261.333
1402.51	253.111
1404.71	255.778
1406.91	264.444
1409.11	256.889
1411.32	267.111
1413.52	260.889
1415.72	256.222
1417.92	265.778
1420.11	262.222
1422.31	260.444
1424.51	254.667
1426.71	258
1428.9	264.667
1431.1	266.222
1433.29	265.333
1435.49	270
1437.68	263.333
1439.87	264.889
1442.06	262.444
1444.25	265.333
1446.45	262.222
1448.64	272.444
1450.82	272.667
1453.01	263.778
1455.2	262.667
1457.39	264.889
1459.57	260.667
1461.76	261.111
1463.94	262.667
1466.13	260
1468.31	257.778
1470.5	264.667
1472.68	265.333
1474.86	260.889
1477.04	262
1479.22	264.444
1481.4	254.222
1483.58	263.556
1485.76	262.667
1487.94	259.333
1490.11	257.111
1492.29	259.556
1494.46	256.222
1496.64	260.222
1498.81	260.667
1500.99	257.778
1503.16	256.889
1505.33	259.556
1507.5	260
1509.67	262.444
1511.84	256
1514.01	255.556
1516.18	267.778
1518.35	259.111
1520.52	261.333
1522.68	258.667
1524.85	257.333
1527.02	259.111
1529.18	259.333
1531.35	262.444
1533.51	264.667
1535.67	264.667
1537.83	269.333
1539.99	267.111
1542.16	263.111
1544.31	270
1546.47	266
1548.63	259.333
1550.79	262
1552.95	259.556
1555.11	264.667
1557.26	257.556
1559.42	264.889
1561.57	274.444
1563.73	265.333
1565.88	271.333
1568.03	264
1570.18	261.333
1572.34	269.556
1574.49	264.889
1576.64	270
1578.79	267.778
1580.93	271.333
1583.08	269.778
1585.23	269.111
1587.38	279.111
1589.52	277.111
1591.67	271.111
1593.81	281.556
1595.96	285.111
1598.1	290.667
1600.24	289.111
1602.38	291.333
1604.53	292.444
1606.67	290.444
1608.81	290.444
1610.95	283.333
1613.09	284.222
1615.22	275.111
1617.36	273.778
1619.5	271.556
1621.63	263.778
1623.77	265.778
1625.9	263.556
1628.04	264.889
1630.17	259.111
1632.3	255.111
1634.44	261.333
1636.57	258.889
1638.7	260.444
1640.83	255.556
1642.96	253.333
1645.09	255.333
1647.22	253.556
1649.34	258.444
1651.47	255.333
1653.6	248
1655.72	249.778
1657.85	246.667
1659.97	247.556
1662.1	250.889
1664.22	247.778
1666.34	242.222
1668.46	245.778
1670.58	237.556
1672.7	243.556
1674.82	252.667
1676.94	238.444
1679.06	242
1681.18	242.667
1683.3	241.556
1685.41	246
1687.53	240.667
1689.64	230.222
1691.76	245.333
1693.87	237.778
1695.99	244.222
1698.1	243.778
1700.21	241.778
1702.32	244.444
1704.43	244.444
1706.54	244.667
1708.65	231.333
1710.76	232.222
1712.87	239.111
1714.98	237.111
1717.08	237.333
1719.19	244.222
1721.29	241.333
1723.4	238
1725.5	239.333
1727.61	238.667
1729.71	231.778
1731.81	236.889
1733.91	233.111
1736.02	231.333
1738.12	225.778
1740.22	233.556
1742.31	232.667
1744.41	230.444
1746.51	230.222
1748.61	225.333
1750.7	224.889
1752.8	231.556
1754.9	230
1756.99	224.667
1759.08	226.667
1761.18	225.556
1763.27	228.444
1765.36	226
1767.45	235.333
1769.54	223.111
1771.63	223.556
1773.72	220.667
1775.81	230.667
1777.9	226
1779.99	232.889
1782.08	233.333
1784.16	230.889
1786.25	230.444
1788.33	229.556
1790.42	226
1792.5	221.111
1794.58	224.667
1796.67	224.444
1798.75	225.111
1800.83	227.778
1802.91	220.889
1804.99	222.889
1807.07	224.444
1809.15	222.889
1811.23	224.222
1813.3	224.667
1815.38	219.111
1817.46	226.222
1819.53	224.444
1821.61	229.111
1823.68	222
1825.75	219.333
1827.83	220.889
1829.9	223.111
1831.97	222
1834.04	226.444
1836.11	226
1838.18	221.778
1840.25	224
1842.32	224.222
1844.39	222
1846.46	221.111
1848.52	223.556
1850.59	218.889
1852.65	221.111
1854.72	222.444
1856.78	221.333
1858.85	220.667
1860.91	219.778
1862.97	218
1865.03	219.778
1867.09	218.222
1869.16	217.556
1871.22	219.111
1873.27	218.667
1875.33	216.222
1877.39	210.444
1879.45	222.222
1881.51	211.778
1883.56	217.778
1885.62	216
1887.67	217.556
1889.73	217.778
1891.78	220
1893.83	218.667
1895.89	218.667
1897.94	220.222
1899.99	219.333
1902.04	212.222
1904.09	227.333
1906.14	220.667
1908.19	222.667
1910.23	215.333
1912.28	223.778
1914.33	214.222
1916.37	216.667
1918.42	217.333
1920.46	224
1922.51	220.444
1924.55	215.556
1926.6	213.111
1928.64	216.444
1930.68	215.111
1932.72	216
1934.76	225.778
1936.8	213.333
1938.84	222.667
1940.88	213.556
1942.92	214.222
1944.96	221.333
1946.99	214
1949.03	209.778
1951.06	218.222
1953.1	208.444
1955.13	211.111
1957.17	214.667
1959.2	211.111
1961.23	214.444
1963.27	213.111
1965.3	210.444
1967.33	216.222
1969.36	215.778
1971.39	215.778
1973.42	203.778
1975.44	206.667
1977.47	211.111
1979.5	217.333
1981.53	209.556
1983.55	211.778
1985.58	212.222
1987.6	206.889
1989.63	214.889
1991.65	208.222
1993.67	211.778
1995.69	210.889
1997.72	206.889
1999.74	212.667
2001.76	211.556
2003.78	214.889
2005.8	208.889
2007.82	204.444
2009.83	212.444
2011.85	214.667
2013.87	207.111
2015.88	205.111
2017.9	212.889
2019.91	211.111
2021.93	216.444
2023.94	207.778
2025.96	209.111
2027.97	211.333
2029.98	209.111
2031.99	211.556
2034	208.222
2036.01	215.778
2038.02	218.667
2040.03	208
2042.04	212.222
2044.05	209.778
2046.05	211.778
2048.06	210
2050.07	210.444
2052.07	207.111
2054.08	214.222
2056.08	208.667
2058.08	204.667
2060.09	214
2062.09	207.333
2064.09	213.111
2066.09	207.778
2068.09	210.889
2070.09	207.111
2072.09	205.778
2074.09	209.111
2076.09	208.444
2078.09	208
2080.08	205.556
2082.08	208.667
2084.08	205.333
2086.07	209.778
2088.07	205.778
2090.06	206
2092.05	204.889
2094.05	208.222
2096.04	213.111
2098.03	203.111
2100.02	206.444
2102.01	203.111
2104	207.778
2105.99	206.667
2107.98	203.556
2109.97	204.889
2111.95	212.889
2113.94	206.667
2115.93	208.444
2117.91	207.778
2119.9	210.222
2121.88	205.111
2123.87	206.667
2125.85	208.444
2127.83	205.778
2129.81	207.556
2131.8	211.778
2133.78	207.111
2135.76	207.111
2137.74	208.444
2139.72	210.889
2141.69	204
2143.67	214.444
2145.65	214.444
2147.63	211.333
2149.6	216
2151.58	208.222
2153.55	206.889
2155.53	205.778
2157.5	216.667
2159.48	214.222
2161.45	218.667
2163.42	213.778
2165.39	216.222
2167.36	216.667
2169.33	218
2171.3	221.333
2173.27	218
2175.24	215.778
2177.21	215.778
2179.18	217.556
2181.14	224.444
2183.11	222.222
2185.07	215.778
2187.04	218.222
2189	217.556
2190.97	215.778
2192.93	209.778
2194.89	218.667
2196.86	208.889
2198.82	210.444
2200.78	210.444
2202.74	210.667
2204.7	204
2206.66	204.667
2208.62	208
2210.57	202
2212.53	207.556
2214.49	200.222
2216.45	198.667
2218.4	207.556
2220.36	194.889
2222.31	200.889
2224.27	196.222
2226.22	203.111
2228.17	198.667
2230.12	190
2232.08	202.667
2234.03	194.444
2235.98	192.667
2237.93	196.444
2239.88	193.111
2241.83	197.556
2243.78	194.222
2245.72	198.444
2247.67	193.111
2249.62	202.222
2251.56	195.556
2253.51	198.667
2255.45	197.333
2257.4	190.889
2259.34	196.667
2261.28	193.333
2263.23	194.444
2265.17	189.111
2267.11	193.111
2269.05	192.222
2270.99	192.667
2272.93	191.778
2274.87	195.556
2276.81	194.444
2278.75	194.889
2280.68	188.444
2282.62	196.222
2284.56	189.333
2286.49	192.667
2288.43	192.444
2290.36	191.556
2292.3	197.556
2294.23	190.444
2296.16	190.667
2298.09	190.889
2300.03	189.556
2301.96	185.111
2303.89	187.778
2305.82	189.111
2307.75	181.778
2309.68	194.889
2311.6	191.556
2313.53	194.444
2315.46	195.778
2317.39	188.444
2319.31	194
2321.24	192.444
2323.16	192.222
2325.09	196.889
2327.01	188.889
2328.93	195.333
2330.86	195.556
2332.78	197.111
2334.7	183.778
2336.62	186
2338.54	194.222
2340.46	190.444
2342.38	182.667
2344.3	189.556
2346.22	192.667
2348.14	188.667
2350.05	185.556
2351.97	184
2353.89	181.111
2355.8	184.444
2357.71	185.333
2359.63	186.667
2361.54	190.222
2363.46	184.444
2365.37	186.667
2367.28	183.778
2369.19	182.222
2371.1	185.111
2373.01	185.556
2374.92	184.444
2376.83	187.333
2378.74	185.111
2380.65	182.444
2382.56	185.333
2384.46	186
2386.37	180.222
2388.27	185.333
2390.18	181.333
2392.08	186.667
2393.99	182.889
2395.89	181.333
2397.8	183.778
2399.7	184
2401.6	183.556
2403.5	180.444
2405.4	186
2407.3	183.778
2409.2	180.667
2411.1	184.222
2413	183.556
2414.9	184
2416.8	188
2418.69	183.111
2420.59	189.111
2422.48	183.556
2424.38	181.556
2426.28	186.222
2428.17	181.556
2430.06	181.778
2431.96	185.333
2433.85	185.333
2435.74	187.333
2437.63	189.111
2439.52	183.778
2441.41	182.667
2443.3	183.778
2445.19	181.333
2447.08	178.444
