178.677	230.222
181.278	222
183.879	218.667
186.48	216.889
189.078	215.111
191.677	217.333
194.275	215.333
196.871	211.333
199.467	210.222
202.061	217.111
204.656	214.667
207.248	215.333
209.841	217.333
212.431	217.778
215.022	216.889
217.613	216.444
220.201	223.556
222.789	229.333
225.375	229.333
227.962	233.556
230.547	235.778
233.13	239.778
235.714	240.667
238.296	236.222
240.879	238.444
243.459	241.333
246.04	234
248.618	243.333
251.196	242
253.774	252.222
256.35	241.333
258.927	234.667
261.501	240
264.074	230.222
266.648	235.333
269.22	233.778
271.791	226.889
274.362	220.667
276.931	215.333
279.5	209.778
282.069	208.889
284.635	199.333
287.201	198.444
289.766	195.333
292.331	198.444
294.894	201.556
297.457	194
300.018	186.444
302.58	188.667
305.14	199.556
307.699	197.556
310.257	192.889
312.814	196.444
315.372	190.222
317.928	190
320.482	188.444
323.036	188.222
325.589	191.778
328.142	196.889
330.693	190.444
333.243	184.667
335.795	191.333
338.343	188
340.891	190.222
343.439	195.111
345.985	195.556
348.53	196.444
351.075	198.444
353.619	201.333
356.162	199.778
358.704	198.889
361.245	197.333
363.786	199.778
366.325	200.889
368.864	202.667
371.402	198.889
373.939	198
376.475	197.333
379.011	200.222
381.545	201.111
384.079	198.444
386.612	200.222
389.144	206.889
391.674	201.778
394.204	201.111
396.734	198.222
399.263	193.333
401.791	200.889
404.318	196
406.844	205.333
409.368	201.111
411.893	206.222
414.417	199.778
416.94	201.556
419.462	205.111
421.982	212
424.502	203.111
427.022	201.556
429.541	203.778
432.057	201.778
434.574	204
437.091	202.889
439.606	203.333
442.12	212.889
444.634	203.111
447.147	207.333
449.657	197.111
452.169	206.889
454.68	206.444
457.188	198.667
459.697	209.778
462.205	201.556
464.711	204.444
467.217	203.333
469.722	208.889
472.227	212
474.731	204.222
477.232	204.444
479.735	209.111
482.235	207.778
484.736	211.111
487.234	220
489.734	212.667
492.23	210.444
494.728	213.778
497.223	216
499.719	212.444
502.213	213.556
504.707	216.667
507.199	219.333
509.692	218.222
512.182	218.889
514.673	220.889
517.162	221.333
519.65	227.111
522.139	228
524.625	222.444
527.112	224.667
529.597	225.111
532.081	224
534.565	228.667
537.047	229.556
539.529	225.778
542.011	229.333
544.491	237.556
546.97	232.667
549.45	238.444
551.927	232.222
554.404	236.667
556.88	232.667
559.356	236.222
561.831	238.222
564.304	249.111
566.777	249.333
569.25	241.333
571.721	246.444
574.191	246
576.661	249.556
579.129	261.778
581.599	262.667
584.066	259.111
586.532	253.111
588.997	252.667
591.462	253.111
593.926	242
596.389	242.667
598.851	239.333
601.314	242.444
603.775	240.667
606.235	233.778
608.694	232.667
611.152	235.111
613.609	236
616.066	228.222
618.522	239.111
620.977	236
623.431	231.556
625.885	229.778
628.338	234
630.79	232.667
633.241	238.889
635.691	241.333
638.141	234.444
640.589	240.222
643.036	245.556
645.483	238.667
647.929	248
650.375	241.778
652.82	239.556
655.264	233.111
657.707	238.222
660.149	236
662.59	235.556
665.031	238.667
667.471	234.889
669.91	238.222
672.349	239.333
674.786	233.333
677.222	231.333
679.658	241.556
682.093	240.222
684.528	234.222
686.96	228.444
689.393	232.889
691.826	234.667
694.256	235.556
696.686	235.556
699.116	236.889
701.545	233.333
703.972	228
706.4	229.778
708.826	227.556
711.251	236.667
713.676	235.778
716.099	232
718.523	234.667
720.946	233.111
723.366	234.667
725.788	223.333
728.207	232.222
730.627	236.667
733.044	234.444
735.462	236.667
737.88	237.111
740.295	236.667
742.711	238
745.125	228.667
747.539	234.889
749.951	235.333
752.363	237.111
754.775	240.667
757.185	242.889
759.595	241.111
762.003	240.444
764.412	240
766.819	245.778
769.225	238.889
771.632	239.111
774.036	238.222
776.441	238
778.844	243.333
781.246	242.889
783.649	238.444
786.05	242.444
788.449	242.444
790.85	236
793.248	248.222
795.646	248.889
798.042	247.778
800.44	250.222
802.835	253.333
805.23	250.222
807.623	254.444
810.018	242.222
812.41	252
814.801	250.444
817.192	246.444
819.582	238.222
821.972	249.333
824.361	252.667
826.748	244.667
829.135	249.333
831.521	247.778
833.907	249.778
836.291	253.333
838.675	254.444
841.059	252.444
843.442	260.667
845.823	260.222
848.204	261.778
850.584	266.444
852.963	271.778
855.342	283.556
857.72	270.444
860.097	278.667
862.473	283.333
864.848	267.333
867.223	268
869.597	259.778
871.97	256.667
874.343	258.222
876.714	254.222
879.084	246.667
881.454	252.222
883.824	250.667
886.192	254.444
888.56	244.444
890.927	246
893.294	241.111
895.66	251.333
898.023	252
900.387	255.333
902.751	242.667
905.114	243.778
907.476	246.889
909.835	246.222
912.196	244.889
914.555	252.222
916.914	248.889
919.271	249.556
921.629	243.111
923.985	253.111
926.341	249.556
928.695	252.444
931.05	249.111
933.404	251.556
935.755	254.444
938.107	246.667
940.459	254.667
942.808	260.222
945.158	248.889
947.508	254
949.855	254.444
952.202	249.333
954.548	258.889
956.894	251.111
959.239	256.667
961.583	257.556
963.928	250
966.27	249.778
968.612	251.556
970.953	257.556
973.294	256.444
975.633	258.444
977.972	254.667
980.31	260.889
982.647	265.111
984.984	258.222
987.32	265.556
989.656	269.333
991.989	265.111
994.324	261.111
996.656	266.444
998.988	272.667
1001.32	280.889
1003.65	294.667
1005.98	300.889
1008.31	346.667
1010.64	397.778
1012.97	444.222
1015.29	448.444
1017.62	391.333
1019.94	361.556
1022.27	376.444
1024.59	347.333
1026.92	313.111
1029.24	293.333
1031.56	290.222
1033.88	299.111
1036.2	331.111
1038.52	340.222
1040.84	332
1043.16	302.889
1045.48	290.444
1047.79	288.889
1050.11	288.222
1052.42	283.333
1054.74	278.667
1057.05	278
1059.36	273.111
1061.67	262.444
1063.99	274.667
1066.3	276.667
1068.61	277.556
1070.92	271.333
1073.22	266.222
1075.53	263.556
1077.84	268.667
1080.15	261.111
1082.45	266.667
1084.76	275.111
1087.06	261.556
1089.36	256.667
1091.66	268.222
1093.97	266.667
1096.27	262.889
1098.57	268.444
1100.87	263.556
1103.17	260.889
1105.46	271.778
1107.76	267.778
1110.06	272.444
1112.35	263.333
1114.65	270
1116.94	266.667
1119.24	264.667
1121.53	263.111
1123.82	257.778
1126.11	268.222
1128.4	266.889
1130.7	266.667
1132.98	262.222
1135.27	267.333
1137.56	270.889
1139.85	264.667
1142.13	272
1144.42	268.889
1146.71	273.556
1148.99	273.556
1151.27	278
1153.56	272.444
1155.84	279.111
1158.12	279.333
1160.4	281.556
1162.68	275.111
1164.96	272.444
1167.24	274.667
1169.51	282.222
1171.79	278.889
1174.07	285.111
1176.34	273.778
1178.62	268
1180.89	275.556
1183.17	270.889
1185.44	282.889
1187.71	277.556
1189.98	279.111
1192.25	278.444
1194.52	279.111
1196.79	282.222
1199.06	265.111
1201.33	278.222
1203.59	282
1205.86	284
1208.12	274.889
1210.39	284.667
1212.65	288.889
1214.92	282.667
1217.18	277.556
1219.44	281.333
1221.7	278.889
1223.96	281.556
1226.22	282.444
1228.48	283.556
1230.74	289.111
1233	295.111
1235.25	299.111
1237.51	300.667
1239.77	292.667
1242.02	291.778
1244.27	288.222
1246.53	281.556
1248.78	292.444
1251.03	297.333
1253.28	286.444
1255.53	282.444
1257.78	292.444
1260.03	283.333
1262.28	292.222
1264.53	283.556
1266.78	291.556
1269.02	293.111
1271.27	299.111
1273.51	298.889
1275.76	303.333
1278	298
1280.24	303.111
1282.48	296.222
1284.72	293.778
1286.97	290.222
1289.21	294.444
1291.44	292
1293.68	288
1295.92	293.556
1298.16	289.778
1300.39	295.556
1302.63	286.667
1304.86	293.778
1307.1	287.778
1309.33	284
1311.56	285.778
1313.8	281.111
1316.03	290
1318.26	275.111
1320.49	287.333
1322.72	287.778
1324.95	284
1327.17	294.444
1329.4	288.444
1331.63	292
1333.85	282.889
1336.08	287.333
1338.3	296
1340.53	295.778
1342.75	293.556
1344.97	292.667
1347.19	301.778
1349.41	296.667
1351.63	302.667
1353.85	299.333
1356.07	309.778
1358.29	295.111
1360.51	290.444
1362.72	290.667
1364.94	288.667
1367.16	295.778
1369.37	293.778
1371.58	296
1373.8	293.333
1376.01	288.889
1378.22	293.556
1380.43	293.778
1382.64	288.444
1384.85	290.222
1387.06	286.222
1389.27	287.333
1391.48	288.667
1393.68	280.222
1395.89	286
1398.1	283.556
1400.3	283.333
1402.51	288
1404.71	290
1406.91	287.111
1409.11	275.778
1411.32	287.778
1413.52	288.222
1415.72	281.778
1417.92	290.889
1420.11	287.556
1422.31	296
1424.51	286
1426.71	292.222
1428.9	286.667
1431.1	284.444
1433.29	290
1435.49	297.778
1437.68	294.222
1439.87	296.222
1442.06	297.333
1444.25	291.333
1446.45	292.222
1448.64	284.889
1450.82	289.778
1453.01	290.444
1455.2	287.333
1457.39	284.222
1459.57	290
1461.76	285.556
1463.94	283.111
1466.13	287.333
1468.31	292.667
1470.5	281.556
1472.68	279.556
1474.86	288.222
1477.04	278.222
1479.22	290
1481.4	290.889
1483.58	277.111
1485.76	288
1487.94	286.444
1490.11	286.889
1492.29	286.222
1494.46	284.444
1496.64	287.111
1498.81	282.222
1500.99	279.556
1503.16	284.889
1505.33	288.889
1507.5	286.222
1509.67	285.778
1511.84	278.889
1514.01	291.111
1516.18	286.667
1518.35	290.444
1520.52	283.556
1522.68	294.667
1524.85	281.556
1527.02	300.667
1529.18	280.889
1531.35	296
1533.51	294.667
1535.67	300.222
1537.83	292.222
1539.99	294.222
1542.16	290.889
1544.31	292.222
1546.47	291.333
1548.63	290
1550.79	291.333
1552.95	290
1555.11	297.333
1557.26	293.111
1559.42	290.889
1561.57	297.333
1563.73	293.111
1565.88	292.667
1568.03	302.889
1570.18	306.444
1572.34	302.222
1574.49	294.667
1576.64	298
1578.79	308.889
1580.93	306.222
1583.08	302.222
1585.23	300.889
1587.38	303.111
1589.52	307.778
1591.67	314.889
1593.81	313.778
1595.96	316
1598.1	327.556
1600.24	328.444
1602.38	324.667
1604.53	331.333
1606.67	317.556
1608.81	325.111
1610.95	316.889
1613.09	309.333
1615.22	304.444
1617.36	310.667
1619.5	299.778
1621.63	292
1623.77	294.222
1625.9	288.667
1628.04	293.111
1630.17	294.889
1632.3	287.111
1634.44	288.444
1636.57	293.111
1638.7	284
1640.83	284
1642.96	282.444
1645.09	283.333
1647.22	272.222
1649.34	281.556
1651.47	279.556
1653.6	276.444
1655.72	266.889
1657.85	270.889
1659.97	278.889
1662.1	270.222
1664.22	274.889
1666.34	264
1668.46	270.444
1670.58	267.778
1672.7	269.111
1674.82	274.444
1676.94	263.333
1679.06	262
1681.18	268.222
1683.3	266
1685.41	268.222
1687.53	264
1689.64	264.667
1691.76	261.111
1693.87	260.889
1695.99	264.667
1698.1	252.444
1700.21	260
1702.32	260.889
1704.43	265.333
1706.54	258.444
1708.65	265.111
1710.76	268
1712.87	261.778
1714.98	258.667
1717.08	258.667
1719.19	255.111
1721.29	264
1723.4	256.444
1725.5	257.778
1727.61	264
1729.71	256
1731.81	255.333
1733.91	262.444
1736.02	262.667
1738.12	252.222
1740.22	254.667
1742.31	252
1744.41	249.778
1746.51	256
1748.61	256.444
1750.7	254.889
1752.8	250.444
1754.9	261.333
1756.99	251.111
1759.08	252.222
1761.18	260.222
1763.27	253.333
1765.36	248.444
1767.45	245.333
1769.54	248.444
1771.63	242.889
1773.72	242.222
1775.81	244.889
1777.9	244.444
1779.99	249.333
1782.08	260
1784.16	258.667
1786.25	249.556
1788.33	251.556
1790.42	249.556
1792.5	253.556
1794.58	246
1796.67	253.778
1798.75	251.778
1800.83	248.222
1802.91	246.222
1804.99	245.333
1807.07	246.889
1809.15	248.444
1811.23	241.778
1813.3	248.889
1815.38	247.333
1817.46	244
1819.53	245.333
1821.61	246
1823.68	246.667
1825.75	240.667
1827.83	251.333
1829.9	244.444
1831.97	241.333
1834.04	241.778
1836.11	241.778
1838.18	238.444
1840.25	245.333
1842.32	238
1844.39	237.556
1846.46	243.778
1848.52	243.778
1850.59	242.889
1852.65	237.111
1854.72	244.667
1856.78	246
1858.85	237.111
1860.91	234.222
1862.97	230.667
1865.03	237.556
1867.09	228.889
1869.16	240.667
1871.22	241.556
1873.27	237.556
1875.33	240.889
1877.39	242.444
1879.45	241.111
1881.51	244.444
1883.56	235.556
1885.62	234
1887.67	239.333
1889.73	236.222
1891.78	242
1893.83	233.556
1895.89	236.667
1897.94	234.889
1899.99	239.111
1902.04	239.556
1904.09	239.111
1906.14	244.222
1908.19	244.222
1910.23	237.778
1912.28	231.778
1914.33	241.111
1916.37	240.444
1918.42	242
1920.46	236.444
1922.51	237.333
1924.55	238.667
1926.6	232.889
1928.64	234.889
1930.68	235.333
1932.72	242.222
1934.76	242.889
1936.8	237.111
1938.84	240.222
1940.88	230.444
1942.92	239.556
1944.96	232.222
1946.99	230
1949.03	230.667
1951.06	236.444
1953.1	226.889
1955.13	227.556
1957.17	235.556
1959.2	231.333
1961.23	234
1963.27	229.778
1965.3	229.333
1967.33	229.556
1969.36	232.444
1971.39	231.778
1973.42	223.111
1975.44	232
1977.47	236.889
1979.5	230
1981.53	229.111
1983.55	232.222
1985.58	226.889
1987.6	229.333
1989.63	228.444
1991.65	232.889
1993.67	230.222
1995.69	235.333
1997.72	234.667
1999.74	229.556
2001.76	230.667
2003.78	226.444
2005.8	237.111
2007.82	227.111
2009.83	233.333
2011.85	233.778
2013.87	235.556
2015.88	231.111
2017.9	235.556
2019.91	233.556
2021.93	227.556
2023.94	225.778
2025.96	234
2027.97	238.667
2029.98	230.444
2031.99	233.556
2034	235.111
2036.01	230.222
2038.02	232.444
2040.03	232.667
2042.04	236
2044.05	237.778
2046.05	228.444
2048.06	234
2050.07	229.556
2052.07	230.889
2054.08	229.778
2056.08	238.222
2058.08	228.222
2060.09	235.333
2062.09	228.444
2064.09	227.111
2066.09	236.444
2068.09	232.667
2070.09	236.667
2072.09	230.667
2074.09	219.556
2076.09	229.778
2078.09	226.444
2080.08	234.444
2082.08	226.667
2084.08	223.778
2086.07	231.333
2088.07	225.778
2090.06	226.667
2092.05	230.667
2094.05	228
2096.04	232.222
2098.03	220
2100.02	228
2102.01	228.667
2104	223.111
2105.99	227.333
2107.98	224.444
2109.97	233.333
2111.95	229.111
2113.94	230.444
2115.93	230.444
2117.91	230
2119.9	227.111
2121.88	234.222
2123.87	235.333
2125.85	231.111
2127.83	223.556
2129.81	235.333
2131.8	230.889
2133.78	225.111
2135.76	230.667
2137.74	230.667
2139.72	232.444
2141.69	226.222
2143.67	221.556
2145.65	230.889
2147.63	227.333
2149.6	224.667
2151.58	230.889
2153.55	227.778
2155.53	231.333
2157.5	221.556
2159.48	234
2161.45	230.222
2163.42	232.222
2165.39	229.778
2167.36	229.111
2169.33	233.778
2171.3	232.222
2173.27	234.444
2175.24	237.333
2177.21	231.111
2179.18	238.667
2181.14	238.889
2183.11	234.889
2185.07	234.889
2187.04	234.444
2189	229.778
2190.97	223.111
2192.93	232.222
2194.89	229.333
2196.86	235.556
2198.82	233.333
2200.78	219.556
2202.74	224.444
2204.7	219.556
2206.66	216.889
2208.62	220.667
2210.57	225.778
2212.53	218.444
2214.49	219.111
2216.45	217.778
2218.4	222.444
2220.36	220
2222.31	227.111
2224.27	221.333
2226.22	216.222
2228.17	220.667
2230.12	221.111
2232.08	220.889
2234.03	218.667
2235.98	220.444
2237.93	223.111
2239.88	219.778
2241.83	219.778
2243.78	217.333
2245.72	224.222
2247.67	220.889
2249.62	215.778
2251.56	215.556
2253.51	211.111
2255.45	212.222
2257.4	215.556
2259.34	215.111
2261.28	222.889
2263.23	215.333
2265.17	216.889
2267.11	206.222
2269.05	216.889
2270.99	214
2272.93	204.444
2274.87	217.111
2276.81	218.222
2278.75	213.333
2280.68	216
2282.62	210.667
2284.56	212
2286.49	212.222
2288.43	213.556
2290.36	215.111
2292.3	206.222
2294.23	210.667
2296.16	214.444
2298.09	215.333
2300.03	207.111
2301.96	204.889
2303.89	205.556
2305.82	212
2307.75	207.778
2309.68	210.222
2311.6	208.889
2313.53	212.444
2315.46	222.889
2317.39	207.778
2319.31	208.889
2321.24	208
2323.16	213.556
2325.09	208.667
2327.01	211.778
2328.93	220
2330.86	210.889
2332.78	210.667
2334.7	206.889
2336.62	208.889
2338.54	211.333
2340.46	201.778
2342.38	200.667
2344.3	210
2346.22	206.222
2348.14	209.111
2350.05	206.222
2351.97	205.333
2353.89	203.778
2355.8	202.444
2357.71	207.778
2359.63	203.111
2361.54	206.667
2363.46	208.444
2365.37	206.222
2367.28	197.111
2369.19	204.667
2371.1	208
2373.01	207.111
2374.92	206.889
2376.83	206.667
2378.74	201.111
2380.65	196.889
2382.56	210
2384.46	204
2386.37	207.556
2388.27	198.222
2390.18	202
2392.08	209.556
2393.99	206
2395.89	202.889
2397.8	203.333
2399.7	205.778
2401.6	203.778
2403.5	205.111
2405.4	207.778
2407.3	201.111
2409.2	202.222
2411.1	200.444
2413	203.778
2414.9	205.111
2416.8	204.889
2418.69	202.222
2420.59	200.222
2422.48	202.889
2424.38	202
2426.28	198.889
2428.17	192.889
2430.06	207.111
2431.96	198.222
2433.85	201.778
2435.74	199.778
2437.63	201.778
2439.52	195.556
2441.41	197.778
2443.3	199.556
2445.19	197.778
2447.08	204.222
