425.605	318.889
427.215	324.222
428.823	320.667
430.432	333.333
432.04	332.222
433.648	330
435.255	337.778
436.862	330.889
438.468	326.889
440.075	324
441.68	334.667
443.285	323.556
444.89	312.444
446.494	314.667
448.098	320.222
449.702	315.333
451.305	309.556
452.907	320.222
454.509	318.222
456.112	333.111
457.713	327.111
459.313	320
460.914	317.778
462.513	307.778
464.114	302
465.713	297.778
467.311	288.667
468.91	292.889
470.507	293.333
472.105	292
473.703	291.333
475.299	287.556
476.895	290.667
478.491	293.333
480.086	288
481.681	294.444
483.276	287.333
484.87	278.444
486.463	281.111
488.056	276.667
489.649	274.667
491.242	273.111
492.833	281.778
494.425	272.889
496.016	265.111
497.607	275.333
499.197	270
500.787	272.889
502.377	277.556
503.966	265.333
505.554	272.444
507.143	264.889
508.729	269.778
510.317	269.556
511.904	267.556
513.491	266.444
515.077	267.111
516.662	272
518.248	281.333
519.832	280
521.416	270.222
523.001	274.444
524.584	269.333
526.168	262
527.75	257.556
529.332	253.778
530.914	257.111
532.496	260.667
534.076	251.111
535.657	251.556
537.237	249.778
538.817	251.111
540.396	254.222
541.975	245.556
543.553	251.778
545.132	253.111
546.71	252.444
548.286	256
549.864	252.889
551.439	248.222
553.016	251.333
554.592	250.222
556.166	248.222
557.742	254.444
559.315	245.778
560.89	248
562.463	247.556
564.036	245.778
565.608	240
567.181	255.556
568.753	245.556
570.324	235.778
571.895	246
573.466	241.111
575.036	245.556
576.605	243.111
578.175	242.667
579.744	240.889
581.313	236.889
582.88	246.444
584.448	237.111
586.016	244
587.582	236.889
589.148	234.667
590.715	241.556
592.28	236.444
593.845	232.667
595.411	236.222
596.975	234.889
598.538	236.222
600.102	234.667
601.666	237.778
603.228	239.778
604.79	240.889
606.352	229.778
607.914	237.111
609.475	235.778
611.035	244.444
612.596	235.778
614.155	228.222
615.714	231.111
617.274	239.111
618.833	228.889
620.391	229.333
621.949	226
623.506	228
625.063	230.889
626.619	232.444
628.175	229.333
629.731	237.333
631.286	223.111
632.841	221.778
634.396	235.556
635.95	242.444
637.503	232.889
639.057	229.778
640.61	231.556
642.162	230.889
643.714	236.444
645.266	232.667
646.817	236.444
648.368	230.889
649.919	237.778
651.469	234.222
653.018	238.889
654.568	235.556
656.116	232.667
657.664	234.444
659.213	237.778
660.76	225.556
662.308	236.222
663.854	228.444
665.4	226
666.946	228.222
668.492	230.889
670.037	228.444
671.581	233.333
673.126	234
674.67	231.778
676.214	230.444
677.757	223.111
679.299	232
680.842	227.778
682.383	231.778
683.925	237.333
685.467	237.333
687.007	238
688.547	230.444
690.087	234.889
691.627	229.111
693.166	235.556
694.704	237.556
696.243	234.889
697.78	239.333
699.318	237.556
700.855	240.222
702.392	234.222
703.928	231.333
705.464	236.667
706.999	237.778
708.534	238.667
710.069	244.667
711.603	232.222
713.137	233.556
714.671	231.778
716.203	233.111
717.736	230.889
719.269	230.889
720.8	231.333
722.332	235.111
723.863	231.111
725.393	226
726.924	228.889
728.453	218.667
729.983	220
731.512	219.333
733.041	216.444
734.569	224
736.096	216
737.624	221.111
739.151	214.222
740.678	220.222
742.204	212.667
743.73	218.222
745.256	220
746.781	216.444
748.305	211.333
749.829	217.778
751.353	210.889
752.877	208.889
754.4	217.333
755.923	211.778
757.445	211.556
758.967	211.556
760.488	216
762.009	208.444
763.53	206
765.05	202.444
766.57	210.667
768.089	213.111
769.608	209.778
771.127	210
772.646	205.333
774.163	211.556
775.681	212.222
777.198	208.667
778.715	211.111
780.231	207.111
781.747	208
783.263	206.222
784.778	206.889
786.293	216.889
787.808	212.667
789.322	215.778
790.835	217.778
792.348	213.778
793.861	214
795.373	205.778
796.886	211.111
798.397	219.333
799.908	211.333
801.419	210.222
802.93	211.556
804.44	213.333
805.949	215.556
807.458	209.111
808.968	219.333
810.476	216
811.984	213.111
813.492	220
814.999	216
816.506	219.778
818.013	222.889
819.518	217.556
821.024	221.111
822.53	217.333
824.035	219.778
825.539	218.889
827.043	228
828.547	219.556
830.05	229.333
831.554	219.556
833.056	220.444
834.559	221.556
836.06	220.889
837.562	214
839.063	221.778
840.564	211.333
842.064	220.889
843.564	221.111
845.063	214
846.563	219.333
848.061	220.889
849.559	217.556
851.058	213.111
852.555	214.222
854.052	224.667
855.549	218.222
857.045	219.556
858.541	217.556
860.037	219.556
861.532	210.222
863.027	220.222
864.522	216
866.016	218.444
867.51	221.778
869.003	225.111
870.496	214.222
871.989	221.556
873.481	215.556
874.972	210.667
876.464	219.333
877.955	215.778
879.446	213.111
880.936	217.333
882.426	219.556
883.915	212.889
885.404	213.333
886.893	214.222
888.381	212.444
889.869	215.111
891.356	216.222
892.843	212.667
894.331	212.889
895.818	220.889
897.304	211.778
898.789	212.667
900.274	213.333
901.758	210.222
903.243	209.556
904.727	205.111
906.211	208.444
907.694	202.889
909.177	205.556
910.66	202
912.142	203.111
913.624	207.111
915.106	195.556
916.587	203.778
918.067	209.333
919.547	199.333
921.028	200
922.507	201.556
923.987	198.222
925.465	198
926.943	204
928.422	200.444
929.899	196.444
931.376	193.111
932.853	196.444
934.33	198
935.805	199.111
937.281	194.667
938.757	196.444
940.231	197.111
941.706	192.889
943.181	195.111
944.654	194
946.128	193.556
947.601	188.667
949.074	194.667
950.546	190.222
952.018	194
953.49	192.222
954.961	193.778
956.432	189.333
957.902	192.667
959.372	192.222
960.841	189.111
962.311	190.444
963.78	191.111
965.249	189.556
966.717	191.778
968.185	191.556
969.652	186.444
971.119	194.222
972.586	194
974.052	185.556
975.518	194.889
976.984	195.111
978.448	192.222
979.913	189.778
981.378	187.556
982.842	185.556
984.305	189.778
985.769	183.333
987.232	186.667
988.694	185.111
990.156	191.333
991.619	200.444
993.08	189.333
994.541	199.111
996.001	194.222
997.461	198.444
998.921	201.333
1000.38	193.111
1001.84	195.556
1003.3	198.222
1004.76	189.556
1006.22	200.222
1007.67	190.444
1009.13	184.444
1010.59	187.778
1012.04	190.667
1013.5	189.333
1014.96	190.444
1016.41	192.889
1017.87	193.556
1019.32	196.222
1020.78	192.667
1022.23	192.889
1023.68	203.111
1025.14	192.667
1026.59	198.444
1028.04	199.333
1029.49	197.333
1030.95	197.111
1032.4	191.111
1033.85	192.444
1035.3	195.111
1036.75	192.889
1038.2	198.667
1039.65	196.444
1041.1	195.778
1042.55	198.444
1043.99	196.444
1045.44	193.556
1046.89	191.556
1048.34	199.556
1049.78	203.778
1051.23	199.556
1052.68	206.222
1054.12	212.222
1055.57	207.556
1057.01	209.333
1058.46	205.556
1059.9	207.333
1061.35	208.222
1062.79	206.889
1064.23	208.444
1065.68	202.667
1067.12	200.889
1068.56	206.667
1070	203.556
1071.44	211.333
1072.89	214.667
1074.33	206.889
1075.77	214.444
1077.21	212.889
1078.65	216.444
1080.09	225.556
1081.53	224
1082.96	227.111
1084.4	236.889
1085.84	236.889
1087.28	243.333
1088.71	247.556
1090.15	253.333
1091.59	265.778
1093.02	275.333
1094.46	290.667
1095.89	286.667
1097.33	288
1098.76	272.889
1100.2	266.444
1101.63	259.556
1103.06	259.778
1104.5	252.889
1105.93	249.111
1107.36	246.222
1108.79	242.889
1110.23	240.889
1111.66	257.778
1113.09	256
1114.52	260.444
1115.95	266.667
1117.38	264.444
1118.81	264
1120.24	270.444
1121.67	268.222
1123.09	275.556
1124.52	268.444
1125.95	259.333
1127.38	257.778
1128.8	260.889
1130.23	251.111
1131.66	235.556
1133.08	245.778
1134.51	239.333
1135.93	242
1137.36	239.111
1138.78	240.667
1140.21	239.778
1141.63	240.667
1143.05	236.889
1144.47	238.222
1145.9	246.222
1147.32	241.778
1148.74	242.444
1150.16	243.778
1151.58	244.444
1153	238.667
1154.43	248
1155.85	239.111
1157.27	237.778
1158.68	236.889
1160.1	236.667
1161.52	234
1162.94	227.333
1164.36	230.667
1165.78	226.667
1167.19	228.667
1168.61	228.889
1170.03	228.889
1171.44	232.444
1172.86	227.778
1174.27	221.333
1175.69	226.444
1177.1	225.778
1178.52	228.889
1179.93	223.778
1181.34	224.444
1182.76	221.333
1184.17	224
1185.58	222.667
1187	224.222
1188.41	222
1189.82	218.889
1191.23	229.778
1192.64	221.333
1194.05	229.111
1195.46	223.333
1196.87	234
1198.28	223.111
1199.69	221.111
1201.1	228.444
1202.51	232
1203.91	228.444
1205.32	230.667
1206.73	225.778
1208.14	234
1209.54	228.222
1210.95	229.556
1212.35	232
1213.76	232.444
1215.17	234.889
1216.57	232.667
1217.97	232.667
1219.38	235.778
1220.78	235.111
1222.19	234.889
1223.59	238.444
1224.99	241.556
1226.39	240.444
1227.8	237.556
1229.2	235.333
1230.6	247.778
1232	245.333
1233.4	245.778
1234.8	239.333
1236.2	246.889
1237.6	246.222
1239	247.778
1240.4	240.444
1241.8	252.667
1243.19	243.556
1244.59	247.556
1245.99	249.556
1247.38	242.889
1248.78	254
1250.18	253.778
1251.57	242.222
1252.97	253.111
1254.36	249.111
1255.76	252
1257.15	247.333
1258.55	252
1259.94	247.556
1261.34	247.778
1262.73	244.889
1264.12	260
1265.51	253.333
1266.91	253.333
1268.3	253.333
1269.69	254
1271.08	259.778
1272.47	253.778
1273.86	254.222
1275.25	251.778
1276.64	257.111
1278.03	259.556
1279.42	251.778
1280.81	256.444
1282.2	258.222
1283.58	262.222
1284.97	260.222
1286.36	264.889
1287.75	259.333
1289.13	255.333
1290.52	255.778
1291.9	257.111
1293.29	274.667
1294.68	265.778
1296.06	254.667
1297.44	257.778
1298.83	256.222
1300.21	248.889
1301.6	250.889
1302.98	256.444
1304.36	253.778
1305.74	252.667
1307.13	252.444
1308.51	252
1309.89	256.444
1311.27	253.111
1312.65	250.889
1314.03	249.333
1315.41	246.222
1316.79	254.222
1318.17	249.556
1319.55	246.222
1320.93	249.778
1322.31	246.222
1323.68	253.778
1325.06	251.333
1326.44	250.667
1327.82	246.667
1329.19	248.667
1330.57	251.111
1331.94	253.333
1333.32	250.667
1334.7	246.444
1336.07	256.667
1337.44	250.889
1338.82	248
1340.19	252.444
1341.57	243.556
1342.94	247.556
1344.31	249.111
1345.68	248.222
1347.06	250.667
1348.43	239.333
1349.8	238.444
1351.17	246.444
1352.54	240
1353.91	233.556
1355.28	240.444
1356.65	244
1358.02	238.222
1359.39	238.444
1360.76	231.778
1362.13	244.889
1363.5	242.444
1364.86	252.889
1366.23	237.333
1367.6	242.444
1368.96	247.333
1370.33	243.778
1371.7	245.556
1373.06	253.556
1374.43	252.889
1375.79	252.222
1377.16	248.444
1378.52	249.556
1379.89	254.889
1381.25	249.778
1382.61	243.778
1383.98	240.222
1385.34	243.111
1386.7	236.444
1388.06	238.667
1389.42	231.333
1390.78	233.778
1392.15	237.111
1393.51	223.556
1394.87	231.111
1396.23	224.222
1397.59	231.778
1398.95	228.444
1400.3	225.778
1401.66	225.111
1403.02	221.333
1404.38	227.556
1405.74	232
1407.09	224.222
1408.45	226.889
1409.81	227.778
1411.16	223.111
1412.52	226.222
1413.87	227.778
1415.23	223.333
1416.58	220.444
1417.94	227.111
1419.29	229.333
1420.65	230.222
1422	228.667
1423.35	233.556
1424.71	236.222
1426.06	235.333
1427.41	231.333
1428.76	241.333
1430.11	237.778
1431.47	243.556
1432.82	235.333
1434.17	240
1435.52	238.222
1436.87	239.333
1438.22	231.778
1439.57	249.111
1440.91	236.444
1442.26	239.778
1443.61	244.222
1444.96	254.889
1446.31	241.556
1447.65	250.889
1449	253.556
1450.35	247.333
1451.69	248
1453.04	246
1454.39	246
1455.73	244
1457.08	240.667
1458.42	244.222
1459.76	251.556
1461.11	235.556
1462.45	245.556
1463.79	248.444
1465.14	244.222
1466.48	244.667
1467.82	244
1469.16	240.444
1470.51	242.222
1471.85	236.222
1473.19	246
1474.53	240.889
1475.87	249.111
1477.21	248.222
1478.55	240.222
1479.89	246.222
1481.23	242.222
1482.56	240
1483.9	242.889
1485.24	248.667
1486.58	252.222
1487.92	240.889
1489.25	241.111
1490.59	229.111
1491.93	232.667
1493.26	237.333
1494.6	235.111
1495.93	236
1497.27	244.667
1498.6	239.556
1499.94	235.778
1501.27	235.333
1502.6	243.111
1503.94	243.111
1505.27	240.222
1506.6	233.111
1507.94	235.333
1509.27	237.111
1510.6	238.444
1511.93	241.333
1513.26	245.333
1514.59	247.333
1515.92	244
1517.25	251.111
1518.58	241.556
1519.91	239.556
1521.24	243.778
1522.57	247.778
1523.9	248.667
1525.23	245.333
1526.55	249.111
1527.88	253.111
1529.21	246.889
1530.54	248.444
1531.86	245.778
1533.19	248.222
1534.51	254.222
1535.84	245.778
1537.16	260
1538.49	249.778
1539.81	260.444
1541.14	256
1542.46	259.111
1543.79	254
1545.11	257.333
1546.43	257.333
1547.75	263.333
1549.08	262.889
1550.4	268.667
1551.72	267.333
1553.04	266.667
1554.36	268
1555.68	267.333
1557	264.667
1558.32	268
1559.64	276.667
1560.96	270.222
1562.28	265.556
1563.6	270.222
1564.92	270.222
1566.24	262.222
1567.55	268.667
1568.87	275.111
1570.19	270.222
1571.51	277.778
1572.82	267.778
1574.14	280.667
1575.45	272.667
1576.77	267.556
1578.09	276.444
1579.4	279.333
1580.71	272.667
1582.03	272.667
1583.34	274.889
1584.66	278.222
1585.97	279.778
1587.28	270
1588.59	280
1589.91	275.111
1591.22	276.667
1592.53	278.444
1593.84	272.222
1595.15	275.778
1596.46	275.333
1597.77	269.333
1599.08	265.333
1600.39	273.333
1601.7	265.111
1603.01	258.444
1604.32	267.556
1605.63	254.667
1606.94	254.889
1608.25	249.111
1609.55	254.667
1610.86	247.556
1612.17	242.444
1613.47	238.222
1614.78	226.222
1616.09	233.111
1617.39	227.111
1618.7	227.556
1620	222.444
1621.31	220.222
1622.61	218.222
1623.92	217.111
1625.22	214
1626.52	212.444
1627.82	204.222
1629.13	194.667
1630.43	203.333
1631.73	198
1633.03	190.444
1634.34	191.111
1635.64	184.889
1636.94	180.444
1638.24	178.222
1639.54	180.222
1640.84	182.222
1642.14	175.111
1643.44	176
1644.74	171.556
1646.03	171.556
1647.33	168.889
1648.63	166.889
1649.93	167.333
1651.23	165.333
1652.52	165.778
1653.82	159.556
1655.12	159.778
1656.41	160.444
1657.71	162
1659	154.889
1660.3	154.444
1661.59	153.778
1662.89	152.222
1664.18	156.889
1665.48	151.333
1666.77	150.667
1668.06	154.222
1669.36	146.444
1670.65	147.111
1671.94	143.111
1673.23	143.111
1674.53	144.889
1675.82	139.111
1677.11	141.333
1678.4	135.778
1679.69	133.333
1680.98	134.444
1682.27	131.556
1683.56	134
1684.85	128.444
1686.14	132.444
1687.43	134.889
1688.71	131.111
1690	134.889
1691.29	132.222
1692.58	126.667
1693.86	130.222
1695.15	127.556
1696.44	128.444
1697.72	126.667
1699.01	124.444
1700.29	130.667
1701.58	128.222
1702.86	117.778
1704.15	123.778
1705.43	122.444
1706.72	121.778
1708	117.333
1709.28	125.778
1710.57	122.444
1711.85	122.889
1713.13	123.778
1714.41	123.778
1715.7	119.556
1716.98	123.333
1718.26	122.889
1719.54	122.222
1720.82	119.333
1722.1	123.778
1723.38	122.444
1724.66	118.222
1725.94	120.889
1727.22	114.667
1728.5	124.889
1729.78	116.444
1731.05	119.333
1732.33	114.444
1733.61	117.778
1734.89	114.444
1736.16	115.778
1737.44	112
1738.72	118
1739.99	112.889
1741.27	111.111
1742.54	112.667
1743.82	114.444
1745.09	112.222
1746.37	116
1747.64	111.111
1748.91	110.889
1750.19	108.889
1751.46	111.778
1752.73	110.667
1754.01	110.222
1755.28	110.889
1756.55	111.333
1757.82	107.778
1759.09	110.222
1760.36	107.333
1761.63	112.889
1762.91	104.444
1764.18	107.111
1765.45	103.333
1766.71	110.222
1767.98	110
1769.25	112.667
1770.52	110
1771.79	106.222
1773.06	105.333
1774.33	107.111
1775.59	102.667
1776.86	107.333
1778.13	102.667
1779.39	107.778
1780.66	108.222
1781.92	101.111
1783.19	101.778
1784.46	109.556
1785.72	108
1786.99	107.333
1788.25	104.889
1789.51	98.4444
1790.78	95.5556
1792.04	105.111
1793.3	99.3333
1794.57	102
1795.83	102.889
1797.09	102
1798.35	103.778
1799.61	103.778
1800.88	98.8889
1802.14	103.556
1803.4	103.111
1804.66	98.2222
1805.92	100.667
1807.18	98.8889
1808.44	101.556
1809.7	95.5556
1810.96	102.667
1812.21	100.889
1813.47	98.6667
1814.73	99.7778
1815.99	95.7778
1817.25	98.8889
1818.5	96.8889
1819.76	101.333
1821.02	96.4444
1822.27	96.6667
1823.53	99.7778
1824.78	99.7778
1826.04	99.5556
1827.29	94
1828.55	99.3333
1829.8	93.7778
1831.06	99.7778
1832.31	98
1833.56	96.8889
1834.82	95.3333
1836.07	98.2222
1837.32	95.1111
1838.58	97.1111
1839.83	96.4445
1841.08	96.8889
1842.33	96.2222
1843.58	98.2222
1844.83	90.4445
1846.08	95.7778
1847.33	94.2222
1848.58	92
1849.83	96.2222
1851.08	100
1852.33	95.1111
1853.58	96.2222
1854.83	92.6667
1856.08	94.6667
1857.32	98.4444
1858.57	92.4444
1859.82	94.6667
1861.07	89.7778
1862.31	95.3333
1863.56	91.1111
1864.8	94
1866.05	94.6667
1867.3	91.7778
1868.54	92
1869.79	93.7778
1871.03	92.2222
1872.27	94
1873.52	92.4444
