425.605	308.444
427.215	299.333
428.823	302.444
430.432	305.556
432.04	301.778
433.648	307.111
435.255	313.111
436.862	308
438.468	312.667
440.075	295.333
441.68	292
443.285	294.667
444.89	288.889
446.494	290.667
448.098	293.556
449.702	294.444
451.305	282.222
452.907	292.667
454.509	283.333
456.112	294.889
457.713	294
459.313	287.333
460.914	292.222
462.513	279.111
464.114	284.889
465.713	269.556
467.311	276.889
468.91	267.333
470.507	271.778
472.105	270.444
473.703	263.333
475.299	261.778
476.895	269.111
478.491	272.222
480.086	268.222
481.681	267.333
483.276	267.333
484.87	279.556
486.463	264.889
488.056	263.333
489.649	262.444
491.242	269.111
492.833	267.778
494.425	265.778
496.016	272.444
497.607	258.889
499.197	261.778
500.787	262.889
502.377	260
503.966	249.556
505.554	257.111
507.143	256
508.729	256
510.317	263.556
511.904	253.778
513.491	252.889
515.077	265.333
516.662	257.333
518.248	254.667
519.832	256.222
521.416	258.889
523.001	244.889
524.584	250.222
526.168	248.667
527.75	250.444
529.332	239.333
530.914	234.222
532.496	242.444
534.076	238
535.657	236.889
537.237	242.222
538.817	238.667
540.396	245.778
541.975	243.111
543.553	238.444
545.132	246.667
546.71	237.778
548.286	240
549.864	231.556
551.439	236.444
553.016	235.111
554.592	239.556
556.166	238.889
557.742	232.444
559.315	229.333
560.89	236.444
562.463	229.556
564.036	232.667
565.608	236.444
567.181	238.889
568.753	238.222
570.324	236.889
571.895	231.556
573.466	231.778
575.036	232.222
576.605	234.667
578.175	237.556
579.744	232.667
581.313	229.556
582.88	229.333
584.448	227.333
586.016	230.667
587.582	233.111
589.148	231.333
590.715	232.444
592.28	225.778
593.845	228.667
595.411	228.667
596.975	232.222
598.538	222.889
600.102	224.667
601.666	223.333
603.228	221.111
604.79	224.667
606.352	227.333
607.914	231.778
609.475	222.222
611.035	228.667
612.596	216.444
614.155	225.111
615.714	222.444
617.274	230
618.833	231.556
620.391	227.778
621.949	220.222
623.506	221.333
625.063	228.222
626.619	219.333
628.175	222.667
629.731	229.556
631.286	227.111
632.841	224.889
634.396	225.111
635.95	226.444
637.503	227.111
639.057	226.444
640.61	226.667
642.162	223.333
643.714	233.778
645.266	228.222
646.817	229.778
648.368	230.222
649.919	223.333
651.469	226
653.018	225.111
654.568	220
656.116	220.444
657.664	225.333
659.213	225.333
660.76	219.556
662.308	220
663.854	216.222
665.4	224.667
666.946	213.556
668.492	222.444
670.037	217.778
671.581	223.778
673.126	215.333
674.67	221.333
676.214	225.333
677.757	224
679.299	221.556
680.842	224.889
682.383	224.222
683.925	224.222
685.467	234
687.007	229.556
688.547	225.333
690.087	224.667
691.627	226.222
693.166	219.333
694.704	220.222
696.243	224.222
697.78	221.111
699.318	222
700.855	226.889
702.392	224.222
703.928	223.556
705.464	220.667
706.999	221.778
708.534	222.889
710.069	220.667
711.603	222.222
713.137	224.889
714.671	219.778
716.203	222.667
717.736	221.333
719.269	218.444
720.8	222.222
722.332	217.778
723.863	212.889
725.393	220.889
726.924	211.778
728.453	213.111
729.983	215.333
731.512	216.667
733.041	210
734.569	210.222
736.096	210.444
737.624	208.444
739.151	208.889
740.678	200.222
742.204	215.333
743.73	207.556
745.256	210.667
746.781	206.444
748.305	204.889
749.829	214.222
751.353	212
752.877	205.556
754.4	208.889
755.923	206.667
757.445	211.111
758.967	208.889
760.488	209.556
762.009	207.111
763.53	209.333
765.05	205.778
766.57	206.222
768.089	203.333
769.608	201.111
771.127	200.667
772.646	198.222
774.163	207.111
775.681	202.222
777.198	204.667
778.715	200.667
780.231	206.222
781.747	198.222
783.263	198.222
784.778	200
786.293	209.778
787.808	203.778
789.322	211.778
790.835	205.556
792.348	206.667
793.861	199.556
795.373	211.111
796.886	201.111
798.397	205.111
799.908	201.333
801.419	203.556
802.93	207.111
804.44	209.111
805.949	201.556
807.458	204.222
808.968	202.222
810.476	213.778
811.984	210.444
813.492	214.667
814.999	204.667
816.506	213.111
818.013	204.222
819.518	208
821.024	216.444
822.53	216.444
824.035	216
825.539	216.667
827.043	222
828.547	208.889
830.05	214.889
831.554	215.111
833.056	211.333
834.559	212.889
836.06	209.556
837.562	211.111
839.063	215.333
840.564	205.333
842.064	214
843.564	217.556
845.063	210
846.563	209.556
848.061	208.444
849.559	213.333
851.058	214.889
852.555	215.556
854.052	217.111
855.549	215.556
857.045	213.556
858.541	205.556
860.037	214
861.532	211.556
863.027	212.222
864.522	215.111
866.016	212.889
867.51	216.444
869.003	211.111
870.496	208.667
871.989	212.667
873.481	215.333
874.972	218.444
876.464	215.556
877.955	212.444
879.446	209.111
880.936	210
882.426	210.222
883.915	209.111
885.404	211.111
886.893	204.667
888.381	205.556
889.869	198
891.356	200.444
892.843	209.778
894.331	211.333
895.818	211.556
897.304	201.778
898.789	206.889
900.274	204.444
901.758	198.222
903.243	197.111
904.727	198
906.211	191.333
907.694	193.778
909.177	204.444
910.66	195.556
912.142	192.889
913.624	193.333
915.106	188.222
916.587	198.222
918.067	199.556
919.547	188
921.028	190.222
922.507	194.667
923.987	193.556
925.465	190
926.943	190.222
928.422	196
929.899	194
931.376	190
932.853	186.222
934.33	189.111
935.805	191.556
937.281	193.333
938.757	193.111
940.231	194.889
941.706	191.333
943.181	194
944.654	188.444
946.128	190.444
947.601	193.778
949.074	189.556
950.546	187.333
952.018	186.889
953.49	184.889
954.961	191.333
956.432	183.556
957.902	187.778
959.372	190.889
960.841	190.889
962.311	186.444
963.78	187.111
965.249	192.222
966.717	190.222
968.185	188.222
969.652	188.889
971.119	186.444
972.586	186.222
974.052	186.889
975.518	187.556
976.984	186.667
978.448	185.111
979.913	183.556
981.378	181.111
982.842	185.111
984.305	186.889
985.769	185.333
987.232	183.111
988.694	182.444
990.156	183.556
991.619	184.444
993.08	185.111
994.541	180.667
996.001	187.556
997.461	185.333
998.921	190.222
1000.38	183.333
1001.84	185.778
1003.3	188.667
1004.76	189.556
1006.22	179.556
1007.67	176.444
1009.13	181.778
1010.59	179.556
1012.04	186.889
1013.5	183.333
1014.96	180.444
1016.41	185.778
1017.87	183.333
1019.32	183.778
1020.78	184.667
1022.23	190
1023.68	187.778
1025.14	190.222
1026.59	188.444
1028.04	190
1029.49	188.889
1030.95	181.333
1032.4	187.333
1033.85	183.333
1035.3	189.333
1036.75	185.333
1038.2	187.333
1039.65	181.111
1041.1	184.444
1042.55	190.222
1043.99	183.556
1045.44	190.222
1046.89	188.444
1048.34	184.889
1049.78	183.556
1051.23	191.778
1052.68	189.111
1054.12	189.778
1055.57	194.889
1057.01	189.556
1058.46	191.333
1059.9	190.889
1061.35	196.667
1062.79	192.889
1064.23	192.444
1065.68	189.556
1067.12	193.778
1068.56	194.889
1070	198
1071.44	192.889
1072.89	203.111
1074.33	202.444
1075.77	201.111
1077.21	200.889
1078.65	209.333
1080.09	202.444
1081.53	207.778
1082.96	205.333
1084.4	206.444
1085.84	210.667
1087.28	216.667
1088.71	217.556
1090.15	225.111
1091.59	232.222
1093.02	237.111
1094.46	235.556
1095.89	228.222
1097.33	238.667
1098.76	231.333
1100.2	234.889
1101.63	229.778
1103.06	221.778
1104.5	228.222
1105.93	226.222
1107.36	220.667
1108.79	225.778
1110.23	232.444
1111.66	231.778
1113.09	230.667
1114.52	233.778
1115.95	235.778
1117.38	239.556
1118.81	236.667
1120.24	238.667
1121.67	235.333
1123.09	245.778
1124.52	239.333
1125.95	240.444
1127.38	237.111
1128.8	236.444
1130.23	234.667
1131.66	232.222
1133.08	235.333
1134.51	230.222
1135.93	226.444
1137.36	229.778
1138.78	229.556
1140.21	221.778
1141.63	229.111
1143.05	228.667
1144.47	230.667
1145.9	236
1147.32	230.444
1148.74	231.778
1150.16	240
1151.58	236.889
1153	239.778
1154.43	240.889
1155.85	236.667
1157.27	238.222
1158.68	226.222
1160.1	231.556
1161.52	233.111
1162.94	226.222
1164.36	223.556
1165.78	222
1167.19	227.556
1168.61	225.111
1170.03	217.778
1171.44	220.667
1172.86	224.444
1174.27	227.556
1175.69	213.778
1177.1	232.444
1178.52	224.444
1179.93	218
1181.34	221.556
1182.76	221.333
1184.17	222.444
1185.58	217.556
1187	221.556
1188.41	224.444
1189.82	227.556
1191.23	219.333
1192.64	225.333
1194.05	223.556
1195.46	232.222
1196.87	226.222
1198.28	226
1199.69	233.333
1201.1	218.889
1202.51	227.333
1203.91	227.556
1205.32	231.556
1206.73	232.444
1208.14	232.667
1209.54	227.333
1210.95	227.778
1212.35	235.556
1213.76	236.889
1215.17	233.111
1216.57	231.111
1217.97	238.667
1219.38	234.222
1220.78	234.667
1222.19	239.778
1223.59	235.333
1224.99	236.667
1226.39	233.111
1227.8	246.889
1229.2	236
1230.6	241.556
1232	240.667
1233.4	243.111
1234.8	240.667
1236.2	238.667
1237.6	235.333
1239	246.667
1240.4	244.667
1241.8	241.556
1243.19	241.778
1244.59	242
1245.99	239.111
1247.38	241.111
1248.78	248
1250.18	244.667
1251.57	246.667
1252.97	248.222
1254.36	237.778
1255.76	247.556
1257.15	242
1258.55	238.667
1259.94	245.556
1261.34	231.556
1262.73	236.222
1264.12	243.556
1265.51	243.111
1266.91	255.778
1268.3	245.111
1269.69	248
1271.08	248.222
1272.47	248.222
1273.86	247.333
1275.25	252.222
1276.64	250.222
1278.03	249.111
1279.42	247.556
1280.81	253.333
1282.2	251.333
1283.58	251.556
1284.97	248.444
1286.36	244.889
1287.75	252.444
1289.13	249.778
1290.52	261.111
1291.9	248.889
1293.29	250
1294.68	254.222
1296.06	248.667
1297.44	251.111
1298.83	257.111
1300.21	244.667
1301.6	251.778
1302.98	246.444
1304.36	250
1305.74	250.444
1307.13	251.333
1308.51	251.556
1309.89	249.111
1311.27	244.444
1312.65	252.889
1314.03	244.444
1315.41	250
1316.79	249.778
1318.17	242.667
1319.55	244
1320.93	243.778
1322.31	247.111
1323.68	248.222
1325.06	252.444
1326.44	246.222
1327.82	246.444
1329.19	249.556
1330.57	251.111
1331.94	253.778
1333.32	250.222
1334.7	245.111
1336.07	250.444
1337.44	253.333
1338.82	252
1340.19	259.111
1341.57	249.333
1342.94	252.444
1344.31	254.667
1345.68	253.778
1347.06	251.556
1348.43	258.889
1349.8	254.667
1351.17	255.778
1352.54	250.222
1353.91	249.778
1355.28	255.778
1356.65	248.222
1358.02	245.333
1359.39	236.444
1360.76	239.778
1362.13	247.333
1363.5	244
1364.86	243.333
1366.23	245.111
1367.6	238
1368.96	241.111
1370.33	238.889
1371.7	245.556
1373.06	239.778
1374.43	243.333
1375.79	243.111
1377.16	237.556
1378.52	237.111
1379.89	241.111
1381.25	242.222
1382.61	239.111
1383.98	237.333
1385.34	237.778
1386.7	231.556
1388.06	238.222
1389.42	231.778
1390.78	230.222
1392.15	230.444
1393.51	228.222
1394.87	223.778
1396.23	225.778
1397.59	221.556
1398.95	233.333
1400.3	221.556
1401.66	220.667
1403.02	229.778
1404.38	223.556
1405.74	221.333
1407.09	227.333
1408.45	222
1409.81	226.444
1411.16	236
1412.52	227.778
1413.87	228.222
1415.23	229.333
1416.58	226.889
1417.94	229.333
1419.29	229.111
1420.65	234.667
1422	232.889
1423.35	230.444
1424.71	234
1426.06	232.222
1427.41	234.444
1428.76	233.778
1430.11	237.556
1431.47	236.222
1432.82	240.667
1434.17	235.556
1435.52	234.889
1436.87	245.778
1438.22	242.889
1439.57	240
1440.91	241.333
1442.26	239.778
1443.61	238.222
1444.96	247.111
1446.31	241.778
1447.65	235.333
1449	238.222
1450.35	245.556
1451.69	243.333
1453.04	252
1454.39	256
1455.73	251.556
1457.08	250.444
1458.42	245.111
1459.76	252.222
1461.11	254
1462.45	259.333
1463.79	261.111
1465.14	256.222
1466.48	256.667
1467.82	254
1469.16	254.444
1470.51	254.889
1471.85	253.111
1473.19	254.667
1474.53	260.222
1475.87	255.778
1477.21	259.556
1478.55	265.111
1479.89	262.667
1481.23	261.111
1482.56	252.889
1483.9	260.444
1485.24	255.556
1486.58	252.444
1487.92	261.111
1489.25	255.333
1490.59	255.111
1491.93	261.111
1493.26	256.222
1494.6	249.333
1495.93	257.556
1497.27	258.444
1498.6	259.333
1499.94	258.667
1501.27	257.778
1502.6	264.667
1503.94	260.889
1505.27	263.556
1506.6	268
1507.94	266.667
1509.27	266.667
1510.6	254.889
1511.93	267.111
1513.26	271.556
1514.59	264
1515.92	264.667
1517.25	262.222
1518.58	266.222
1519.91	264.222
1521.24	258.667
1522.57	265.556
1523.9	263.778
1525.23	271.111
1526.55	266
1527.88	268.667
1529.21	272.889
1530.54	270.222
1531.86	271.778
1533.19	276.222
1534.51	267.556
1535.84	277.111
1537.16	274.667
1538.49	267.778
1539.81	266.667
1541.14	275.111
1542.46	274
1543.79	274.667
1545.11	276.889
1546.43	278.222
1547.75	274.444
1549.08	273.556
1550.4	269.333
1551.72	280.222
1553.04	279.778
1554.36	282
1555.68	278.222
1557	274.222
1558.32	276.222
1559.64	282
1560.96	279.778
1562.28	293.111
1563.6	296.222
1564.92	292.889
1566.24	286.444
1567.55	284.889
1568.87	280.444
1570.19	279.778
1571.51	284.222
1572.82	283.333
1574.14	282.667
1575.45	282
1576.77	277.556
1578.09	279.778
1579.4	279.778
1580.71	278.889
1582.03	278.444
1583.34	281.778
1584.66	277.778
1585.97	277.556
1587.28	272.889
1588.59	271.778
1589.91	270.444
1591.22	272.667
1592.53	276.889
1593.84	271.333
1595.15	271.778
1596.46	275.111
1597.77	272.889
1599.08	266.889
1600.39	270
1601.7	264.222
1603.01	258.222
1604.32	254.444
1605.63	254.444
1606.94	249.111
1608.25	248
1609.55	245.111
1610.86	240.889
1612.17	236.667
1613.47	237.778
1614.78	236.889
1616.09	227.556
1617.39	228.667
1618.7	220.222
1620	216.444
1621.31	216
1622.61	215.778
1623.92	204.889
1625.22	208.444
1626.52	206
1627.82	200.444
1629.13	192.889
1630.43	195.333
1631.73	190
1633.03	186.667
1634.34	190.667
1635.64	184
1636.94	181.556
1638.24	179.333
1639.54	179.333
1640.84	172.444
1642.14	174.889
1643.44	170
1644.74	174
1646.03	170.222
1647.33	164.667
1648.63	165.111
1649.93	161.778
1651.23	161.778
1652.52	160.222
1653.82	159.778
1655.12	156.222
1656.41	157.111
1657.71	154.222
1659	152.667
1660.3	149.556
1661.59	150.444
1662.89	147.111
1664.18	144.667
1665.48	142.667
1666.77	139.333
1668.06	141.333
1669.36	139.778
1670.65	143.333
1671.94	144.667
1673.23	142.667
1674.53	140.222
1675.82	141.333
1677.11	131.778
1678.4	131.778
1679.69	130.222
1680.98	130.667
1682.27	132.222
1683.56	134.667
1684.85	130.667
1686.14	130.444
1687.43	132
1688.71	131.111
1690	132.222
1691.29	129.778
1692.58	128.444
1693.86	123.333
1695.15	124.667
1696.44	128.889
1697.72	127.556
1699.01	123.111
1700.29	122.222
1701.58	123.333
1702.86	123.333
1704.15	128.667
1705.43	123.778
1706.72	124.222
1708	122
1709.28	125.778
1710.57	122
1711.85	122.667
1713.13	121.556
1714.41	124.444
1715.7	121.333
1716.98	126
1718.26	117.333
1719.54	118.222
1720.82	124.889
1722.1	116.667
1723.38	116.667
1724.66	118.444
1725.94	118
1727.22	117.778
1728.5	116.889
1729.78	116.667
1731.05	120.222
1732.33	117.111
1733.61	118.667
1734.89	116.667
1736.16	112.444
1737.44	115.556
1738.72	116.889
1739.99	110.444
1741.27	108.222
1742.54	108.889
1743.82	111.556
1745.09	106.889
1746.37	116.667
1747.64	115.556
1748.91	112.889
1750.19	110.444
1751.46	109.333
1752.73	111.556
1754.01	108.444
1755.28	108
1756.55	107.778
1757.82	103.556
1759.09	110.667
1760.36	106
1761.63	109.556
1762.91	106
1764.18	108.444
1765.45	103.778
1766.71	106.889
1767.98	102.889
1769.25	108.222
1770.52	108.889
1771.79	104.222
1773.06	103.111
1774.33	111.778
1775.59	106.222
1776.86	103.333
1778.13	106
1779.39	105.333
1780.66	103.556
1781.92	100.444
1783.19	100.667
1784.46	104.889
1785.72	102.222
1786.99	106.222
1788.25	101.333
1789.51	104.444
1790.78	107.111
1792.04	102.889
1793.3	100.444
1794.57	101.333
1795.83	106.222
1797.09	103.111
1798.35	100.667
1799.61	100.667
1800.88	102.889
1802.14	98.8889
1803.4	97.7778
1804.66	101.111
1805.92	98.2222
1807.18	101.333
1808.44	96.6667
1809.7	98.4445
1810.96	102.444
1812.21	100.444
1813.47	97.3333
1814.73	100.222
1815.99	97.1111
1817.25	97.1111
1818.5	98.6667
1819.76	96.2222
1821.02	96.8889
1822.27	96.6667
1823.53	96
1824.78	95.3333
1826.04	97.5556
1827.29	97.7778
1828.55	94.6667
1829.8	95.5556
1831.06	97.3333
1832.31	101.111
1833.56	96.4444
1834.82	96.6667
1836.07	101.778
1837.32	99.5556
1838.58	91.5556
1839.83	94
1841.08	92
1842.33	94.6667
1843.58	96.2222
1844.83	97.1111
1846.08	96.2222
1847.33	97.3333
1848.58	94.6667
1849.83	91.5556
1851.08	95.5556
1852.33	98.4444
1853.58	93.5556
1854.83	92.6667
1856.08	95.7778
1857.32	96.6667
1858.57	96.8889
1859.82	93.5556
1861.07	94.6667
1862.31	98.2222
1863.56	92.8889
1864.8	90
1866.05	94.2222
1867.3	93.5556
1868.54	93.5556
1869.79	97.3333
1871.03	90.4444
1872.27	95.3333
1873.52	94.2222
