425.605	353.333
427.215	344.667
428.823	349.778
430.432	348.889
432.04	363.778
433.648	358.444
435.255	353.556
436.862	362
438.468	348.444
440.075	353.333
441.68	339.556
443.285	342
444.89	342.222
446.494	333.778
448.098	340
449.702	336.889
451.305	334
452.907	336
454.509	340.667
456.112	340.667
457.713	337.778
459.313	335.333
460.914	333.556
462.513	320.444
464.114	328.444
465.713	322
467.311	322.444
468.91	321.556
470.507	307.556
472.105	309.556
473.703	312.444
475.299	313.556
476.895	307.778
478.491	310
480.086	317.111
481.681	306.889
483.276	309.778
484.87	299.556
486.463	304.444
488.056	303.778
489.649	305.778
491.242	303.333
492.833	299.778
494.425	307.111
496.016	299.111
497.607	298.667
499.197	288.444
500.787	300.444
502.377	293.333
503.966	293.333
505.554	287.778
507.143	295.333
508.729	296.444
510.317	287.778
511.904	296.667
513.491	294.444
515.077	296.889
516.662	303.556
518.248	302.667
519.832	307.778
521.416	300.667
523.001	295.111
524.584	292.444
526.168	290.444
527.75	289.556
529.332	289.111
530.914	290.444
532.496	279.778
534.076	290.222
535.657	278.667
537.237	278.889
538.817	276.667
540.396	278
541.975	272.222
543.553	272.889
545.132	273.556
546.71	266.667
548.286	272.667
549.864	274.444
551.439	277.556
553.016	268
554.592	272
556.166	270.667
557.742	268.889
559.315	269.556
560.89	262.889
562.463	270
564.036	268.667
565.608	259.778
567.181	272.667
568.753	270
570.324	263.556
571.895	276
573.466	269.778
575.036	259.333
576.605	275.111
578.175	272.889
579.744	267.333
581.313	257.556
582.88	263.778
584.448	264.667
586.016	260.889
587.582	269.778
589.148	270.222
590.715	261.556
592.28	264.889
593.845	259.778
595.411	259.778
596.975	261.111
598.538	258.444
600.102	257.111
601.666	249.333
603.228	253.778
604.79	256.889
606.352	252
607.914	259.556
609.475	257.778
611.035	260.889
612.596	257.111
614.155	264
615.714	261.778
617.274	259.111
618.833	253.778
620.391	254.222
621.949	259.556
623.506	257.778
625.063	252.889
626.619	248.667
628.175	255.333
629.731	254.667
631.286	255.778
632.841	256.889
634.396	253.333
635.95	250.889
637.503	260.444
639.057	256.889
640.61	260.222
642.162	255.111
643.714	256.889
645.266	256.222
646.817	263.333
648.368	257.556
649.919	254.889
651.469	255.111
653.018	249.333
654.568	258.889
656.116	262.667
657.664	247.778
659.213	257.333
660.76	250.222
662.308	254.444
663.854	247.556
665.4	255.333
666.946	256.889
668.492	254.222
670.037	250.444
671.581	253.111
673.126	251.333
674.67	242.889
676.214	253.333
677.757	254.889
679.299	262.444
680.842	255.556
682.383	258.222
683.925	254.667
685.467	257.778
687.007	252.667
688.547	262.222
690.087	248.222
691.627	242.667
693.166	257.333
694.704	251.556
696.243	253.778
697.78	252.444
699.318	259.333
700.855	253.556
702.392	258
703.928	252.889
705.464	260.444
706.999	253.333
708.534	247.111
710.069	248
711.603	248
713.137	248.222
714.671	248.889
716.203	249.111
717.736	248
719.269	250.444
720.8	246
722.332	253.111
723.863	244.889
725.393	244.444
726.924	244.889
728.453	240.889
729.983	246.889
731.512	243.556
733.041	239.556
734.569	242.222
736.096	236.889
737.624	245.778
739.151	237.333
740.678	227.556
742.204	243.333
743.73	236.444
745.256	234
746.781	234.889
748.305	227.778
749.829	232.667
751.353	231.333
752.877	232.444
754.4	235.111
755.923	232
757.445	242.444
758.967	236.222
760.488	234.444
762.009	228
763.53	231.778
765.05	234
766.57	230.667
768.089	229.111
769.608	228
771.127	236
772.646	230.444
774.163	227.333
775.681	225.111
777.198	232.444
778.715	236.222
780.231	233.111
781.747	232.667
783.263	229.333
784.778	233.778
786.293	228.889
787.808	235.778
789.322	234.222
790.835	236.222
792.348	232.889
793.861	237.111
795.373	229.778
796.886	235.333
798.397	226.667
799.908	234.667
801.419	235.111
802.93	228
804.44	233.556
805.949	231.556
807.458	234.444
808.968	238.667
810.476	239.556
811.984	240.222
813.492	235.556
814.999	243.111
816.506	248.889
818.013	234.444
819.518	247.111
821.024	241.778
822.53	240.444
824.035	236.889
825.539	244.222
827.043	239.556
828.547	231.556
830.05	240.667
831.554	235.333
833.056	232.444
834.559	228.889
836.06	242.444
837.562	242.667
839.063	236.667
840.564	243.333
842.064	241.333
843.564	240
845.063	244
846.563	244.222
848.061	239.556
849.559	242.222
851.058	234.667
852.555	244.444
854.052	236.444
855.549	236.889
857.045	240.444
858.541	242.667
860.037	243.111
861.532	240.667
863.027	238
864.522	238.889
866.016	237.333
867.51	239.778
869.003	248.889
870.496	246.444
871.989	245.111
873.481	239.333
874.972	248.444
876.464	243.111
877.955	245.778
879.446	237.333
880.936	239.111
882.426	233.778
883.915	244
885.404	245.111
886.893	236
888.381	241.778
889.869	239.111
891.356	234.222
892.843	236.444
894.331	239.556
895.818	235.111
897.304	229.778
898.789	228.444
900.274	229.333
901.758	233.111
903.243	229.333
904.727	223.111
906.211	224.889
907.694	235.111
909.177	225.333
910.66	224
912.142	224.889
913.624	230.444
915.106	227.111
916.587	233.333
918.067	216.667
919.547	224.889
921.028	227.556
922.507	221.333
923.987	223.778
925.465	234.444
926.943	217.556
928.422	216.667
929.899	227.111
931.376	225.778
932.853	212.667
934.33	216.889
935.805	224.444
937.281	218.667
938.757	228
940.231	223.556
941.706	221.778
943.181	223.556
944.654	218
946.128	216.222
947.601	222.667
949.074	219.111
950.546	216
952.018	214.444
953.49	216.444
954.961	206.444
956.432	211.111
957.902	214.444
959.372	214.444
960.841	216.444
962.311	217.333
963.78	213.556
965.249	215.556
966.717	213.111
968.185	218.222
969.652	214.222
971.119	214.667
972.586	206.444
974.052	211.111
975.518	212.222
976.984	210.444
978.448	211.556
979.913	212.222
981.378	209.333
982.842	209.778
984.305	203.778
985.769	215.111
987.232	213.556
988.694	210.222
990.156	211.333
991.619	216.222
993.08	212.444
994.541	217.333
996.001	214
997.461	218.444
998.921	214.667
1000.38	213.111
1001.84	220.222
1003.3	211.556
1004.76	209.333
1006.22	198
1007.67	204.444
1009.13	208
1010.59	212.222
1012.04	210.444
1013.5	203.333
1014.96	210.667
1016.41	201.778
1017.87	210.889
1019.32	209.556
1020.78	211.333
1022.23	213.778
1023.68	212.667
1025.14	214.889
1026.59	213.111
1028.04	216
1029.49	218
1030.95	217.111
1032.4	218.889
1033.85	211.111
1035.3	218
1036.75	217.111
1038.2	213.333
1039.65	216.444
1041.1	214
1042.55	208.889
1043.99	214.889
1045.44	213.778
1046.89	210
1048.34	216.444
1049.78	216.889
1051.23	220
1052.68	217.111
1054.12	215.111
1055.57	210.222
1057.01	210.444
1058.46	223.778
1059.9	222.667
1061.35	225.556
1062.79	214.444
1064.23	219.778
1065.68	221.778
1067.12	225.111
1068.56	226.444
1070	217.111
1071.44	220
1072.89	225.778
1074.33	226.444
1075.77	231.778
1077.21	224.444
1078.65	229.333
1080.09	235.333
1081.53	238.889
1082.96	242
1084.4	250.667
1085.84	246.444
1087.28	264.889
1088.71	256
1090.15	255.111
1091.59	276.222
1093.02	276.889
1094.46	287.111
1095.89	290.667
1097.33	273.333
1098.76	272.889
1100.2	272.889
1101.63	271.556
1103.06	263.556
1104.5	265.778
1105.93	260.889
1107.36	264.667
1108.79	264.667
1110.23	264.444
1111.66	255.111
1113.09	272.667
1114.52	270.444
1115.95	275.778
1117.38	278.222
1118.81	279.556
1120.24	277.556
1121.67	279.778
1123.09	281.111
1124.52	278.444
1125.95	276.889
1127.38	265.111
1128.8	268
1130.23	265.333
1131.66	266
1133.08	260.889
1134.51	258.444
1135.93	256.222
1137.36	256.444
1138.78	252.444
1140.21	255.778
1141.63	248.667
1143.05	250
1144.47	252.222
1145.9	247.778
1147.32	255.556
1148.74	254.444
1150.16	251.778
1151.58	254.889
1153	252.889
1154.43	256.889
1155.85	248
1157.27	243.778
1158.68	246.444
1160.1	246.444
1161.52	252.222
1162.94	259.111
1164.36	248
1165.78	244
1167.19	239.111
1168.61	252.222
1170.03	244.889
1171.44	243.333
1172.86	250.889
1174.27	246.889
1175.69	244
1177.1	242.667
1178.52	243.333
1179.93	245.556
1181.34	238.444
1182.76	238.667
1184.17	248
1185.58	243.111
1187	244.889
1188.41	245.778
1189.82	240.889
1191.23	240.889
1192.64	241.556
1194.05	235.333
1195.46	246.889
1196.87	243.778
1198.28	246.889
1199.69	245.333
1201.1	250.444
1202.51	256.667
1203.91	248.667
1205.32	250.889
1206.73	252
1208.14	246.667
1209.54	247.556
1210.95	254.444
1212.35	257.556
1213.76	249.333
1215.17	252.222
1216.57	254.444
1217.97	257.111
1219.38	255.111
1220.78	253.111
1222.19	252.222
1223.59	259.111
1224.99	258
1226.39	260.889
1227.8	264
1229.2	264
1230.6	266.222
1232	262
1233.4	263.111
1234.8	261.333
1236.2	264.222
1237.6	267.111
1239	263.333
1240.4	271.556
1241.8	271.111
1243.19	268
1244.59	268.222
1245.99	265.778
1247.38	263.111
1248.78	274.889
1250.18	277.333
1251.57	272.222
1252.97	273.778
1254.36	268
1255.76	266.889
1257.15	265.333
1258.55	271.778
1259.94	278.222
1261.34	270
1262.73	267.556
1264.12	279.111
1265.51	274.667
1266.91	274.444
1268.3	280.667
1269.69	268.667
1271.08	271.778
1272.47	272.667
1273.86	271.556
1275.25	271.111
1276.64	269.333
1278.03	275.556
1279.42	270
1280.81	281.333
1282.2	274.222
1283.58	287.556
1284.97	283.333
1286.36	277.111
1287.75	278
1289.13	281.778
1290.52	278.667
1291.9	281.333
1293.29	282.667
1294.68	281.778
1296.06	280.222
1297.44	284
1298.83	282.444
1300.21	273.556
1301.6	276.889
1302.98	284.667
1304.36	278.222
1305.74	281.111
1307.13	281.778
1308.51	280.889
1309.89	278.444
1311.27	276.667
1312.65	280.889
1314.03	269.333
1315.41	281.778
1316.79	279.556
1318.17	278.444
1319.55	274.667
1320.93	282.667
1322.31	276.667
1323.68	278.222
1325.06	272.222
1326.44	277.111
1327.82	278.222
1329.19	266
1330.57	258.222
1331.94	271.111
1333.32	268.222
1334.7	268.889
1336.07	268
1337.44	264
1338.82	266.667
1340.19	272.222
1341.57	268
1342.94	267.556
1344.31	259.333
1345.68	262
1347.06	265.333
1348.43	268.889
1349.8	259.333
1351.17	260
1352.54	256.667
1353.91	261.778
1355.28	263.333
1356.65	250.444
1358.02	267.333
1359.39	260.667
1360.76	256.889
1362.13	258.222
1363.5	267.778
1364.86	270.222
1366.23	265.111
1367.6	266.444
1368.96	261.778
1370.33	266.222
1371.7	262.444
1373.06	267.778
1374.43	271.556
1375.79	259.778
1377.16	260.889
1378.52	262
1379.89	262
1381.25	268
1382.61	263.778
1383.98	256.889
1385.34	255.778
1386.7	255.333
1388.06	257.778
1389.42	256.889
1390.78	258.889
1392.15	249.333
1393.51	253.111
1394.87	252
1396.23	248.222
1397.59	252
1398.95	252.222
1400.3	246.222
1401.66	250.667
1403.02	248.667
1404.38	243.778
1405.74	247.111
1407.09	254.222
1408.45	245.111
1409.81	244.222
1411.16	250.222
1412.52	241.333
1413.87	247.778
1415.23	240.444
1416.58	250.889
1417.94	246.444
1419.29	246
1420.65	254
1422	251.778
1423.35	245.333
1424.71	248.667
1426.06	260.444
1427.41	244
1428.76	246.889
1430.11	250
1431.47	250.444
1432.82	252.222
1434.17	254
1435.52	256
1436.87	252.889
1438.22	254.667
1439.57	263.111
1440.91	248.667
1442.26	263.111
1443.61	258
1444.96	256.444
1446.31	261.778
1447.65	259.778
1449	256.667
1450.35	266.222
1451.69	264.444
1453.04	265.556
1454.39	262.444
1455.73	265.556
1457.08	263.778
1458.42	268.667
1459.76	258.889
1461.11	265.333
1462.45	261.333
1463.79	262.222
1465.14	265.333
1466.48	268.444
1467.82	254.222
1469.16	270.444
1470.51	268.444
1471.85	259.111
1473.19	260
1474.53	265.556
1475.87	262.889
1477.21	262.667
1478.55	272.444
1479.89	263.778
1481.23	267.111
1482.56	260.444
1483.9	264
1485.24	260.889
1486.58	264.444
1487.92	259.111
1489.25	258.444
1490.59	267.333
1491.93	253.778
1493.26	251.111
1494.6	262.889
1495.93	270.222
1497.27	257.333
1498.6	256.667
1499.94	257.333
1501.27	262.444
1502.6	264.889
1503.94	264.444
1505.27	260.222
1506.6	266
1507.94	268
1509.27	262.222
1510.6	264.222
1511.93	264
1513.26	271.111
1514.59	271.556
1515.92	272
1517.25	260.222
1518.58	271.333
1519.91	262.667
1521.24	270.444
1522.57	264.444
1523.9	270.667
1525.23	263.333
1526.55	272.222
1527.88	265.333
1529.21	273.111
1530.54	277.556
1531.86	285.333
1533.19	283.556
1534.51	277.778
1535.84	278.889
1537.16	280.444
1538.49	284.889
1539.81	271.778
1541.14	282.222
1542.46	282.222
1543.79	283.333
1545.11	285.333
1546.43	291.111
1547.75	279.778
1549.08	294.444
1550.4	279.556
1551.72	286.222
1553.04	288.667
1554.36	286.667
1555.68	289.111
1557	298.889
1558.32	301.111
1559.64	300
1560.96	300
1562.28	300
1563.6	299.556
1564.92	298
1566.24	306.444
1567.55	308.222
1568.87	303.556
1570.19	296
1571.51	296.889
1572.82	304
1574.14	288
1575.45	298
1576.77	296.667
1578.09	300.889
1579.4	303.556
1580.71	295.333
1582.03	297.556
1583.34	304
1584.66	303.556
1585.97	298.444
1587.28	298.889
1588.59	294.444
1589.91	307.556
1591.22	298.667
1592.53	291.333
1593.84	288.667
1595.15	299.778
1596.46	290.667
1597.77	296.889
1599.08	282.889
1600.39	291.111
1601.7	288.222
1603.01	276.667
1604.32	272.889
1605.63	280
1606.94	278.667
1608.25	261.556
1609.55	264.889
1610.86	258.667
1612.17	259.556
1613.47	254.667
1614.78	252.222
1616.09	241.333
1617.39	244.889
1618.7	238
1620	232.889
1621.31	226.889
1622.61	227.778
1623.92	230.222
1625.22	222.667
1626.52	218.222
1627.82	213.556
1629.13	213.556
1630.43	208.667
1631.73	206.222
1633.03	209.111
1634.34	205.333
1635.64	196.889
1636.94	198
1638.24	195.778
1639.54	190.444
1640.84	192.667
1642.14	190.444
1643.44	184.444
1644.74	183.111
1646.03	184
1647.33	175.778
1648.63	184.444
1649.93	179.111
1651.23	173.333
1652.52	175.556
1653.82	172.222
1655.12	172.222
1656.41	171.556
1657.71	162.222
1659	162.667
1660.3	161.778
1661.59	162.444
1662.89	159.556
1664.18	161.111
1665.48	160
1666.77	161.111
1668.06	159.778
1669.36	153.556
1670.65	154.444
1671.94	156.667
1673.23	151.111
1674.53	151.111
1675.82	150.889
1677.11	147.333
1678.4	144.222
1679.69	142.444
1680.98	146.889
1682.27	143.111
1683.56	144
1684.85	144
1686.14	142.444
1687.43	144
1688.71	142.444
1690	137.556
1691.29	140.444
1692.58	135.778
1693.86	139.333
1695.15	140.889
1696.44	137.556
1697.72	140.667
1699.01	136
1700.29	135.333
1701.58	134.889
1702.86	135.333
1704.15	129.556
1705.43	135.556
1706.72	134
1708	137.333
1709.28	133.111
1710.57	134.889
1711.85	130.667
1713.13	132
1714.41	131.556
1715.7	132.444
1716.98	133.111
1718.26	128.889
1719.54	132.889
1720.82	129.111
1722.1	132.667
1723.38	134
1724.66	126
1725.94	130.222
1727.22	127.556
1728.5	128.444
1729.78	128.222
1731.05	123.556
1732.33	124.667
1733.61	126
1734.89	122.889
1736.16	128.222
1737.44	127.111
1738.72	126.444
1739.99	121.556
1741.27	122.667
1742.54	126.222
1743.82	119.556
1745.09	122.222
1746.37	125.556
1747.64	117.111
1748.91	123.333
1750.19	119.333
1751.46	118
1752.73	121.556
1754.01	115.778
1755.28	122
1756.55	121.556
1757.82	120.444
1759.09	123.778
1760.36	118.222
1761.63	117.333
1762.91	118.222
1764.18	121.556
1765.45	120.889
1766.71	112.667
1767.98	113.333
1769.25	118.889
1770.52	118.667
1771.79	113.333
1773.06	116
1774.33	119.333
1775.59	115.111
1776.86	115.333
1778.13	117.778
1779.39	112.889
1780.66	114.444
1781.92	117.556
1783.19	114.444
1784.46	114.667
1785.72	112
1786.99	107.111
1788.25	112.889
1789.51	111.778
1790.78	112.889
1792.04	109.556
1793.3	112.222
1794.57	114.444
1795.83	102.222
1797.09	110.222
1798.35	107.556
1799.61	110.444
1800.88	109.111
1802.14	103.333
1803.4	111.333
1804.66	107.778
1805.92	112.222
1807.18	108.444
1808.44	109.333
1809.7	106.444
1810.96	108.889
1812.21	109.111
1813.47	106.444
1814.73	104.889
1815.99	107.778
1817.25	106.667
1818.5	102.889
1819.76	104.222
1821.02	106.667
1822.27	107.111
1823.53	105.111
1824.78	111.111
1826.04	105.556
1827.29	103.556
1828.55	105.778
1829.8	106.444
1831.06	106.222
1832.31	107.111
1833.56	106.889
1834.82	105.778
1836.07	108.667
1837.32	106.444
1838.58	103.778
1839.83	101.111
1841.08	106.444
1842.33	106.444
1843.58	103.111
1844.83	96.8889
1846.08	103.778
1847.33	104.667
1848.58	105.778
1849.83	103.556
1851.08	101.556
1852.33	101.333
1853.58	100.667
1854.83	102
1856.08	102.667
1857.32	102.667
1858.57	101.556
1859.82	102.889
1861.07	105.333
1862.31	104
1863.56	104.444
1864.8	103.111
1866.05	101.778
1867.3	102.222
1868.54	105.111
1869.79	98.8889
1871.03	99.3333
1872.27	106
1873.52	103.778
