425.605	518.444
427.215	514.889
428.823	512
430.432	513.111
432.04	510
433.648	525.333
435.255	510.889
436.862	531.556
438.468	506.444
440.075	516.889
441.68	499.111
443.285	496.889
444.89	496.222
446.494	487.111
448.098	496
449.702	504.222
451.305	483.333
452.907	494
454.509	497.111
456.112	488.444
457.713	500.444
459.313	484.222
460.914	487.556
462.513	481.556
464.114	480
465.713	466.222
467.311	473.333
468.91	481.778
470.507	459.556
472.105	463.333
473.703	462.667
475.299	455.556
476.895	462.444
478.491	461.556
480.086	462.444
481.681	449.778
483.276	458.667
484.87	451.556
486.463	455.111
488.056	448.222
489.649	454.667
491.242	461.333
492.833	440
494.425	440
496.016	456.444
497.607	454
499.197	444.222
500.787	447.778
502.377	448.889
503.966	438.667
505.554	432.222
507.143	436.889
508.729	439.778
510.317	440
511.904	434.667
513.491	436.667
515.077	440.667
516.662	430
518.248	443.778
519.832	430
521.416	438.444
523.001	424.222
524.584	420
526.168	416.444
527.75	410.222
529.332	418.667
530.914	404
532.496	409.556
534.076	400.444
535.657	406.889
537.237	407.778
538.817	400.444
540.396	399.333
541.975	396.667
543.553	410
545.132	398.444
546.71	390
548.286	403.333
549.864	404.222
551.439	398.889
553.016	399.778
554.592	398.222
556.166	399.778
557.742	402
559.315	399.556
560.89	393.333
562.463	393.333
564.036	389.333
565.608	392.889
567.181	407.556
568.753	394.667
570.324	391.778
571.895	402
573.466	390.444
575.036	391.556
576.605	386
578.175	391.778
579.744	390.889
581.313	386.444
582.88	392.444
584.448	393.556
586.016	383.333
587.582	392
589.148	376.667
590.715	378
592.28	386
593.845	384
595.411	383.556
596.975	382
598.538	382.222
600.102	381.111
601.666	383.778
603.228	376.444
604.79	374.889
606.352	378.667
607.914	376.889
609.475	368.889
611.035	377.778
612.596	377.778
614.155	378
615.714	370.667
617.274	380.667
618.833	374.444
620.391	375.111
621.949	389.333
623.506	376
625.063	382
626.619	378.222
628.175	380.889
629.731	380.667
631.286	373.111
632.841	373.556
634.396	391.556
635.95	380
637.503	376
639.057	380.444
640.61	384
642.162	384.889
643.714	385.778
645.266	385.778
646.817	383.556
648.368	377.111
649.919	375.111
651.469	377.556
653.018	379.778
654.568	377.778
656.116	370.889
657.664	374.444
659.213	369.556
660.76	376
662.308	378
663.854	372.667
665.4	377.556
666.946	378.889
668.492	365.556
670.037	374.667
671.581	378.667
673.126	378.222
674.67	377.778
676.214	380.889
677.757	375.333
679.299	381.111
680.842	370.444
682.383	382.667
683.925	384.889
685.467	388.222
687.007	385.556
688.547	380.889
690.087	379.111
691.627	379.333
693.166	365.111
694.704	376.667
696.243	383.778
697.78	373.778
699.318	378.889
700.855	381.778
702.392	375.111
703.928	384.667
705.464	374.222
706.999	373.333
708.534	366.889
710.069	382.667
711.603	372
713.137	373.333
714.671	362.889
716.203	370.444
717.736	366.889
719.269	370.222
720.8	370.222
722.332	368.667
723.863	372.222
725.393	368.889
726.924	363.111
728.453	363.333
729.983	364.222
731.512	356.889
733.041	363.111
734.569	358.222
736.096	352.667
737.624	351.333
739.151	353.778
740.678	356.667
742.204	358
743.73	347.778
745.256	354.222
746.781	342.889
748.305	346.667
749.829	345.778
751.353	341.111
752.877	341.556
754.4	350.444
755.923	348
757.445	347.778
758.967	338.889
760.488	343.556
762.009	347.556
763.53	347.556
765.05	349.556
766.57	351.778
768.089	340.444
769.608	339.556
771.127	338.222
772.646	334.667
774.163	339.778
775.681	335.556
777.198	342.889
778.715	342
780.231	334
781.747	349.111
783.263	344
784.778	334
786.293	338.444
787.808	345.556
789.322	340
790.835	336
792.348	339.556
793.861	352.667
795.373	336.444
796.886	349.778
798.397	347.333
799.908	341.111
801.419	351.333
802.93	348
804.44	348.222
805.949	354.889
807.458	342.222
808.968	343.556
810.476	353.111
811.984	354.222
813.492	358.889
814.999	359.333
816.506	364.889
818.013	362
819.518	363.556
821.024	368.222
822.53	357.556
824.035	368
825.539	364.889
827.043	362.667
828.547	358.889
830.05	368.667
831.554	364.444
833.056	354.889
834.559	365.778
836.06	368
837.562	365.778
839.063	364.667
840.564	368.222
842.064	360.444
843.564	366.889
845.063	370
846.563	357.778
848.061	352.667
849.559	364.222
851.058	358.889
852.555	366.889
854.052	362.222
855.549	359.556
857.045	344.444
858.541	356.222
860.037	357.111
861.532	359.556
863.027	359.111
864.522	362.667
866.016	368.667
867.51	363.556
869.003	371.778
870.496	370
871.989	368.667
873.481	364
874.972	358.222
876.464	368.444
877.955	363.556
879.446	365.111
880.936	358.444
882.426	356.222
883.915	362.889
885.404	355.778
886.893	360
888.381	354
889.869	359.556
891.356	352
892.843	351.111
894.331	354.444
895.818	349.556
897.304	354.222
898.789	357.111
900.274	346
901.758	344.667
903.243	340.667
904.727	335.778
906.211	340.444
907.694	345.556
909.177	340
910.66	342.667
912.142	339.111
913.624	342.222
915.106	337.111
916.587	334
918.067	338.667
919.547	337.778
921.028	334.667
922.507	332.222
923.987	336.667
925.465	338
926.943	325.778
928.422	332
929.899	328.667
931.376	328.667
932.853	326
934.33	339.556
935.805	333.556
937.281	334
938.757	339.111
940.231	340
941.706	336.667
943.181	331.111
944.654	325.778
946.128	334.222
947.601	336.667
949.074	333.778
950.546	330.222
952.018	328.444
953.49	326
954.961	326.667
956.432	325.556
957.902	325.111
959.372	319.333
960.841	319.556
962.311	318.667
963.78	314.444
965.249	318.889
966.717	319.111
968.185	315.778
969.652	321.556
971.119	318.222
972.586	308.444
974.052	310.444
975.518	304.889
976.984	311.778
978.448	316
979.913	312.667
981.378	318.444
982.842	310.222
984.305	305.333
985.769	313.556
987.232	311.556
988.694	312.889
990.156	316
991.619	312
993.08	317.556
994.541	322
996.001	317.111
997.461	318.222
998.921	324.444
1000.38	317.556
1001.84	313.111
1003.3	313.778
1004.76	307.556
1006.22	310.667
1007.67	313.556
1009.13	301.111
1010.59	316.222
1012.04	304.667
1013.5	318.889
1014.96	309.111
1016.41	302.444
1017.87	318.444
1019.32	310.444
1020.78	312.222
1022.23	313.333
1023.68	326.667
1025.14	307.778
1026.59	321.333
1028.04	325.556
1029.49	320.444
1030.95	324.444
1032.4	327.333
1033.85	312.222
1035.3	315.333
1036.75	318.889
1038.2	316.222
1039.65	310.889
1041.1	320.222
1042.55	326
1043.99	318.889
1045.44	315.333
1046.89	322.444
1048.34	323.333
1049.78	326.889
1051.23	328.667
1052.68	326.222
1054.12	324.667
1055.57	339.778
1057.01	327.333
1058.46	323.778
1059.9	333.778
1061.35	325.111
1062.79	326.222
1064.23	321.778
1065.68	329.111
1067.12	333.333
1068.56	337.556
1070	336
1071.44	339.556
1072.89	341.556
1074.33	337.333
1075.77	334.889
1077.21	342.444
1078.65	352.222
1080.09	349.111
1081.53	356
1082.96	349.111
1084.4	358.889
1085.84	361.556
1087.28	368.667
1088.71	379.556
1090.15	377.111
1091.59	384.667
1093.02	391.778
1094.46	404.222
1095.89	409.778
1097.33	396.222
1098.76	404.222
1100.2	397.111
1101.63	391.111
1103.06	396
1104.5	392.222
1105.93	399.778
1107.36	391.333
1108.79	397.778
1110.23	393.556
1111.66	409.556
1113.09	403.778
1114.52	413.111
1115.95	407.111
1117.38	423.778
1118.81	424.889
1120.24	417.556
1121.67	422.444
1123.09	419.556
1124.52	432.667
1125.95	416.889
1127.38	414.667
1128.8	416.667
1130.23	423.778
1131.66	420.222
1133.08	414.889
1134.51	412.889
1135.93	412.444
1137.36	412.444
1138.78	417.333
1140.21	408.889
1141.63	415.556
1143.05	412
1144.47	414.444
1145.9	413.556
1147.32	422.222
1148.74	419.556
1150.16	420
1151.58	421.556
1153	422.222
1154.43	418.889
1155.85	416.222
1157.27	410.222
1158.68	405.778
1160.1	402.444
1161.52	401.333
1162.94	400
1164.36	394
1165.78	396.222
1167.19	392.222
1168.61	394.889
1170.03	392.444
1171.44	398.444
1172.86	397.333
1174.27	399.111
1175.69	398.889
1177.1	391.556
1178.52	401.778
1179.93	390.889
1181.34	400
1182.76	393.333
1184.17	389.111
1185.58	394.667
1187	399.333
1188.41	390.889
1189.82	398.444
1191.23	390.667
1192.64	393.778
1194.05	387.778
1195.46	391.333
1196.87	396.222
1198.28	392.444
1199.69	403.333
1201.1	395.778
1202.51	399.333
1203.91	397.111
1205.32	409.556
1206.73	403.556
1208.14	404.889
1209.54	394
1210.95	400.444
1212.35	394.222
1213.76	399.111
1215.17	399.556
1216.57	396.889
1217.97	399.778
1219.38	400.889
1220.78	405.556
1222.19	404
1223.59	412.667
1224.99	406.444
1226.39	416.889
1227.8	424.444
1229.2	412.222
1230.6	419.333
1232	423.556
1233.4	422
1234.8	418.222
1236.2	426.222
1237.6	422
1239	420.444
1240.4	417.333
1241.8	423.556
1243.19	414.667
1244.59	426.667
1245.99	416.667
1247.38	428.222
1248.78	421.111
1250.18	427.778
1251.57	434.667
1252.97	427.333
1254.36	431.333
1255.76	425.111
1257.15	424.444
1258.55	423.556
1259.94	419.111
1261.34	413.333
1262.73	414.222
1264.12	425.111
1265.51	429.556
1266.91	425.333
1268.3	421.778
1269.69	419.556
1271.08	424.444
1272.47	424.667
1273.86	430.444
1275.25	432.222
1276.64	437.111
1278.03	428
1279.42	429.778
1280.81	425.556
1282.2	434.222
1283.58	427.778
1284.97	429.556
1286.36	424.444
1287.75	415.556
1289.13	428.222
1290.52	438.444
1291.9	423.111
1293.29	428.889
1294.68	423.778
1296.06	427.111
1297.44	428.222
1298.83	424
1300.21	432
1301.6	434
1302.98	424
1304.36	420.222
1305.74	432
1307.13	430.222
1308.51	425.111
1309.89	420.889
1311.27	421.778
1312.65	425.778
1314.03	425.111
1315.41	422.444
1316.79	422.667
1318.17	419.333
1319.55	417.778
1320.93	419.333
1322.31	422
1323.68	419.333
1325.06	412.667
1326.44	420.667
1327.82	414.889
1329.19	405.556
1330.57	407.778
1331.94	415.556
1333.32	404.889
1334.7	405.333
1336.07	406
1337.44	414.444
1338.82	404.444
1340.19	402.889
1341.57	410.222
1342.94	397.778
1344.31	410.444
1345.68	407.556
1347.06	402.222
1348.43	401.333
1349.8	400.444
1351.17	394.222
1352.54	396.222
1353.91	396.444
1355.28	397.778
1356.65	389.111
1358.02	396.889
1359.39	395.556
1360.76	393.333
1362.13	397.333
1363.5	397.556
1364.86	404.667
1366.23	402.667
1367.6	388
1368.96	405.111
1370.33	403.111
1371.7	407.111
1373.06	408.222
1374.43	404.667
1375.79	403.111
1377.16	408.444
1378.52	407.556
1379.89	406.444
1381.25	403.333
1382.61	398.444
1383.98	399.778
1385.34	387.111
1386.7	395.556
1388.06	388.444
1389.42	388.222
1390.78	391.333
1392.15	384.889
1393.51	380.222
1394.87	376.889
1396.23	371.333
1397.59	368.444
1398.95	359.333
1400.3	372
1401.66	374
1403.02	373.556
1404.38	368.889
1405.74	374.444
1407.09	368.444
1408.45	377.333
1409.81	376.667
1411.16	373.111
1412.52	376.889
1413.87	381.111
1415.23	373.778
1416.58	376.222
1417.94	376.667
1419.29	381.556
1420.65	386.889
1422	375.556
1423.35	386.667
1424.71	385.111
1426.06	384
1427.41	384.889
1428.76	390.222
1430.11	392.444
1431.47	387.778
1432.82	395.333
1434.17	392.667
1435.52	400.667
1436.87	396.889
1438.22	394.889
1439.57	392
1440.91	410
1442.26	401.778
1443.61	403.111
1444.96	403.111
1446.31	410.889
1447.65	411.333
1449	416.222
1450.35	413.778
1451.69	407.778
1453.04	416.667
1454.39	417.556
1455.73	408.889
1457.08	423.333
1458.42	420.667
1459.76	426.444
1461.11	435.333
1462.45	430.222
1463.79	429.778
1465.14	430.889
1466.48	429.556
1467.82	429.333
1469.16	432.667
1470.51	431.556
1471.85	435.111
1473.19	438.889
1474.53	443.778
1475.87	433.778
1477.21	438.444
1478.55	437.111
1479.89	446
1481.23	439.556
1482.56	445.333
1483.9	428
1485.24	441.333
1486.58	439.111
1487.92	442.444
1489.25	443.111
1490.59	431.333
1491.93	439.778
1493.26	449.556
1494.6	450.889
1495.93	445.111
1497.27	449.556
1498.6	450.222
1499.94	445.556
1501.27	444.444
1502.6	438.667
1503.94	447.333
1505.27	445.333
1506.6	447.333
1507.94	453.778
1509.27	453.333
1510.6	445.778
1511.93	451.111
1513.26	453.333
1514.59	464.444
1515.92	455.778
1517.25	459.556
1518.58	460
1519.91	460.667
1521.24	463.778
1522.57	467.778
1523.9	465.111
1525.23	469.333
1526.55	470.667
1527.88	464.667
1529.21	457.778
1530.54	467.556
1531.86	478.444
1533.19	459.556
1534.51	464
1535.84	468.444
1537.16	457.333
1538.49	470.667
1539.81	475.778
1541.14	469.333
1542.46	476.667
1543.79	466.444
1545.11	484.889
1546.43	464.222
1547.75	463.778
1549.08	470.667
1550.4	465.556
1551.72	473.111
1553.04	485.556
1554.36	473.111
1555.68	474
1557	467.111
1558.32	469.333
1559.64	469.556
1560.96	478.222
1562.28	474.444
1563.6	475.556
1564.92	475.333
1566.24	475.778
1567.55	489.333
1568.87	477.333
1570.19	468.667
1571.51	478.667
1572.82	475.111
1574.14	469.333
1575.45	482
1576.77	472.222
1578.09	477.778
1579.4	464.444
1580.71	473.778
1582.03	476.889
1583.34	469.111
1584.66	478
1585.97	472.444
1587.28	472.444
1588.59	471.111
1589.91	466.222
1591.22	477.111
1592.53	462.222
1593.84	458.667
1595.15	460.667
1596.46	454
1597.77	451.556
1599.08	439.778
1600.39	437.778
1601.7	441.778
1603.01	432.667
1604.32	429.111
1605.63	426.889
1606.94	424.444
1608.25	413.333
1609.55	413.333
1610.86	400.222
1612.17	398.889
1613.47	396.444
1614.78	384.444
1616.09	378
1617.39	376
1618.7	370.667
1620	366.889
1621.31	361.333
1622.61	346.889
1623.92	348
1625.22	343.111
1626.52	335.111
1627.82	326.667
1629.13	326.444
1630.43	316.667
1631.73	298.889
1633.03	307.111
1634.34	292.222
1635.64	296.222
1636.94	289.778
1638.24	282.889
1639.54	281.556
1640.84	275.333
1642.14	281.333
1643.44	268.222
1644.74	266.667
1646.03	259.111
1647.33	252.222
1648.63	257.778
1649.93	250
1651.23	256.222
1652.52	247.556
1653.82	249.778
1655.12	245.556
1656.41	237.778
1657.71	236.667
1659	228.889
1660.3	243.778
1661.59	239.333
1662.89	225.111
1664.18	232.444
1665.48	226.889
1666.77	223.556
1668.06	217.333
1669.36	221.333
1670.65	216.889
1671.94	217.111
1673.23	216.444
1674.53	214.444
1675.82	216.667
1677.11	203.778
1678.4	205.778
1679.69	205.556
1680.98	203.333
1682.27	202.444
1683.56	199.333
1684.85	200.222
1686.14	191.333
1687.43	195.111
1688.71	201.556
1690	198.667
1691.29	196.222
1692.58	190.667
1693.86	192.222
1695.15	188.222
1696.44	185.778
1697.72	187.778
1699.01	190.667
1700.29	189.111
1701.58	191.333
1702.86	187.333
1704.15	190.444
1705.43	189.333
1706.72	187.333
1708	186.444
1709.28	181.333
1710.57	182.222
1711.85	184.889
1713.13	188.222
1714.41	181.333
1715.7	192
1716.98	171.556
1718.26	180.667
1719.54	172.667
1720.82	176.667
1722.1	175.333
1723.38	176.444
1724.66	176.889
1725.94	175.778
1727.22	175.333
1728.5	176
1729.78	175.111
1731.05	168
1732.33	168.889
1733.61	174.222
1734.89	171.778
1736.16	170.889
1737.44	164.222
1738.72	163.778
1739.99	163.333
1741.27	166.222
1742.54	166.667
1743.82	161.778
1745.09	162.444
1746.37	164.222
1747.64	162
1748.91	160.444
1750.19	160.889
1751.46	162.444
1752.73	164.667
1754.01	168
1755.28	161.778
1756.55	161.111
1757.82	159.111
1759.09	163.333
1760.36	164
1761.63	162.222
1762.91	161.556
1764.18	154
1765.45	159.778
1766.71	159.333
1767.98	157.778
1769.25	157.556
1770.52	161.333
1771.79	161.333
1773.06	160.667
1774.33	153.556
1775.59	156.444
1776.86	154.889
1778.13	159.111
1779.39	154.889
1780.66	153.778
1781.92	153.111
1783.19	155.333
1784.46	149.111
1785.72	148.444
1786.99	152.222
1788.25	152
1789.51	152.889
1790.78	147.111
1792.04	150.667
1793.3	152.444
1794.57	149.333
1795.83	151.556
1797.09	146.222
1798.35	144.889
1799.61	147.333
1800.88	148
1802.14	148.889
1803.4	149.333
1804.66	145.111
1805.92	144.222
1807.18	150.667
1808.44	146.444
1809.7	146.667
1810.96	146
1812.21	140.222
1813.47	146.667
1814.73	146.667
1815.99	144.667
1817.25	144.444
1818.5	137.778
1819.76	140
1821.02	146.889
1822.27	143.111
1823.53	143.333
1824.78	138.889
1826.04	144.444
1827.29	138.444
1828.55	143.778
1829.8	137.778
1831.06	142.667
1832.31	140
1833.56	132.222
1834.82	142.667
1836.07	137.778
1837.32	137.556
1838.58	139.556
1839.83	145.111
1841.08	136
1842.33	140.222
1843.58	138.889
1844.83	137.556
1846.08	135.778
1847.33	138.222
1848.58	138.222
1849.83	134.444
1851.08	138.444
1852.33	142
1853.58	138.222
1854.83	132.222
1856.08	139.556
1857.32	132.222
1858.57	138.444
1859.82	133.556
1861.07	139.111
1862.31	131.111
1863.56	133.556
1864.8	136.667
1866.05	137.778
1867.3	134.444
1868.54	134.222
1869.79	132.667
1871.03	137.778
1872.27	132.667
1873.52	132.222
