176.07367	286.77777
178.6769	284.44446
181.27925	285.11111
183.87926	282.77777
186.47989	295.44446
189.07965	293.88889
191.67705	305
194.27509	311.44446
196.87076	329.66666
199.46707	338.33334
202.06102	346
204.65559	344.22226
207.24931	350
209.84068	353.55554
212.43266	365.66663
215.02231	376.77777
217.61258	385.44443
220.2005	384.33334
222.78905	399.22223
225.37526	395.22223
227.96208	396.33334
230.54657	387.88892
233.13168	379.22223
235.71445	372.66666
238.29637	361.44446
240.87891	347.44446
243.45911	334.55554
246.03993	325.77777
248.61842	311
251.19754	302.11111
253.77432	288.44446
256.35025	278.33334
258.92682	263.77777
261.50104	249.44444
264.0744	246.88889
266.64838	232
269.22006	226.22223
271.79086	221.44444
274.3623	220.88889
276.93143	209.44444
279.49966	203.66667
282.06857	197.11111
284.63513	196.88887
287.20084	183.66667
289.76572	183.44444
292.33121	173.33333
294.89438	169.66667
297.4567	164.88889
300.01816	159.77777
302.58026	161.22223
305.14005	155.8889
307.69897	159
310.25708	153.88889
312.81433	149.77777
315.37219	144.11111
317.92776	145.44446
320.48248	136.55556
323.03635	142.44446
325.58939	138.55556
328.14157	146.11111
330.69293	149.33333
333.24344	151.77777
335.79456	156.55556
338.34338	162.55556
340.89139	159.11111
343.43854	169.44444
345.98483	172.44444
348.5303	177.33333
351.07495	174.77777
353.61874	171.44443
356.16168	162.11111
358.7038	155.55556
361.24509	149.77777
363.78552	143
366.32513	143.88889
368.86392	135.44444
371.40186	134.1111
373.93896	129.33333
376.47522	125.88889
379.01068	118.11111
381.54529	115.77778
384.07904	109.33334
386.61053	102.22221
389.14264	103.55556
391.67392	104
394.20438	102.55556
396.73398	102.33334
399.26276	98.777779
401.79071	104.55556
404.31784	104.66666
406.84268	108.22222
409.36813	102.55556
411.89279	104.11111
414.4166	102
416.93958	102.55556
419.4603	103.22222
421.9816	99.777779
424.50211	93.666664
427.02179	95.111115
429.54065	88
432.05722	93.444443
434.57443	88.777779
437.09079	90.444443
439.60492	89.333336
442.11963	90.222221
444.63354	95.555557
447.1452	98.444443
449.65744	100.33334
452.16888	102.11111
454.67807	101.33334
457.18787	103.55556
459.69684	103.44444
462.20355	96.222221
464.71091	97.333336
467.21741	95.555557
469.72168	94.777779
472.22656	97.444435
474.72919	93.111115
477.23242	91.555557
479.73486	87.666664
482.23505	85
484.73584	83.111115
487.23438	80.555557
489.73355	82.444443
492.23047	83.111115
494.728	82.777771
497.22327	83.333336
499.71918	88.777779
502.21283	89.555557
504.70712	90.555557
507.19916	95.333344
509.69037	95.333336
512.18219	99
514.67181	94.111115
517.16205	93.222221
519.65002	88.777779
522.13861	90.777779
524.62494	85.888885
527.11053	86.555557
529.59668	84.777779
532.08063	81.888885
534.56372	81.555557
537.04749	80.555557
539.52899	78.111115
542.0097	77.333336
544.49103	70.777779
546.97009	71.777779
549.44836	70.333336
551.92731	69.333336
554.40399	63
556.87982	63.888885
559.35492	66.111115
561.83057	67.222221
564.30402	68.888885
566.77667	64.222221
569.24854	61.444447
571.7196	68.555557
574.19128	64.777779
576.66071	67.222221
579.12939	66.666664
581.59723	66.777779
584.06427	67.555557
586.53052	68.777779
588.99738	69.111115
591.46204	66.888885
593.9259	68.888885
596.38892	70
598.8512	70.777779
601.31268	71.000008
603.77332	74.111115
606.23315	73.777779
608.69226	76.666664
611.15051	79.444443
613.60803	80
616.0647	83.222229
618.52057	87.333336
620.97565	89.555557
623.42999	94.888885
625.88348	101.77779
628.33618	108.88889
630.78815	118
633.23926	135.22223
635.68958	155.55556
638.13916	186.22223
640.58789	234
643.03583	299.11111
645.48303	389.55554
647.92938	509.88889
650.375	665.33331
652.81842	820.11108
655.26245	911.44446
657.70563	869.66669
660.14807	709.55548
662.58972	521.66669
665.03064	378.77777
667.4707	272.22223
669.90857	215.33333
672.34711	176.55554
674.78479	149.77777
677.22174	140.88889
679.65649	135.66669
682.09186	132.22223
684.52643	140
686.96027	142.66667
689.39185	157.11111
691.8241	178.11111
694.25555	198.11113
696.68622	228.77779
699.11469	261.22223
701.54382	294.11111
703.97211	333.22223
706.39832	335.55554
708.82507	347.11111
711.24963	338.55554
713.67487	323.66666
716.09924	316
718.52155	311.22223
720.9444	326.77777
723.36646	350
725.78638	365.66666
728.20691	383
730.62531	398.22223
733.04425	413.88889
735.46106	410.88889
737.87854	414.22223
740.29376	414
742.70966	396.88889
745.12335	384.11108
747.53772	361
749.94989	340.22223
752.36267	329
754.77325	303.44446
757.18451	292.66666
759.59357	271.33334
762.00189	267.66663
764.41083	253.66667
766.81757	238.55556
769.22498	236.33333
771.63019	223.33334
774.03467	216.44444
776.4397	209.88889
778.84265	194.55556
781.24481	190.33334
783.64752	186.77777
786.04816	183.66667
788.448	184.33333
790.84845	179.55556
793.24677	169.66669
795.64435	165.33333
798.04248	163.77777
800.43848	158.88889
802.83374	156.33333
805.22821	157.33333
807.62329	160
810.0163	157.55556
812.40845	156.77777
814.79987	156.44444
817.19055	161.8889
819.58044	164.44444
821.97095	167
824.35938	173
826.74695	178.22223
829.13385	175.77777
831.5199	190.77777
833.90527	192.66667
836.28986	192.33333
838.67499	198
841.05804	194.22223
843.44037	201.44444
845.8219	195.55556
848.2027	200.66667
850.5827	197.99998
852.96198	199.77777
855.34052	210
857.71826	210.22223
860.09521	209
862.4715	212.44446
864.84698	214.33333
867.22168	216.1111
869.59564	217.11111
871.96887	221.22223
874.34137	212.44444
876.71307	213
879.08264	208.33333
881.45288	207.44444
883.82233	207.55556
886.19098	210
888.55896	202.88889
890.92615	200.88889
893.2926	198.55556
895.65826	197.11111
898.02185	195.44444
900.38605	199.11111
902.74951	199
905.11218	200
907.47412	200.11111
909.83398	194.11113
912.19446	199.33331
914.55414	196.55556
916.91309	188.11111
919.26996	187.77777
921.62738	185.11113
923.98407	182.22223
926.34009	180.22223
928.69391	173.55556
931.0484	175.11111
933.40216	171.66666
935.75378	171.33333
938.10602	170.88889
940.45752	175.11111
942.80688	162.66667
945.15692	165.66667
947.50482	156.00002
949.85333	154.55556
952.20111	151.11111
954.54681	154.66667
956.89313	149.44444
959.2373	150.77777
961.58215	146.11113
963.92487	146.33333
966.26819	142.77777
968.60944	137.88889
970.95129	134.77779
973.29108	134.88889
975.63147	133.66667
977.96973	131.1111
980.30865	131.88889
982.64545	133.77777
984.98291	137.33334
987.31824	139.66669
989.65283	140.11111
991.98804	144
994.32123	143
996.65497	151.55556
998.98663	151.22223
1001.3176	157.44443
1003.6491	161.88889
1005.9786	160.88889
1008.3073	164.77777
1010.6366	167.11113
1012.9639	172.66667
1015.2904	180.33333
1017.6176	182.66667
1019.9426	182.33333
1022.267	187.77777
1024.5906	189
1026.9148	194.88889
1029.2369	199.66667
1031.5583	198.66669
1033.879	195.11111
1036.199	199.11111
1038.5195	196.55557
1040.8381	190.44444
1043.1559	194.22223
1045.4729	190.22223
1047.7892	200.77777
1050.1049	203
1052.421	209.77777
1054.7351	213.66667
1057.0486	228.33333
1059.3612	241.77777
1061.6732	252.55556
1063.9845	271.77777
1066.2949	275.77777
1068.6047	266.77777
1070.9138	277.33334
1073.2222	280.55554
1075.5298	297.11111
1077.8367	305.11111
1080.1428	316
1082.4482	321
1084.7531	318.44446
1087.057	317.66666
1089.3604	312.77777
1091.6628	310
1093.9647	289.22223
1096.2659	270.22223
1098.5663	253.55556
1100.866	241.77777
1103.1636	223.55556
1105.4618	204.88889
1107.7594	190.11113
1110.0562	172.77777
1112.3523	160.55557
1114.6476	154.11113
1116.9423	143.88887
1119.2349	145.33334
1121.5282	141.77777
1123.8207	139.44444
1126.1124	136.11111
1128.4022	132.77777
1130.6925	127.11111
1132.9822	125.22222
1135.2711	121
1137.5581	123.44444
1139.8456	120.33334
1142.1323	121.88889
1144.4171	121.55556
1146.7025	120
1148.9872	120.55556
1151.2698	120.22222
1153.553	124.88889
1155.8354	127.55556
1158.116	125.77778
1160.3971	127.33334
1162.6775	130.11111
1164.9558	127.77778
1167.2349	131.66667
1169.5117	132.88889
1171.7893	135.44444
1174.0648	128.22223
1176.3409	140.66667
1178.6151	135.77779
1180.8898	143
1183.1625	143.33333
1185.4358	144.33333
1187.7072	142.77777
1189.979	145.66667
1192.2489	143.77777
1194.5193	145.66667
1196.7878	147.33333
1199.0555	141.22223
1201.324	139
1203.5903	143.33333
1205.8572	139.55556
1208.1222	141.22223
1210.3865	142.66667
1212.6512	138.11111
1214.9141	143
1217.1763	141.88889
1219.439	143.66667
1221.6997	140
1223.9597	137.66667
1226.2203	137.88889
1228.479	141.66667
1230.7369	145.22221
1232.9941	149.55556
1235.252	156.33333
1237.5078	162.44444
1239.7629	163
1242.0175	165.66667
1244.2711	176.77777
1246.5255	172.88889
1248.7778	177.22223
1251.0295	166.55556
1253.2804	164.77777
1255.5308	161.44444
1257.7803	158
1260.0292	163.88889
1262.2773	181.77777
1264.526	191.44444
1266.7728	201.88889
1269.0189	210.44444
1271.2643	217.55556
1273.509	218.77777
1275.7531	222.22221
1277.9963	212
1280.2389	217.44444
1282.4808	229.22223
1284.722	245.33333
1286.9626	262.77777
1289.2025	283.33334
1291.4417	305.88889
1293.6802	331.66669
1295.9178	375.55554
1298.1537	419.11111
1300.3901	445.55554
1302.6259	463
1304.8608	455.66669
1307.0951	423.22223
1309.3287	388.22223
1311.5618	354
1313.7941	325.22223
1316.0243	292.77777
1318.2552	270.55554
1320.4854	253.44444
1322.715	234.77777
1324.9437	208.33333
1327.1707	195.88889
1329.3981	175.66667
1331.6249	161.66667
1333.8496	161.33333
1336.0751	157.33333
1338.2998	164.33333
1340.5238	163.11111
1342.7458	164.44443
1344.9685	166.33333
1347.1906	160.33333
1349.4105	154.44444
1351.6312	149.11111
1353.8511	146.66667
1356.0691	142.77777
1358.2877	143.22223
1360.5043	138.8889
1362.7216	142.55557
1364.9368	146.55556
1367.1526	155.22223
1369.3678	151.22223
1371.5811	154.44444
1373.7948	147.55554
1376.0067	139
1378.2191	131.11111
1380.4297	123.77778
1382.6407	125
1384.8499	122.88889
1387.0583	121.55556
1389.2675	125.11111
1391.4746	122.88889
1393.6823	128
1395.8881	128.66669
1398.0945	127.88889
1400.2988	133.66669
1402.5026	137.66666
1404.7069	140.33333
1406.9093	147.44446
1409.1111	153.66667
1411.3134	162.77777
1413.5138	174.33331
1415.7135	191.66667
1417.9137	212.00002
1420.1121	245.44444
1422.3098	287.55554
1424.5068	353.66666
1426.7043	427.33334
1428.9	517.22229
1431.0951	591.44446
1433.2894	666.33331
1435.483	731.11108
1437.6774	754.66669
1439.8696	721
1442.0613	670.22223
1444.2523	617.88892
1446.4426	552.33331
1448.6322	509.88889
1450.8212	471.33334
1453.0095	443.11111
1455.1985	409.22223
1457.3854	389.77777
1459.5718	356.33334
1461.7573	330.77777
1463.9424	300.66669
1466.1267	265.77777
1468.3103	241.11111
1470.4933	219
1472.6757	194.44444
1474.8573	180.33333
1477.0382	179.11111
1479.2186	165.88889
1481.3982	160.66666
1483.5773	153.8889
1485.7543	149.44444
1487.932	144.66667
1490.109	140
1492.2854	134.88889
1494.4611	133.99998
1496.6361	131.33333
1498.8104	129.22223
1500.9841	123
1503.1559	127
1505.3284	124.66667
1507.5	123.66666
1509.6711	124.66666
1511.8402	121.11111
1514.01	121.77778
1516.1791	117
1518.3475	114.88889
1520.514	118.33334
1522.6812	116.22222
1524.8477	117.77778
1527.0134	112.77778
1529.1774	112.55556
1531.3418	113.11111
1533.5056	112.22222
1535.6676	110.88889
1537.8301	112.88889
1539.9907	113
1542.1519	114.55556
1544.3125	112.55556
1546.4711	112.33334
1548.6304	110.44444
1550.7877	108.55556
1552.9457	110.88889
1555.1017	114
1557.2583	112.77778
1559.4131	111.11111
1561.5684	111.22222
1563.7218	108.88889
1565.8759	109.66666
1568.028	113
1570.1807	111.77778
1572.3315	109.77777
1574.4829	109.33334
1576.6324	112.77778
1578.7814	107.55556
1580.9308	106.55556
1583.0784	108.77778
1585.2266	105.44444
1587.3728	110.33333
1589.5184	106.77779
1591.6647	109.22222
1593.8091	110.33334
1595.9528	108.11111
1598.0958	109.77778
1600.2394	109.55556
1602.3812	108.55556
1604.5223	107
1606.6627	104.66666
1608.8038	109.22222
1610.943	108.11111
1613.0815	105.77778
1615.2194	107.88889
1617.3566	106.22222
1619.4945	104
1621.6304	107.33334
1623.7657	105.33334
1625.9004	106.66666
1628.0344	107.66667
1630.1677	104.77778
1632.3005	107.44444
1634.4326	104.33334
1636.5641	107.11111
1638.6962	106.55556
1640.8263	106.22222
1642.9558	108
1645.0847	106.88889
1647.213	107.11111
1649.3406	109.44445
1651.4675	108.66666
1653.5939	107.22222
1655.7184	107.77777
1657.8434	112.44444
1659.9679	107.99999
1662.0917	107.77778
1664.2147	109.22222
1666.3373	109.22222
1668.4591	107.77779
1670.5803	110
1672.7009	109.55556
1674.8197	109.33334
1676.939	107.77778
1679.0577	107.11111
1681.1758	108.77778
1683.2932	109.66666
1685.4099	109.11111
1687.5249	111.22222
1689.6404	111.33334
1691.7552	107.33334
1693.8695	109.77778
1695.9819	109.88889
1698.0948	109.77778
1700.2073	107.33334
1702.3177	113.55556
1704.4288	109.44444
1706.5393	109
1708.6478	111.44444
1710.7571	110.44444
1712.8644	108.77778
1714.9723	110.55556
1717.0796	111.33334
1719.1851	110.22221
1721.2911	110.44444
1723.3953	110.33334
1725.5001	110.33334
1727.603	110.77778
1729.7065	111
1731.8082	112.44445
1733.9105	113.44445
1736.0109	112.11111
1738.1119	108
1740.2111	107.00001
1742.3108	110.55555
1744.4087	108.33334
1746.5072	107.33334
1748.6039	110.66666
1750.7	114.66666
1752.7965	110.88889
1754.8914	110.11111
1756.9867	106.44444
1759.0802	110.77778
1761.1732	109.88889
1763.2655	108.22222
1765.3584	107.55556
1767.4493	108.66666
1769.5398	110.66666
1771.6309	109.22222
1773.72	113.66667
1775.8086	110.66666
1777.8965	112
1779.985	111.66666
1782.0717	109.77778
1784.1577	109.33334
1786.2432	111.66667
1788.328	111.33333
1790.4122	112.11111
1792.4971	112.22222
1794.58	110.66666
1796.6624	111.22222
1798.744	110.88889
1800.8252	110.33334
1802.9056	110.33334
1804.9856	113.22222
1807.0648	115.77778
1809.1434	110.33333
1811.2214	112.33333
1813.2988	112.55556
1815.3756	111.66666
1817.4518	114.11111
1819.5273	112.44444
1821.6023	112.66666
1823.6766	114.88889
1825.7504	114.77778
1827.8235	112.77777
1829.8959	113.11111
1831.9678	111.88889
1834.0391	109.77777
1836.1085	110.77777
1838.1785	111.77777
1840.2479	116
1842.3167	115.44444
1844.3849	113.77778
1846.4524	111.22222
1848.5182	109.66666
1850.5846	110.33334
1852.6503	110.88889
1854.7155	113.11111
1856.7787	114.55556
1858.8427	110.55556
1860.9059	109.88889
1862.9674	115
1865.0295	114.22223
1867.0909	115.22221
1869.1506	112
1871.2108	112.00001
1873.2705	111.88889
1875.3282	110.44444
1877.3867	110.44444
1879.4446	114.11111
1881.5005	113.55556
1883.5571	111
1885.6119	114.77778
1887.6672	112.44444
1889.7208	110.11111
1891.775	114.55556
1893.8274	114.44444
1895.8804	112.55556
1897.9315	115.11111
1899.9833	115.33334
1902.0332	115.33334
1904.0837	113.11111
1906.1324	111.22222
1908.1818	114.66666
1910.2294	113.66666
1912.2762	112
1914.3237	115.22222
1916.3695	115.11111
1918.4147	115.99999
1920.4603	117.44444
1922.5043	118.88889
1924.5476	117.55556
1926.5914	116.33334
1928.6335	116.88889
1930.675	115.22222
1932.7159	116.33334
1934.7574	114.77778
1936.7971	115.44444
1938.8363	114.44444
1940.8748	113.66666
1942.9139	117.22222
1944.9512	114.55556
1946.9879	114.66666
1949.024	116.66666
1951.0596	115.55556
1953.0945	114.88889
1955.1288	115.66666
1957.1625	116.44444
1959.1968	118.88889
1961.2294	119.66666
1963.2612	116.66666
1965.2926	116.44444
1967.3234	115
1969.3535	117.77779
1971.3831	114
1973.412	116.33334
1975.4403	113.77778
1977.4681	115.66666
1979.4952	117.66666
1981.5219	119.33334
1983.5479	114.66666
1985.572	117.33334
1987.5968	119.44444
1989.621	113.33334
1991.6447	117.44444
1993.6676	120.66666
1995.6901	121.66666
1997.7119	118.44444
1999.7319	119.22222
2001.7526	115.88889
2003.7726	120.11111
2005.7921	116.22222
2007.8109	118.66666
2009.8281	115.55556
2011.8458	120.11111
2013.8629	118.55556
2015.8782	116.22222
2017.8942	120.66667
2019.9094	122.11111
2021.9242	118.88889
2023.9373	119.66666
2025.9508	120.33334
2027.9625	120.66666
2029.975	121.55556
2031.9868	119.88889
2033.9968	121.55556
2036.0074	120.88889
2038.0164	117.44444
2040.0258	118.66666
2042.0334	120.22222
2044.0417	122.22221
2046.0494	119
2048.0554	117.44444
2050.062	121.11111
2052.0667	120.77778
2054.0708	121.11111
2056.0757	123.22222
2058.0786	121.77778
2060.0823	119.33334
2062.0842	120.77778
2064.0867	121.44444
2066.0872	122
2068.0874	123.66666
2070.0881	123.33334
2072.0869	123.88889
2074.0854	119.55556
2076.0842	122
2078.0815	120.77777
2080.0781	122.66666
2082.0742	122.33334
2084.0708	120.88889
2086.0657	120.11111
2088.0601	121.33334
2090.0537	121
2092.0479	126.00001
2094.0405	125.33334
2096.0325	120.88889
2098.0239	124.55555
2100.0146	123.77778
2102.0049	123.88889
2103.9946	121.44444
2105.9849	125.33334
2107.9734	123.77778
2109.9614	124.55556
2111.9487	122.88889
2113.9355	120.77778
2115.9216	126.22222
2117.9072	126.66666
2119.8923	121.77777
2121.8767	125.66666
2123.8606	124.33334
2125.844	125
2127.8267	125.66666
2129.8088	125.77778
2131.7905	125.44444
2133.7715	123.44444
2135.751	123.33334
2137.7307	123
2139.71	126.44444
2141.6887	126.88889
2143.667	123.55556
2145.6445	130.44444
2147.6216	126.33334
2149.5969	128.77777
2151.5728	126
2153.5481	128.88889
2155.5227	124.88889
2157.4958	126.77778
2159.4692	129.44444
2161.4424	128
2163.4148	129.77777
2165.3855	129.77777
2167.3569	129.88889
2169.3276	129.33334
2171.2966	127.99999
2173.2661	131.22223
2175.2351	126.44444
2177.2026	131.55556
2179.1704	133.33333
2181.1365	129.77777
2183.1033	131.00002
2185.0684	133.44444
2187.0339	133.11111
2188.999	132.22221
2190.9624	131.44444
2192.9263	128.88889
2194.8884	132.33333
2196.8501	130.22223
2198.8125	132.11111
2200.7729	129.44444
2202.7339	127.77778
2204.6934	129.66667
2206.6533	127.22222
2208.6116	127.66666
2210.5693	130.44446
2212.5276	133
2214.4841	130.55556
2216.4402	127.88889
2218.3967	125.22222
2220.3516	125.66666
2222.3059	129.66667
2224.2607	131.66667
2226.2139	130.77777
2228.1665	128
2230.1187	129.11111
2232.0713	130.55556
2234.0222	128.66667
2235.9727	127.33334
2237.9224	123
2239.8718	128.99998
2241.8206	130.11111
2243.7698	128.77777
2245.7173	129.88889
2247.6643	131.77777
2249.6108	128.66667
2251.5566	129.22223
2253.502	131.66667
2255.4468	128.66667
2257.3911	126.33333
2259.3347	128.55556
2261.2778	132.22223
2263.2205	129.44444
2265.1624	128.88887
2267.1038	130.44444
2269.0447	130.88889
2270.9851	127.77778
2272.9248	130.33333
2274.864	129.22223
2276.8027	129.55556
2278.7407	130.44444
2280.6785	131.88889
2282.6143	130.44444
2284.5508	131.77779
2286.4866	131.88889
2288.4219	128.88889
2290.3567	133.44444
2292.2898	126
2294.2234	132.22223
2296.1565	130.77777
2298.0891	132.11111
2300.02	128.11111
2301.9514	130.99998
2303.8823	133.88889
2305.8127	132.44446
2307.7415	132.66669
2309.6707	131.88889
2311.5994	131.55554
2313.5264	136.22223
2315.4541	131.33334
2317.3799	129.66667
2319.3064	130.88889
2321.2324	137
2323.1567	133.44444
2325.0815	133.77777
2327.0046	138.33333
2328.9285	132.33333
2330.8506	137.1111
2332.7732	136.66667
2334.6943	135
2336.6157	137.33333
2338.5356	135.55556
2340.4561	134.77777
2342.375	139.22223
2344.2932	134.44444
2346.2119	133.33333
2348.1292	133.66667
2350.0459	139.22223
2351.9629	137.22223
2353.8784	138.22223
2355.7935	134.55556
2357.709	135.33331
2359.6228	138.77777
2361.5361	143.44444
2363.4502	139.66667
2365.3623	139.8889
2367.2742	132.55556
2369.1853	137.33333
2371.0959	139.77777
2373.0071	140.11111
2374.9165	138.11111
2376.8257	134.55554
2378.7341	140.55554
2380.6418	140.44444
2382.5493	138.77777
2384.4561	140.77777
2386.3635	141.22223
2388.2693	141.11111
2390.1746	140.22223
2392.0791	143
2393.9832	140.88889
2395.8867	143.55556
2397.7898	142.88889
2399.6924	144.77777
2401.5942	142.55554
2403.4956	143.55556
2405.3965	140.66667
2407.2969	140.44444
2409.1956	146.22223
2411.095	141.22223
2412.9937	147.11111
2414.8918	147.11113
2416.7896	144.88887
2418.6865	147.55556
2420.583	147.77777
2422.478	150.11111
2424.3735	150.33333
2426.2686	152.44444
2428.1628	152.22223
2430.0569	150.55556
2431.949	152.33333
2433.8418	151.66667
2435.7341	149.11111
2437.6248	154.22223
2439.5161	149.55557
2441.4067	151.55557
2443.2957	151
2445.1853	153.77777
