176.07367	210.77777
178.6769	209.66667
181.27925	209.44444
183.87926	213.88889
186.47989	213.33333
189.07965	218.88889
191.67705	224
194.27509	228
196.87076	237.22223
199.46707	229.22223
202.06102	235.33333
204.65559	245.66667
207.24931	251.88889
209.84068	260.88889
212.43266	260.55554
215.02231	265.66666
217.61258	275.11111
220.2005	280.2222
222.78905	280.33331
225.37526	278.11111
227.96208	278.88889
230.54657	276.33334
233.13168	263.88889
235.71445	265
238.29637	253.55556
240.87891	243
243.45911	230.77777
246.03993	223.44443
248.61842	212.66667
251.19754	205.22223
253.77432	191.11111
256.35025	187.22223
258.92682	179.55556
261.50104	169.66667
264.0744	165.55556
266.64838	158.33331
269.22006	157.44444
271.79086	151.11111
274.3623	143.77777
276.93143	145.33333
279.49966	141.66669
282.06857	135
284.63513	138.55556
287.20084	132.88889
289.76572	132.66667
292.33121	124.55556
294.89438	124.55556
297.4567	119.44444
300.01816	116.66667
302.58026	118
305.14005	117
307.69897	112.44444
310.25708	110.77778
312.81433	107.22222
315.37219	105.11111
317.92776	99.888893
320.48248	101.55556
323.03635	99.44445
325.58939	103.66666
328.14157	108.55556
330.69293	108.00001
333.24344	112.33334
335.79456	113.33334
338.34338	115.11111
340.89139	114.22222
343.43854	118.11111
345.98483	120.88889
348.5303	121.55556
351.07495	120.33334
353.61874	119
356.16168	115.11111
358.7038	113.33334
361.24509	111.22222
363.78552	104.88889
366.32513	103.55556
368.86392	98.222221
371.40186	98.222221
373.93896	98.555557
376.47522	100.44444
379.01068	93.555557
381.54529	95.666664
384.07904	95.555557
386.61053	93.222221
389.14264	91.777779
391.67392	96.333336
394.20438	97.666656
396.73398	99.444443
399.26276	102.33333
401.79071	106.66666
404.31784	102.33334
406.84268	99.111115
409.36813	95.444443
411.89279	91.888885
414.4166	88.888885
416.93958	87.444443
419.4603	82.111115
421.9816	81.888885
424.50211	82.111115
427.02179	80.888885
429.54065	80.333336
432.05722	81.444443
434.57443	79
437.09079	79.777771
439.60492	80.777779
442.11963	81.666656
444.63354	83.444443
447.1452	85.333336
449.65744	78.555557
452.16888	78.999992
454.67807	75.444443
457.18787	77.777779
459.69684	75.222214
462.20355	73
464.71091	72.555565
467.21741	73.111115
469.72168	73.222221
472.22656	74.222221
474.72919	73
477.23242	75.111115
479.73486	76.666664
482.23505	76.888885
484.73584	78.888885
487.23438	75
489.73355	75.555557
492.23047	77
494.728	71.333328
497.22327	73.222221
499.71918	73.444443
502.21283	72.000008
504.70712	69
507.19916	68.555557
509.69037	67.888885
512.18219	65.666664
514.67181	69.333336
517.16205	66.111115
519.65002	68.333336
522.13861	68.444443
524.62494	68.555557
527.11053	67.444443
529.59668	68.888885
532.08063	67.666664
534.56372	71.222214
537.04749	66.555565
539.52899	66.111115
542.0097	63.222221
544.49103	64.111107
546.97009	62.777779
549.44836	61
551.92731	58.666668
554.40399	59.888889
556.87982	56.333332
559.35492	57.222218
561.83057	56.444443
564.30402	55.777779
566.77667	54.222225
569.24854	53.666668
571.7196	54.222221
574.19128	55.666668
576.66071	55.111111
579.12939	55.333332
581.59723	55.777779
584.06427	52.555557
586.53052	54.777779
588.99738	55.222221
591.46204	56.111111
593.9259	55
596.38892	53.888889
598.8512	53.888889
601.31268	59.666668
603.77332	54.000004
606.23315	56.444443
608.69226	59.666668
611.15051	59.555557
613.60803	59.111111
616.0647	61.333332
618.52057	60.555557
620.97565	65.222221
623.42999	66.888893
625.88348	68.444435
628.33618	70
630.78815	74.555557
633.23926	76.888885
635.68958	87
638.13916	96.222214
640.58789	112.11111
643.03583	135.11111
645.48303	169.55556
647.92938	210.88887
650.375	265
652.81842	330.22223
655.26245	390.55554
657.70563	391.33337
660.14807	324.22223
662.58972	246.88889
665.03064	180.55556
667.4707	139.77777
669.90857	116.00001
672.34711	99.777779
674.78479	91.444443
677.22174	88.555565
679.65649	84.777779
682.09186	82.888885
684.52643	84.777779
686.96027	86.777786
689.39185	90.333336
691.8241	101.66666
694.25555	110.55556
696.68622	114.88889
699.11469	132.22223
701.54382	143.77777
703.97211	160.55554
706.39832	165.66667
708.82507	172.55556
711.24963	166
713.67487	161.77777
716.09924	156.99998
718.52155	163.88889
720.9444	169.66667
723.36646	179.22223
725.78638	187.55556
728.20691	200.55557
730.62531	202.11111
733.04425	204.88889
735.46106	213.22223
737.87854	213.33333
740.29376	212.11111
742.70966	207.33333
745.12335	202.33333
747.53772	195.77777
749.94989	191.22221
752.36267	178.66667
754.77325	175.11111
757.18451	165
759.59357	160.11111
762.00189	158.11111
764.41083	155.22221
766.81757	148.66667
769.22498	148
771.63019	150.44444
774.03467	142.11111
776.4397	139.33333
778.84265	132.44444
781.24481	130.99998
783.64752	128.88889
786.04816	126.33334
788.448	126.44445
790.84845	124.66666
793.24677	122.44444
795.64435	125.33334
798.04248	126.00001
800.43848	127
802.83374	125.11111
805.22821	122.44444
807.62329	122
810.0163	129.33333
812.40845	127.77777
814.79987	131.22223
817.19055	136.77777
819.58044	143.33333
821.97095	148.77777
824.35938	153.55556
826.74695	158.55556
829.13385	160.22223
831.5199	166.77777
833.90527	165.88889
836.28986	172.77777
838.67499	173.22221
841.05804	179.55554
843.44037	187
845.8219	190.11111
848.2027	193
850.5827	190.88889
852.96198	189.77777
855.34052	191.88889
857.71826	187.66667
860.09521	193.33333
862.4715	198.55556
864.84698	200.77779
867.22168	202.66667
869.59564	207.77777
871.96887	210.33333
874.34137	203.22223
876.71307	201
879.08264	195.44444
881.45288	192.77779
883.82233	188.88889
886.19098	201.77779
888.55896	207.33333
890.92615	215.77777
893.2926	215.33333
895.65826	203
898.02185	190.99998
900.38605	183.66667
902.74951	175.77777
905.11218	161.55556
907.47412	159.66667
909.83398	156
912.19446	151.88889
914.55414	151
916.91309	149.11111
919.26996	148.88889
921.62738	148.77777
923.98407	145.22221
926.34009	144.22223
928.69391	141.77777
931.0484	138.11113
933.40216	137.1111
935.75378	131.22223
938.10602	131.88889
940.45752	129.44444
942.80688	120.66666
945.15692	118.66666
947.50482	124.55556
949.85333	121.00001
952.20111	123.66666
954.54681	123.22223
956.89313	122.33334
959.2373	120.44444
961.58215	119.33334
963.92487	120.11111
966.26819	119
968.60944	115.88889
970.95129	114.33334
973.29108	109.88889
975.63147	108.77778
977.96973	110.66666
980.30865	110.66666
982.64545	115.88889
984.98291	115.44444
987.31824	119.66667
989.65283	117.44444
991.98804	125.11111
994.32123	128.11111
996.65497	131.33333
998.98663	133.77777
1001.3176	134.77777
1003.6491	137.88889
1005.9786	139.44444
1008.3073	143.55556
1010.6366	145.88889
1012.9639	144.55556
1015.2904	147.88889
1017.6176	152.11113
1019.9426	158.22223
1022.267	153.55556
1024.5906	156
1026.9148	161.66667
1029.2369	160.11111
1031.5583	161.88887
1033.879	155.77777
1036.199	161.22223
1038.5195	164.66667
1040.8381	171.11111
1043.1559	171.66667
1045.4729	180.44444
1047.7892	184
1050.1049	187.11111
1052.421	194.55554
1054.7351	210.77777
1057.0486	221.77777
1059.3612	249.00002
1061.6732	272.22223
1063.9845	290.88885
1066.2949	293.33334
1068.6047	279.99997
1070.9138	275.11111
1073.2222	286.11111
1075.5298	301.22226
1077.8367	311.77777
1080.1428	317
1082.4482	315.44446
1084.7531	297
1087.057	271.22226
1089.3604	251.44444
1091.6628	223.66667
1093.9647	194.22223
1096.2659	175.88889
1098.5663	161.66669
1100.866	149.44443
1103.1636	145.22221
1105.4618	145.8889
1107.7594	142.44444
1110.0562	150.55556
1112.3523	150.11111
1114.6476	163.33333
1116.9423	176.22223
1119.2349	189.11111
1121.5282	203
1123.8207	211.22223
1126.1124	199.88889
1128.4022	170
1130.6925	145.55556
1132.9822	130.55556
1135.2711	117.11111
1137.5581	110.66667
1139.8456	111.44444
1142.1323	110.44444
1144.4171	110.77778
1146.7025	117.88889
1148.9872	122.44444
1151.2698	122.33334
1153.553	123.22222
1155.8354	122.33334
1158.116	126.33334
1160.3971	126.77778
1162.6775	131.77777
1164.9558	125.11111
1167.2349	129.66667
1169.5117	123.99999
1171.7893	122.77777
1174.0648	118.77778
1176.3409	113.55556
1178.6151	113.55556
1180.8898	114.44444
1183.1625	112.66666
1185.4358	111
1187.7072	112.88889
1189.979	109.22222
1192.2489	112
1194.5193	112.11111
1196.7878	112.77778
1199.0555	112.88889
1201.324	113.11111
1203.5903	108.33334
1205.8572	109.11111
1208.1222	110.77778
1210.3865	111
1212.6512	105.00001
1214.9141	111.88889
1217.1763	112.55556
1219.439	112.66666
1221.6997	113
1223.9597	109.22222
1226.2203	109.44444
1228.479	109.77778
1230.7369	114
1232.9941	115.55556
1235.252	118.22222
1237.5078	118.88889
1239.7629	121.88889
1242.0175	123
1244.2711	126.77778
1246.5255	126.55556
1248.7778	125.66666
1251.0295	126
1253.2804	127.33334
1255.5308	125.77778
1257.7803	130.44446
1260.0292	137.77777
1262.2773	137.66669
1264.526	148.77777
1266.7728	156.55556
1269.0189	155.55556
1271.2643	159.55554
1273.509	157.55556
1275.7531	162.22223
1277.9963	173.33333
1280.2389	184.33334
1282.4808	194.44444
1284.722	213.77777
1286.9626	224.88887
1289.2025	243.88889
1291.4417	269.55554
1293.6802	311.66666
1295.9178	363.11111
1298.1537	424.55554
1300.3901	458.11111
1302.6259	469.99997
1304.8608	447.33331
1307.0951	411.77774
1309.3287	375.22223
1311.5618	344.55554
1313.7941	298.55554
1316.0243	273
1318.2552	245.33333
1320.4854	222.77777
1322.715	204.22223
1324.9437	192
1327.1707	173.88889
1329.3981	161.33333
1331.6249	146.66667
1333.8496	140.77777
1336.0751	133.66667
1338.2998	135.55554
1340.5238	140
1342.7458	139
1344.9685	134.22223
1347.1906	132.55556
1349.4105	129.77777
1351.6312	125.77778
1353.8511	121.44444
1356.0691	122.22222
1358.2877	122.11111
1360.5043	123
1362.7216	128.22223
1364.9368	131.66666
1367.1526	137.44444
1369.3678	137.66667
1371.5811	135.88889
1373.7948	131.22223
1376.0067	122.22222
1378.2191	118.88889
1380.4297	113.77778
1382.6407	108.11111
1384.8499	107
1387.0583	107.11111
1389.2675	105.55556
1391.4746	107.77778
1393.6823	107
1395.8881	108.66666
1398.0945	110.55556
1400.2988	111.55555
1402.5026	114.55556
1404.7069	117.22222
1406.9093	123.33334
1409.1111	127
1411.3134	128.55554
1413.5138	142.22223
1415.7135	147.33333
1417.9137	159.88889
1420.1121	181.77777
1422.3098	208.66666
1424.5068	251.77777
1426.7043	307
1428.9	380.66666
1431.0951	474.88889
1433.2894	580.33331
1435.483	669.11108
1437.6774	710.22229
1439.8696	703.88892
1442.0613	666.11108
1444.2523	627.55554
1446.4426	589.77777
1448.6322	568.77771
1450.8212	549.11115
1453.0095	525.88892
1455.1985	510.2222
1457.3854	485.00003
1459.5718	455.22223
1461.7573	410
1463.9424	363.55557
1466.1267	328.88889
1468.3103	292.22223
1470.4933	254.22223
1472.6757	229.33333
1474.8573	205.33333
1477.0382	188.33333
1479.2186	171.77777
1481.3982	165.77777
1483.5773	155.44444
1485.7543	149.44444
1487.932	139.55556
1490.109	135.66666
1492.2854	134.22223
1494.4611	125.22222
1496.6361	122.66666
1498.8104	122.55556
1500.9841	117
1503.1559	117.33334
1505.3284	112
1507.5	112
1509.6711	110.11111
1511.8402	111.55556
1514.01	107.11111
1516.1791	109.11111
1518.3475	103.77778
1520.514	100.33334
1522.6812	105
1524.8477	99.888885
1527.0134	98.444443
1529.1774	103.11111
1531.3418	98.777779
1533.5056	96.111115
1535.6676	98.555557
1537.8301	93.777771
1539.9907	95
1542.1519	94.666664
1544.3125	95.555557
1546.4711	95.111115
1548.6304	93.444443
1550.7877	95.444435
1552.9457	93.333336
1555.1017	93.333336
1557.2583	93.444443
1559.4131	93
1561.5684	93.666664
1563.7218	94.666664
1565.8759	93.333336
1568.028	91.888885
1570.1807	92.222221
1572.3315	93.444443
1574.4829	90.666664
1576.6324	92.222229
1578.7814	94.55555
1580.9308	91.333336
1583.0784	91.555557
1585.2266	90.666664
1587.3728	93.111115
1589.5184	94
1591.6647	93.777779
1593.8091	91.222221
1595.9528	89.888885
1598.0958	90
1600.2394	88.666664
1602.3812	91
1604.5223	93.777779
1606.6627	89.444443
1608.8038	91.111115
1610.943	91.555557
1613.0815	85.888885
1615.2194	89.444443
1617.3566	93.333336
1619.4945	89.777779
1621.6304	89.222221
1623.7657	88.333336
1625.9004	90.777779
1628.0344	87.888885
1630.1677	90.111115
1632.3005	90.666664
1634.4326	88.888885
1636.5641	89.333336
1638.6962	87.222221
1640.8263	89.222221
1642.9558	89
1645.0847	91.111115
1647.213	89
1649.3406	89.555565
1651.4675	90.888885
1653.5939	90.222221
1655.7184	89.444443
1657.8434	88.111115
1659.9679	89.444443
1662.0917	89
1664.2147	91.777779
1666.3373	92
1668.4591	90.111115
1670.5803	91.222221
1672.7009	90.333336
1674.8197	90.777779
1676.939	92.555557
1679.0577	92
1681.1758	90.333336
1683.2932	93.888885
1685.4099	91.999992
1687.5249	90.777779
1689.6404	92.444443
1691.7552	92.444443
1693.8695	93.888885
1695.9819	90.888885
1698.0948	91.111115
1700.2073	93
1702.3177	92.111115
1704.4288	92
1706.5393	91
1708.6478	91
1710.7571	92.333336
1712.8644	91.666664
1714.9723	91.111115
1717.0796	90.888885
1719.1851	94.111115
1721.2911	90.555557
1723.3953	91
1725.5001	91.222221
1727.603	92.666664
1729.7065	91
1731.8082	91.333336
1733.9105	90.111115
1736.0109	95.333336
1738.1119	92.666664
1740.2111	91.666664
1742.3108	93.444435
1744.4087	90.555557
1746.5072	91.888885
1748.6039	90.444443
1750.7	91.555557
1752.7965	91.777779
1754.8914	92.777779
1756.9867	91
1759.0802	92.555557
1761.1732	91.44445
1763.2655	92.444443
1765.3584	93.666664
1767.4493	91.888885
1769.5398	94
1771.6309	91.555557
1773.72	94.444443
1775.8086	92.777779
1777.8965	93.888885
1779.985	93.222214
1782.0717	93.555565
1784.1577	94.222221
1786.2432	90.888885
1788.328	93.888885
1790.4122	88.444443
1792.4971	93.222221
1794.58	94.666664
1796.6624	94.888885
1798.744	93.111115
1800.8252	94.666664
1802.9056	95.333336
1804.9856	92.111115
1807.0648	92.777779
1809.1434	95.111115
1811.2214	93.555557
1813.2988	92.888885
1815.3756	94.666672
1817.4518	91.777779
1819.5273	94.222214
1821.6023	90.777779
1823.6766	91.666664
1825.7504	93.888885
1827.8235	94.111115
1829.8959	92.222229
1831.9678	94.111115
1834.0391	94
1836.1085	94.000008
1838.1785	93.111115
1840.2479	93.888885
1842.3167	88
1844.3849	95
1846.4524	95.888885
1848.5182	94.666664
1850.5846	95
1852.6503	93.555557
1854.7155	94.222221
1856.7787	96.555557
1858.8427	91.333344
1860.9059	96.222221
1862.9674	89.111115
1865.0295	91.666664
1867.0909	96.333336
1869.1506	93.111115
1871.2108	96.444443
1873.2705	92
1875.3282	92.888885
1877.3867	92.888893
1879.4446	93.999992
1881.5005	94.111115
1883.5571	95.888885
1885.6119	91.777779
1887.6672	92.666664
1889.7208	92.333336
1891.775	96.111115
1893.8274	95.555557
1895.8804	96.55555
1897.9315	95.444443
1899.9833	95.777779
1902.0332	95.777779
1904.0837	95.666664
1906.1324	97.111115
1908.1818	95
1910.2294	97.333336
1912.2762	99.111115
1914.3237	93.222221
1916.3695	94.111115
1918.4147	98.888893
1920.4603	96.111107
1922.5043	95.777779
1924.5476	95.444443
1926.5914	95.777779
1928.6335	96.222229
1930.675	96.111115
1932.7159	100.66667
1934.7574	98.444443
1936.7971	99.222221
1938.8363	99.000008
1940.8748	97.444443
1942.9139	101.22222
1944.9512	97.222229
1946.9879	97.333336
1949.024	96.333344
1951.0596	96.333336
1953.0945	99.444443
1955.1288	99.666664
1957.1625	97.55555
1959.1968	99
1961.2294	96.222221
1963.2612	99.222221
1965.2926	99
1967.3234	99.333344
1969.3535	98.333336
1971.3831	97.111115
1973.412	99.555557
1975.4403	99.111115
1977.4681	96.888885
1979.4952	99.777779
1981.5219	98.444443
1983.5479	95.999992
1985.572	99.555557
1987.5968	96.555565
1989.621	99.333336
1991.6447	98.444443
1993.6676	100.11111
1995.6901	98.444443
1997.7119	101.11111
1999.7319	96.444443
2001.7526	102.66666
2003.7726	102
2005.7921	99.444443
2007.8109	98.888885
2009.8281	102.22222
2011.8458	100.77778
2013.8629	100.44444
2015.8782	101.77778
2017.8942	102.66666
2019.9094	101.77778
2021.9242	101.33334
2023.9373	100.11111
2025.9508	103.11111
2027.9625	102.11111
2029.975	103.44444
2031.9868	99.444443
2033.9968	102.11111
2036.0074	100.88889
2038.0164	103.44444
2040.0258	105.66666
2042.0334	105.77778
2044.0417	104.88889
2046.0494	103.88889
2048.0554	100.22222
2050.062	104.44444
2052.0667	105.66666
2054.0708	107
2056.0757	105.77778
2058.0786	103.77778
2060.0823	103.33334
2062.0842	105
2064.0867	106.44444
2066.0872	104.66666
2068.0874	106.00001
2070.0881	105.66666
2072.0869	103.22223
2074.0854	107.33334
2076.0842	105.22222
2078.0815	105.11111
2080.0781	106
2082.0742	108.33334
2084.0708	103
2086.0657	106.55556
2088.0601	104
2090.0537	105.44444
2092.0479	108
2094.0405	107.66666
2096.0325	105.11111
2098.0239	107.22222
2100.0146	105.33334
2102.0049	109.33334
2103.9946	109.22222
2105.9849	108.44444
2107.9734	108.55555
2109.9614	106.77779
2111.9487	109.77778
2113.9355	107.66666
2115.9216	106.22222
2117.9072	110.22222
2119.8923	106.33334
2121.8767	106.77778
2123.8606	107.55556
2125.844	107.77778
2127.8267	109.33334
2129.8088	109.44444
2131.7905	107.88889
2133.7715	107.55556
2135.751	112.77778
2137.7307	107.66666
2139.71	110.44444
2141.6887	109.88889
2143.667	112.88889
2145.6445	107.88889
2147.6216	108.22222
2149.5969	112.22222
2151.5728	111.22222
2153.5481	111.66667
2155.5227	111.22222
2157.4958	110.77778
2159.4692	111.33334
2161.4424	111.77778
2163.4148	117.55556
2165.3855	113.33334
2167.3569	115
2169.3276	113.88889
2171.2966	113.55555
2173.2661	117.33334
2175.2351	117
2177.2026	117.55556
2179.1704	117.77778
2181.1365	117.66666
2183.1033	120.11111
2185.0684	122.77778
2187.0339	119.88889
2188.999	117.66667
2190.9624	116.77778
2192.9263	117.22222
2194.8884	114.44444
2196.8501	111.77778
2198.8125	117.88889
2200.7729	117.44444
2202.7339	115.44444
2204.6934	116.66666
2206.6533	116.55556
2208.6116	114.22222
2210.5693	116.33334
2212.5276	117.44445
2214.4841	114.11111
2216.4402	114.33334
2218.3967	116.44444
2220.3516	116.44444
2222.3059	117.33334
2224.2607	114.55556
2226.2139	119.77778
2228.1665	113.11111
2230.1187	113.55556
2232.0713	114.77778
2234.0222	114.11111
2235.9727	117.22222
2237.9224	116.33334
2239.8718	114.33334
2241.8206	113.00001
2243.7698	114.22222
2245.7173	114.55556
2247.6643	116
2249.6108	115.22223
2251.5566	117.77778
2253.502	114.11111
2255.4468	116.11111
2257.3911	114.66666
2259.3347	114.33334
2261.2778	115.66666
2263.2205	114.22222
2265.1624	116.55556
2267.1038	114.88889
2269.0447	115.33334
2270.9851	113.88889
2272.9248	117.22221
2274.864	116.77778
2276.8027	118.22222
2278.7407	115.11111
2280.6785	115.33334
2282.6143	114.11111
2284.5508	117.66667
2286.4866	117.33334
2288.4219	115.66666
2290.3567	115.11111
2292.2898	115
2294.2234	113
2296.1565	116.77778
2298.0891	119
2300.02	116.22222
2301.9514	118.11111
2303.8823	118.33334
2305.8127	113.88889
2307.7415	118.22222
2309.6707	116.66666
2311.5994	115.99999
2313.5264	117.66666
2315.4541	116
2317.3799	117.66666
2319.3064	118.66666
2321.2324	115
2323.1567	117.33334
2325.0815	119.88889
2327.0046	120.77778
2328.9285	120.77778
2330.8506	117.66666
2332.7732	121.44444
2334.6943	120
2336.6157	117.66666
2338.5356	119.44444
2340.4561	118.11111
2342.375	116
2344.2932	116.88889
2346.2119	116.22222
2348.1292	122.88889
2350.0459	119.55556
2351.9629	118.77777
2353.8784	124.66666
2355.7935	119.88889
2357.709	119.88889
2359.6228	122
2361.5361	118.22222
2363.4502	120.66666
2365.3623	120.33334
2367.2742	123
2369.1853	125.33334
2371.0959	120.22222
2373.0071	119.55556
2374.9165	118.11111
2376.8257	122.44444
2378.7341	119
2380.6418	121.77778
2382.5493	121.22222
2384.4561	119.11111
2386.3635	123.11111
2388.2693	123
2390.1746	123.55556
2392.0791	122
2393.9832	123.66666
2395.8867	123.77778
2397.7898	124.44444
2399.6924	125.66666
2401.5942	128
2403.4956	124.88889
2405.3965	124.22222
2407.2969	124.33334
2409.1956	127.88889
2411.095	123.33333
2412.9937	127.55556
2414.8918	125.66666
2416.7896	127.88889
2418.6865	126.88889
2420.583	128
2422.478	130
2424.3735	129.88889
2426.2686	130.22223
2428.1628	132.77777
2430.0569	129.66667
2431.949	133.55556
2433.8418	128.11111
2435.7341	130.22223
2437.6248	131.55556
2439.5161	129.11111
2441.4067	129.77777
2443.2957	131.11111
2445.1853	130.55556
