176.074	177.667
178.677	177.778
181.279	186.111
183.879	179.222
186.48	182.778
189.08	186.222
191.677	186.667
194.275	198.111
196.871	202.222
199.467	201.556
202.061	204.556
204.656	215.444
207.249	219.444
209.841	221
212.433	227.889
215.022	230.889
217.613	237.111
220.201	244.778
222.789	247.444
225.375	246.222
227.962	250.444
230.547	250.111
233.132	246.111
235.714	240.556
238.296	233.889
240.879	228.333
243.459	221
246.04	205.778
248.618	203.556
251.198	193.778
253.774	180.889
256.35	175
258.927	167
261.501	161.333
264.074	153.222
266.648	148.111
269.22	142.778
271.791	135
274.362	130.556
276.931	123.889
279.5	124.222
282.069	121.778
284.635	118.222
287.201	113.667
289.766	115.222
292.331	110.556
294.894	107.222
297.457	106.111
300.018	104.778
302.58	103.444
305.14	99.8889
307.699	94.1111
310.257	94.6667
312.814	92.6667
315.372	93.4444
317.928	90.3333
320.482	93.4444
323.036	89.2222
325.589	91.4444
328.142	90.3333
330.693	87.8889
333.243	89.7778
335.795	95.3333
338.343	95.6667
340.891	96.6667
343.439	98
345.985	96.8889
348.53	102.111
351.075	100
353.619	100.111
356.162	94.7778
358.704	87.4444
361.245	89.2222
363.786	86.5556
366.325	85.5556
368.864	85.5556
371.402	83.4444
373.939	81.7778
376.475	80.8889
379.011	79.3333
381.545	77.5556
384.079	78.1111
386.611	76.4444
389.143	79
391.674	78.2222
394.204	82.2222
396.734	81.3333
399.263	80.7778
401.791	82.5556
404.318	82.6667
406.843	82.5556
409.368	76.2222
411.893	75.2222
414.417	76.5555
416.94	72.1111
419.46	71.1111
421.982	74.2222
424.502	70.8889
427.022	70.5556
429.541	70.2222
432.057	70.2222
434.574	67
437.091	70.7778
439.605	69.2222
442.12	68.6667
444.634	63.8889
447.145	60.8889
449.657	61.3333
452.169	60.3333
454.678	61.3333
457.188	60.4444
459.697	61.6667
462.204	60.7778
464.711	62.1111
467.217	63.4444
469.722	63.6667
472.227	64.5556
474.729	64.7778
477.232	63.8889
479.735	62.8889
482.235	62.5556
484.736	62.7778
487.234	61
489.734	58.2222
492.23	59.4444
494.728	56.5556
497.223	56.8889
499.719	54.5556
502.213	56.2222
504.707	55.2222
507.199	56.5556
509.69	56.8889
512.182	53.8889
514.672	54.2222
517.162	56.6667
519.65	55.5556
522.139	55.5556
524.625	57.3333
527.111	56
529.597	55.5556
532.081	53.6667
534.564	54.2222
537.047	54.1111
539.529	52.4444
542.01	52.2222
544.491	48.2222
546.97	48.4444
549.448	47.7778
551.927	46.7778
554.404	45
556.88	44.3333
559.355	44
561.831	43.6667
564.304	43
566.777	42.2222
569.249	41.1111
571.72	41.8889
574.191	41
576.661	41.1111
579.129	40.4444
581.597	42.7778
584.064	41.3333
586.531	41.6667
588.997	43.1111
591.462	42.2222
593.926	41
596.389	42.5556
598.851	44.7778
601.313	43.7778
603.773	44.2222
606.233	43.6667
608.692	46.1111
611.151	45.3333
613.608	47.4444
616.065	48.4444
618.521	46
620.976	51.6667
623.43	52.2222
625.883	54.6667
628.336	55.7778
630.788	59
633.239	65.1111
635.69	71
638.139	79.3333
640.588	96
643.036	121.333
645.483	150.111
647.929	182.667
650.375	239.333
652.818	312.333
655.262	356.778
657.706	355
660.148	311.556
662.59	238.778
665.031	173.556
667.471	129
669.909	104.778
672.347	89.4444
674.785	80.7778
677.222	73.4444
679.656	70
682.092	70.8889
684.526	70.4444
686.96	71.8889
689.392	79.7778
691.824	84.6667
694.256	93
696.686	105.111
699.115	117.111
701.544	129.111
703.972	143
706.398	151
708.825	157.444
711.25	150.889
713.675	145.444
716.099	144.556
718.522	149
720.944	151.111
723.366	162.111
725.786	171
728.207	177.778
730.625	183.444
733.044	182.444
735.461	185.222
737.879	192.333
740.294	187.111
742.71	188.444
745.123	180.667
747.538	175.222
749.95	168.222
752.363	163.778
754.773	150.556
757.185	146.222
759.594	144.222
762.002	137.556
764.411	133.667
766.818	132.667
769.225	133.778
771.63	128.778
774.035	126.667
776.44	128
778.843	121
781.245	114.889
783.648	111
786.048	110.333
788.448	107.667
790.848	105.222
793.247	98.8889
795.644	102.556
798.042	100.556
800.438	98.4445
802.834	103.667
805.228	106.333
807.623	113.778
810.016	115.556
812.408	116.889
814.8	118.667
817.191	118.556
819.58	121.778
821.971	117.778
824.359	123.556
826.747	124.333
829.134	125.889
831.52	137.667
833.905	139.111
836.29	151.444
838.675	158.889
841.058	168.222
843.44	171.556
845.822	175
848.203	174.111
850.583	175.444
852.962	167.889
855.341	164.333
857.718	161.889
860.095	166.889
862.471	163.333
864.847	167.333
867.222	173.222
869.596	178.556
871.969	180.556
874.341	179.222
876.713	172.667
879.083	168.667
881.453	168
883.822	168.444
886.191	175.333
888.559	181.778
890.926	191
893.293	189.667
895.658	178.667
898.022	174.667
900.386	159
902.75	153.889
905.112	143.667
907.474	134.778
909.834	135.222
912.194	131.778
914.554	132.444
916.913	129.333
919.27	126.556
921.627	125.778
923.984	123.778
926.34	121.333
928.694	122.778
931.048	120.111
933.402	114.778
935.754	109
938.106	109.333
940.458	106
942.807	104
945.157	101.556
947.505	99.4444
949.853	96.4444
952.201	97.6667
954.547	98.3333
956.893	94.4444
959.237	97.7778
961.582	98.6667
963.925	98.2222
966.268	97.3333
968.609	99.3333
970.951	100
973.291	100.111
975.631	98.2222
977.97	99.6667
980.309	100.222
982.645	101.556
984.983	106
987.318	106.222
989.653	106.111
991.988	106
994.321	109
996.655	111.667
998.987	110.444
1001.32	113
1003.65	116.889
1005.98	118.556
1008.31	119.667
1010.64	125.556
1012.96	126.444
1015.29	127.444
1017.62	133.222
1019.94	128.556
1022.27	126.333
1024.59	129.444
1026.91	128.222
1029.24	128.222
1031.56	135.778
1033.88	136.111
1036.2	143.333
1038.52	143.889
1040.84	149.333
1043.16	154
1045.47	158.778
1047.79	167.111
1050.1	167.333
1052.42	172.889
1054.74	182.222
1057.05	199.222
1059.36	213.111
1061.67	233.778
1063.98	243.778
1066.29	248.889
1068.6	253.556
1070.91	244.778
1073.22	249.889
1075.53	259.778
1077.84	264.556
1080.14	272.333
1082.45	260.444
1084.75	242
1087.06	227.444
1089.36	199.444
1091.66	180
1093.96	162.444
1096.27	143.778
1098.57	135.222
1100.87	125.333
1103.16	124.333
1105.46	123.444
1107.76	125.556
1110.06	128.444
1112.35	137.667
1114.65	144.333
1116.94	157.889
1119.23	169.667
1121.53	179.333
1123.82	182.556
1126.11	166.556
1128.4	151.667
1130.69	122.444
1132.98	107
1135.27	101.222
1137.56	91.1111
1139.85	88.8889
1142.13	84.8889
1144.42	91.2222
1146.7	95.8889
1148.99	99.5555
1151.27	98.4444
1153.55	102.222
1155.84	99.5556
1158.12	106.556
1160.4	106.667
1162.68	109.667
1164.96	114
1167.23	110
1169.51	105.222
1171.79	104
1174.06	102.556
1176.34	96.7778
1178.62	99.6667
1180.89	95.6667
1183.16	95.1111
1185.44	94.7778
1187.71	93.8889
1189.98	93.3333
1192.25	93.3333
1194.52	91.6667
1196.79	92.5556
1199.06	92
1201.32	90.8889
1203.59	96
1205.86	92.4444
1208.12	91.8889
1210.39	91.5556
1212.65	93.1111
1214.91	96.1111
1217.18	95.2222
1219.44	98
1221.7	95.7778
1223.96	96.6667
1226.22	96.8889
1228.48	92.6667
1230.74	94.4444
1232.99	93.3333
1235.25	95.7778
1237.51	98.3333
1239.76	102.667
1242.02	105
1244.27	108.111
1246.53	110.667
1248.78	109.889
1251.03	112
1253.28	116.222
1255.53	113
1257.78	115.222
1260.03	115.222
1262.28	116.556
1264.53	122.778
1266.77	122.222
1269.02	134.333
1271.26	137.556
1273.51	141.556
1275.75	151.889
1278	153.333
1280.24	155.222
1282.48	162.556
1284.72	173.778
1286.96	187.333
1289.2	204.778
1291.44	227.333
1293.68	268
1295.92	312.222
1298.15	356.444
1300.39	392.556
1302.63	410.222
1304.86	394.111
1307.1	354.889
1309.33	329.556
1311.56	295.889
1313.79	263
1316.02	238.556
1318.26	212.889
1320.49	197.556
1322.71	181.222
1324.94	164.111
1327.17	148.667
1329.4	134.444
1331.62	129
1333.85	116.111
1336.08	112
1338.3	122.444
1340.52	116
1342.75	121.444
1344.97	119.444
1347.19	114.889
1349.41	112.222
1351.63	107
1353.85	105.778
1356.07	106.556
1358.29	106
1360.5	106.667
1362.72	108.333
1364.94	114.556
1367.15	117.778
1369.37	116.889
1371.58	116.889
1373.79	111.444
1376.01	108.556
1378.22	102
1380.43	99.7778
1382.64	96.3333
1384.85	94.5556
1387.06	93.1111
1389.27	89.1111
1391.47	92.1111
1393.68	91.8889
1395.89	92.5556
1398.09	95.7778
1400.3	97.5555
1402.5	97
1404.71	100.111
1406.91	106.333
1409.11	108.222
1411.31	109.778
1413.51	120.111
1415.71	128.556
1417.91	143.444
1420.11	158.444
1422.31	181.667
1424.51	219.556
1426.7	262.778
1428.9	324.444
1431.1	407.222
1433.29	491.778
1435.48	562.444
1437.68	619.778
1439.87	611
1442.06	595.222
1444.25	552.889
1446.44	522
1448.63	493.444
1450.82	476.333
1453.01	465.111
1455.2	444.444
1457.39	427.222
1459.57	403.222
1461.76	367.667
1463.94	325
1466.13	291.778
1468.31	257.667
1470.49	226.889
1472.68	205.889
1474.86	179.222
1477.04	162.667
1479.22	150.333
1481.4	144.667
1483.58	133.778
1485.75	126.667
1487.93	120.111
1490.11	119.778
1492.29	115.889
1494.46	110
1496.64	105.556
1498.81	103
1500.98	101.444
1503.16	100.556
1505.33	96.8889
1507.5	95.6667
1509.67	96.5556
1511.84	93.7778
1514.01	93.2222
1516.18	90.2222
1518.35	89.1111
1520.51	90.4444
1522.68	85.4444
1524.85	88.3333
1527.01	87.3333
1529.18	86.7778
1531.34	86.3333
1533.51	86.1111
1535.67	86.8889
1537.83	82.1111
1539.99	83.8889
1542.15	81.8889
1544.31	82.3333
1546.47	81
1548.63	79.7778
1550.79	82.7778
1552.95	82.1111
1555.1	80
1557.26	83
1559.41	82.3333
1561.57	80.7778
1563.72	78.5556
1565.88	79.6667
1568.03	78.7778
1570.18	79.5556
1572.33	81.7778
1574.48	81.3333
1576.63	80.5556
1578.78	80.4444
1580.93	77.8889
1583.08	78.7778
1585.23	77.5556
1587.37	79.7778
1589.52	76.8889
1591.66	78.1111
1593.81	78.7778
1595.95	78
1598.1	77.6667
1600.24	79.4444
1602.38	76.8889
1604.52	78.1111
1606.66	80
1608.8	74.4444
1610.94	78
1613.08	75.3333
1615.22	77.1111
1617.36	76.3333
1619.49	78
1621.63	77.8889
1623.77	75.8889
1625.9	77.6667
1628.03	75.4444
1630.17	77.1111
1632.3	76.3333
1634.43	76.2222
1636.56	74.5556
1638.7	77.6667
1640.83	75.7778
1642.96	74.6667
1645.08	77.2222
1647.21	77.1111
1649.34	76.4444
1651.47	76.3333
1653.59	74.6667
1655.72	77.6667
1657.84	77
1659.97	76.6667
1662.09	78.8889
1664.21	79.4444
1666.34	79.8889
1668.46	77.3333
1670.58	77.8889
1672.7	78
1674.82	77.2222
1676.94	78.8889
1679.06	78.3333
1681.18	79.2222
1683.29	81.4444
1685.41	80.5556
1687.52	76.3333
1689.64	78.4444
1691.76	79.8889
1693.87	79.2222
1695.98	78.5556
1698.09	78.1111
1700.21	79.2222
1702.32	78.5556
1704.43	77.3333
1706.54	79.6667
1708.65	80.5556
1710.76	78.1111
1712.86	80.2222
1714.97	79.1111
1717.08	77.4444
1719.19	80.7778
1721.29	82.6667
1723.4	79.6667
1725.5	81.4444
1727.6	78.1111
1729.71	79.5556
1731.81	78.7778
1733.91	79.5556
1736.01	80
1738.11	82.3333
1740.21	76
1742.31	79.7778
1744.41	75
1746.51	77.2222
1748.6	79.2222
1750.7	82.1111
1752.8	79.4444
1754.89	79.5556
1756.99	79.5556
1759.08	79.3333
1761.17	80.8889
1763.27	81.1111
1765.36	80
1767.45	77.8889
1769.54	78.8889
1771.63	80.5556
1773.72	79.6667
1775.81	78.8889
1777.9	80.6667
1779.98	77.7778
1782.07	79.4444
1784.16	80.4444
1786.24	81.1111
1788.33	79.8889
1790.41	78.6667
1792.5	78.6667
1794.58	79.7778
1796.66	81.6667
1798.74	81
1800.83	77.2222
1802.91	78.8889
1804.99	79.5556
1807.06	81.4444
1809.14	79.4444
1811.22	81.7778
1813.3	84.2222
1815.38	83.2222
1817.45	82.4444
1819.53	80.5556
1821.6	84.1111
1823.68	84.4444
1825.75	80.6667
1827.82	84.3333
1829.9	82.7778
1831.97	78.1111
1834.04	81
1836.11	80.5556
1838.18	82.3333
1840.25	82.1111
1842.32	81.7778
1844.38	81.2222
1846.45	80.4444
1848.52	82.3333
1850.58	81.4445
1852.65	83
1854.72	84.5556
1856.78	83
1858.84	84.1111
1860.91	81.4444
1862.97	83.1111
1865.03	83.7778
1867.09	86
1869.15	81.6667
1871.21	83.8889
1873.27	82.3333
1875.33	83.7778
1877.39	81.2222
1879.44	85.4444
1881.5	85.4444
1883.56	82.8889
1885.61	85.5556
1887.67	82.6667
1889.72	84.5556
1891.78	84.2222
1893.83	84.1111
1895.88	83.2222
1897.93	85.3333
1899.98	86.4444
1902.03	86.5556
1904.08	85.8889
1906.13	84.3333
1908.18	86.8889
1910.23	88.2222
1912.28	85.2222
1914.32	87.7778
1916.37	86.6667
1918.41	84.1111
1920.46	86.4444
1922.5	86.4444
1924.55	85.1111
1926.59	87
1928.63	87.3333
1930.68	85
1932.72	87.3333
1934.76	87.6667
1936.8	86
1938.84	88.7778
1940.87	90
1942.91	87.6667
1944.95	89.5556
1946.99	86.1111
1949.02	89.2222
1951.06	85.3333
1953.09	87.4445
1955.13	87.8889
1957.16	91.5556
1959.2	87.1111
1961.23	87
1963.26	89.4444
1965.29	88.4444
1967.32	88.4444
1969.35	88.1111
1971.38	86.1111
1973.41	90
1975.44	86.6667
1977.47	87.1111
1979.5	87.7778
1981.52	88.5555
1983.55	88.2222
1985.57	88.6667
1987.6	87.2222
1989.62	87.8889
1991.64	90.5556
1993.67	89.5556
1995.69	86.5556
1997.71	89.7778
1999.73	89
2001.75	88.8889
2003.77	87
2005.79	87.7778
2007.81	89.3333
2009.83	92.1111
2011.85	90.2222
2013.86	91.5556
2015.88	89.4444
2017.89	88.4444
2019.91	92
2021.92	91
2023.94	91.6667
2025.95	92.5556
2027.96	90
2029.97	90.7778
2031.99	94.7778
2034	93.4444
2036.01	90.8889
2038.02	91
2040.03	89.1111
2042.03	94.5556
2044.04	92.4444
2046.05	92.6667
2048.06	90.8889
2050.06	93.2222
2052.07	94.6667
2054.07	91.2222
2056.08	92.4444
2058.08	95
2060.08	94.5556
2062.08	93
2064.09	93.2222
2066.09	94.5556
2068.09	90.7778
2070.09	94.4444
2072.09	93.8889
2074.09	95.1111
2076.08	95.4444
2078.08	93.2222
2080.08	93.3333
2082.07	94.4444
2084.07	95.3333
2086.07	95.5555
2088.06	96.4444
2090.05	95.8889
2092.05	94.8889
2094.04	98.7778
2096.03	93.4444
2098.02	95.5556
2100.01	95.8889
2102	97.1111
2103.99	96.3333
2105.98	97.5556
2107.97	94.8889
2109.96	96.6667
2111.95	99.4444
2113.94	97.6667
2115.92	100.222
2117.91	96.4444
2119.89	97.6667
2121.88	99.5556
2123.86	97.5556
2125.84	96
2127.83	97.4444
2129.81	99.7778
2131.79	98
2133.77	98.1111
2135.75	99.2222
2137.73	101
2139.71	100
2141.69	100.667
2143.67	101.111
2145.64	102.111
2147.62	100.111
2149.6	101.667
2151.57	98.1111
2153.55	102.222
2155.52	102.111
2157.5	101.778
2159.47	102.667
2161.44	103.667
2163.41	104.333
2165.39	100.111
2167.36	102.889
2169.33	104.556
2171.3	102
2173.27	108.667
2175.24	104.333
2177.2	106
2179.17	106.333
2181.14	110.333
2183.1	106.889
2185.07	106.222
2187.03	105.778
2189	106.444
2190.96	105.333
2192.93	106.222
2194.89	107.444
2196.85	105.667
2198.81	104.444
2200.77	102.333
2202.73	104.556
2204.69	104.556
2206.65	103
2208.61	106.556
2210.57	107.111
2212.53	102.778
2214.48	105.111
2216.44	105.222
2218.4	103.222
2220.35	103.333
2222.31	106.444
2224.26	103.889
2226.21	105.667
2228.17	105.333
2230.12	105.333
2232.07	102.333
2234.02	105.333
2235.97	105.889
2237.92	109.222
2239.87	106.444
2241.82	104.556
2243.77	107.667
2245.72	105.222
2247.66	103.333
2249.61	103.111
2251.56	103.111
2253.5	106.222
2255.45	106.333
2257.39	105.444
2259.33	106.556
2261.28	105.222
2263.22	107.333
2265.16	103.889
2267.1	106.111
2269.04	106.556
2270.99	105.667
2272.92	104.778
2274.86	105.444
2276.8	106.111
2278.74	106.667
2280.68	108.111
2282.61	105.111
2284.55	107.222
2286.49	107.778
2288.42	108.444
2290.36	107.333
2292.29	104.556
2294.22	107.778
2296.16	104.333
2298.09	107.889
2300.02	105.667
2301.95	106.889
2303.88	108.889
2305.81	109.444
2307.74	106.333
2309.67	108.889
2311.6	102.778
2313.53	109.222
2315.45	107.111
2317.38	106.667
2319.31	108.333
2321.23	110.111
2323.16	107.778
2325.08	106.111
2327	110
2328.93	111.111
2330.85	109.667
2332.77	110
2334.69	108.333
2336.62	108.222
2338.54	110.444
2340.46	108.111
2342.38	110.333
2344.29	109.111
2346.21	110
2348.13	109.222
2350.05	112.333
2351.96	108.778
2353.88	115
2355.79	107.444
2357.71	111.222
2359.62	112.444
2361.54	112.444
2363.45	110.556
2365.36	109.111
2367.27	106.556
2369.19	111.444
2371.1	111.444
2373.01	112.111
2374.92	113.444
2376.83	110.778
2378.73	114
2380.64	110.444
2382.55	112.556
2384.46	113.222
2386.36	114.222
2388.27	112.444
2390.17	115.333
2392.08	113.556
2393.98	112.667
2395.89	113
2397.79	113.444
2399.69	115.222
2401.59	114.222
2403.5	114.333
2405.4	116.778
2407.3	116.444
2409.2	116.556
2411.09	116
2412.99	118.444
2414.89	113.889
2416.79	115.333
2418.69	119.778
2420.58	118.778
2422.48	118.111
2424.37	121.556
2426.27	121.778
2428.16	120.889
2430.06	119.778
2431.95	120.667
2433.84	121.333
2435.73	118.444
2437.62	123.333
2439.52	119.556
2441.41	120.111
2443.3	119.444
2445.19	123.333
