176.074	278
178.677	292.684
181.279	318.421
183.879	350.947
186.48	378.684
189.08	396.895
191.677	397.474
194.275	376.947
196.871	335.316
199.467	297
202.061	259.895
204.656	227.737
207.249	206
209.841	184.947
212.433	171.947
215.022	161.632
217.613	150.684
220.201	144.158
222.789	138.842
225.375	134.947
227.962	124.526
230.547	122.684
233.132	117.474
235.714	114.368
238.296	110.947
240.879	108.158
243.459	106
246.04	104.474
248.618	102.789
251.198	98.5263
253.774	99.0526
256.35	96.2632
258.927	96.1579
261.501	97.6316
264.074	99.0526
266.648	101.842
269.22	103.579
271.791	111.158
274.362	124.211
276.931	140.526
279.5	157.421
282.069	156.684
284.635	143
287.201	121.947
289.766	108.105
292.331	102.263
294.894	95.8421
297.457	90.9474
300.018	88.4737
302.58	85.9474
305.14	84.4211
307.699	82.8421
310.257	80.4211
312.814	79.3684
315.372	79
317.928	80.5789
320.482	77.0526
323.036	75.8421
325.589	76
328.142	73.3684
330.693	74.7368
333.243	73.4211
335.795	75.4211
338.343	73.7895
340.891	74.4737
343.439	74.1053
345.985	72.8421
348.53	73.4211
351.075	74.1579
353.619	74.6842
356.162	73.2105
358.704	74.5263
361.245	75.4211
363.786	75.3684
366.325	74.9474
368.864	76.1579
371.402	77.7368
373.939	78.8421
376.475	81.6842
379.011	82.3684
381.545	83.4737
384.079	85.8421
386.611	85.5789
389.143	89.4737
391.674	91.2105
394.204	95.6316
396.734	100.737
399.263	108.579
401.791	116.263
404.318	135.737
406.843	163.632
409.368	217.421
411.893	320.158
414.417	429.947
416.94	395.263
419.46	275.316
421.982	180.632
424.502	127.842
427.022	106.684
429.541	93.0526
432.057	88.4211
434.574	83.4737
437.091	79.9474
439.605	79
442.12	78.8947
444.634	77.7895
447.145	78
449.657	77
452.169	77.6842
454.678	76.6842
457.188	77.3684
459.697	78.3684
462.204	78.4211
464.711	79.7369
467.217	81.5789
469.722	80.1053
472.227	77.3684
474.729	77.3684
477.232	76.2632
479.735	74.1579
482.235	73.5789
484.736	73.421
487.234	73.3158
489.734	72
492.23	71.421
494.728	71.7895
497.223	72.4211
499.719	72.6316
502.213	71.6316
504.707	72.1579
507.199	69.3158
509.69	70.2105
512.182	69.4211
514.672	69.7368
517.162	70.0526
519.65	66.4211
522.139	69.1053
524.625	68.4211
527.111	68.3684
529.597	66.4211
532.081	67.7895
534.564	68.3684
537.047	69.1053
539.529	68.4211
542.01	67
544.491	67.8421
546.97	68.3158
549.448	69.4211
551.927	68.1053
554.404	67.8947
556.88	68.3158
559.355	68.2632
561.831	68.1053
564.304	68.3684
566.777	70.3684
569.249	68.0526
571.72	67.7895
574.191	68.2632
576.661	70.421
579.129	68
581.597	68.6842
584.064	69.7895
586.531	69.4737
588.997	69.7368
591.462	70.5789
593.926	70.2105
596.389	72.6316
598.851	73.9474
601.313	73.3158
603.773	74.579
606.233	80.1579
608.692	86.0526
611.151	96.7895
613.608	125.368
616.065	179.895
618.521	200.368
620.976	158.737
623.43	112.526
625.883	89.6842
628.336	83.1579
630.788	78.8421
633.239	77.4211
635.69	75.0526
638.139	75.5263
640.588	74.7368
643.036	74.8947
645.483	74.5789
647.929	75.1579
650.375	74.1579
652.818	72.6842
655.262	75.2631
657.706	72.9474
660.148	75.0526
662.59	73.7895
665.031	73.7368
667.471	74.8421
669.909	73.3684
672.347	77.1579
674.785	79.2105
677.222	78
679.656	82.7368
682.092	84.6842
684.526	87.1579
686.96	91.2632
689.392	95
691.824	109
694.256	143.105
696.686	240.421
699.115	379.158
701.544	384.158
703.972	256.105
706.398	157.895
708.825	113.947
711.25	97.9474
713.675	88.7895
716.099	86.7895
718.522	81
720.944	83.7368
723.366	82.9474
725.786	85.421
728.207	86.4211
730.625	89.7895
733.044	91.5789
735.461	95.1579
737.879	95.8421
740.294	96.6316
742.71	92.3158
745.123	88.6316
747.538	85.1579
749.95	84.5263
752.363	82
754.773	80.6842
757.185	79.1053
759.594	78.3684
762.002	79.7895
764.411	78.5789
766.818	80.5263
769.225	79.7368
771.63	81.1579
774.035	81.4737
776.44	82.1053
778.843	81.5263
781.245	81.4737
783.648	81.4737
786.048	82.0526
788.448	81.5263
790.848	83.1053
793.247	84.4737
795.644	83
798.042	83.5263
800.438	83.6842
802.834	83.1579
805.228	86
807.623	84.3158
810.016	87.6842
812.408	83.7368
814.8	85.0526
817.191	87.0526
819.58	85.3158
821.971	87.8947
824.359	85.7368
826.747	88.4211
829.134	89.7895
831.52	89.3684
833.905	94.4737
836.29	96.8947
838.675	94.7895
841.058	94.5263
843.44	90.4737
845.822	88.1053
848.203	90.5789
850.583	87.4737
852.962	89.5789
855.341	90.1053
857.718	90.1053
860.095	90
862.471	91
864.847	91.7895
867.222	93.3158
869.596	95.7368
871.969	93.5263
874.341	97.1053
876.713	97
879.083	101.053
881.453	105.421
883.822	106.158
886.191	109.105
888.559	114.526
890.926	119.053
893.293	125.263
895.658	135.895
898.022	140.526
900.386	144.421
902.75	150.316
905.112	156.316
907.474	164.684
909.834	174.632
912.194	191.684
914.554	198.474
916.913	208
919.27	207.789
921.627	200.684
923.984	186.211
926.34	167.421
928.694	153.947
931.048	141.105
933.402	131.421
935.754	123.789
938.106	117.842
940.458	113.579
942.807	107.789
945.157	106.895
947.505	105.684
949.853	105.421
952.201	105.316
954.547	102
956.893	105.737
959.237	106.053
961.582	106.684
963.925	105.158
966.268	105.263
968.609	104.895
970.951	105.105
973.291	109.158
975.631	108.895
977.97	110.842
980.309	113.526
982.645	121.421
984.983	134.895
987.318	168.105
989.653	183.737
991.988	184.789
994.321	196.474
996.655	367.789
998.987	1180.84
1001.32	2071.74
1003.65	1606.42
1005.98	681.895
1008.31	241.105
1010.64	156.947
1012.96	144.526
1015.29	146.368
1017.62	146.526
1019.94	171.211
1022.27	307
1024.59	581.842
1026.91	665.421
1029.24	434.263
1031.56	217.737
1033.88	140.421
1036.2	122.053
1038.52	113.895
1040.84	111.684
1043.16	109.316
1045.47	104.947
1047.79	109.737
1050.1	107.263
1052.42	105.263
1054.74	108
1057.05	108
1059.36	108.105
1061.67	108.263
1063.98	114.421
1066.29	117.211
1068.6	123.316
1070.91	127.158
1073.22	132.684
1075.53	131.158
1077.84	130.737
1080.14	138.263
1082.45	147.632
1084.75	168.737
1087.06	209.368
1089.36	275.105
1091.66	351.842
1093.96	375.579
1096.27	327.421
1098.57	252.579
1100.87	199.158
1103.16	170.474
1105.46	162.474
1107.76	158.105
1110.06	162.632
1112.35	174.368
1114.65	207.947
1116.94	248.789
1119.23	278.842
1121.53	255.053
1123.82	207.632
1126.11	166.842
1128.4	143.842
1130.69	133.158
1132.98	125.737
1135.27	121.526
1137.56	125.368
1139.85	126.105
1142.13	129.316
1144.42	132.632
1146.7	139.211
1148.99	147.895
1151.27	164
1153.55	189.105
1155.84	214.316
1158.12	226.789
1160.4	213.263
1162.68	187.421
1164.96	164.789
1167.23	150.474
1169.51	144.789
1171.79	143.053
1174.06	146.105
1176.34	149.842
1178.62	165.158
1180.89	183.632
1183.16	189.211
1185.44	170.632
1187.71	150.632
1189.98	139.368
1192.25	134.842
1194.52	128.158
1196.79	130.842
1199.06	128.737
1201.32	125.579
1203.59	126.737
1205.86	124.684
1208.12	124.474
1210.39	123.842
1212.65	124.526
1214.91	123.316
1217.18	124.474
1219.44	125.158
1221.7	123.947
1223.96	123.211
1226.22	122.632
1228.48	122.368
1230.74	125.579
1232.99	123
1235.25	124.368
1237.51	124.211
1239.76	127.211
1242.02	127.211
1244.27	126.579
1246.53	126.421
1248.78	123.474
1251.03	125.211
1253.28	125.053
1255.53	129.947
1257.78	127.789
1260.03	131.263
1262.28	129.579
1264.53	131.368
1266.77	135.368
1269.02	137.105
1271.26	141.368
1273.51	139.632
1275.75	136.579
1278	132.263
1280.24	133.947
1282.48	131.263
1284.72	131.632
1286.96	129.842
1289.2	128.263
1291.44	130.789
1293.68	128.789
1295.92	130.842
1298.15	129.895
1300.39	131.579
1302.63	130.789
1304.86	130.789
1307.1	131.368
1309.33	133.526
1311.56	131.053
1313.79	132.316
1316.02	131.158
1318.26	133.105
1320.49	136.684
1322.71	136.737
1324.94	140.053
1327.17	144.158
1329.4	146.316
1331.62	147.526
1333.85	142.053
1336.08	135.947
1338.3	134.053
1340.52	134.053
1342.75	136.842
1344.97	135.737
1347.19	134.368
1349.41	132.526
1351.63	134.737
1353.85	135.421
1356.07	134.158
1358.29	135.632
1360.5	134.842
1362.72	135.737
1364.94	137.316
1367.15	137.842
1369.37	137.526
1371.58	138.053
1373.79	139.895
1376.01	144.579
1378.22	144
1380.43	143.895
1382.64	140.632
1384.85	140.526
1387.06	137.737
1389.27	139.842
1391.47	137.21
1393.68	137.842
1395.89	139.053
1398.09	139.632
1400.3	139.842
1402.5	137.105
1404.71	137.053
1406.91	137.421
1409.11	135.105
1411.31	135.474
1413.51	135.526
1415.71	138.105
1417.91	136
1420.11	138.421
1422.31	139.474
1424.51	138.895
1426.7	140.368
1428.9	141
1431.1	143
1433.29	140.053
1435.48	142.947
1437.68	143.526
1439.87	148.737
1442.06	155.632
1444.25	154.368
1446.44	153.421
1448.63	144.684
1450.82	143.789
1453.01	147.368
1455.2	144.263
1457.39	144.632
1459.57	144.474
1461.76	142.421
1463.94	144.526
1466.13	143.895
1468.31	145.368
1470.49	146.105
1472.68	149.053
1474.86	146.474
1477.04	151.105
1479.22	152.105
1481.4	153.684
1483.58	150.684
1485.75	146.684
1487.93	146.211
1490.11	143.368
1492.29	145.211
1494.46	144.842
1496.64	146.632
1498.81	143.211
1500.98	145.895
1503.16	147.579
1505.33	146.737
1507.5	148.789
1509.67	149.263
1511.84	147
1514.01	145.368
1516.18	148.895
1518.35	145.158
1520.51	147.526
1522.68	149.474
1524.85	148.526
1527.01	151.737
1529.18	149.579
1531.34	151.421
1533.51	152.789
1535.67	152.842
1537.83	154.421
1539.99	156.263
1542.15	159.579
1544.31	162.474
1546.47	163.789
1548.63	163.421
1550.79	166.526
1552.95	168.579
1555.1	165.263
1557.26	168.895
1559.41	168.105
1561.57	176.368
1563.72	178.737
1565.88	187.579
1568.03	198
1570.18	215.368
1572.33	237.895
1574.48	276.737
1576.63	303.263
1578.78	338.789
1580.93	386.053
1583.08	446.789
1585.23	464.316
1587.37	423.368
1589.52	355.842
1591.66	301.263
1593.81	258.842
1595.95	238.263
1598.1	220
1600.24	207.789
1602.38	195.842
1604.52	189.632
1606.66	181.368
1608.8	180.789
1610.94	173.526
1613.08	177.053
1615.22	168.842
1617.36	168.526
1619.49	163.158
1621.63	163.526
1623.77	163.789
1625.9	162.263
1628.03	160.158
1630.17	159.368
1632.3	161.474
1634.43	160.632
1636.56	162.842
1638.7	158.579
1640.83	157.684
1642.96	159
1645.08	160.316
1647.21	160.474
1649.34	156.316
1651.47	155.632
1653.59	158.579
1655.72	161.158
1657.84	161.579
1659.97	158.474
1662.09	160.421
1664.21	159.632
1666.34	162.316
1668.46	161.632
1670.58	160.105
1672.7	163.158
1674.82	163.105
1676.94	164.368
1679.06	160.474
1681.18	162.737
1683.29	160.526
1685.41	162.632
1687.52	161.368
1689.64	163.737
1691.76	164
1693.87	164.632
1695.98	163.421
1698.09	164.211
1700.21	167.263
1702.32	161.632
1704.43	165.368
1706.54	164.579
1708.65	163.105
1710.76	165
1712.86	163.316
1714.97	162.368
1717.08	164.211
1719.19	165.211
1721.29	165.368
1723.4	164.368
1725.5	165.474
1727.6	166.842
1729.71	166.947
1731.81	160.895
1733.91	165.158
1736.01	165.842
1738.11	165.895
1740.21	165.316
1742.31	161.316
1744.41	166.158
1746.51	162.316
1748.6	164.421
1750.7	165.526
1752.8	164.211
1754.89	166.263
1756.99	164.579
1759.08	165.526
1761.17	166.895
1763.27	165.368
1765.36	168.421
1767.45	165.211
1769.54	164.474
1771.63	167.684
1773.72	167.368
1775.81	169.737
1777.9	170.211
1779.98	171.526
1782.07	169.105
1784.16	171.684
1786.24	172.895
1788.33	172.895
1790.41	171.842
1792.5	170.421
1794.58	173
1796.66	172
1798.74	173.526
1800.83	172.632
1802.91	173.421
1804.99	172.211
1807.06	174.158
1809.14	173
1811.22	175
1813.3	174.947
1815.38	175.842
1817.45	176.947
1819.53	175.789
1821.6	177.263
1823.68	176.79
1825.75	177.474
1827.82	175.947
1829.9	173.053
1831.97	174.053
1834.04	175.526
1836.11	175.947
1838.18	175.105
1840.25	171.368
1842.32	172.053
1844.38	174.737
1846.45	174.947
1848.52	175.211
1850.58	176.947
1852.65	174.632
1854.72	178.526
1856.78	174.737
1858.84	175.421
1860.91	172.947
1862.97	175.684
1865.03	174.316
1867.09	173.632
1869.15	176.368
1871.21	174.105
1873.27	175.105
1875.33	176.368
1877.39	177.842
1879.44	175.737
1881.5	175.526
1883.56	177.263
1885.61	177.263
1887.67	176.263
1889.72	179.105
1891.78	180.526
1893.83	177.842
1895.88	179.368
1897.93	178.421
1899.98	176.684
1902.03	181.316
1904.08	181.421
1906.13	182.842
1908.18	181.316
1910.23	180
1912.28	181.737
1914.32	178.789
1916.37	182.053
1918.41	180.526
1920.46	182.211
1922.5	183.053
1924.55	183.474
1926.59	180.789
1928.63	182.579
1930.68	185.105
1932.72	181.421
1934.76	182.737
1936.8	182
1938.84	182.526
1940.87	182.842
1942.91	181.158
1944.95	182.737
1946.99	181.368
1949.02	184.053
1951.06	183.526
1953.09	182.947
1955.13	182.579
1957.16	183.632
1959.2	182.211
1961.23	184.684
1963.26	184.421
1965.29	184.053
1967.32	183.895
1969.35	181.947
1971.38	182.842
1973.41	184.105
1975.44	183.053
1977.47	183.579
1979.5	182.632
1981.52	185.947
1983.55	182.053
1985.57	183.105
1987.6	183.158
1989.62	184.579
1991.64	184.947
1993.67	183.789
1995.69	184.842
1997.71	185.474
1999.73	183.632
2001.75	187.053
2003.77	187
2005.79	187.895
2007.81	183.895
2009.83	186.105
2011.85	185.737
2013.86	186.21
2015.88	187
2017.89	187.421
2019.91	188.263
2021.92	188.526
2023.94	189.842
2025.95	189.474
2027.96	193.895
2029.97	191.789
2031.99	191.895
2034	189.158
2036.01	190.421
2038.02	190.158
2040.03	189.789
2042.03	192.632
2044.04	190.632
2046.05	192.632
2048.06	194.053
2050.06	194.684
2052.07	189.368
2054.07	192.737
2056.08	190.895
2058.08	191.632
2060.08	196.421
2062.08	191.421
2064.09	191.211
2066.09	190.105
2068.09	193.737
2070.09	190.842
2072.09	191.316
2074.09	192.421
2076.08	194.263
2078.08	192.421
2080.08	193
2082.07	191.684
2084.07	193.158
2086.07	192.579
2088.06	194.316
2090.05	194.789
2092.05	195.895
2094.04	195.947
2096.03	191.263
2098.02	191.158
2100.01	196.684
2102	194.737
2103.99	189.105
2105.98	193.842
2107.97	193.526
2109.96	194.895
2111.95	196.316
2113.94	199.842
2115.92	196.684
2117.91	198.947
2119.89	195.421
2121.88	191.947
2123.86	195.842
2125.84	197
2127.83	197.474
2129.81	199
2131.79	197.632
2133.77	196.421
2135.75	195.737
2137.73	194.526
2139.71	195.316
2141.69	196.684
2143.67	196.895
2145.64	200.526
2147.62	198.947
2149.6	199.737
2151.57	196.526
2153.55	196.421
2155.52	199.105
2157.5	198.789
2159.47	199
2161.44	202
2163.41	197.684
2165.39	198.421
2167.36	199.632
2169.33	197.632
2171.3	198.947
2173.27	197.737
2175.24	199.263
2177.2	202.474
2179.17	201.947
2181.14	201.526
2183.1	201.632
2185.07	200.684
2187.03	198.579
2189	202.632
2190.96	205.421
2192.93	203.105
2194.89	200.632
2196.85	200.579
2198.81	202.474
2200.77	202.368
2202.73	200.737
2204.69	203.474
2206.65	201.368
2208.61	202.368
2210.57	202.737
2212.53	200.474
2214.48	199.947
2216.44	205.737
2218.4	203.684
2220.35	200.158
2222.31	203
2224.26	201.579
2226.21	202.316
2228.17	203.632
2230.12	203.947
2232.07	202.947
2234.02	202.421
2235.97	203
2237.92	200.421
2239.87	203.842
2241.82	201.421
2243.77	202.684
2245.72	206.526
2247.66	205.053
2249.61	208
2251.56	202.895
2253.5	203.263
2255.45	203.105
2257.39	203.684
2259.33	202.368
2261.28	204.842
2263.22	205.211
2265.16	205.158
2267.1	207.368
2269.04	207
2270.99	208.105
2272.92	206.211
2274.86	206.526
2276.8	204.526
2278.74	208.158
2280.68	207.895
2282.61	205.474
2284.55	208.632
2286.49	206.105
2288.42	204.421
2290.36	208.053
2292.29	209.053
2294.22	208.421
2296.16	209.421
2298.09	205.053
2300.02	209
2301.95	208.684
2303.88	205.368
2305.81	205.211
2307.74	207.632
2309.67	205.368
2311.6	208.632
2313.53	210.474
2315.45	210.158
2317.38	206.368
2319.31	211.316
2321.23	208.947
2323.16	208.316
2325.08	207.211
2327	208.526
2328.93	209.789
2330.85	206.789
2332.77	203.105
2334.69	206.368
2336.62	207.526
2338.54	209.947
2340.46	209.263
2342.38	210.579
2344.29	210.684
2346.21	208
2348.13	211.579
2350.05	210.895
2351.96	209.526
2353.88	208.211
2355.79	209.158
2357.71	210.895
2359.62	209.421
2361.54	208.526
2363.45	210.684
2365.36	208.579
2367.27	211.211
2369.19	208.895
2371.1	212.421
2373.01	208.211
2374.92	209.211
2376.83	208
2378.73	210.632
2380.64	207.263
2382.55	210.789
2384.46	209.368
2386.36	207.632
2388.27	211.158
2390.17	209.684
2392.08	209.737
2393.98	209.211
2395.89	213.21
2397.79	208.158
2399.69	212.211
2401.59	211.579
2403.5	214.211
2405.4	211.158
2407.3	211.842
2409.2	212.474
2411.09	211.632
2412.99	216.737
2414.89	212.684
2416.79	213.158
2418.69	214.053
2420.58	217.211
2422.48	221.632
2424.37	218.684
2426.27	221.842
2428.16	218.895
2430.06	220.053
2431.95	223.053
2433.84	214.842
2435.73	214.842
2437.62	219.579
2439.52	217.263
2441.41	217.632
2443.3	213.947
2445.19	215.632
