176.074	282.556
178.677	294.889
181.279	316.556
183.879	351.556
186.48	382.444
189.08	399.111
191.677	402.444
194.275	379.556
196.871	351
199.467	296.667
202.061	263.222
204.656	229.444
207.249	211.667
209.841	194.556
212.433	170.667
215.022	157.222
217.613	152.667
220.201	145.889
222.789	142
225.375	131.778
227.962	127.778
230.547	120.222
233.132	119.556
235.714	112.556
238.296	112.778
240.879	109.333
243.459	109.333
246.04	106
248.618	101.333
251.198	100
253.774	101.556
256.35	100.444
258.927	101.333
261.501	95.6667
264.074	99.3333
266.648	100.889
269.22	106.778
271.791	112.333
274.362	122.667
276.931	144.333
279.5	157.889
282.069	161
284.635	144.556
287.201	128.667
289.766	110.111
292.331	99.2222
294.894	94.3333
297.457	96.4444
300.018	88.1111
302.58	86.7778
305.14	84.1111
307.699	81.3333
310.257	78.1111
312.814	80.4444
315.372	81.1111
317.928	78.5555
320.482	77.3333
323.036	79.6667
325.589	79.7778
328.142	76.4444
330.693	75.8889
333.243	76.1111
335.795	74
338.343	72.8889
340.891	76.4444
343.439	73.2222
345.985	75.6667
348.53	74.8889
351.075	75.1111
353.619	76.6667
356.162	74.8889
358.704	77.6667
361.245	78.5556
363.786	75.5556
366.325	78.7778
368.864	75.3333
371.402	80.6667
373.939	78.5556
376.475	82.3333
379.011	83.8889
381.545	83.3333
384.079	85.3333
386.611	87.5556
389.143	90.7778
391.674	92.8889
394.204	95.8889
396.734	101.222
399.263	109.778
401.791	118.444
404.318	133.333
406.843	160.444
409.368	215.222
411.893	320.667
414.417	425.333
416.94	401
419.46	282
421.982	186.667
424.502	130.889
427.022	110.778
429.541	96.4444
432.057	90.7778
434.574	84
437.091	81.1111
439.605	81.1111
442.12	79.7778
444.634	77.8889
447.145	77.7778
449.657	75.6667
452.169	76.1111
454.678	77.5556
457.188	80.7778
459.697	79.1111
462.204	78.6667
464.711	81.1111
467.217	81.7778
469.722	82.2222
472.227	76.7778
474.729	78.5555
477.232	74.4444
479.735	75.2222
482.235	75.2222
484.736	74.3333
487.234	71.7778
489.734	73
492.23	72
494.728	70.1111
497.223	73.1111
499.719	70.1111
502.213	69.4444
504.707	71.4444
507.199	67.6667
509.69	71
512.182	69.2222
514.672	69.4444
517.162	69.8889
519.65	69.8889
522.139	69.4445
524.625	67.3333
527.111	70
529.597	67.7778
532.081	69.3333
534.564	68.6667
537.047	70.1111
539.529	69
542.01	69
544.491	68.3333
546.97	69.8889
549.448	70.2222
551.927	69
554.404	68.2222
556.88	70.2222
559.355	66.8889
561.831	68.4444
564.304	68.1111
566.777	69.7778
569.249	70.6667
571.72	68.5556
574.191	69.6667
576.661	72.1111
579.129	72
581.597	72.5556
584.064	70
586.531	71.8889
588.997	68.3333
591.462	72.2222
593.926	71.6667
596.389	70.8889
598.851	75.7778
601.313	74
603.773	76.8889
606.233	76.8889
608.692	82.7778
611.151	98.1111
613.608	124.667
616.065	179.111
618.521	204.111
620.976	159.111
623.43	114.889
625.883	88.5556
628.336	84.5556
630.788	81.7778
633.239	78.1111
635.69	75.3333
638.139	77
640.588	75
643.036	72.7778
645.483	73.4444
647.929	74.5556
650.375	73.6667
652.818	73.4444
655.262	74.2222
657.706	72.7778
660.148	72.5556
662.59	73.5556
665.031	74.7778
667.471	76
669.909	74.8889
672.347	80.4444
674.785	78.5556
677.222	81.5556
679.656	81.5556
682.092	84.7778
684.526	87.8889
686.96	91.4444
689.392	97.1111
691.824	108.667
694.256	141
696.686	233.444
699.115	377.778
701.544	391.333
703.972	266.333
706.398	160.778
708.825	116.222
711.25	100
713.675	89
716.099	88.4444
718.522	88.3333
720.944	84.4444
723.366	84.4444
725.786	87.6667
728.207	90
730.625	90.2222
733.044	93.4444
735.461	95.7778
737.879	96.1111
740.294	95.5556
742.71	93.7778
745.123	88.7778
747.538	84.5556
749.95	84.4444
752.363	80.8889
754.773	75.8889
757.185	80.7778
759.594	77.7778
762.002	79
764.411	80.3333
766.818	80.3333
769.225	78.6667
771.63	79.6667
774.035	82.3333
776.44	81.4444
778.843	81.4444
781.245	81.2222
783.648	80.4444
786.048	83
788.448	79.7778
790.848	86.3333
793.247	83.1111
795.644	85.2222
798.042	84.7778
800.438	86.1111
802.834	88.1111
805.228	87.2222
807.623	85.6667
810.016	85.6667
812.408	84.7778
814.8	86.7778
817.191	83.5556
819.58	87.8889
821.971	84.6667
824.359	87.5556
826.747	85.7778
829.134	90.5556
831.52	90.7778
833.905	93.1111
836.29	98.1111
838.675	92.1111
841.058	91.3333
843.44	93.5556
845.822	91
848.203	89.5556
850.583	89.6667
852.962	89.6667
855.341	90.5556
857.718	90.7778
860.095	91
862.471	92.6667
864.847	92
867.222	94.6667
869.596	96.4444
871.969	94.6667
874.341	96.8889
876.713	100.556
879.083	100.778
881.453	104.444
883.822	106
886.191	111.556
888.559	114.667
890.926	121.444
893.293	125.222
895.658	134.556
898.022	140.556
900.386	148.111
902.75	150.333
905.112	158.444
907.474	164.333
909.834	176.556
912.194	188.778
914.554	198.778
916.913	206.222
919.27	208.778
921.627	202.889
923.984	186.889
926.34	170.889
928.694	159
931.048	140.444
933.402	132.778
935.754	121.667
938.106	120.222
940.458	114.667
942.807	111.222
945.157	108.111
947.505	106.333
949.853	105.889
952.201	104
954.547	103.222
956.893	103.667
959.237	107.444
961.582	106.556
963.925	107.222
966.268	107.111
968.609	105.444
970.951	104.889
973.291	110.333
975.631	110.111
977.97	112.333
980.309	115.556
982.645	119.556
984.983	134.778
987.318	165.222
989.653	189.444
991.988	185.333
994.321	200.111
996.655	345.667
998.987	1135.11
1001.32	2057.11
1003.65	1655.78
1005.98	721.333
1008.31	246.889
1010.64	160.667
1012.96	144.111
1015.29	148
1017.62	150.556
1019.94	171.556
1022.27	293.111
1024.59	578.444
1026.91	677.111
1029.24	455.889
1031.56	226.111
1033.88	139.889
1036.2	121.889
1038.52	115
1040.84	108.444
1043.16	109.889
1045.47	107.889
1047.79	107
1050.1	106
1052.42	105.444
1054.74	106.333
1057.05	107.778
1059.36	107.778
1061.67	109.889
1063.98	117.667
1066.29	119.667
1068.6	121
1070.91	133.222
1073.22	135.333
1075.53	133.556
1077.84	134.444
1080.14	141.889
1082.45	146.556
1084.75	167.667
1087.06	207.222
1089.36	270.778
1091.66	348.222
1093.96	381.778
1096.27	332.556
1098.57	259.778
1100.87	203.111
1103.16	169.778
1105.46	162.667
1107.76	159.444
1110.06	159
1112.35	176.667
1114.65	203.222
1116.94	241.111
1119.23	278.889
1121.53	260.778
1123.82	212.444
1126.11	169.444
1128.4	146.222
1130.69	132.111
1132.98	128
1135.27	128.778
1137.56	126.556
1139.85	127.889
1142.13	129.889
1144.42	133
1146.7	135.778
1148.99	149.889
1151.27	162.222
1153.55	184.111
1155.84	212
1158.12	231.667
1160.4	212.667
1162.68	189.667
1164.96	163.333
1167.23	153.889
1169.51	146.444
1171.79	143.556
1174.06	144.889
1176.34	153.556
1178.62	169.111
1180.89	182.778
1183.16	185.222
1185.44	172
1187.71	155
1189.98	139.667
1192.25	131.889
1194.52	132.889
1196.79	130.556
1199.06	126.556
1201.32	128.111
1203.59	126.111
1205.86	123
1208.12	125.667
1210.39	124.222
1212.65	124.444
1214.91	122.667
1217.18	125.778
1219.44	124.111
1221.7	126.333
1223.96	125.556
1226.22	122.889
1228.48	122.556
1230.74	121
1232.99	127.111
1235.25	123.778
1237.51	127
1239.76	126.222
1242.02	128.444
1244.27	124.111
1246.53	128.111
1248.78	126.556
1251.03	125.778
1253.28	126
1255.53	129.889
1257.78	128.556
1260.03	131.444
1262.28	132.556
1264.53	131.667
1266.77	136.556
1269.02	137.444
1271.26	144.556
1273.51	143.778
1275.75	135.111
1278	137.444
1280.24	129.778
1282.48	129.222
1284.72	130.111
1286.96	128.222
1289.2	129.333
1291.44	130.222
1293.68	127.444
1295.92	134
1298.15	130.889
1300.39	130.556
1302.63	135.889
1304.86	132.556
1307.1	132
1309.33	129.889
1311.56	133.667
1313.79	132.778
1316.02	134.222
1318.26	137.556
1320.49	133.111
1322.71	135.889
1324.94	136.667
1327.17	142.222
1329.4	145.444
1331.62	147.667
1333.85	144.667
1336.08	138.333
1338.3	135.111
1340.52	135.222
1342.75	133
1344.97	137
1347.19	135.667
1349.41	138.222
1351.63	134.889
1353.85	133.556
1356.07	137.111
1358.29	134.444
1360.5	136.444
1362.72	138.222
1364.94	136.222
1367.15	137.444
1369.37	139.444
1371.58	141.111
1373.79	136.778
1376.01	144.444
1378.22	142.889
1380.43	145
1382.64	142.111
1384.85	140.556
1387.06	141.222
1389.27	136.444
1391.47	141.889
1393.68	140.556
1395.89	140.444
1398.09	140.444
1400.3	135.556
1402.5	137.111
1404.71	134.778
1406.91	136.667
1409.11	136.778
1411.31	141.444
1413.51	137.556
1415.71	137.444
1417.91	136
1420.11	138
1422.31	138
1424.51	140.333
1426.7	139.444
1428.9	140.333
1431.1	140.111
1433.29	140.667
1435.48	148.667
1437.68	143.889
1439.87	149.444
1442.06	153.889
1444.25	152.333
1446.44	150
1448.63	146.778
1450.82	146.222
1453.01	145.667
1455.2	142.556
1457.39	142.889
1459.57	143
1461.76	146
1463.94	143.111
1466.13	144.444
1468.31	146
1470.49	144.667
1472.68	146.222
1474.86	148.111
1477.04	148.889
1479.22	150.556
1481.4	153.889
1483.58	149.222
1485.75	147.222
1487.93	147.889
1490.11	145.444
1492.29	148
1494.46	145.111
1496.64	146.222
1498.81	150.778
1500.98	148.111
1503.16	146.667
1505.33	145.444
1507.5	147.556
1509.67	148
1511.84	147.444
1514.01	145.333
1516.18	147.889
1518.35	149.556
1520.51	148.444
1522.68	148.667
1524.85	146
1527.01	153.111
1529.18	152.333
1531.34	154.778
1533.51	150.444
1535.67	155.556
1537.83	155.889
1539.99	154
1542.15	159.444
1544.31	161.111
1546.47	163.667
1548.63	163.444
1550.79	164
1552.95	168.333
1555.1	169.333
1557.26	171.444
1559.41	169.222
1561.57	172.889
1563.72	184.556
1565.88	185.667
1568.03	201
1570.18	216.889
1572.33	237.889
1574.48	266.667
1576.63	307.111
1578.78	331.333
1580.93	389.556
1583.08	446.778
1585.23	474.778
1587.37	432.444
1589.52	366.222
1591.66	305.778
1593.81	267.333
1595.95	241.889
1598.1	225
1600.24	203
1602.38	196.889
1604.52	188.889
1606.66	184.333
1608.8	180.444
1610.94	181.889
1613.08	172.778
1615.22	169.778
1617.36	166.889
1619.49	169.333
1621.63	166.556
1623.77	158.444
1625.9	163.667
1628.03	158.667
1630.17	160.222
1632.3	161.333
1634.43	162.889
1636.56	159.444
1638.7	160.444
1640.83	157.667
1642.96	158.667
1645.08	161.556
1647.21	161.444
1649.34	163.333
1651.47	159.333
1653.59	163.444
1655.72	159.667
1657.84	160.333
1659.97	161.222
1662.09	161.889
1664.21	159.222
1666.34	164.556
1668.46	163.889
1670.58	162.889
1672.7	163.111
1674.82	164.444
1676.94	160.889
1679.06	164
1681.18	160.333
1683.29	164.778
1685.41	164.556
1687.52	167.889
1689.64	164.444
1691.76	161.444
1693.87	161.111
1695.98	161.556
1698.09	163.667
1700.21	164.667
1702.32	160.889
1704.43	165.222
1706.54	166.889
1708.65	161.667
1710.76	164
1712.86	164.111
1714.97	162.667
1717.08	169.444
1719.19	166.111
1721.29	165.889
1723.4	163.778
1725.5	167.778
1727.6	168.889
1729.71	167.222
1731.81	164.556
1733.91	165.778
1736.01	168.778
1738.11	167.333
1740.21	166.889
1742.31	167.333
1744.41	164.111
1746.51	168.556
1748.6	164.222
1750.7	167.333
1752.8	164.778
1754.89	168.889
1756.99	166.778
1759.08	162.111
1761.17	169.222
1763.27	167.778
1765.36	166.333
1767.45	168.556
1769.54	169.333
1771.63	170.333
1773.72	169.778
1775.81	169.778
1777.9	169.667
1779.98	169.222
1782.07	173
1784.16	171.222
1786.24	175.889
1788.33	172.889
1790.41	175
1792.5	174
1794.58	175.222
1796.66	177
1798.74	171.222
1800.83	174.667
1802.91	174.778
1804.99	175.778
1807.06	175
1809.14	172
1811.22	173.333
1813.3	176.222
1815.38	177.667
1817.45	174.556
1819.53	172.778
1821.6	179.333
1823.68	177.667
1825.75	170
1827.82	175
1829.9	174
1831.97	175.333
1834.04	178.222
1836.11	175.333
1838.18	175.889
1840.25	175.667
1842.32	173.667
1844.38	176.889
1846.45	176.778
1848.52	175.111
1850.58	173.333
1852.65	174.889
1854.72	177.556
1856.78	179
1858.84	174.667
1860.91	179.667
1862.97	173.778
1865.03	175.222
1867.09	174.444
1869.15	179
1871.21	172
1873.27	176.333
1875.33	177.111
1877.39	180.778
1879.44	177.222
1881.5	174.333
1883.56	175.889
1885.61	179.444
1887.67	178.667
1889.72	176.667
1891.78	178.778
1893.83	183.444
1895.88	176.444
1897.93	179.778
1899.98	182.444
1902.03	184.556
1904.08	186.556
1906.13	181.444
1908.18	178.667
1910.23	183.111
1912.28	182.778
1914.32	185.333
1916.37	181.778
1918.41	181
1920.46	184.778
1922.5	184.889
1924.55	182.111
1926.59	184.111
1928.63	181
1930.68	181
1932.72	188.333
1934.76	187.222
1936.8	186.333
1938.84	183
1940.87	184.222
1942.91	188.111
1944.95	185.222
1946.99	182.889
1949.02	182.222
1951.06	187.667
1953.09	185
1955.13	182.444
1957.16	185.333
1959.2	184.111
1961.23	185.333
1963.26	184.444
1965.29	186.444
1967.32	185.556
1969.35	185.778
1971.38	183.333
1973.41	183.889
1975.44	184.333
1977.47	181.222
1979.5	181.444
1981.52	181.222
1983.55	186.556
1985.57	184.667
1987.6	188
1989.62	186.111
1991.64	182.111
1993.67	184.333
1995.69	187.556
1997.71	191.778
1999.73	186.556
2001.75	184.556
2003.77	189
2005.79	188.111
2007.81	185
2009.83	189.889
2011.85	191.333
2013.86	185.889
2015.88	186.667
2017.89	191.222
2019.91	195.778
2021.92	191.889
2023.94	194.222
2025.95	193.667
2027.96	190.222
2029.97	193.556
2031.99	192.889
2034	190.778
2036.01	190.556
2038.02	191
2040.03	191.667
2042.03	191.333
2044.04	195.444
2046.05	193.778
2048.06	192.556
2050.06	190.778
2052.07	196.444
2054.07	195.444
2056.08	192
2058.08	189.333
2060.08	192.556
2062.08	192.111
2064.09	187.111
2066.09	197.333
2068.09	190.778
2070.09	194.111
2072.09	191.333
2074.09	196
2076.08	192.556
2078.08	197.778
2080.08	194
2082.07	194.889
2084.07	198
2086.07	196.889
2088.06	195.222
2090.05	198.222
2092.05	192.222
2094.04	192.667
2096.03	194.333
2098.02	192.556
2100.01	195.556
2102	194.222
2103.99	196.333
2105.98	192.556
2107.97	194.667
2109.96	197.778
2111.95	197.556
2113.94	196.667
2115.92	198.778
2117.91	195.667
2119.89	199.222
2121.88	200.667
2123.86	197.889
2125.84	198.333
2127.83	199.111
2129.81	197.889
2131.79	195
2133.77	197.667
2135.75	198.333
2137.73	202.222
2139.71	200.778
2141.69	194.444
2143.67	201.444
2145.64	199.333
2147.62	195.333
2149.6	201.111
2151.57	199.222
2153.55	199.889
2155.52	197.111
2157.5	199.111
2159.47	198.556
2161.44	198.889
2163.41	195.778
2165.39	195.556
2167.36	199.778
2169.33	200.111
2171.3	200.667
2173.27	197.889
2175.24	202.333
2177.2	200.222
2179.17	197.333
2181.14	201.889
2183.1	204.778
2185.07	203.111
2187.03	200.667
2189	200.333
2190.96	201.889
2192.93	201.667
2194.89	199.556
2196.85	201.222
2198.81	206.778
2200.77	203.778
2202.73	201.111
2204.69	202.778
2206.65	204.444
2208.61	200.444
2210.57	199.111
2212.53	201.222
2214.48	207.111
2216.44	199.333
2218.4	205.333
2220.35	202.111
2222.31	196.889
2224.26	198.778
2226.21	202.556
2228.17	205.222
2230.12	202.556
2232.07	203
2234.02	201.222
2235.97	209.444
2237.92	206
2239.87	203.444
2241.82	203.111
2243.77	205.667
2245.72	203.556
2247.66	205.222
2249.61	203.333
2251.56	201
2253.5	204.667
2255.45	206.778
2257.39	207
2259.33	208.778
2261.28	211.222
2263.22	204
2265.16	207.444
2267.1	200.889
2269.04	202.889
2270.99	205.556
2272.92	204.222
2274.86	202.889
2276.8	207.667
2278.74	205.333
2280.68	203
2282.61	212
2284.55	211.222
2286.49	206.222
2288.42	207.333
2290.36	212.556
2292.29	204.111
2294.22	204.667
2296.16	203.667
2298.09	208.667
2300.02	201.667
2301.95	204.111
2303.88	210.444
2305.81	202.333
2307.74	206.667
2309.67	208.111
2311.6	208.333
2313.53	209.889
2315.45	206.889
2317.38	210.778
2319.31	204.667
2321.23	212.222
2323.16	206.556
2325.08	209.222
2327	209.889
2328.93	207
2330.85	205.111
2332.77	206.111
2334.69	212.778
2336.62	207
2338.54	209.556
2340.46	208
2342.38	208.444
2344.29	210.222
2346.21	207.333
2348.13	212.444
2350.05	207.444
2351.96	206.667
2353.88	208.778
2355.79	207.111
2357.71	208.222
2359.62	213.889
2361.54	212
2363.45	208.556
2365.36	211.667
2367.27	202.444
2369.19	212.444
2371.1	211
2373.01	205.444
2374.92	210.444
2376.83	210.889
2378.73	209.333
2380.64	212.556
2382.55	213.111
2384.46	209.778
2386.36	211.333
2388.27	212.222
2390.17	215.667
2392.08	210.222
2393.98	211
2395.89	212.889
2397.79	210.444
2399.69	212
2401.59	214.444
2403.5	212.778
2405.4	212.222
2407.3	211
2409.2	213.444
2411.09	210.667
2412.99	214.889
2414.89	219.667
2416.79	214
2418.69	215.333
2420.58	219
2422.48	217.556
2424.37	220.889
2426.27	218.333
2428.16	216.556
2430.06	225.333
2431.95	219.444
2433.84	218
2435.73	217.778
2437.62	219.889
2439.52	215.556
2441.41	224
2443.3	219.333
2445.19	216.778
