176.074	406.444
178.677	362.333
181.279	330.667
183.879	306.556
186.48	276.889
189.08	255.222
191.677	235.333
194.275	218.667
196.871	203.333
199.467	186.333
202.061	173.222
204.656	160.111
207.249	146.889
209.841	143.333
212.433	132.444
215.022	120.111
217.613	119
220.201	108.778
222.789	102.444
225.375	100.222
227.962	90
230.547	86.4444
233.132	83.7778
235.714	80
238.296	79.5556
240.879	75.5556
243.459	72
246.04	69.8889
248.618	66
251.198	69.1111
253.774	65.2222
256.35	64.6667
258.927	60.3333
261.501	61.5556
264.074	59.5556
266.648	60.7778
269.22	59.2222
271.791	57.5556
274.362	55.7778
276.931	55.4444
279.5	55.8889
282.069	56
284.635	55.2222
287.201	54.2222
289.766	52.5556
292.331	55
294.894	53
297.457	52.7778
300.018	53.3333
302.58	52.5556
305.14	53
307.699	52.5556
310.257	51.8889
312.814	51.2222
315.372	51.8889
317.928	50.5556
320.482	51
323.036	50
325.589	51.1111
328.142	53.8889
330.693	50
333.243	51.5556
335.795	52.3333
338.343	53.6667
340.891	51.7778
343.439	54.4444
345.985	52.1111
348.53	51.6667
351.075	54
353.619	54
356.162	54.8889
358.704	55.4444
361.245	55.2222
363.786	58
366.325	58
368.864	57.8889
371.402	57.2222
373.939	58.3333
376.475	59.8889
379.011	63.6667
381.545	61.8889
384.079	66.6667
386.611	68.2222
389.143	70.4445
391.674	70.5556
394.204	77.2222
396.734	78.5556
399.263	81.8889
401.791	84.6667
404.318	86.4444
406.843	84.7778
409.368	83.2222
411.893	80.1111
414.417	75.5556
416.94	72.3333
419.46	72.5555
421.982	68.4444
424.502	64.5556
427.022	62.4444
429.541	61.5556
432.057	62.4444
434.574	61
437.091	61.5556
439.605	57.8889
442.12	60.6667
444.634	56.7778
447.145	55.3333
449.657	55.5556
452.169	56.6667
454.678	56.6667
457.188	52.6667
459.697	54.6667
462.204	54.5556
464.711	52.2222
467.217	54.1111
469.722	53.5556
472.227	52.2222
474.729	52.8889
477.232	52.2222
479.735	52.2222
482.235	52.7778
484.736	53.8889
487.234	52.1111
489.734	55.4444
492.23	54.3333
494.728	53.4444
497.223	52.5556
499.719	53.8889
502.213	52.7778
504.707	55.3333
507.199	52.5556
509.69	55.1111
512.182	51.5556
514.672	53.5556
517.162	54.4444
519.65	53.2222
522.139	54.8889
524.625	55.1111
527.111	54.5556
529.597	52.8889
532.081	55
534.564	55.1111
537.047	55
539.529	54.7778
542.01	57.8889
544.491	57.2222
546.97	58.3333
549.448	57.8889
551.927	60.4444
554.404	57.7778
556.88	60.3333
559.355	62.6667
561.831	63.6667
564.304	66.4444
566.777	68
569.249	72.2222
571.72	71.1111
574.191	74
576.661	74.5556
579.129	77.1111
581.597	83.4444
584.064	90.2222
586.531	97.6667
588.997	111.111
591.462	123.667
593.926	145.778
596.389	182.667
598.851	242.889
601.313	359.333
603.773	557.333
606.233	855.111
608.692	944.556
611.151	734.111
613.608	484.222
616.065	302.667
618.521	215.222
620.976	169.333
623.43	140.556
625.883	121.222
628.336	110
630.788	99.4444
633.239	92.4444
635.69	91.7778
638.139	84.5556
640.588	82.3333
643.036	80.1111
645.483	78.3333
647.929	74
650.375	74.4444
652.818	71.7778
655.262	73.3333
657.706	70.3333
660.148	69.3333
662.59	72.2222
665.031	69.8889
667.471	73
669.909	75.7778
672.347	77.5556
674.785	79
677.222	81.7778
679.656	84.2222
682.092	83.4444
684.526	81.1111
686.96	80.4444
689.392	75.1111
691.824	76.3333
694.256	72.7778
696.686	69.7778
699.115	68.8889
701.544	66.5556
703.972	67.1111
706.398	63.7778
708.825	64.6667
711.25	65.2222
713.675	63.7778
716.099	62.6667
718.522	62.3333
720.944	62.1111
723.366	61.6667
725.786	61.3333
728.207	60.4444
730.625	61.2222
733.044	57.7778
735.461	57.4444
737.879	59.7778
740.294	59
742.71	60.1111
745.123	60.7778
747.538	57.5556
749.95	57.6667
752.363	59.3333
754.773	59.1111
757.185	60.4444
759.594	59.7778
762.002	61.2222
764.411	59.3333
766.818	61
769.225	60.6667
771.63	61.1111
774.035	62
776.44	61.1111
778.843	62.2222
781.245	62
783.648	65.4444
786.048	64.7778
788.448	69.1111
790.848	68.7778
793.247	76
795.644	82.3333
798.042	95
800.438	108.444
802.834	116.222
805.228	108.778
807.623	97.8889
810.016	91.3333
812.408	80.4444
814.8	82.3333
817.191	80.6667
819.58	81
821.971	79.2222
824.359	82.7778
826.747	83.6667
829.134	88.5556
831.52	90.6667
833.905	97.6667
836.29	105.667
838.675	113.111
841.058	126.333
843.44	145.111
845.822	167.889
848.203	192
850.583	200.889
852.962	185.889
855.341	166.444
857.718	139.778
860.095	120.111
862.471	106.111
864.847	92.2222
867.222	88.4444
869.596	84.1111
871.969	82.3333
874.341	78.1111
876.713	74.8889
879.083	75
881.453	70.5556
883.822	75.8889
886.191	72.6667
888.559	73.5556
890.926	70.7778
893.293	71.8889
895.658	71.5556
898.022	72.4445
900.386	70.8889
902.75	71.4445
905.112	74.2222
907.474	71.7778
909.834	76
912.194	75
914.554	74.1111
916.913	75.6667
919.27	75
921.627	76.3333
923.984	78.7778
926.34	78.4444
928.694	78.4444
931.048	80.2222
933.402	81.6667
935.754	85
938.106	86.2222
940.458	86.1111
942.807	87.8889
945.157	89.8889
947.505	91.5556
949.853	97.1111
952.201	102
954.547	107.444
956.893	112
959.237	121.222
961.582	131.111
963.925	145
966.268	158.778
968.609	192.444
970.951	226.889
973.291	299
975.631	430.778
977.97	711.444
980.309	1059.44
982.645	1583.89
984.983	1859.67
987.318	2148.78
989.653	6166.67
991.988	16370.4
994.321	16029
996.655	8482
998.987	3666.44
1001.32	1756.56
1003.65	910.667
1005.98	601.667
1008.31	449.111
1010.64	314.778
1012.96	226.667
1015.29	187.556
1017.62	167.889
1019.94	156.889
1022.27	144.444
1024.59	134.889
1026.91	130.889
1029.24	129.111
1031.56	124.778
1033.88	123.333
1036.2	119.889
1038.52	113.444
1040.84	110.333
1043.16	105.222
1045.47	105.444
1047.79	97.7778
1050.1	97.4444
1052.42	95.4444
1054.74	93.2222
1057.05	95.6667
1059.36	90.6667
1061.67	94.2222
1063.98	89.8889
1066.29	92.7778
1068.6	90.4444
1070.91	93.3333
1073.22	91.8889
1075.53	94.6667
1077.84	97.2222
1080.14	99.8889
1082.45	98.4444
1084.75	98.8889
1087.06	93.8889
1089.36	91.8889
1091.66	91.4444
1093.96	89.6667
1096.27	89.1111
1098.57	89.3333
1100.87	93.5556
1103.16	93
1105.46	97.1111
1107.76	97.3333
1110.06	99.5556
1112.35	96
1114.65	94.7778
1116.94	98
1119.23	101
1121.53	98.3333
1123.82	101.667
1126.11	104.111
1128.4	103.333
1130.69	111.333
1132.98	115
1135.27	116.667
1137.56	124.222
1139.85	133.333
1142.13	138.889
1144.42	151.556
1146.7	157.556
1148.99	164.889
1151.27	168
1153.55	180.889
1155.84	187.111
1158.12	195.778
1160.4	215.667
1162.68	246.667
1164.96	289.889
1167.23	353.889
1169.51	461.444
1171.79	612
1174.06	816.222
1176.34	977.667
1178.62	1027.11
1180.89	895.444
1183.16	715.222
1185.44	537
1187.71	409
1189.98	320.667
1192.25	261.222
1194.52	224.667
1196.79	195.778
1199.06	178
1201.32	162.556
1203.59	151.444
1205.86	140.333
1208.12	135.778
1210.39	130.667
1212.65	129.111
1214.91	129.444
1217.18	125
1219.44	117.667
1221.7	111.222
1223.96	107.667
1226.22	104
1228.48	102.333
1230.74	94.5556
1232.99	98.5556
1235.25	95.5556
1237.51	94.3333
1239.76	95.6667
1242.02	92.8889
1244.27	89.4445
1246.53	88.2222
1248.78	88
1251.03	89.1111
1253.28	87.8889
1255.53	88.1111
1257.78	87.3333
1260.03	88.7778
1262.28	86.4444
1264.53	83.2222
1266.77	85.7778
1269.02	86.5556
1271.26	86.6667
1273.51	85
1275.75	84.3333
1278	85
1280.24	82.1111
1282.48	81.6667
1284.72	86
1286.96	85.3333
1289.2	85.4444
1291.44	84.6667
1293.68	87.1111
1295.92	84.5555
1298.15	87.1111
1300.39	88.2222
1302.63	88.1111
1304.86	89.3333
1307.1	91.7778
1309.33	85.1111
1311.56	88.6667
1313.79	88.6667
1316.02	88.7778
1318.26	86.3333
1320.49	86.2222
1322.71	86.3333
1324.94	84.1111
1327.17	85.8889
1329.4	86
1331.62	86.1111
1333.85	89.8889
1336.08	89.1111
1338.3	89.1111
1340.52	85.2222
1342.75	88.5555
1344.97	88
1347.19	90.1111
1349.41	90.6667
1351.63	93.2222
1353.85	90.3333
1356.07	91
1358.29	94.4444
1360.5	93.5556
1362.72	94.5555
1364.94	95.6667
1367.15	97.8889
1369.37	96.3333
1371.58	95.3333
1373.79	91.7778
1376.01	93.1111
1378.22	91.4444
1380.43	90.4444
1382.64	89.5556
1384.85	86.5556
1387.06	85.1111
1389.27	90.5556
1391.47	88.3333
1393.68	89
1395.89	89.8889
1398.09	97.4445
1400.3	101.111
1402.5	118.222
1404.71	142.333
1406.91	137.556
1409.11	119.889
1411.31	106.556
1413.51	98.5555
1415.71	94
1417.91	87.7778
1420.11	87.8889
1422.31	85.5556
1424.51	86.7778
1426.7	88.8889
1428.9	87.4444
1431.1	87.4444
1433.29	88.4444
1435.48	89.4444
1437.68	90.1111
1439.87	90.6667
1442.06	89.5556
1444.25	88.8889
1446.44	87.8889
1448.63	91.2222
1450.82	93.8889
1453.01	91.8889
1455.2	89.2222
1457.39	92.4444
1459.57	94.1111
1461.76	95.8889
1463.94	92.8889
1466.13	95.1111
1468.31	97.8889
1470.49	99.3333
1472.68	101
1474.86	103.889
1477.04	109.222
1479.22	108.778
1481.4	109.667
1483.58	108.889
1485.75	103.778
1487.93	102.333
1490.11	99.5556
1492.29	98.8889
1494.46	100.556
1496.64	97.4444
1498.81	95.6667
1500.98	99.2222
1503.16	95.7778
1505.33	98.3333
1507.5	98.8889
1509.67	96.6667
1511.84	97.3333
1514.01	99.3333
1516.18	98.5556
1518.35	98.3333
1520.51	100.111
1522.68	97.8889
1524.85	99.7778
1527.01	100.667
1529.18	101
1531.34	104.222
1533.51	105.667
1535.67	110.111
1537.83	108.556
1539.99	112.444
1542.15	112.111
1544.31	119.333
1546.47	121.444
1548.63	124.889
1550.79	133
1552.95	135
1555.1	140.889
1557.26	145.222
1559.41	153.444
1561.57	165.667
1563.72	178.333
1565.88	192
1568.03	210.111
1570.18	233.222
1572.33	260.667
1574.48	302.222
1576.63	351.889
1578.78	415.333
1580.93	499.889
1583.08	622.889
1585.23	735.111
1587.37	772.889
1589.52	710.889
1591.66	598.222
1593.81	495.222
1595.95	416.556
1598.1	394.222
1600.24	411.444
1602.38	467.333
1604.52	546
1606.66	594.667
1608.8	552.333
1610.94	468.333
1613.08	387.889
1615.22	318.444
1617.36	268.222
1619.49	243.889
1621.63	217.556
1623.77	202.889
1625.9	190.222
1628.03	176.778
1630.17	162.222
1632.3	153.778
1634.43	149.778
1636.56	141.222
1638.7	135.444
1640.83	131.778
1642.96	130.333
1645.08	120.111
1647.21	121.556
1649.34	118.333
1651.47	119.333
1653.59	115
1655.72	115.444
1657.84	114.667
1659.97	109.444
1662.09	109.222
1664.21	108.444
1666.34	112.778
1668.46	104.444
1670.58	106.556
1672.7	105.889
1674.82	110.667
1676.94	107.222
1679.06	105.667
1681.18	105.333
1683.29	103.111
1685.41	108.667
1687.52	109.333
1689.64	110
1691.76	111.889
1693.87	116.333
1695.98	115.556
1698.09	115.556
1700.21	116.556
1702.32	120.667
1704.43	116.556
1706.54	111.222
1708.65	111.556
1710.76	111.667
1712.86	112.667
1714.97	108.333
1717.08	110.778
1719.19	107.778
1721.29	105.111
1723.4	101.111
1725.5	104.444
1727.6	101.222
1729.71	102.333
1731.81	101.667
1733.91	103
1736.01	99.1111
1738.11	104
1740.21	97.8889
1742.31	97.6667
1744.41	102.111
1746.51	101.556
1748.6	101.333
1750.7	103.333
1752.8	101.222
1754.89	103.222
1756.99	102.889
1759.08	103
1761.17	100.667
1763.27	105.222
1765.36	103
1767.45	100.778
1769.54	102.444
1771.63	102.333
1773.72	105.667
1775.81	101.778
1777.9	103.778
1779.98	101.333
1782.07	100.667
1784.16	104
1786.24	104.556
1788.33	102.111
1790.41	102.556
1792.5	102
1794.58	105.111
1796.66	103.444
1798.74	105.444
1800.83	101.444
1802.91	102.778
1804.99	106.556
1807.06	106.778
1809.14	107.667
1811.22	106.778
1813.3	106.111
1815.38	104.333
1817.45	104.444
1819.53	106.222
1821.6	105.556
1823.68	106.556
1825.75	107.222
1827.82	107
1829.9	104.111
1831.97	106.444
1834.04	109.111
1836.11	107
1838.18	108.111
1840.25	109.444
1842.32	101.778
1844.38	106.444
1846.45	108.556
1848.52	109.556
1850.58	107.444
1852.65	108.333
1854.72	107.111
1856.78	107.667
1858.84	105.222
1860.91	109.444
1862.97	106.556
1865.03	108.778
1867.09	110.556
1869.15	108.667
1871.21	111.111
1873.27	109
1875.33	107.222
1877.39	106.444
1879.44	113
1881.5	110.778
1883.56	108.111
1885.61	108.222
1887.67	112.222
1889.72	109.222
1891.78	112.667
1893.83	111.556
1895.88	111.222
1897.93	117.667
1899.98	122.889
1902.03	122.444
1904.08	117.778
1906.13	116.444
1908.18	116
1910.23	112.889
1912.28	109.778
1914.32	115.778
1916.37	112.667
1918.41	114.889
1920.46	111.333
1922.5	117.667
1924.55	113.444
1926.59	117.333
1928.63	116.111
1930.68	118
1932.72	124.667
1934.76	123.667
1936.8	119.444
1938.84	122.333
1940.87	121.556
1942.91	120.667
1944.95	118.556
1946.99	117.111
1949.02	117
1951.06	114.111
1953.09	117.222
1955.13	112.222
1957.16	113.556
1959.2	116.778
1961.23	113.667
1963.26	114.444
1965.29	114
1967.32	112.333
1969.35	114.444
1971.38	114.889
1973.41	111.556
1975.44	114.778
1977.47	121
1979.5	120.556
1981.52	119
1983.55	119.333
1985.57	118
1987.6	121.889
1989.62	119.889
1991.64	118.556
1993.67	115.667
1995.69	115.778
1997.71	116.778
1999.73	115.444
2001.75	116.222
2003.77	117.444
2005.79	115
2007.81	114
2009.83	116.222
2011.85	116.222
2013.86	117.111
2015.88	117.556
2017.89	117
2019.91	122.889
2021.92	127.667
2023.94	125.667
2025.95	119.667
2027.96	120
2029.97	118.222
2031.99	116.333
2034	117.111
2036.01	118.222
2038.02	119.333
2040.03	123.222
2042.03	119.111
2044.04	115.556
2046.05	118.667
2048.06	121.667
2050.06	121
2052.07	122.222
2054.07	121.778
2056.08	120.444
2058.08	118.444
2060.08	122.333
2062.08	118
2064.09	118.222
2066.09	117.667
2068.09	118.667
2070.09	118.556
2072.09	120.222
2074.09	118.778
2076.08	117.444
2078.08	118.667
2080.08	120.667
2082.07	119.667
2084.07	118.111
2086.07	121.889
2088.06	123.111
2090.05	119.889
2092.05	121.222
2094.04	122.778
2096.03	118.444
2098.02	117.444
2100.01	120.111
2102	120
2103.99	120
2105.98	123
2107.97	120.667
2109.96	123
2111.95	122.111
2113.94	122.222
2115.92	124.778
2117.91	122.889
2119.89	126.778
2121.88	125
2123.86	121.889
2125.84	119.222
2127.83	124.111
2129.81	120.556
2131.79	123.444
2133.77	123.889
2135.75	125
2137.73	123.111
2139.71	122.333
2141.69	122.778
2143.67	125.333
2145.64	120.222
2147.62	122.444
2149.6	123.333
2151.57	123
2153.55	120.111
2155.52	125.333
2157.5	124.667
2159.47	121.111
2161.44	121.111
2163.41	125.222
2165.39	124.333
2167.36	124.444
2169.33	122.778
2171.3	121.889
2173.27	126.111
2175.24	123
2177.2	127.111
2179.17	124
2181.14	128.111
2183.1	129.111
2185.07	133.556
2187.03	136.333
2189	135.778
2190.96	138.889
2192.93	130.778
2194.89	127.444
2196.85	127.333
2198.81	129.444
2200.77	128.333
2202.73	125.333
2204.69	128.667
2206.65	125.444
2208.61	126.556
2210.57	127.667
2212.53	128.667
2214.48	128.222
2216.44	131.222
2218.4	130.778
2220.35	127.667
2222.31	123
2224.26	123.889
2226.21	124.889
2228.17	124.778
2230.12	127.222
2232.07	126.222
2234.02	128.889
2235.97	128.778
2237.92	124.889
2239.87	125.444
2241.82	126.556
2243.77	126
2245.72	127.667
2247.66	127.667
2249.61	123
2251.56	128
2253.5	125
2255.45	129.222
2257.39	125.889
2259.33	125.889
2261.28	129.111
2263.22	129.889
2265.16	129.778
2267.1	129.333
2269.04	127.222
2270.99	131
2272.92	132.111
2274.86	127.889
2276.8	128.889
2278.74	128.444
2280.68	126
2282.61	128.333
2284.55	124.778
2286.49	130.556
2288.42	133.444
2290.36	133.667
2292.29	139
2294.22	147.889
2296.16	154.556
2298.09	148.222
2300.02	141
2301.95	131.222
2303.88	132.111
2305.81	130.556
2307.74	127.778
2309.67	130.778
2311.6	128.889
2313.53	129.667
2315.45	128.333
2317.38	130.556
2319.31	127.222
2321.23	128.667
2323.16	129.778
2325.08	131.222
2327	131.889
2328.93	131.222
2330.85	132.222
2332.77	130.556
2334.69	133.889
2336.62	128
2338.54	129.111
2340.46	134
2342.38	130.556
2344.29	127.889
2346.21	132
2348.13	133.333
2350.05	131.889
2351.96	134.111
2353.88	135
2355.79	137.889
2357.71	135.556
2359.62	136.111
2361.54	134
2363.45	134.667
2365.36	133.889
2367.27	134.778
2369.19	135.333
2371.1	136.333
2373.01	137.667
2374.92	137.222
2376.83	138.111
2378.73	135
2380.64	140.111
2382.55	137.333
2384.46	138
2386.36	133.889
2388.27	134.889
2390.17	132.444
2392.08	134.111
2393.98	132.111
2395.89	131
2397.79	132.778
2399.69	130.444
2401.59	127.889
2403.5	130.444
2405.4	131.444
2407.3	130.111
2409.2	130
2411.09	133.667
2412.99	130.556
2414.89	131.111
2416.79	133.111
2418.69	131.889
2420.58	133.111
2422.48	133.556
2424.37	130.333
2426.27	131.889
2428.16	135
2430.06	132.333
2431.95	130.556
2433.84	129.222
2435.73	134.667
2437.62	136.333
2439.52	135.778
2441.41	135.556
2443.3	137.333
2445.19	141.778
