176.074	388.556
178.677	362.111
181.279	325.778
183.879	306
186.48	275.556
189.08	251.667
191.677	230.444
194.275	213.333
196.871	197.222
199.467	184.667
202.061	169.778
204.656	158.444
207.249	150.889
209.841	141.556
212.433	129
215.022	121.556
217.613	115.111
220.201	109.222
222.789	102.111
225.375	97
227.962	94.2222
230.547	88.5556
233.132	87.2222
235.714	82.2222
238.296	81.2222
240.879	75.5556
243.459	73.1111
246.04	71.6667
248.618	69.4444
251.198	68
253.774	65.1111
256.35	65.3333
258.927	65.4444
261.501	61.8889
264.074	60.8889
266.648	59
269.22	57.8889
271.791	59.4444
274.362	57
276.931	55.4444
279.5	56.1111
282.069	54.8889
284.635	57.4444
287.201	54.6667
289.766	54.8889
292.331	54.7778
294.894	55.2222
297.457	54.6667
300.018	54.7778
302.58	53.6667
305.14	52.6667
307.699	51
310.257	53.7778
312.814	53.7778
315.372	50.1111
317.928	53.5556
320.482	53.7778
323.036	53.4444
325.589	52.3333
328.142	54.8889
330.693	54.2222
333.243	55.7778
335.795	52.4444
338.343	54.2222
340.891	53.3333
343.439	54.8889
345.985	54.5556
348.53	54.4444
351.075	54.3333
353.619	56.5556
356.162	54.7778
358.704	58.3333
361.245	57.5556
363.786	58.1111
366.325	58
368.864	57.5556
371.402	58.4444
373.939	63.8889
376.475	60.5556
379.011	64.6667
381.545	67.7778
384.079	64.1111
386.611	67.3333
389.143	70.4445
391.674	73.2222
394.204	76.3333
396.734	79.4444
399.263	86.5556
401.791	84.5556
404.318	88.7778
406.843	87
409.368	83.5556
411.893	77.5556
414.417	77.3333
416.94	73.5556
419.46	70.7778
421.982	70.5556
424.502	67.7778
427.022	67.1111
429.541	63.3333
432.057	65.7778
434.574	64.5556
437.091	62.3333
439.605	60.2222
442.12	60.2222
444.634	59.2222
447.145	58.6667
449.657	56.7778
452.169	59.7778
454.678	56.8889
457.188	57.1111
459.697	56.3333
462.204	55.8889
464.711	54.8889
467.217	53.6667
469.722	58
472.227	55.5556
474.729	55.7778
477.232	56.2222
479.735	54.8889
482.235	56.3333
484.736	54.2222
487.234	57.2222
489.734	54.1111
492.23	55.1111
494.728	57.7778
497.223	55.2222
499.719	54.6667
502.213	53.6667
504.707	56.2222
507.199	56.4444
509.69	56.3333
512.182	51.6667
514.672	52.6667
517.162	56.2222
519.65	57.2222
522.139	55.7778
524.625	57.5556
527.111	55.6667
529.597	56.5556
532.081	56.5556
534.564	58.6667
537.047	57.7778
539.529	59.5556
542.01	57.6667
544.491	59
546.97	60.6667
549.448	60.5556
551.927	62.1111
554.404	62.2222
556.88	64.1111
559.355	65.3333
561.831	69
564.304	68.6667
566.777	69.3333
569.249	72.3333
571.72	75.6667
574.191	77.6667
576.661	78.4444
579.129	83.4444
581.597	84
584.064	89.4444
586.531	101.333
588.997	111.778
591.462	125.667
593.926	148.667
596.389	181.333
598.851	235.444
601.313	357.222
603.773	549.444
606.233	825.333
608.692	910.333
611.151	723
613.608	474.444
616.065	302.444
618.521	216.778
620.976	169.444
623.43	142.889
625.883	124.889
628.336	111.556
630.788	102.778
633.239	96
635.69	89.2222
638.139	87.5556
640.588	83
643.036	82.2222
645.483	76.7778
647.929	79.1111
650.375	74.7778
652.818	75.3333
655.262	75
657.706	72.8889
660.148	72.6667
662.59	73.4444
665.031	74.6667
667.471	74.7778
669.909	74.3333
672.347	77.6667
674.785	78.2222
677.222	83.3333
679.656	84.2222
682.092	81.3333
684.526	84.5556
686.96	83.2222
689.392	78.1111
691.824	77.7778
694.256	72.4444
696.686	74
699.115	72.7778
701.544	72.2222
703.972	68.6667
706.398	68
708.825	67.3333
711.25	68.3333
713.675	66.3333
716.099	64.6667
718.522	63.5556
720.944	65.6667
723.366	63.2222
725.786	62.3333
728.207	61.7778
730.625	61.4444
733.044	63.4444
735.461	60.7778
737.879	61.8889
740.294	61
742.71	60
745.123	62.6667
747.538	60.5556
749.95	59.6667
752.363	62.4444
754.773	61.7778
757.185	61.3333
759.594	59.8889
762.002	64
764.411	62.1111
766.818	61.8889
769.225	61.7778
771.63	63.4444
774.035	62.5556
776.44	65.6667
778.843	67.3333
781.245	67.1111
783.648	67.1111
786.048	67.3333
788.448	72.7778
790.848	70.3333
793.247	76
795.644	84.4444
798.042	97.3333
800.438	110.778
802.834	115.111
805.228	111.333
807.623	101.667
810.016	90.4444
812.408	85.5556
814.8	79.4444
817.191	80.2222
819.58	79.7778
821.971	82.1111
824.359	82.7778
826.747	85.4444
829.134	89.3333
831.52	94.6667
833.905	98.4444
836.29	104.333
838.675	113.444
841.058	126.556
843.44	144.556
845.822	166.889
848.203	189.333
850.583	202.667
852.962	191.222
855.341	169.444
857.718	146.667
860.095	120.222
862.471	106.222
864.847	95.7778
867.222	90.2222
869.596	88.4444
871.969	82
874.341	80
876.713	76.8889
879.083	76.6667
881.453	76.5556
883.822	78.1111
886.191	72.5556
888.559	74.3333
890.926	76.5556
893.293	76.2222
895.658	74.4444
898.022	75.6667
900.386	74.3333
902.75	78.7778
905.112	77.1111
907.474	78
909.834	72.3333
912.194	75.6667
914.554	78.1111
916.913	77
919.27	77.3333
921.627	78.4444
923.984	81.1111
926.34	83.1111
928.694	83.3333
931.048	84.4444
933.402	85.1111
935.754	85.2222
938.106	88.8889
940.458	88.8889
942.807	92.2222
945.157	91.8889
947.505	95.7778
949.853	100.889
952.201	103.444
954.547	108.333
956.893	113
959.237	122.333
961.582	131.778
963.925	142.333
966.268	160.889
968.609	199
970.951	231
973.291	301.444
975.631	426.778
977.97	697.556
980.309	1047.89
982.645	1564.44
984.983	1814.22
987.318	2098.67
989.653	5985.44
991.988	15738.7
994.321	15767.2
996.655	8430.89
998.987	3615.89
1001.32	1730
1003.65	899.889
1005.98	591.889
1008.31	442.333
1010.64	309.111
1012.96	225
1015.29	188.222
1017.62	167
1019.94	152.778
1022.27	145.222
1024.59	141.889
1026.91	135.556
1029.24	128.444
1031.56	129.222
1033.88	127.778
1036.2	123.556
1038.52	113
1040.84	113.444
1043.16	108.111
1045.47	103.889
1047.79	103.667
1050.1	101.111
1052.42	99.4444
1054.74	99.4444
1057.05	97.8889
1059.36	95.2222
1061.67	95.3333
1063.98	96.8889
1066.29	96
1068.6	94.4444
1070.91	96.8889
1073.22	95.5556
1075.53	99.6667
1077.84	99.4444
1080.14	101.556
1082.45	97.7778
1084.75	98.8889
1087.06	102.667
1089.36	95.4444
1091.66	96.4444
1093.96	93.7778
1096.27	94.6667
1098.57	92.1111
1100.87	98.1111
1103.16	100.667
1105.46	95.7778
1107.76	99.8889
1110.06	99.4444
1112.35	101.333
1114.65	99.5556
1116.94	100
1119.23	103.222
1121.53	102.111
1123.82	105.111
1126.11	105.111
1128.4	107.444
1130.69	113.889
1132.98	114.556
1135.27	124.222
1137.56	129.333
1139.85	136.889
1142.13	142
1144.42	153.778
1146.7	161
1148.99	169.889
1151.27	175.222
1153.55	176.889
1155.84	189
1158.12	198.444
1160.4	219.556
1162.68	247.778
1164.96	288
1167.23	351.111
1169.51	449.444
1171.79	604.222
1174.06	801.778
1176.34	976.333
1178.62	1008.33
1180.89	897.889
1183.16	706.333
1185.44	532.333
1187.71	415.222
1189.98	321.444
1192.25	267
1194.52	232
1196.79	197.778
1199.06	180.667
1201.32	168.111
1203.59	156.222
1205.86	144.222
1208.12	140.111
1210.39	135.222
1212.65	132.111
1214.91	130
1217.18	131.889
1219.44	122
1221.7	115.111
1223.96	112.667
1226.22	105.778
1228.48	104
1230.74	102.778
1232.99	102.778
1235.25	101.667
1237.51	99.6667
1239.76	98.1111
1242.02	96.3333
1244.27	96
1246.53	95.1111
1248.78	95.8889
1251.03	92.8889
1253.28	92.2222
1255.53	92.2222
1257.78	91.7778
1260.03	94
1262.28	92.2222
1264.53	91.4444
1266.77	90.6667
1269.02	90
1271.26	92.5556
1273.51	91.1111
1275.75	89.3333
1278	88.3333
1280.24	90.1111
1282.48	89.1111
1284.72	89.7778
1286.96	92.2222
1289.2	88.3333
1291.44	89.2222
1293.68	90.2222
1295.92	89
1298.15	89.6667
1300.39	92.1111
1302.63	88.5556
1304.86	92.2222
1307.1	91.4444
1309.33	97.6667
1311.56	94.1111
1313.79	95.7778
1316.02	91.5556
1318.26	94
1320.49	90.4445
1322.71	92.1111
1324.94	93.8889
1327.17	91.8889
1329.4	90.2222
1331.62	94.2222
1333.85	90.6667
1336.08	95.8889
1338.3	95
1340.52	91.3333
1342.75	92.4444
1344.97	97.6667
1347.19	93.4444
1349.41	95
1351.63	96.4444
1353.85	96.7778
1356.07	97.1111
1358.29	98.5556
1360.5	100.556
1362.72	100.778
1364.94	100.333
1367.15	105.333
1369.37	105
1371.58	103.444
1373.79	99.3333
1376.01	98
1378.22	98.1111
1380.43	92.7778
1382.64	91.1111
1384.85	93
1387.06	92.4444
1389.27	92.6667
1391.47	92.7778
1393.68	95.2222
1395.89	98.6667
1398.09	105.222
1400.3	108
1402.5	126
1404.71	146.444
1406.91	142
1409.11	128.778
1411.31	113.556
1413.51	103.333
1415.71	96.1111
1417.91	95.6667
1420.11	95.8889
1422.31	91.4444
1424.51	94.2222
1426.7	96.5555
1428.9	95
1431.1	95.8889
1433.29	96.4444
1435.48	93.7778
1437.68	94.4444
1439.87	97.2222
1442.06	94.1111
1444.25	93.6667
1446.44	96
1448.63	97
1450.82	96.8889
1453.01	96.8889
1455.2	95.6667
1457.39	94.6667
1459.57	99.8889
1461.76	98.8889
1463.94	101.778
1466.13	104.111
1468.31	102
1470.49	107.667
1472.68	105.444
1474.86	109.444
1477.04	112.111
1479.22	114.889
1481.4	115.556
1483.58	112.111
1485.75	112
1487.93	111.444
1490.11	107
1492.29	104
1494.46	103.667
1496.64	101.333
1498.81	102.222
1500.98	101.444
1503.16	104.222
1505.33	104.111
1507.5	98.2222
1509.67	101.778
1511.84	105.556
1514.01	105.444
1516.18	105.444
1518.35	103.111
1520.51	105.889
1522.68	106.889
1524.85	107.444
1527.01	107.333
1529.18	109.111
1531.34	110.333
1533.51	112.111
1535.67	112.111
1537.83	116.444
1539.99	116.889
1542.15	121.111
1544.31	125.222
1546.47	128.111
1548.63	131.333
1550.79	139.111
1552.95	141.444
1555.1	148.667
1557.26	155.222
1559.41	160.111
1561.57	171.444
1563.72	184.778
1565.88	197.111
1568.03	214.778
1570.18	241.222
1572.33	265.889
1574.48	307.889
1576.63	347.111
1578.78	413.556
1580.93	503.333
1583.08	611.889
1585.23	718.444
1587.37	777.222
1589.52	715.889
1591.66	588.333
1593.81	481.333
1595.95	415.333
1598.1	391.222
1600.24	408.222
1602.38	464.556
1604.52	548.111
1606.66	585
1608.8	548.667
1610.94	472.667
1613.08	392.889
1615.22	326.444
1617.36	276
1619.49	248.222
1621.63	223.556
1623.77	206.111
1625.9	188.556
1628.03	182
1630.17	168.556
1632.3	158.667
1634.43	154.111
1636.56	149.222
1638.7	144.333
1640.83	140.778
1642.96	132.889
1645.08	133
1647.21	132.444
1649.34	126
1651.47	126.111
1653.59	123
1655.72	119.889
1657.84	123.333
1659.97	117.222
1662.09	117.889
1664.21	117.556
1666.34	117.444
1668.46	116.222
1670.58	116.333
1672.7	115
1674.82	112.778
1676.94	118.889
1679.06	116.778
1681.18	114.444
1683.29	119.556
1685.41	118.222
1687.52	115
1689.64	115.333
1691.76	118.889
1693.87	120.556
1695.98	123.667
1698.09	122.444
1700.21	124.222
1702.32	125.778
1704.43	123.111
1706.54	118.222
1708.65	123.444
1710.76	119.111
1712.86	119.111
1714.97	119.222
1717.08	112.333
1719.19	112.667
1721.29	111.778
1723.4	111.444
1725.5	109.889
1727.6	111
1729.71	106.444
1731.81	109.111
1733.91	114.556
1736.01	110.667
1738.11	108.222
1740.21	111.556
1742.31	108.667
1744.41	106.444
1746.51	111.222
1748.6	105.889
1750.7	109
1752.8	110.556
1754.89	109.667
1756.99	110.889
1759.08	110.556
1761.17	107.667
1763.27	109.111
1765.36	107.889
1767.45	110.333
1769.54	115
1771.63	110.111
1773.72	113.889
1775.81	111.556
1777.9	111.333
1779.98	110.667
1782.07	112.889
1784.16	110.556
1786.24	109
1788.33	114.111
1790.41	114.333
1792.5	112.444
1794.58	113.778
1796.66	117.444
1798.74	113.333
1800.83	114.889
1802.91	113.444
1804.99	113.778
1807.06	113.556
1809.14	110.889
1811.22	112.444
1813.3	113
1815.38	110.556
1817.45	111.778
1819.53	112.556
1821.6	114
1823.68	114
1825.75	116
1827.82	118.444
1829.9	112.667
1831.97	117.444
1834.04	114.889
1836.11	115.667
1838.18	114.222
1840.25	114.667
1842.32	117.444
1844.38	114.333
1846.45	116.778
1848.52	115.222
1850.58	117.333
1852.65	116.111
1854.72	116.444
1856.78	114.778
1858.84	116.889
1860.91	116.667
1862.97	116
1865.03	118.556
1867.09	115.556
1869.15	116.111
1871.21	115.222
1873.27	119.667
1875.33	118.333
1877.39	119
1879.44	119.778
1881.5	115.778
1883.56	123.556
1885.61	114
1887.67	119.889
1889.72	119.333
1891.78	121.778
1893.83	120.667
1895.88	123.333
1897.93	129.778
1899.98	130.889
1902.03	133.444
1904.08	131.556
1906.13	128.444
1908.18	124.556
1910.23	125.778
1912.28	122
1914.32	122.778
1916.37	122.667
1918.41	119.556
1920.46	123.889
1922.5	124.111
1924.55	125.111
1926.59	126.222
1928.63	128.111
1930.68	128.778
1932.72	131.444
1934.76	129.333
1936.8	132
1938.84	129.667
1940.87	129.778
1942.91	125.667
1944.95	124.333
1946.99	124.111
1949.02	126.111
1951.06	124.222
1953.09	123.556
1955.13	123.778
1957.16	124.556
1959.2	122.222
1961.23	123
1963.26	122
1965.29	123.889
1967.32	124.333
1969.35	124.667
1971.38	123.111
1973.41	123
1975.44	123.556
1977.47	126.222
1979.5	129
1981.52	127.444
1983.55	128.556
1985.57	131.556
1987.6	131.444
1989.62	130.556
1991.64	125.667
1993.67	126.111
1995.69	127.889
1997.71	124.889
1999.73	123.889
2001.75	123
2003.77	122.667
2005.79	126.667
2007.81	124.556
2009.83	126.111
2011.85	127.333
2013.86	122.889
2015.88	130.778
2017.89	134.222
2019.91	130.444
2021.92	138.556
2023.94	135.667
2025.95	132.667
2027.96	134.222
2029.97	131.778
2031.99	128.333
2034	128
2036.01	129.444
2038.02	125.556
2040.03	129.222
2042.03	131.556
2044.04	127.889
2046.05	127.667
2048.06	130.556
2050.06	132.556
2052.07	130
2054.07	130.333
2056.08	127.333
2058.08	129.556
2060.08	128.111
2062.08	130.222
2064.09	131
2066.09	129
2068.09	129.222
2070.09	127
2072.09	128.889
2074.09	128.222
2076.08	128.556
2078.08	131.667
2080.08	128.778
2082.07	129.444
2084.07	127.667
2086.07	132.111
2088.06	127.889
2090.05	127.444
2092.05	130.556
2094.04	128.444
2096.03	129.222
2098.02	126.778
2100.01	130.889
2102	129
2103.99	133.111
2105.98	130.667
2107.97	131.444
2109.96	132.556
2111.95	133.333
2113.94	131.778
2115.92	130.889
2117.91	132.111
2119.89	135.222
2121.88	132.333
2123.86	132.333
2125.84	129.556
2127.83	132.556
2129.81	133.222
2131.79	132.889
2133.77	130.778
2135.75	131.444
2137.73	131.778
2139.71	131.556
2141.69	129
2143.67	131.556
2145.64	132.333
2147.62	131.556
2149.6	131.667
2151.57	129.667
2153.55	134.778
2155.52	132.778
2157.5	133.778
2159.47	137
2161.44	135.889
2163.41	134
2165.39	133.778
2167.36	132.667
2169.33	138.556
2171.3	135.111
2173.27	138.111
2175.24	135.889
2177.2	137.667
2179.17	136.667
2181.14	136.222
2183.1	136.333
2185.07	138.889
2187.03	141.444
2189	143.778
2190.96	148.556
2192.93	140
2194.89	138.778
2196.85	135.556
2198.81	138.889
2200.77	139.333
2202.73	134.556
2204.69	136.889
2206.65	137.111
2208.61	140.889
2210.57	141.111
2212.53	141
2214.48	139.556
2216.44	143
2218.4	139.889
2220.35	135.222
2222.31	142.333
2224.26	137.667
2226.21	134
2228.17	137
2230.12	137.222
2232.07	135.889
2234.02	137
2235.97	133
2237.92	136
2239.87	137.556
2241.82	140.556
2243.77	133.778
2245.72	134.889
2247.66	135.111
2249.61	138.556
2251.56	141.222
2253.5	135.556
2255.45	138.778
2257.39	139.778
2259.33	138.333
2261.28	135.778
2263.22	137
2265.16	138.889
2267.1	137.556
2269.04	141.556
2270.99	137.778
2272.92	138.556
2274.86	137.111
2276.8	137.556
2278.74	139
2280.68	139.333
2282.61	139.556
2284.55	136.667
2286.49	139
2288.42	142.778
2290.36	142.889
2292.29	146.222
2294.22	153.333
2296.16	157.889
2298.09	160.111
2300.02	152.778
2301.95	149
2303.88	143.889
2305.81	141.444
2307.74	139.111
2309.67	139.333
2311.6	140.778
2313.53	140
2315.45	141.222
2317.38	141.222
2319.31	143.778
2321.23	136.222
2323.16	139.556
2325.08	138.111
2327	140.778
2328.93	141.222
2330.85	144.444
2332.77	143
2334.69	141.222
2336.62	140.778
2338.54	142.556
2340.46	141.889
2342.38	141.444
2344.29	141
2346.21	145.556
2348.13	145.778
2350.05	148.222
2351.96	148.444
2353.88	148.222
2355.79	146.333
2357.71	147.333
2359.62	149
2361.54	146
2363.45	142.778
2365.36	143.556
2367.27	147.667
2369.19	146
2371.1	144.889
2373.01	143.556
2374.92	146
2376.83	147.111
2378.73	146.222
2380.64	149.333
2382.55	149.444
2384.46	149.444
2386.36	148
2388.27	144.111
2390.17	143.222
2392.08	143.333
2393.98	142.889
2395.89	141.222
2397.79	137.556
2399.69	145.778
2401.59	142.333
2403.5	142.111
2405.4	140.778
2407.3	145.778
2409.2	141.667
2411.09	141.444
2412.99	141.778
2414.89	142.889
2416.79	141.889
2418.69	146.111
2420.58	143
2422.48	141.667
2424.37	142.444
2426.27	147.444
2428.16	144.667
2430.06	145.556
2431.95	144.778
2433.84	146.889
2435.73	147.556
2437.62	151.333
2439.52	150.444
2441.41	149.222
2443.3	151.778
2445.19	151.222
