176.817	50.6667
179.42	55.3333
182.022	50
184.622	54.6667
187.223	49.3333
189.821	52
192.419	48.6667
195.017	48.6667
197.612	49.3333
200.208	46
202.802	48.6667
205.397	48.6667
207.99	52
210.581	47.3333
213.173	51.3333
215.762	44.6667
218.352	45.3333
220.94	47.3333
223.528	45.3333
226.114	47.3333
228.701	48
231.285	47.3333
233.87	42
236.452	46
239.034	44
241.616	47.3333
244.196	44.6667
246.777	44.6667
249.355	45.3333
251.933	46.6667
254.511	45.3333
257.086	48.6667
259.663	47.3333
262.237	46
264.81	42
267.383	42.6667
269.955	44.6667
272.525	42.6667
275.097	46
277.665	42
280.234	46.6667
282.802	43.3333
285.368	45.3333
287.934	44.6667
290.499	44.6667
293.064	44.6667
295.627	39.3333
298.189	44.6667
300.75	44.6667
303.312	42.6667
305.871	43.3333
308.43	38
310.988	40.6667
313.545	44.6667
316.101	42
318.658	43.3333
321.212	41.3333
323.766	43.3333
326.319	44
328.871	38.6667
331.422	43.3333
333.972	42.6667
336.522	38.6667
339.072	40.6667
341.619	41.3333
344.166	42.6667
346.712	41.3333
349.258	40
351.802	40
354.346	38.6667
356.888	44.6667
359.43	42
361.971	38.6667
364.511	40
367.051	42.6667
369.589	39.3333
372.127	44
374.664	42.6667
377.2	41.3333
379.735	41.3333
382.27	44
384.802	46.6667
387.334	46.6667
389.866	42
392.397	39.3333
394.927	39.3333
397.457	42
399.985	42
402.513	42
405.038	43.3333
407.565	46.6667
410.09	46
412.614	45.3333
415.138	49.3333
417.66	48.6667
420.181	53.3333
422.702	58
425.222	60
427.742	67.3333
430.259	67.3333
432.777	77.3333
435.294	79.3333
437.81	73.3333
440.324	68
442.838	60.6667
445.352	61.3333
447.863	64.6667
450.375	58.6667
452.887	54.6667
455.395	50.6667
457.905	54.6667
460.414	51.3333
462.92	49.3333
465.427	44.6667
467.932	46.6667
470.438	43.3333
472.942	46.6667
475.445	44
477.948	46.6667
480.448	41.3333
482.95	44.6667
485.449	41.3333
487.949	42.6667
490.446	42
492.944	42
495.44	42
497.937	40
500.431	39.3333
502.926	40.6667
505.418	43.3333
507.912	37.3333
510.403	44.6667
512.894	42.6667
515.384	39.3333
517.874	37.3333
520.361	42
522.848	39.3333
525.336	42
527.821	38.6667
530.306	38.6667
532.791	35.3333
535.274	40
537.756	38
540.238	40
542.719	39.3333
545.199	38
547.679	38
550.157	39.3333
552.634	39.3333
555.112	40
557.588	40
560.063	38.6667
562.537	40
565.011	37.3333
567.484	42.6667
569.955	38.6667
572.426	38
574.896	38
577.367	39.3333
579.835	42
582.303	40
584.77	38
587.236	36.6667
589.701	38.6667
592.165	39.3333
594.629	40.6667
597.093	39.3333
599.555	42.6667
602.016	40
604.477	44
606.936	38
609.395	38
611.853	39.3333
614.311	40
616.767	39.3333
619.223	37.3333
621.678	39.3333
624.132	38
626.585	39.3333
629.037	41.3333
631.489	38
633.94	37.3333
636.39	39.3333
638.839	39.3333
641.288	37.3333
643.736	41.3333
646.183	39.3333
648.627	42
651.073	39.3333
653.517	41.3333
655.961	40.6667
658.404	40
660.846	42.6667
663.288	38
665.727	40.6667
668.167	40.6667
670.606	36.6667
673.044	38
675.482	44
677.917	39.3333
680.353	42.6667
682.788	42.6667
685.222	40.6667
687.655	41.3333
690.087	40.6667
692.519	40.6667
694.951	39.3333
697.38	39.3333
699.809	42
702.238	40
704.665	40
707.092	41.3333
709.519	44
711.943	38.6667
714.368	36.6667
716.791	42
719.214	40
721.637	42
724.058	40
726.479	41.3333
728.898	43.3333
731.317	42
733.734	37.3333
736.152	42
738.568	38.6667
740.985	42
743.399	38.6667
745.814	42
748.227	44.6667
750.64	40.6667
753.051	43.3333
755.463	40
757.872	38.6667
760.283	46.6667
762.691	42.6667
765.098	40
767.506	42
769.912	43.3333
772.318	45.3333
774.722	42
777.126	41.3333
779.53	46
781.932	44
784.333	42.6667
786.735	40.6667
789.135	45.3333
791.533	40
793.933	43.3333
796.33	46
798.727	42
801.123	44
803.519	45.3333
805.913	42.6667
808.307	43.3333
810.699	45.3333
813.093	48.6667
815.484	46
817.874	40.6667
820.264	44.6667
822.653	42.6667
825.041	46.6667
827.43	45.3333
829.817	46.6667
832.203	46.6667
834.588	46
836.972	44
839.356	45.3333
841.738	45.3333
844.12	48
846.502	44.6667
848.882	51.3333
851.262	46.6667
853.641	58.6667
856.02	54.6667
858.397	58
860.774	57.3333
863.15	64
865.525	68.6667
867.9	76
870.273	89.3333
872.646	95.3333
875.019	130
877.39	180
879.761	244
882.131	332.667
884.5	350.667
886.869	344
889.236	290.667
891.602	208
893.968	147.333
896.334	115.333
898.698	88
901.062	75.3333
903.426	70
905.787	63.3333
908.148	64
910.509	58.6667
912.87	55.3333
915.228	50.6667
917.587	49.3333
919.945	52.6667
922.302	48
924.657	44
927.013	47.3333
929.368	45.3333
931.721	50.6667
934.074	48.6667
936.427	45.3333
938.778	48.6667
941.129	45.3333
943.479	46
945.828	46
948.177	43.3333
950.524	44
952.871	44
955.218	42.6667
957.563	46
959.908	48
962.252	46
964.595	44
966.937	42.6667
969.28	44
971.62	42
973.961	43.3333
976.3	46
978.639	40.6667
980.976	44.6667
983.314	46
985.65	44.6667
987.987	44.6667
990.321	46
992.655	50.6667
994.989	44
997.321	50
999.653	50.6667
1001.98	45.3333
1004.31	46.6667
1006.65	47.3333
1008.97	43.3333
1011.3	48.6667
1013.63	50
1015.96	50.6667
1018.28	53.3333
1020.61	53.3333
1022.93	48
1025.26	54.6667
1027.58	55.3333
1029.9	64
1032.22	69.3333
1034.54	66.6667
1036.86	64
1039.18	72.6667
1041.5	89.3333
1043.82	100.667
1046.14	104.667
1048.45	126.667
1050.77	130
1053.08	122.667
1055.4	125.333
1057.71	112.667
1060.02	110
1062.33	103.333
1064.64	89.3333
1066.96	84.6667
1069.27	77.3333
1071.57	81.3333
1073.88	78.6667
1076.19	82
1078.5	87.3333
1080.8	88.6667
1083.11	90
1085.41	97.3333
1087.72	104
1090.02	109.333
1092.32	122.667
1094.62	133.333
1096.92	132
1099.22	137.333
1101.52	125.333
1103.82	113.333
1106.12	102.667
1108.42	93.3333
1110.71	87.3333
1113.01	81.3333
1115.3	68
1117.6	80
1119.89	76.6667
1122.18	75.3333
1124.48	70.6667
1126.77	66.6667
1129.06	66.6667
1131.35	60.6667
1133.64	58
1135.93	60.6667
1138.21	60
1140.5	56.6667
1142.79	55.3333
1145.07	51.3333
1147.36	56.6667
1149.64	49.3333
1151.92	57.3333
1154.21	54.6667
1156.49	53.3333
1158.77	46
1161.05	52.6667
1163.33	49.3333
1165.61	50.6667
1167.89	48.6667
1170.16	50
1172.44	46.6667
1174.72	50.6667
1176.99	46
1179.27	47.3333
1181.54	49.3333
1183.81	44.6667
1186.09	50.6667
1188.36	46
1190.63	46.6667
1192.9	47.3333
1195.17	49.3333
1197.44	49.3333
1199.71	47.3333
1201.97	46
1204.24	48.6667
1206.5	46.6667
1208.77	50
1211.03	51.3333
1213.3	50.6667
1215.56	50
1217.82	51.3333
1220.09	46
1222.35	49.3333
1224.61	48
1226.87	51.3333
1229.12	50
1231.38	51.3333
1233.64	50
1235.9	51.3333
1238.15	54
1240.41	52
1242.66	56.6667
1244.92	51.3333
1247.17	54.6667
1249.42	56.6667
1251.67	56
1253.92	56.6667
1256.17	53.3333
1258.42	60
1260.67	62.6667
1262.92	60
1265.17	73.3333
1267.42	72.6667
1269.66	76.6667
1271.91	84.6667
1274.15	88
1276.39	84.6667
1278.64	84
1280.88	84.6667
1283.12	78
1285.36	72.6667
1287.6	73.3333
1289.84	70
1292.08	66.6667
1294.32	62.6667
1296.56	58.6667
1298.79	57.3333
1301.03	57.3333
1303.26	56
1305.5	57.3333
1307.73	56
1309.97	58
1312.2	62
1314.43	58.6667
1316.66	62.6667
1318.89	58.6667
1321.12	55.3333
1323.35	54.6667
1325.58	58.6667
1327.81	55.3333
1330.03	56.6667
1332.26	56
1334.49	60.6667
1336.71	55.3333
1338.94	53.3333
1341.16	58.6667
1343.38	56
1345.6	58.6667
1347.83	54
1350.05	58.6667
1352.27	55.3333
1354.49	57.3333
1356.7	58.6667
1358.92	56
1361.14	61.3333
1363.36	58
1365.57	56
1367.79	60
1370	61.3333
1372.21	68
1374.43	65.3333
1376.64	60.6667
1378.85	67.3333
1381.06	62.6667
1383.27	70
1385.48	68.6667
1387.69	66
1389.9	66
1392.11	70.6667
1394.31	64
1396.52	68
1398.73	78
1400.93	74.6667
1403.13	66.6667
1405.34	70.6667
1407.54	73.3333
1409.74	74.6667
1411.94	74.6667
1414.14	78
1416.34	73.3333
1418.54	74.6667
1420.74	78.6667
1422.94	76
1425.14	80.6667
1427.33	84.6667
1429.53	88.6667
1431.72	92.6667
1433.92	93.3333
1436.11	94.6667
1438.3	98.6667
1440.5	114.667
1442.69	110.667
1444.88	125.333
1447.07	134.667
1449.26	148.667
1451.45	156.667
1453.64	164.667
1455.82	166.667
1458.01	159.333
1460.2	146
1462.38	140.667
1464.57	130.667
1466.75	110.667
1468.93	113.333
1471.12	102.667
1473.3	98.6667
1475.48	101.333
1477.66	104
1479.84	102.667
1482.02	96.6667
1484.2	98
1486.38	100.667
1488.55	92
1490.73	84
1492.91	82.6667
1495.08	86
1497.26	78
1499.43	74
1501.61	74.6667
1503.78	72.6667
1505.95	73.3333
1508.12	67.3333
1510.29	71.3333
1512.46	66.6667
1514.63	73.3333
1516.8	65.3333
1518.97	67.3333
1521.14	58.6667
1523.3	62.6667
1525.47	63.3333
1527.63	61.3333
1529.8	62
1531.96	54
1534.12	62.6667
1536.29	56
1538.45	60
1540.61	61.3333
1542.77	57.3333
1544.93	58.6667
1547.09	56
1549.25	56.6667
1551.41	60.6667
1553.56	62
1555.72	56
1557.88	56.6667
1560.03	56.6667
1562.18	54.6667
1564.34	56
1566.49	55.3333
1568.64	53.3333
1570.8	55.3333
1572.95	57.3333
1575.1	54
1577.25	51.3333
1579.4	56
1581.55	52.6667
1583.69	51.3333
1585.84	52.6667
1587.99	54.6667
1590.13	52
1592.28	52.6667
1594.42	52.6667
1596.57	52
1598.71	54.6667
1600.85	52
1602.99	51.3333
1605.14	52
1607.28	51.3333
1609.42	55.3333
1611.56	48.6667
1613.69	54.6667
1615.83	53.3333
1617.97	56
1620.11	54.6667
1622.24	55.3333
1624.38	52.6667
1626.51	54
1628.65	49.3333
1630.78	52
1632.91	54.6667
1635.04	52
1637.17	52
1639.31	53.3333
1641.44	53.3333
1643.57	59.3333
1645.69	52
1647.82	56
1649.95	56
1652.08	50.6667
1654.2	52
1656.33	46
1658.45	57.3333
1660.58	52
1662.7	50
1664.82	50
1666.94	53.3333
1669.07	54.6667
1671.19	60.6667
1673.31	55.3333
1675.43	53.3333
1677.55	52.6667
1679.66	58
1681.78	56.6667
1683.9	52
1686.01	57.3333
1688.13	49.3333
1690.25	56.6667
1692.36	54.6667
1694.47	52.6667
1696.59	54
1698.7	54.6667
1700.81	55.3333
1702.92	56
1705.03	56.6667
1707.14	49.3333
1709.25	54
1711.36	61.3333
1713.47	55.3333
1715.58	51.3333
1717.68	56
1719.79	51.3333
1721.89	52
1724	56.6667
1726.1	56
1728.21	54.6667
1730.31	52
1732.41	52.6667
1734.51	58
1736.61	56.6667
1738.71	54
1740.81	57.3333
1742.91	54
1745.01	54.6667
1747.11	55.3333
1749.2	57.3333
1751.3	50
1753.4	53.3333
1755.49	55.3333
1757.59	52
1759.68	54
1761.77	53.3333
1763.86	57.3333
1765.96	52.6667
1768.05	54.6667
1770.14	54
1772.23	48.6667
1774.32	54.6667
1776.41	56.6667
1778.49	55.3333
1780.58	54.6667
1782.67	51.3333
1784.76	50.6667
1786.84	50
1788.92	56
1791.01	55.3333
1793.09	57.3333
1795.18	56.6667
1797.26	54
1799.34	54.6667
1801.42	52.6667
1803.5	50.6667
1805.58	59.3333
1807.66	55.3333
1809.74	56.6667
1811.82	58.6667
1813.89	54
1815.97	52.6667
1818.05	54.6667
1820.12	55.3333
1822.2	58.6667
1824.27	55.3333
1826.34	51.3333
1828.42	60
1830.49	55.3333
1832.56	60
1834.63	52.6667
1836.7	52.6667
1838.77	55.3333
1840.84	54
1842.91	54.6667
1844.98	52.6667
1847.04	54
1849.11	53.3333
1851.18	57.3333
1853.24	54
1855.31	53.3333
1857.37	50
1859.43	56
1861.5	59.3333
1863.56	53.3333
1865.62	59.3333
1867.68	59.3333
1869.74	56
1871.8	52
1873.86	52
1875.92	55.3333
1877.98	56.6667
1880.03	52.6667
1882.09	60.6667
1884.15	54.6667
1886.2	55.3333
1888.26	58
1890.31	60.6667
1892.36	58
1894.42	58
1896.47	57.3333
1898.52	57.3333
1900.57	56
1902.62	58
1904.67	58.6667
1906.72	58
1908.77	57.3333
1910.82	54.6667
1912.86	57.3333
1914.91	57.3333
1916.96	59.3333
1919	57.3333
1921.04	50.6667
1923.09	53.3333
1925.13	54
1927.18	57.3333
1929.22	58.6667
1931.26	53.3333
1933.3	56
1935.34	52
1937.38	57.3333
1939.42	53.3333
1941.46	54.6667
1943.5	59.3333
1945.53	56
1947.57	60
1949.61	54
1951.64	52.6667
1953.68	60
1955.71	58.6667
1957.75	53.3333
1959.78	56.6667
1961.81	54.6667
1963.84	56.6667
1965.87	52
1967.9	56.6667
1969.93	57.3333
1971.96	51.3333
1973.99	60
1976.02	56.6667
1978.05	58
1980.07	52.6667
1982.1	56.6667
1984.13	57.3333
1986.15	60
1988.18	57.3333
1990.2	61.3333
1992.22	60.6667
1994.25	58.6667
1996.27	53.3333
1998.29	60.6667
2000.31	58
2002.33	60.6667
2004.35	57.3333
2006.37	61.3333
2008.39	58.6667
2010.41	58
2012.42	51.3333
2014.44	57.3333
2016.46	61.3333
2018.47	60.6667
2020.49	58.6667
2022.5	62.6667
2024.51	59.3333
2026.53	57.3333
2028.54	58.6667
2030.55	58
2032.56	60
2034.57	55.3333
2036.58	62
2038.59	61.3333
2040.6	54.6667
2042.61	60.6667
2044.62	59.3333
2046.62	60.6667
2048.63	55.3333
2050.64	64
2052.64	59.3333
2054.65	62.6667
2056.65	62
2058.65	58.6667
2060.66	58.6667
2062.66	54
2064.66	60.6667
2066.66	58
2068.66	58
2070.66	61.3333
2072.66	59.3333
2074.66	55.3333
2076.66	59.3333
2078.65	63.3333
2080.65	60.6667
2082.65	60
2084.64	51.3333
2086.64	62
2088.63	60.6667
2090.63	59.3333
2092.62	61.3333
2094.61	62.6667
2096.6	63.3333
2098.59	59.3333
2100.59	56.6667
2102.58	60
2104.56	60
2106.55	59.3333
2108.54	59.3333
2110.53	61.3333
2112.52	60.6667
2114.5	65.3333
2116.49	61.3333
2118.48	62
2120.46	56.6667
2122.44	64.6667
2124.43	64
2126.41	59.3333
2128.39	56.6667
2130.38	63.3333
2132.36	60
2134.34	58.6667
2136.32	66
2138.3	58
2140.28	60
2142.26	61.3333
2144.23	59.3333
2146.21	62.6667
2148.19	58.6667
2150.16	64.6667
2152.14	62
2154.11	60.6667
2156.09	64
2158.06	64
2160.04	58
2162.01	58.6667
2163.98	62.6667
2165.95	60.6667
2167.92	62.6667
2169.89	65.3333
2171.86	66
2173.83	65.3333
2175.8	63.3333
2177.77	60
2179.73	58.6667
2181.7	63.3333
2183.67	65.3333
2185.63	66.6667
2187.6	62
2189.56	63.3333
2191.53	60.6667
2193.49	58
2195.45	63.3333
2197.41	60
2199.37	60.6667
2201.34	62
2203.29	59.3333
2205.26	59.3333
2207.21	54.6667
2209.17	63.3333
2211.13	64
2213.09	58
2215.05	62.6667
2217	62
2218.96	63.3333
2220.91	63.3333
2222.87	64.6667
2224.82	62
2226.77	64
2228.73	60.6667
2230.68	61.3333
2232.63	61.3333
2234.58	63.3333
2236.53	63.3333
2238.48	58.6667
2240.43	63.3333
2242.38	62.6667
2244.33	60
2246.27	62
2248.22	67.3333
2250.17	62.6667
2252.11	68.6667
2254.06	58.6667
2256	60.6667
2257.95	67.3333
2259.89	61.3333
2261.84	64.6667
2263.78	58.6667
2265.72	59.3333
2267.66	62.6667
2269.6	62
2271.54	61.3333
2273.48	62
2275.42	68
2277.36	62.6667
2279.3	65.3333
2281.23	68
2283.17	63.3333
2285.11	64.6667
2287.04	63.3333
2288.98	62.6667
2290.91	62.6667
2292.84	60.6667
2294.78	61.3333
2296.71	66
2298.64	62.6667
2300.57	66
2302.51	60.6667
2304.44	69.3333
2306.37	66
2308.29	62.6667
2310.22	61.3333
2312.15	62.6667
2314.08	61.3333
2316.01	62
2317.93	62.6667
2319.86	61.3333
2321.78	62
2323.71	68.6667
2325.63	66
2327.56	58
2329.48	64.6667
2331.4	66
2333.32	60
2335.25	66.6667
2337.17	58
2339.09	64.6667
2341.01	64.6667
2342.92	67.3333
2344.84	66.6667
2346.76	62
2348.68	64
2350.6	64
2352.51	63.3333
2354.43	68.6667
2356.34	60.6667
2358.26	64.6667
2360.17	62
2362.09	60.6667
2364	64.6667
2365.91	58.6667
2367.82	64.6667
2369.73	66.6667
2371.64	67.3333
2373.55	62.6667
2375.46	66.6667
2377.37	61.3333
2379.28	63.3333
2381.19	66.6667
2383.1	60.6667
2385	63.3333
2386.91	62
2388.82	63.3333
2390.72	63.3333
2392.62	63.3333
2394.53	64.6667
2396.43	64
2398.33	64.6667
2400.24	62.6667
2402.14	64.6667
2404.04	66.6667
2405.94	67.3333
2407.84	63.3333
2409.74	59.3333
2411.64	69.3333
2413.54	60
2415.44	65.3333
2417.33	66
2419.23	61.3333
2421.13	64.6667
2423.02	66.6667
2424.92	69.3333
2426.81	60
2428.71	68
2430.6	62.6667
2432.49	62
2434.38	62.6667
2436.28	62.6667
2438.17	60.6667
2440.06	70
2441.95	67.3333
2443.84	64
2445.73	64.6667
