176.817	120.667
179.42	117.333
182.022	116
184.622	113.333
187.223	111.333
189.821	102
192.419	102.667
195.017	108.667
197.612	101.333
200.208	104.667
202.802	99.3333
205.397	86.6667
207.99	88
210.581	96
213.173	87.3333
215.762	88
218.352	87.3333
220.94	87.3333
223.528	77.3333
226.114	79.3333
228.701	80.6667
231.285	84
233.87	80.6667
236.452	80
239.034	76
241.616	81.3333
244.196	78.6667
246.777	78
249.355	80
251.933	76
254.511	77.3333
257.086	73.3333
259.663	73.3333
262.237	74
264.81	76
267.383	68.6667
269.955	72
272.525	69.3333
275.097	73.3333
277.665	69.3333
280.234	65.3333
282.802	65.3333
285.368	68
287.934	65.3333
290.499	61.3333
293.064	61.3333
295.627	62.6667
298.189	61.3333
300.75	58
303.312	58.6667
305.871	56
308.43	58
310.988	52
313.545	54.6667
316.101	55.3333
318.658	56
321.212	52.6667
323.766	50.6667
326.319	50.6667
328.871	48.6667
331.422	50.6667
333.972	48.6667
336.522	47.3333
339.072	47.3333
341.619	50
344.166	46.6667
346.712	50
349.258	48.6667
351.802	47.3333
354.346	44
356.888	47.3333
359.43	49.3333
361.971	46
364.511	46.6667
367.051	46
369.589	46
372.127	47.3333
374.664	45.3333
377.2	48
379.735	46
382.27	48
384.802	45.3333
387.334	46.6667
389.866	46
392.397	46.6667
394.927	44.6667
397.457	48
399.985	43.3333
402.513	46.6667
405.038	43.3333
407.565	50
410.09	46
412.614	46
415.138	44.6667
417.66	43.3333
420.181	40.6667
422.702	41.3333
425.222	46
427.742	40.6667
430.259	46.6667
432.777	44.6667
435.294	42.6667
437.81	44.6667
440.324	42.6667
442.838	45.3333
445.352	42.6667
447.863	44.6667
450.375	42
452.887	44
455.395	48
457.905	42
460.414	44
462.92	43.3333
465.427	45.3333
467.932	44
470.438	44
472.942	43.3333
475.445	41.3333
477.948	46
480.448	43.3333
482.95	46.6667
485.449	45.3333
487.949	44.6667
490.446	44.6667
492.944	42
495.44	46
497.937	47.3333
500.431	44.6667
502.926	40.6667
505.418	44
507.912	42.6667
510.403	41.3333
512.894	42.6667
515.384	44
517.874	44.6667
520.361	48
522.848	44.6667
525.336	48
527.821	41.3333
530.306	46
532.791	42
535.274	43.3333
537.756	46
540.238	46.6667
542.719	42
545.199	44.6667
547.679	40.6667
550.157	43.3333
552.634	43.3333
555.112	46
557.588	38
560.063	41.3333
562.537	44.6667
565.011	46.6667
567.484	42
569.955	43.3333
572.426	48
574.896	48
577.367	44.6667
579.835	44
582.303	45.3333
584.77	41.3333
587.236	49.3333
589.701	41.3333
592.165	42.6667
594.629	44.6667
597.093	44
599.555	44
602.016	45.3333
604.477	45.3333
606.936	46
609.395	44
611.853	45.3333
614.311	46
616.767	48.6667
619.223	47.3333
621.678	43.3333
624.132	43.3333
626.585	47.3333
629.037	45.3333
631.489	48
633.94	44.6667
636.39	44
638.839	46
641.288	47.3333
643.736	48
646.183	43.3333
648.627	47.3333
651.073	46
653.517	46.6667
655.961	43.3333
658.404	46
660.846	48
663.288	48
665.727	44.6667
668.167	47.3333
670.606	48
673.044	46
675.482	45.3333
677.917	47.3333
680.353	48.6667
682.788	44
685.222	48.6667
687.655	46.6667
690.087	46
692.519	43.3333
694.951	48
697.38	48
699.809	46.6667
702.238	46
704.665	49.3333
707.092	46.6667
709.519	49.3333
711.943	50
714.368	50.6667
716.791	44.6667
719.214	49.3333
721.637	50
724.058	48
726.479	43.3333
728.898	47.3333
731.317	49.3333
733.734	48.6667
736.152	49.3333
738.568	44
740.985	48.6667
743.399	46
745.814	47.3333
748.227	48
750.64	48.6667
753.051	50.6667
755.463	48.6667
757.872	48
760.283	50
762.691	44.6667
765.098	43.3333
767.506	46
769.912	42
772.318	48
774.722	50.6667
777.126	46
779.53	48.6667
781.932	48
784.333	45.3333
786.735	46.6667
789.135	48.6667
791.533	46
793.933	47.3333
796.33	48.6667
798.727	46
801.123	51.3333
803.519	50
805.913	49.3333
808.307	42.6667
810.699	46.6667
813.093	47.3333
815.484	47.3333
817.874	48
820.264	46.6667
822.653	46
825.041	44.6667
827.43	50.6667
829.817	47.3333
832.203	49.3333
834.588	48.6667
836.972	46
839.356	48
841.738	43.3333
844.12	50
846.502	45.3333
848.882	48.6667
851.262	46
853.641	50
856.02	50
858.397	52
860.774	47.3333
863.15	48.6667
865.525	45.3333
867.9	48
870.273	43.3333
872.646	48.6667
875.019	49.3333
877.39	53.3333
879.761	47.3333
882.131	51.3333
884.5	53.3333
886.869	48
889.236	49.3333
891.602	44.6667
893.968	44.6667
896.334	50.6667
898.698	48.6667
901.062	50.6667
903.426	47.3333
905.787	46
908.148	51.3333
910.509	50.6667
912.87	52.6667
915.228	53.3333
917.587	52
919.945	48
922.302	47.3333
924.657	53.3333
927.013	48.6667
929.368	51.3333
931.721	51.3333
934.074	48
936.427	50.6667
938.778	48.6667
941.129	54.6667
943.479	54
945.828	50.6667
948.177	51.3333
950.524	51.3333
952.871	52.6667
955.218	54.6667
957.563	54.6667
959.908	50.6667
962.252	55.3333
964.595	52
966.937	54
969.28	58.6667
971.62	60
973.961	61.3333
976.3	64
978.639	60.6667
980.976	65.3333
983.314	60.6667
985.65	64
987.987	64
990.321	71.3333
992.655	76
994.989	70.6667
997.321	82.6667
999.653	86
1001.98	94
1004.31	100.667
1006.65	118
1008.97	124.667
1011.3	148
1013.63	175.333
1015.96	184.667
1018.28	216.667
1020.61	249.333
1022.93	290
1025.26	357.333
1027.58	417.333
1029.9	478.667
1032.22	509.333
1034.54	536.667
1036.86	556
1039.18	536.667
1041.5	485.333
1043.82	436.667
1046.14	372
1048.45	284.667
1050.77	222.667
1053.08	182
1055.4	160
1057.71	138.667
1060.02	128
1062.33	115.333
1064.64	106.667
1066.96	104.667
1069.27	100
1071.57	94
1073.88	87.3333
1076.19	94
1078.5	86.6667
1080.8	88
1083.11	90
1085.41	89.3333
1087.72	90.6667
1090.02	92.6667
1092.32	94.6667
1094.62	100.667
1096.92	102
1099.22	105.333
1101.52	106.667
1103.82	107.333
1106.12	117.333
1108.42	118.667
1110.71	113.333
1113.01	112
1115.3	106
1117.6	110.667
1119.89	108.667
1122.18	104.667
1124.48	102
1126.77	97.3333
1129.06	102
1131.35	88.6667
1133.64	84
1135.93	80
1138.21	91.3333
1140.5	90.6667
1142.79	89.3333
1145.07	83.3333
1147.36	83.3333
1149.64	86.6667
1151.92	88.6667
1154.21	82.6667
1156.49	82.6667
1158.77	87.3333
1161.05	90.6667
1163.33	88
1165.61	82.6667
1167.89	81.3333
1170.16	80
1172.44	78
1174.72	75.3333
1176.99	72
1179.27	76
1181.54	64.6667
1183.81	66
1186.09	72
1188.36	73.3333
1190.63	71.3333
1192.9	66.6667
1195.17	54.6667
1197.44	60.6667
1199.71	66.6667
1201.97	60.6667
1204.24	64.6667
1206.5	63.3333
1208.77	61.3333
1211.03	64
1213.3	59.3333
1215.56	60
1217.82	59.3333
1220.09	62.6667
1222.35	61.3333
1224.61	59.3333
1226.87	62.6667
1229.12	64
1231.38	60.6667
1233.64	58.6667
1235.9	60.6667
1238.15	61.3333
1240.41	58
1242.66	60.6667
1244.92	56.6667
1247.17	57.3333
1249.42	58
1251.67	58.6667
1253.92	63.3333
1256.17	58
1258.42	64
1260.67	58
1262.92	60
1265.17	59.3333
1267.42	60
1269.66	54
1271.91	56
1274.15	58
1276.39	58
1278.64	56
1280.88	57.3333
1283.12	62.6667
1285.36	59.3333
1287.6	62
1289.84	61.3333
1292.08	62
1294.32	56
1296.56	66
1298.79	59.3333
1301.03	60.6667
1303.26	63.3333
1305.5	63.3333
1307.73	58.6667
1309.97	58.6667
1312.2	67.3333
1314.43	63.3333
1316.66	62.6667
1318.89	60.6667
1321.12	68
1323.35	65.3333
1325.58	65.3333
1327.81	65.3333
1330.03	66
1332.26	62.6667
1334.49	66
1336.71	66
1338.94	68
1341.16	68
1343.38	76
1345.6	70.6667
1347.83	74
1350.05	72
1352.27	72
1354.49	75.3333
1356.7	70
1358.92	77.3333
1361.14	78
1363.36	82
1365.57	74
1367.79	83.3333
1370	77.3333
1372.21	80.6667
1374.43	83.3333
1376.64	80
1378.85	82
1381.06	84
1383.27	89.3333
1385.48	84.6667
1387.69	90
1389.9	92
1392.11	92
1394.31	93.3333
1396.52	95.3333
1398.73	92.6667
1400.93	94.6667
1403.13	102.667
1405.34	97.3333
1407.54	94
1409.74	100
1411.94	99.3333
1414.14	103.333
1416.34	103.333
1418.54	100
1420.74	109.333
1422.94	109.333
1425.14	114
1427.33	115.333
1429.53	116
1431.72	118
1433.92	124.667
1436.11	136
1438.3	139.333
1440.5	156.667
1442.69	164.667
1444.88	180
1447.07	198
1449.26	236
1451.45	248
1453.64	253.333
1455.82	245.333
1458.01	249.333
1460.2	236.667
1462.38	237.333
1464.57	229.333
1466.75	230.667
1468.93	222
1471.12	222.667
1473.3	226.667
1475.48	222.667
1477.66	216
1479.84	208
1482.02	200.667
1484.2	194
1486.38	189.333
1488.55	182
1490.73	162.667
1492.91	168
1495.08	158.667
1497.26	144.667
1499.43	150
1501.61	146
1503.78	132
1505.95	137.333
1508.12	127.333
1510.29	123.333
1512.46	130.667
1514.63	119.333
1516.8	124
1518.97	116
1521.14	121.333
1523.3	112
1525.47	112.667
1527.63	115.333
1529.8	112.667
1531.96	110.667
1534.12	109.333
1536.29	105.333
1538.45	107.333
1540.61	107.333
1542.77	110
1544.93	106
1547.09	105.333
1549.25	108
1551.41	110
1553.56	103.333
1555.72	101.333
1557.88	98
1560.03	98
1562.18	95.3333
1564.34	95.3333
1566.49	100.667
1568.64	95.3333
1570.8	90.6667
1572.95	95.3333
1575.1	90.6667
1577.25	90.6667
1579.4	93.3333
1581.55	89.3333
1583.69	93.3333
1585.84	86.6667
1587.99	90.6667
1590.13	86.6667
1592.28	84
1594.42	86.6667
1596.57	85.3333
1598.71	88
1600.85	78.6667
1602.99	78.6667
1605.14	84.6667
1607.28	83.3333
1609.42	79.3333
1611.56	80
1613.69	74
1615.83	74.6667
1617.97	76.6667
1620.11	77.3333
1622.24	74
1624.38	75.3333
1626.51	73.3333
1628.65	73.3333
1630.78	71.3333
1632.91	70.6667
1635.04	74
1637.17	72.6667
1639.31	69.3333
1641.44	71.3333
1643.57	74
1645.69	64
1647.82	67.3333
1649.95	71.3333
1652.08	69.3333
1654.2	72
1656.33	70
1658.45	69.3333
1660.58	66
1662.7	64
1664.82	65.3333
1666.94	67.3333
1669.07	69.3333
1671.19	72.6667
1673.31	65.3333
1675.43	66.6667
1677.55	65.3333
1679.66	58.6667
1681.78	64
1683.9	68
1686.01	66.6667
1688.13	71.3333
1690.25	65.3333
1692.36	66.6667
1694.47	65.3333
1696.59	68.6667
1698.7	67.3333
1700.81	62
1702.92	63.3333
1705.03	68.6667
1707.14	68
1709.25	66
1711.36	71.3333
1713.47	66.6667
1715.58	65.3333
1717.68	65.3333
1719.79	65.3333
1721.89	66.6667
1724	64
1726.1	62
1728.21	62
1730.31	64.6667
1732.41	65.3333
1734.51	66
1736.61	62.6667
1738.71	61.3333
1740.81	62
1742.91	62
1745.01	61.3333
1747.11	68
1749.2	60
1751.3	64.6667
1753.4	65.3333
1755.49	65.3333
1757.59	66
1759.68	64.6667
1761.77	64.6667
1763.86	63.3333
1765.96	68
1768.05	66.6667
1770.14	68
1772.23	64.6667
1774.32	66.6667
1776.41	65.3333
1778.49	62.6667
1780.58	64
1782.67	62.6667
1784.76	65.3333
1786.84	68.6667
1788.92	65.3333
1791.01	64.6667
1793.09	66.6667
1795.18	62
1797.26	67.3333
1799.34	64.6667
1801.42	68
1803.5	68.6667
1805.58	61.3333
1807.66	69.3333
1809.74	68.6667
1811.82	59.3333
1813.89	65.3333
1815.97	70
1818.05	65.3333
1820.12	64.6667
1822.2	62
1824.27	66.6667
1826.34	62.6667
1828.42	65.3333
1830.49	64
1832.56	68
1834.63	70
1836.7	60
1838.77	61.3333
1840.84	66.6667
1842.91	63.3333
1844.98	60.6667
1847.04	64.6667
1849.11	70.6667
1851.18	67.3333
1853.24	70
1855.31	69.3333
1857.37	64.6667
1859.43	68
1861.5	68
1863.56	65.3333
1865.62	66.6667
1867.68	68
1869.74	70
1871.8	68.6667
1873.86	67.3333
1875.92	68.6667
1877.98	67.3333
1880.03	64
1882.09	64.6667
1884.15	66
1886.2	71.3333
1888.26	66.6667
1890.31	69.3333
1892.36	70.6667
1894.42	62.6667
1896.47	67.3333
1898.52	66
1900.57	67.3333
1902.62	70.6667
1904.67	68.6667
1906.72	66
1908.77	66
1910.82	64.6667
1912.86	72
1914.91	67.3333
1916.96	70.6667
1919	68.6667
1921.04	70.6667
1923.09	66
1925.13	69.3333
1927.18	74
1929.22	66.6667
1931.26	70
1933.3	64.6667
1935.34	70.6667
1937.38	69.3333
1939.42	70.6667
1941.46	69.3333
1943.5	64.6667
1945.53	71.3333
1947.57	70.6667
1949.61	74
1951.64	70.6667
1953.68	73.3333
1955.71	68
1957.75	71.3333
1959.78	69.3333
1961.81	63.3333
1963.84	68
1965.87	70.6667
1967.9	71.3333
1969.93	72.6667
1971.96	68
1973.99	68
1976.02	66
1978.05	72.6667
1980.07	72
1982.1	59.3333
1984.13	68.6667
1986.15	69.3333
1988.18	68
1990.2	66
1992.22	69.3333
1994.25	72
1996.27	74.6667
1998.29	68.6667
2000.31	73.3333
2002.33	69.3333
2004.35	70.6667
2006.37	71.3333
2008.39	67.3333
2010.41	68
2012.42	66.6667
2014.44	74.6667
2016.46	67.3333
2018.47	67.3333
2020.49	74
2022.5	76
2024.51	71.3333
2026.53	71.3333
2028.54	72.6667
2030.55	72.6667
2032.56	73.3333
2034.57	70
2036.58	70.6667
2038.59	74
2040.6	72
2042.61	66.6667
2044.62	74.6667
2046.62	71.3333
2048.63	70.6667
2050.64	73.3333
2052.64	68
2054.65	76.6667
2056.65	72.6667
2058.65	70
2060.66	72.6667
2062.66	70
2064.66	75.3333
2066.66	70
2068.66	72.6667
2070.66	64.6667
2072.66	73.3333
2074.66	74.6667
2076.66	64
2078.65	74.6667
2080.65	70.6667
2082.65	76
2084.64	70.6667
2086.64	75.3333
2088.63	73.3333
2090.63	73.3333
2092.62	70
2094.61	77.3333
2096.6	74
2098.59	71.3333
2100.59	70.6667
2102.58	72
2104.56	72.6667
2106.55	71.3333
2108.54	72
2110.53	77.3333
2112.52	74.6667
2114.5	68.6667
2116.49	78
2118.48	73.3333
2120.46	73.3333
2122.44	73.3333
2124.43	78.6667
2126.41	70
2128.39	70
2130.38	74.6667
2132.36	70.6667
2134.34	68
2136.32	76
2138.3	74
2140.28	68.6667
2142.26	68.6667
2144.23	76.6667
2146.21	74.6667
2148.19	74.6667
2150.16	76
2152.14	74
2154.11	72
2156.09	73.3333
2158.06	72.6667
2160.04	74.6667
2162.01	72.6667
2163.98	74.6667
2165.95	75.3333
2167.92	72.6667
2169.89	72
2171.86	76.6667
2173.83	72
2175.8	77.3333
2177.77	74
2179.73	74.6667
2181.7	75.3333
2183.67	74.6667
2185.63	74
2187.6	77.3333
2189.56	72
2191.53	78.6667
2193.49	75.3333
2195.45	80.6667
2197.41	76.6667
2199.37	76
2201.34	78.6667
2203.29	73.3333
2205.26	74
2207.21	77.3333
2209.17	72
2211.13	75.3333
2213.09	70.6667
2215.05	75.3333
2217	79.3333
2218.96	77.3333
2220.91	79.3333
2222.87	81.3333
2224.82	76.6667
2226.77	79.3333
2228.73	74
2230.68	75.3333
2232.63	76.6667
2234.58	78.6667
2236.53	82.6667
2238.48	73.3333
2240.43	79.3333
2242.38	80.6667
2244.33	80
2246.27	78.6667
2248.22	75.3333
2250.17	76
2252.11	73.3333
2254.06	74.6667
2256	82.6667
2257.95	75.3333
2259.89	77.3333
2261.84	82.6667
2263.78	74.6667
2265.72	81.3333
2267.66	77.3333
2269.6	79.3333
2271.54	76
2273.48	77.3333
2275.42	84.6667
2277.36	81.3333
2279.3	80.6667
2281.23	80.6667
2283.17	82.6667
2285.11	74.6667
2287.04	79.3333
2288.98	78
2290.91	78
2292.84	78.6667
2294.78	80.6667
2296.71	81.3333
2298.64	78
2300.57	85.3333
2302.51	80.6667
2304.44	84.6667
2306.37	83.3333
2308.29	78
2310.22	81.3333
2312.15	80.6667
2314.08	80.6667
2316.01	79.3333
2317.93	80
2319.86	78
2321.78	82
2323.71	84.6667
2325.63	76
2327.56	78
2329.48	82
2331.4	75.3333
2333.32	82.6667
2335.25	80
2337.17	81.3333
2339.09	78.6667
2341.01	77.3333
2342.92	78
2344.84	77.3333
2346.76	79.3333
2348.68	79.3333
2350.6	77.3333
2352.51	76
2354.43	74
2356.34	80.6667
2358.26	82
2360.17	80
2362.09	78.6667
2364	80
2365.91	79.3333
2367.82	74
2369.73	75.3333
2371.64	76.6667
2373.55	77.3333
2375.46	82
2377.37	84
2379.28	79.3333
2381.19	81.3333
2383.1	76.6667
2385	74.6667
2386.91	84
2388.82	80.6667
2390.72	84.6667
2392.62	80
2394.53	75.3333
2396.43	89.3333
2398.33	82.6667
2400.24	78
2402.14	81.3333
2404.04	78.6667
2405.94	76
2407.84	70.6667
2409.74	81.3333
2411.64	83.3333
2413.54	80.6667
2415.44	76.6667
2417.33	76.6667
2419.23	80
2421.13	76.6667
2423.02	81.3333
2424.92	84
2426.81	80.6667
2428.71	82.6667
2430.6	75.3333
2432.49	85.3333
2434.38	84
2436.28	77.3333
2438.17	88
2440.06	81.3333
2441.95	78.6667
2443.84	80
2445.73	86
