176.817	89.25
179.42	88.5833
182.022	87.5833
184.622	82.8333
187.223	81.6667
189.821	79.6667
192.419	75.6667
195.017	74.5833
197.612	73.5
200.208	71.25
202.802	68.3333
205.397	69.3333
207.99	67
210.581	64.0833
213.173	62.25
215.762	60.5833
218.352	62.5833
220.94	58.9167
223.528	59.3333
226.114	57.5
228.701	56.0833
231.285	54.8333
233.87	56.5
236.452	54.3333
239.034	51
241.616	50.1667
244.196	53.0833
246.777	50.8333
249.355	50.6667
251.933	48.5833
254.511	49.0833
257.086	45.75
259.663	44.75
262.237	46.75
264.81	44.5833
267.383	42.5833
269.955	43.3333
272.525	42.6667
275.097	42.1667
277.665	40.4167
280.234	40.5
282.802	40.0833
285.368	38.9167
287.934	37.25
290.499	36.1667
293.064	35.6667
295.627	35.5
298.189	33.8333
300.75	33.1667
303.312	33.8333
305.871	32.1667
308.43	31.1667
310.988	30
313.545	28.9167
316.101	28.75
318.658	28.5833
321.212	26.9167
323.766	27.75
326.319	27
328.871	25.9167
331.422	24.1667
333.972	23.9167
336.522	24.75
339.072	23.1667
341.619	24.25
344.166	23.6667
346.712	23.25
349.258	22.1667
351.802	22.25
354.346	22.5
356.888	21.25
359.43	20.3333
361.971	21.25
364.511	20.25
367.051	19.6667
369.589	21.4167
372.127	19.75
374.664	20.5833
377.2	19.4167
379.735	20.4167
382.27	21
384.802	20.3333
387.334	18.9167
389.866	19.9167
392.397	19.6667
394.927	19.75
397.457	19.0833
399.985	18.6667
402.513	19.5
405.038	19.6667
407.565	17.9167
410.09	18.75
412.614	20
415.138	19.5833
417.66	18.5
420.181	18.4167
422.702	18.8333
425.222	19.5
427.742	19.1667
430.259	19.75
432.777	18.4167
435.294	19
437.81	18.1667
440.324	18.75
442.838	18.5
445.352	18.8333
447.863	19
450.375	18.5833
452.887	18.25
455.395	18.25
457.905	19.4167
460.414	19.6667
462.92	17.5
465.427	18.6667
467.932	19
470.438	18.75
472.942	18.5833
475.445	18.4167
477.948	20.0833
480.448	18.25
482.95	18.9167
485.449	18.8333
487.949	18.25
490.446	19.4167
492.944	19
495.44	18.5
497.937	18.9167
500.431	18.25
502.926	19.6667
505.418	19.25
507.912	18.9167
510.403	18.25
512.894	18.75
515.384	17.3333
517.874	17.9167
520.361	18.25
522.848	19.0833
525.336	19.5
527.821	18.5833
530.306	19.25
532.791	18.25
535.274	18.5
537.756	19.0833
540.238	18.4167
542.719	19.5
545.199	17.4167
547.679	18.3333
550.157	19.6667
552.634	19.25
555.112	19.3333
557.588	19.4167
560.063	18.6667
562.537	19.4167
565.011	18.6667
567.484	19.4167
569.955	19.6667
572.426	18.8333
574.896	18.8333
577.367	20
579.835	18.5
582.303	18.5833
584.77	19.8333
587.236	19.9167
589.701	20.1667
592.165	19.0833
594.629	19.5
597.093	19.5833
599.555	19.5
602.016	19.0833
604.477	20.4167
606.936	18.8333
609.395	18.6667
611.853	20.25
614.311	19.1667
616.767	20.25
619.223	20.25
621.678	20.3333
624.132	21.25
626.585	19.5833
629.037	20.3333
631.489	19.8333
633.94	20.75
636.39	21.5
638.839	20.5833
641.288	20.0833
643.736	20.5833
646.183	20.9167
648.627	21.25
651.073	20
653.517	20.4167
655.961	21
658.404	20.3333
660.846	20.1667
663.288	19.6667
665.727	19.6667
668.167	21.0833
670.606	21.0833
673.044	20.3333
675.482	19.75
677.917	19.75
680.353	20.4167
682.788	21.3333
685.222	20.1667
687.655	20.75
690.087	20.5833
692.519	20.5
694.951	20.9167
697.38	20.5
699.809	21.6667
702.238	20.6667
704.665	21.3333
707.092	20.0833
709.519	21.25
711.943	22.5
714.368	20.9167
716.791	21.25
719.214	20.5833
721.637	21.6667
724.058	22
726.479	21.0833
728.898	20.4167
731.317	21.6667
733.734	20.5833
736.152	21.9167
738.568	22.0833
740.985	21.0833
743.399	20.6667
745.814	21
748.227	20.8333
750.64	21.6667
753.051	20.4167
755.463	20.4167
757.872	20.75
760.283	21.5
762.691	20.5
765.098	19.9167
767.506	20.6667
769.912	21.3333
772.318	21.3333
774.722	21.0833
777.126	21.3333
779.53	21.8333
781.932	22.5833
784.333	21.25
786.735	20.8333
789.135	21.75
791.533	22.1667
793.933	20.75
796.33	21.75
798.727	21.8333
801.123	21.5833
803.519	22
805.913	20.1667
808.307	21.1667
810.699	21.5833
813.093	22.1667
815.484	22.3333
817.874	20.75
820.264	21.0833
822.653	22.25
825.041	21.5833
827.43	21.8333
829.817	23
832.203	22
834.588	21.25
836.972	22.3333
839.356	22.25
841.738	21.4167
844.12	20.5
846.502	20.5
848.882	20.6667
851.262	21.6667
853.641	22.0833
856.02	21.75
858.397	21.8333
860.774	22.0833
863.15	21.4167
865.525	23.0833
867.9	23.0833
870.273	22
872.646	21.3333
875.019	21.1667
877.39	21.75
879.761	22.6667
882.131	21.5
884.5	22.8333
886.869	22.4167
889.236	22.6667
891.602	22.5
893.968	22.6667
896.334	22.5833
898.698	23.9167
901.062	22.3333
903.426	22.25
905.787	23
908.148	22.3333
910.509	23.5
912.87	23.5833
915.228	23.9167
917.587	24.1667
919.945	23.3333
922.302	24.75
924.657	23.5833
927.013	24.9167
929.368	24.6667
931.721	24.0833
934.074	24.75
936.427	25.75
938.778	23.8333
941.129	26
943.479	27.1667
945.828	26.25
948.177	25.75
950.524	26.0833
952.871	27.3333
955.218	28.75
957.563	26.6667
959.908	28.5833
962.252	28.5
964.595	29.9167
966.937	31.5833
969.28	32.1667
971.62	33.0833
973.961	33.25
976.3	34.75
978.639	35.5
980.976	36.9167
983.314	37.3333
985.65	39.4167
987.987	40.5
990.321	43.0833
992.655	47.0833
994.989	50.4167
997.321	52.3333
999.653	59.4167
1001.98	68.6667
1004.31	75.5
1006.65	88
1008.97	98.8333
1011.3	118.167
1013.63	135.667
1015.96	158.583
1018.28	182.917
1020.61	220.083
1022.93	263.583
1025.26	322.25
1027.58	369.917
1029.9	424.667
1032.22	462.417
1034.54	498.583
1036.86	504.833
1039.18	495.333
1041.5	458.083
1043.82	395.583
1046.14	323.167
1048.45	253.917
1050.77	197
1053.08	153.25
1055.4	129.75
1057.71	109.417
1060.02	94.5
1062.33	87.0833
1064.64	79.5
1066.96	74.6667
1069.27	72.1667
1071.57	69.25
1073.88	66.4167
1076.19	66
1078.5	64.6667
1080.8	65.9167
1083.11	66.25
1085.41	65.4167
1087.72	63.3333
1090.02	67.0833
1092.32	70.6667
1094.62	72.4167
1096.92	72.25
1099.22	76.5833
1101.52	77
1103.82	78
1106.12	80.8333
1108.42	82.8333
1110.71	85.5
1113.01	86.6667
1115.3	83.9167
1117.6	78.3333
1119.89	81
1122.18	78.5
1124.48	74.5833
1126.77	72.5833
1129.06	70.8333
1131.35	67.1667
1133.64	65.1667
1135.93	61.6667
1138.21	58.8333
1140.5	58.8333
1142.79	59.6667
1145.07	58.9167
1147.36	56.5
1149.64	57.5833
1151.92	61.1667
1154.21	61
1156.49	60.4167
1158.77	59.6667
1161.05	61.6667
1163.33	58.9167
1165.61	56.75
1167.89	55
1170.16	53.9167
1172.44	51.0833
1174.72	48.3333
1176.99	46.8333
1179.27	47.0833
1181.54	44.5833
1183.81	43.5
1186.09	41.5833
1188.36	40.8333
1190.63	40.6667
1192.9	39.5833
1195.17	38.6667
1197.44	38.3333
1199.71	36.9167
1201.97	38.5
1204.24	36.4167
1206.5	36.9167
1208.77	35.6667
1211.03	34.8333
1213.3	35.75
1215.56	33.9167
1217.82	34.75
1220.09	33.5
1222.35	35.3333
1224.61	34.8333
1226.87	33.8333
1229.12	33.75
1231.38	33.9167
1233.64	34
1235.9	33.5
1238.15	34.5833
1240.41	31.75
1242.66	32.5833
1244.92	34.5
1247.17	34
1249.42	34.5
1251.67	33.5
1253.92	33.1667
1256.17	34.1667
1258.42	31.8333
1260.67	32.75
1262.92	34.4167
1265.17	33.6667
1267.42	32
1269.66	33.4167
1271.91	33.75
1274.15	34.4167
1276.39	34.3333
1278.64	36.25
1280.88	33.5
1283.12	35.4167
1285.36	34.75
1287.6	34.25
1289.84	36.1667
1292.08	34.6667
1294.32	34.0833
1296.56	35
1298.79	36.25
1301.03	35.5833
1303.26	35.5
1305.5	36.3333
1307.73	38
1309.97	35.6667
1312.2	38.3333
1314.43	38.3333
1316.66	39.75
1318.89	39.75
1321.12	39.3333
1323.35	39.4167
1325.58	40.3333
1327.81	39.8333
1330.03	41.8333
1332.26	41.25
1334.49	42.5
1336.71	42.9167
1338.94	42.75
1341.16	45.3333
1343.38	44.5833
1345.6	45.5833
1347.83	45.6667
1350.05	46.5833
1352.27	48
1354.49	49.75
1356.7	50.75
1358.92	48.3333
1361.14	50.75
1363.36	52.1667
1365.57	53.0833
1367.79	54.0833
1370	54.4167
1372.21	55.75
1374.43	56.1667
1376.64	54.9167
1378.85	57.9167
1381.06	58.8333
1383.27	59.4167
1385.48	62.6667
1387.69	62.3333
1389.9	63.5833
1392.11	64.9167
1394.31	65
1396.52	66.4167
1398.73	69.4167
1400.93	69.25
1403.13	71.3333
1405.34	73
1407.54	73.25
1409.74	74.9167
1411.94	75.75
1414.14	76.0833
1416.34	79.1667
1418.54	78.1667
1420.74	82
1422.94	80.5833
1425.14	84.3333
1427.33	87.8333
1429.53	88.6667
1431.72	92.0833
1433.92	96.3333
1436.11	101.583
1438.3	109.333
1440.5	116
1442.69	133.5
1444.88	147.583
1447.07	172.583
1449.26	194.333
1451.45	210.5
1453.64	217.75
1455.82	215.083
1458.01	210.833
1460.2	205.917
1462.38	201.833
1464.57	199.833
1466.75	196.75
1468.93	198.417
1471.12	194.417
1473.3	191.333
1475.48	187.167
1477.66	177.917
1479.84	176.083
1482.02	171.917
1484.2	163.75
1486.38	155.083
1488.55	148
1490.73	138.5
1492.91	132.917
1495.08	128.583
1497.26	120.167
1499.43	115.083
1501.61	112.583
1503.78	109.667
1505.95	103.083
1508.12	102.75
1510.29	98.6667
1512.46	95.75
1514.63	93
1516.8	91.5833
1518.97	89.75
1521.14	89.8333
1523.3	86.5833
1525.47	88
1527.63	84.9167
1529.8	84.3333
1531.96	84.8333
1534.12	83.6667
1536.29	80.4167
1538.45	81.4167
1540.61	80.5833
1542.77	80.5833
1544.93	77.6667
1547.09	78.4167
1549.25	79.8333
1551.41	77.3333
1553.56	73.4167
1555.72	76
1557.88	76.1667
1560.03	74.6667
1562.18	71.6667
1564.34	71.4167
1566.49	70.5833
1568.64	70.5
1570.8	68.5833
1572.95	67.1667
1575.1	66.8333
1577.25	67.4167
1579.4	65.9167
1581.55	66.4167
1583.69	62.6667
1585.84	64.6667
1587.99	65.9167
1590.13	60.9167
1592.28	60.75
1594.42	60.9167
1596.57	58.75
1598.71	57.4167
1600.85	57.1667
1602.99	56
1605.14	56.8333
1607.28	53.5833
1609.42	56.75
1611.56	53.25
1613.69	52.5833
1615.83	52.4167
1617.97	51.4167
1620.11	51.25
1622.24	50.75
1624.38	49.1667
1626.51	49.25
1628.65	47.0833
1630.78	47.1667
1632.91	48.75
1635.04	47.1667
1637.17	46.6667
1639.31	46.3333
1641.44	46.8333
1643.57	47.25
1645.69	45.5833
1647.82	45.3333
1649.95	44.1667
1652.08	44.5
1654.2	43.1667
1656.33	41.8333
1658.45	43.5
1660.58	44.6667
1662.7	44.75
1664.82	42.5833
1666.94	43.5
1669.07	42.4167
1671.19	42.3333
1673.31	41
1675.43	40.8333
1677.55	42.25
1679.66	41.1667
1681.78	41.75
1683.9	41.4167
1686.01	42.1667
1688.13	41.8333
1690.25	43.0833
1692.36	41.25
1694.47	42.4167
1696.59	39.1667
1698.7	40.25
1700.81	41
1702.92	42.0833
1705.03	40.9167
1707.14	39.75
1709.25	40.5
1711.36	40.6667
1713.47	40.0833
1715.58	40.75
1717.68	40.8333
1719.79	40.8333
1721.89	40.3333
1724	39.9167
1726.1	38.8333
1728.21	41.5
1730.31	39.25
1732.41	39.4167
1734.51	39.1667
1736.61	40.4167
1738.71	42.0833
1740.81	37.8333
1742.91	41.0833
1745.01	40.4167
1747.11	41.8333
1749.2	40.6667
1751.3	40.4167
1753.4	41.25
1755.49	41.4167
1757.59	40
1759.68	40.3333
1761.77	40.25
1763.86	41.0833
1765.96	39.9167
1768.05	39.9167
1770.14	40.5
1772.23	40.6667
1774.32	39.25
1776.41	41.8333
1778.49	40.5833
1780.58	41.1667
1782.67	40.9167
1784.76	39.5833
1786.84	42.1667
1788.92	39.5833
1791.01	40.1667
1793.09	40.9167
1795.18	40.6667
1797.26	41.5833
1799.34	41.5
1801.42	40.75
1803.5	40.8333
1805.58	40.5
1807.66	42.5833
1809.74	41.3333
1811.82	41.1667
1813.89	40.5
1815.97	40.6667
1818.05	41.25
1820.12	42.9167
1822.2	41.5833
1824.27	41.6667
1826.34	41.5833
1828.42	42.3333
1830.49	42.0833
1832.56	41
1834.63	41.8333
1836.7	40.3333
1838.77	40.75
1840.84	42.0833
1842.91	41.75
1844.98	41.8333
1847.04	42.75
1849.11	42.3333
1851.18	42.3333
1853.24	39.1667
1855.31	41.9167
1857.37	39.5833
1859.43	43.3333
1861.5	42.25
1863.56	43.1667
1865.62	42.1667
1867.68	43.5
1869.74	41.5833
1871.8	43.25
1873.86	43.6667
1875.92	42.5
1877.98	41.0833
1880.03	43.3333
1882.09	42.5833
1884.15	39.8333
1886.2	42.5
1888.26	43.5833
1890.31	42.9167
1892.36	42.9167
1894.42	43.25
1896.47	41.9167
1898.52	43.1667
1900.57	44.5833
1902.62	42.9167
1904.67	44.5
1906.72	43.3333
1908.77	44.25
1910.82	45.25
1912.86	43.0833
1914.91	44.5833
1916.96	45.5
1919	45.4167
1921.04	43.4167
1923.09	44
1925.13	44.5
1927.18	44.6667
1929.22	44.25
1931.26	45.1667
1933.3	46.4167
1935.34	45.0833
1937.38	44.75
1939.42	44.1667
1941.46	44.6667
1943.5	43.8333
1945.53	44.8333
1947.57	44.9167
1949.61	45.25
1951.64	46.0833
1953.68	44.6667
1955.71	44.4167
1957.75	44.5
1959.78	46.1667
1961.81	45.75
1963.84	44.75
1965.87	44.5833
1967.9	44.6667
1969.93	44.6667
1971.96	46
1973.99	44
1976.02	44.5
1978.05	44.75
1980.07	45.3333
1982.1	46.25
1984.13	44.9167
1986.15	43.75
1988.18	45.75
1990.2	45.0833
1992.22	44.75
1994.25	46.4167
1996.27	45.6667
1998.29	45.9167
2000.31	45.0833
2002.33	46.25
2004.35	46.4167
2006.37	47.5
2008.39	47.8333
2010.41	46.25
2012.42	46.9167
2014.44	46.1667
2016.46	46
2018.47	46.3333
2020.49	47.0833
2022.5	46.75
2024.51	47.0833
2026.53	46.6667
2028.54	47.1667
2030.55	47.4167
2032.56	47
2034.57	48.6667
2036.58	46.5833
2038.59	48.8333
2040.6	49.5833
2042.61	49
2044.62	48.5833
2046.62	49.8333
2048.63	48.0833
2050.64	48.25
2052.64	48.3333
2054.65	47.3333
2056.65	49.8333
2058.65	50.6667
2060.66	50
2062.66	49.3333
2064.66	48.3333
2066.66	49.1667
2068.66	48.5833
2070.66	49
2072.66	48
2074.66	49.5833
2076.66	51.75
2078.65	48.8333
2080.65	49.0833
2082.65	49.0833
2084.64	49.6667
2086.64	47.9167
2088.63	46.4167
2090.63	49
2092.62	49.3333
2094.61	48.5833
2096.6	49.3333
2098.59	49.5
2100.59	46.75
2102.58	48.5833
2104.56	48.75
2106.55	48.8333
2108.54	49.9167
2110.53	49
2112.52	50
2114.5	49.25
2116.49	48.6667
2118.48	49.8333
2120.46	47.75
2122.44	49.6667
2124.43	51.0833
2126.41	49.6667
2128.39	49.3333
2130.38	51.6667
2132.36	49.4167
2134.34	49.6667
2136.32	49.8333
2138.3	50.5
2140.28	49.25
2142.26	50.3333
2144.23	50.8333
2146.21	51
2148.19	51.8333
2150.16	49.3333
2152.14	52.1667
2154.11	50.0833
2156.09	49.8333
2158.06	52.5833
2160.04	51.0833
2162.01	51.75
2163.98	51.3333
2165.95	51.5
2167.92	51.5833
2169.89	51.3333
2171.86	51.25
2173.83	50.8333
2175.8	53.4167
2177.77	52.0833
2179.73	51.8333
2181.7	51.6667
2183.67	52.9167
2185.63	53.1667
2187.6	52.5
2189.56	51
2191.53	49.8333
2193.49	50
2195.45	52.25
2197.41	52
2199.37	51.8333
2201.34	54.8333
2203.29	52.0833
2205.26	50.6667
2207.21	54.5833
2209.17	53.5833
2211.13	52.0833
2213.09	52.8333
2215.05	53.6667
2217	52.8333
2218.96	51.4167
2220.91	53.0833
2222.87	52.9167
2224.82	51.5833
2226.77	54.1667
2228.73	55.6667
2230.68	54.5
2232.63	53.1667
2234.58	54.75
2236.53	55.75
2238.48	54.25
2240.43	55.3333
2242.38	54.8333
2244.33	53.5833
2246.27	54.1667
2248.22	54.6667
2250.17	55.75
2252.11	55.5
2254.06	54.6667
2256	53.6667
2257.95	53.75
2259.89	53.25
2261.84	53.5833
2263.78	51.9167
2265.72	53.5
2267.66	55.5833
2269.6	54.1667
2271.54	55.1667
2273.48	56.6667
2275.42	53.75
2277.36	55
2279.3	55.0833
2281.23	54
2283.17	55.25
2285.11	57.3333
2287.04	57.5833
2288.98	54.6667
2290.91	54
2292.84	55.5833
2294.78	53.5833
2296.71	57
2298.64	54.25
2300.57	55.3333
2302.51	55.75
2304.44	56.1667
2306.37	53.8333
2308.29	54.75
2310.22	56
2312.15	55.4167
2314.08	55.0833
2316.01	56.9167
2317.93	56.5833
2319.86	55.5833
2321.78	56.8333
2323.71	54.3333
2325.63	55.0833
2327.56	58.1667
2329.48	57.1667
2331.4	54.75
2333.32	54.3333
2335.25	53.25
2337.17	55.1667
2339.09	55.9167
2341.01	56.0833
2342.92	55.4167
2344.84	54.3333
2346.76	54.25
2348.68	56.75
2350.6	55.8333
2352.51	55
2354.43	55.3333
2356.34	55.3333
2358.26	56.0833
2360.17	55.9167
2362.09	55
2364	55.6667
2365.91	55.8333
2367.82	56.75
2369.73	55.3333
2371.64	55.3333
2373.55	53.75
2375.46	55.6667
2377.37	56.6667
2379.28	56.5
2381.19	55.1667
2383.1	57.0833
2385	55
2386.91	54.75
2388.82	55.5833
2390.72	55.8333
2392.62	56.25
2394.53	58.0833
2396.43	56.9167
2398.33	57.4167
2400.24	53.8333
2402.14	56.3333
2404.04	56.4167
2405.94	57.1667
2407.84	55.6667
2409.74	57
2411.64	58.75
2413.54	57.5833
2415.44	57.5833
2417.33	56.25
2419.23	56.4167
2421.13	57.3333
2423.02	57.8333
2424.92	56.5833
2426.81	56.8333
2428.71	58.5833
2430.6	57.8333
2432.49	58.6667
2434.38	57.75
2436.28	57.5833
2438.17	59.1667
2440.06	58.4167
2441.95	60.1667
2443.84	58.25
2445.73	60.5833
