176.074	215.778
178.677	197.667
181.279	200
183.879	193.222
186.48	184.778
189.08	179.889
191.677	176
194.275	170.778
196.871	164.667
199.467	168.333
202.061	164.889
204.656	161.333
207.249	158.444
209.841	156.778
212.433	153.889
215.022	158.778
217.613	153.222
220.201	156.444
222.789	158
225.375	157.556
227.962	156
230.547	158.444
233.132	157.889
235.714	159
238.296	162.333
240.879	157.667
243.459	154.889
246.04	150.889
248.618	142.111
251.198	140.222
253.774	135.333
256.35	130.222
258.927	125.667
261.501	122.222
264.074	117.778
266.648	116.778
269.22	112.778
271.791	111.333
274.362	110.333
276.931	109.778
279.5	107.444
282.069	109.444
284.635	110.444
287.201	111.111
289.766	111.111
292.331	117.111
294.894	116.222
297.457	117.778
300.018	124.556
302.58	129.778
305.14	135.333
307.699	142.444
310.257	149
312.814	166.444
315.372	185.667
317.928	192.889
320.482	208.222
323.036	209.444
325.589	193.556
328.142	176.333
330.693	165.556
333.243	157.889
335.795	152.667
338.343	150.556
340.891	161.333
343.439	169.222
345.985	185.667
348.53	208
351.075	230.333
353.619	248.667
356.162	263.889
358.704	274
361.245	270.778
363.786	263.333
366.325	250.444
368.864	229.111
371.402	215.889
373.939	193.333
376.475	176.889
379.011	166.222
381.545	156.889
384.079	150.333
386.611	143.889
389.143	142.556
391.674	150.222
394.204	166.222
396.734	193.778
399.263	233
401.791	285.556
404.318	348.111
406.843	370.889
409.368	350.667
411.893	296.667
414.417	233.444
416.94	184.778
419.46	153
421.982	129.667
424.502	115
427.022	99.7778
429.541	95
432.057	83.5556
434.574	81.2222
437.091	75
439.605	72.7778
442.12	71.4445
444.634	68.4444
447.145	64.7778
449.657	66.7778
452.169	65.2222
454.678	65.5556
457.188	61.3333
459.697	60.6667
462.204	60.2222
464.711	58.1111
467.217	59.3333
469.722	58
472.227	56.3333
474.729	57.4444
477.232	54.8889
479.735	55.4444
482.235	54.3333
484.736	55.1111
487.234	55.3333
489.734	56.5556
492.23	54.7778
494.728	54.2222
497.223	53.3333
499.719	52.7778
502.213	53.5556
504.707	53.2222
507.199	52.1111
509.69	53.3333
512.182	53.3333
514.672	53.2222
517.162	53.2222
519.65	53.8889
522.139	50.4444
524.625	52.3333
527.111	50.2222
529.597	52.6667
532.081	51.2222
534.564	50.7778
537.047	51.5556
539.529	49.7778
542.01	52.3333
544.491	51.1111
546.97	50.6667
549.448	49.6667
551.927	52.5556
554.404	49.8889
556.88	50.6667
559.355	50.3333
561.831	51.8889
564.304	51
566.777	51.7778
569.249	50.6667
571.72	51.6667
574.191	51.5556
576.661	49.8889
579.129	50.4444
581.597	53.4444
584.064	53.6667
586.531	52.7778
588.997	51.2222
591.462	51.2222
593.926	52.5556
596.389	50.6667
598.851	53.7778
601.313	52.5556
603.773	53.1111
606.233	52.7778
608.692	53
611.151	53.5556
613.608	52.6667
616.065	51.5556
618.521	53.4444
620.976	54.6667
623.43	56.6667
625.883	54.4444
628.336	53.6667
630.788	56.6667
633.239	58.6667
635.69	57.6667
638.139	64.3333
640.588	68
643.036	75.3333
645.483	83.2222
647.929	102.667
650.375	130.444
652.818	186.444
655.262	338.222
657.706	653.333
660.148	906.111
662.59	858.333
665.031	584.556
667.471	334.889
669.909	190
672.347	124.889
674.785	93.7778
677.222	77.7778
679.656	69.7778
682.092	63.7778
684.526	63
686.96	60
689.392	58.7778
691.824	55.6667
694.256	55.5556
696.686	55
699.115	52.8889
701.544	54.3333
703.972	55.6667
706.398	54.6667
708.825	51.6667
711.25	52.6667
713.675	54.3333
716.099	51.7778
718.522	52.8889
720.944	51.3333
723.366	51.2222
725.786	50.5556
728.207	48.7778
730.625	51.1111
733.044	47.8889
735.461	49.1111
737.879	50.4444
740.294	47.8889
742.71	47.7778
745.123	47.8889
747.538	48
749.95	47.5556
752.363	48.3333
754.773	47.6667
757.185	47.4444
759.594	47.6667
762.002	47.7778
764.411	47.8889
766.818	49.3333
769.225	47.3333
771.63	47.3333
774.035	46.7778
776.44	46.1111
778.843	47.8889
781.245	48.6667
783.648	49.1111
786.048	46
788.448	48.4444
790.848	50.4444
793.247	50
795.644	49.7778
798.042	48.6667
800.438	48.5556
802.834	48.1111
805.228	47.4444
807.623	48.6667
810.016	52
812.408	47.8889
814.8	51.7778
817.191	52.8889
819.58	52.4444
821.971	51.1111
824.359	51.7778
826.747	52.6667
829.134	54.3333
831.52	52.1111
833.905	54.8889
836.29	56.3333
838.675	58.3333
841.058	59.6667
843.44	62.3333
845.822	66.8889
848.203	72.2222
850.583	85.5556
852.962	102.444
855.341	130.111
857.718	169.667
860.095	270
862.471	512.444
864.847	889.111
867.222	1100.44
869.596	916.222
871.969	536.444
874.341	277.778
876.713	159
879.083	111.889
881.453	91.8889
883.822	79
886.191	71.8889
888.559	67.1111
890.926	62.1111
893.293	60.1111
895.658	59.3333
898.022	56.1111
900.386	56
902.75	54.3333
905.112	52.8889
907.474	53.2222
909.834	52
912.194	54.3333
914.554	52
916.913	50.7778
919.27	51.3333
921.627	50.4444
923.984	52.2222
926.34	51
928.694	51
931.048	51.2222
933.402	50.5556
935.754	51.1111
938.106	49.5556
940.458	50.6667
942.807	51
945.157	50.3333
947.505	51.2222
949.853	49.6667
952.201	50.7778
954.547	50.8889
956.893	50.7778
959.237	51
961.582	49.3333
963.925	51.5556
966.268	50.2222
968.609	52.5556
970.951	52.7778
973.291	53.6667
975.631	53.2222
977.97	51.7778
980.309	52.6667
982.645	56.7778
984.983	53.6667
987.318	55.2222
989.653	59.3333
991.988	57.5556
994.321	58.4444
996.655	63.3333
998.987	65.2222
1001.32	68.7778
1003.65	74.2222
1005.98	81.5555
1008.31	82.1111
1010.64	84.4444
1012.96	85.7778
1015.29	83.6667
1017.62	86.6667
1019.94	82.2222
1022.27	78.7778
1024.59	77.4445
1026.91	74.6667
1029.24	73.1111
1031.56	70
1033.88	66.5556
1036.2	67.3333
1038.52	68.6667
1040.84	68
1043.16	68.5556
1045.47	68.8889
1047.79	70.8889
1050.1	72.8889
1052.42	75.5556
1054.74	81.2222
1057.05	85.5556
1059.36	91.6667
1061.67	105
1063.98	106.889
1066.29	109.333
1068.6	109.111
1070.91	102.778
1073.22	104.333
1075.53	103.667
1077.84	108.778
1080.14	116
1082.45	128
1084.75	156.556
1087.06	184.667
1089.36	222.556
1091.66	259.333
1093.96	286.556
1096.27	298
1098.57	295.889
1100.87	278
1103.16	248.889
1105.46	217.444
1107.76	185
1110.06	158
1112.35	136.889
1114.65	117.667
1116.94	106.778
1119.23	96.1111
1121.53	90.7778
1123.82	78.5556
1126.11	80.5555
1128.4	74.6667
1130.69	71.4444
1132.98	74.1111
1135.27	70
1137.56	67.6667
1139.85	67.5556
1142.13	65.2222
1144.42	66.7778
1146.7	67.7778
1148.99	65.1111
1151.27	63.2222
1153.55	62.7778
1155.84	61.6667
1158.12	62.7778
1160.4	61.6667
1162.68	61.5556
1164.96	61.3333
1167.23	59.8889
1169.51	60.6667
1171.79	59
1174.06	57.5556
1176.34	58.3333
1178.62	56.5556
1180.89	59.5556
1183.16	55.7778
1185.44	58.5556
1187.71	57.6667
1189.98	57.5556
1192.25	57.3333
1194.52	53.6667
1196.79	56.1111
1199.06	57.8889
1201.32	57.3333
1203.59	58
1205.86	54.6667
1208.12	57.2222
1210.39	57.6667
1212.65	55.7778
1214.91	58.2222
1217.18	56
1219.44	58.6667
1221.7	59.2222
1223.96	59.1111
1226.22	56.5556
1228.48	59.3333
1230.74	58.6667
1232.99	58
1235.25	57.8889
1237.51	58.6667
1239.76	61.5556
1242.02	59
1244.27	56.2222
1246.53	59.1111
1248.78	60.3333
1251.03	59.5556
1253.28	61
1255.53	60
1257.78	60.1111
1260.03	61.7778
1262.28	60.6667
1264.53	62.8889
1266.77	62.5556
1269.02	60.8889
1271.26	63.8889
1273.51	61.1111
1275.75	60.1111
1278	61.4444
1280.24	61.4444
1282.48	60.7778
1284.72	64.8889
1286.96	60.1111
1289.2	62.3333
1291.44	61.5556
1293.68	61.7778
1295.92	64.3333
1298.15	64.7778
1300.39	64.2222
1302.63	63.7778
1304.86	63.6667
1307.1	66
1309.33	65
1311.56	67.2222
1313.79	68.5556
1316.02	66.7778
1318.26	67.6667
1320.49	70.7778
1322.71	71.3333
1324.94	71.5556
1327.17	71.3333
1329.4	72.3333
1331.62	74.3333
1333.85	75.5556
1336.08	74.1111
1338.3	76.1111
1340.52	74.6667
1342.75	77.4444
1344.97	79.5556
1347.19	81.1111
1349.41	79.6667
1351.63	84.2222
1353.85	86.2222
1356.07	88.4444
1358.29	92.3333
1360.5	94.8889
1362.72	100.111
1364.94	101.111
1367.15	109.556
1369.37	114.667
1371.58	118.222
1373.79	130.556
1376.01	136.222
1378.22	151.778
1380.43	174.778
1382.64	197.111
1384.85	225.889
1387.06	257.556
1389.27	287.667
1391.47	313.889
1393.68	331.778
1395.89	354.222
1398.09	382.778
1400.3	452.556
1402.5	540.111
1404.71	641.778
1406.91	746.889
1409.11	812.333
1411.31	794.111
1413.51	757.111
1415.71	647.444
1417.91	536.333
1420.11	451.667
1422.31	376.556
1424.51	335.778
1426.7	315.778
1428.9	323.444
1431.1	348.667
1433.29	409
1435.48	490.889
1437.68	571.333
1439.87	632.111
1442.06	643.444
1444.25	609.111
1446.44	538.889
1448.63	472.111
1450.82	407.444
1453.01	354.111
1455.2	317.333
1457.39	292
1459.57	266.444
1461.76	250.222
1463.94	230.556
1466.13	220.222
1468.31	206.556
1470.49	200.667
1472.68	189.444
1474.86	179.778
1477.04	172.889
1479.22	166.444
1481.4	159
1483.58	153.778
1485.75	152.556
1487.93	151.444
1490.11	156
1492.29	152.333
1494.46	155.444
1496.64	158.556
1498.81	153.444
1500.98	153.111
1503.16	157.778
1505.33	150.889
1507.5	148.778
1509.67	143.333
1511.84	139.667
1514.01	135.556
1516.18	125.333
1518.35	120
1520.51	110.667
1522.68	108.778
1524.85	104.667
1527.01	98
1529.18	96.7778
1531.34	92.4444
1533.51	91.5556
1535.67	89.3333
1537.83	89.7778
1539.99	87.5556
1542.15	88.5556
1544.31	85.6667
1546.47	84.3333
1548.63	85.7778
1550.79	84.4444
1552.95	84.7778
1555.1	83
1557.26	82.4444
1559.41	84.1111
1561.57	81.6667
1563.72	82.2222
1565.88	81.1111
1568.03	80.8889
1570.18	80.3333
1572.33	79.7778
1574.48	80.4444
1576.63	81.5556
1578.78	79.1111
1580.93	80.7778
1583.08	80.3333
1585.23	81.3333
1587.37	80.6667
1589.52	78.4444
1591.66	79.1111
1593.81	79.4445
1595.95	79.4444
1598.1	78
1600.24	76.3333
1602.38	77.7778
1604.52	75.7778
1606.66	79.3333
1608.8	81.1111
1610.94	79.6667
1613.08	79.2222
1615.22	79
1617.36	80.3333
1619.49	81
1621.63	84.3333
1623.77	82.8889
1625.9	82.6667
1628.03	88.1111
1630.17	89.2222
1632.3	93.3333
1634.43	91.6667
1636.56	92.2222
1638.7	101.333
1640.83	105.111
1642.96	113.889
1645.08	122.778
1647.21	148
1649.34	173.222
1651.47	208.222
1653.59	253.222
1655.72	281.778
1657.84	299.667
1659.97	301.667
1662.09	291.778
1664.21	280.333
1666.34	264.667
1668.46	242.222
1670.58	227.111
1672.7	218
1674.82	208.111
1676.94	195.222
1679.06	180.778
1681.18	174.222
1683.29	162.111
1685.41	149.778
1687.52	137.778
1689.64	125.333
1691.76	117.556
1693.87	108.222
1695.98	97.6667
1698.09	92.3333
1700.21	88.7778
1702.32	86
1704.43	84
1706.54	81.3333
1708.65	80.1111
1710.76	77.8889
1712.86	73.8889
1714.97	78.6667
1717.08	76.4444
1719.19	76
1721.29	79.4444
1723.4	78.8889
1725.5	83.5556
1727.6	81.8889
1729.71	82.1111
1731.81	80.2222
1733.91	77.1111
1736.01	72.8889
1738.11	69
1740.21	71.1111
1742.31	68.1111
1744.41	66.8889
1746.51	67.1111
1748.6	66.4444
1750.7	65
1752.8	64.5556
1754.89	66
1756.99	65.6667
1759.08	63.2222
1761.17	63.1111
1763.27	64.2222
1765.36	63
1767.45	61.5556
1769.54	63.1111
1771.63	62.5556
1773.72	63.4444
1775.81	63.4444
1777.9	64.6667
1779.98	59.3333
1782.07	63.1111
1784.16	63.5556
1786.24	63.1111
1788.33	62.5556
1790.41	66.7778
1792.5	64
1794.58	62.4444
1796.66	63.1111
1798.74	63.8889
1800.83	62.2222
1802.91	63.1111
1804.99	60.8889
1807.06	62
1809.14	63.2222
1811.22	60.1111
1813.3	62.4444
1815.38	62.2222
1817.45	60.7778
1819.53	61.8889
1821.6	66.6667
1823.68	61.6667
1825.75	59.6667
1827.82	63.1111
1829.9	63.7778
1831.97	59.6667
1834.04	63.7778
1836.11	61.1111
1838.18	60.8889
1840.25	63.5556
1842.32	62.7778
1844.38	61.2222
1846.45	62
1848.52	62
1850.58	62.8889
1852.65	59.6667
1854.72	60.7778
1856.78	62
1858.84	61.2222
1860.91	61.8889
1862.97	62.3333
1865.03	61.8889
1867.09	62.2222
1869.15	63.5556
1871.21	63.1111
1873.27	61.3333
1875.33	60.5556
1877.39	61.4444
1879.44	60.1111
1881.5	62.4444
1883.56	61.5556
1885.61	60.8889
1887.67	60.6667
1889.72	59.6667
1891.78	61.4444
1893.83	60.4444
1895.88	60.5556
1897.93	61.5556
1899.98	62
1902.03	63.1111
1904.08	61.1111
1906.13	60.8889
1908.18	61.6667
1910.23	63.3333
1912.28	61.7778
1914.32	61.1111
1916.37	62.2222
1918.41	62.6667
1920.46	63.3333
1922.5	63
1924.55	62.3333
1926.59	64.5556
1928.63	61.3333
1930.68	62
1932.72	64.4444
1934.76	61.3333
1936.8	60.7778
1938.84	61.3333
1940.87	63.2222
1942.91	62.1111
1944.95	62.6667
1946.99	60
1949.02	64.8889
1951.06	60.6667
1953.09	59.7778
1955.13	64.6667
1957.16	63.4444
1959.2	65.6667
1961.23	65.2222
1963.26	62.8889
1965.29	63.4444
1967.32	63.1111
1969.35	62.2222
1971.38	61.4444
1973.41	63.1111
1975.44	66.5555
1977.47	61.4444
1979.5	64
1981.52	63.3333
1983.55	64.3333
1985.57	68
1987.6	67.4444
1989.62	67.1111
1991.64	65.3333
1993.67	63.4444
1995.69	65.6667
1997.71	68.3333
1999.73	69.4444
2001.75	67.8889
2003.77	69.3333
2005.79	72.8889
2007.81	70.6667
2009.83	73.4444
2011.85	71.3333
2013.86	71
2015.88	71.2222
2017.89	72.7778
2019.91	69.1111
2021.92	69.4444
2023.94	74.1111
2025.95	72.8889
2027.96	71.7778
2029.97	69.7778
2031.99	72
2034	70.5556
2036.01	69.5556
2038.02	68.8889
2040.03	69.5556
2042.03	69
2044.04	69.8889
2046.05	68.2222
2048.06	70.4444
2050.06	67.8889
2052.07	67.1111
2054.07	67.2222
2056.08	65.6667
2058.08	67.1111
2060.08	66.5556
2062.08	67.3333
2064.09	65.8889
2066.09	68.5556
2068.09	68.2222
2070.09	67.4444
2072.09	66.1111
2074.09	66.4444
2076.08	67
2078.08	65.1111
2080.08	66.7778
2082.07	65.8889
2084.07	63.4444
2086.07	66.2222
2088.06	64.3333
2090.05	65.1111
2092.05	65.1111
2094.04	63.8889
2096.03	65.8889
2098.02	66.3333
2100.01	68.3333
2102	67.6667
2103.99	65.6667
2105.98	65.7778
2107.97	67.2222
2109.96	68.1111
2111.95	65.4444
2113.94	65.7778
2115.92	66.4444
2117.91	64.3333
2119.89	65.7778
2121.88	66.3333
2123.86	64.7778
2125.84	63.3333
2127.83	65.6667
2129.81	67.2222
2131.79	66.8889
2133.77	64.7778
2135.75	65.2222
2137.73	65.4444
2139.71	62.8889
2141.69	67
2143.67	65.6667
2145.64	66.7778
2147.62	65.4444
2149.6	66
2151.57	65.8889
2153.55	64.1111
2155.52	65.8889
2157.5	64.8889
2159.47	65.1111
2161.44	66.8889
2163.41	65.6667
2165.39	63.6667
2167.36	64.8889
2169.33	64.5556
2171.3	65.2222
2173.27	66.7778
2175.24	67
2177.2	67.8889
2179.17	64.8889
2181.14	65.7778
2183.1	66.1111
2185.07	66
2187.03	65
2189	66.6667
2190.96	65.5556
2192.93	64.3333
2194.89	65.3333
2196.85	65.6667
2198.81	65
2200.77	66.5556
2202.73	64.3333
2204.69	66
2206.65	64.1111
2208.61	63.5556
2210.57	67
2212.53	66.7778
2214.48	66.8889
2216.44	66
2218.4	65.5556
2220.35	64.6667
2222.31	68.2222
2224.26	66.1111
2226.21	64.4444
2228.17	65.5556
2230.12	68
2232.07	66.5556
2234.02	67.2222
2235.97	65.8889
2237.92	67.4444
2239.87	66.1111
2241.82	66.7778
2243.77	66.7778
2245.72	68.1111
2247.66	68.1111
2249.61	66.2222
2251.56	66.7778
2253.5	66.5556
2255.45	65.6667
2257.39	67.8889
2259.33	68.5556
2261.28	67.6667
2263.22	68.1111
2265.16	65.4444
2267.1	67.6667
2269.04	68
2270.99	66.5556
2272.92	68.5556
2274.86	65.8889
2276.8	67.2222
2278.74	66.8889
2280.68	67.6667
2282.61	66
2284.55	67.8889
2286.49	66.6667
2288.42	69.5556
2290.36	65.6667
2292.29	67.1111
2294.22	68.3333
2296.16	67.1111
2298.09	67.2222
2300.02	67.3333
2301.95	67
2303.88	67.8889
2305.81	69.5556
2307.74	69.3333
2309.67	71.1111
2311.6	71.2222
2313.53	68.3333
2315.45	66.1111
2317.38	67.7778
2319.31	69
2321.23	69.5556
2323.16	69.3333
2325.08	66.6667
2327	68.7778
2328.93	69.1111
2330.85	69.8889
2332.77	68
2334.69	68
2336.62	64.1111
2338.54	68
2340.46	69.1111
2342.38	67.2222
2344.29	68.2222
2346.21	68.2222
2348.13	68.7778
2350.05	68.4444
2351.96	66.5556
2353.88	68.2222
2355.79	66.7778
2357.71	67.5556
2359.62	67
2361.54	69
2363.45	70.8889
2365.36	67
2367.27	67.3333
2369.19	67.4444
2371.1	68
2373.01	66.3333
2374.92	66
2376.83	64.2222
2378.73	66.7778
2380.64	65.5556
2382.55	64.4444
2384.46	67.5556
2386.36	68.1111
2388.27	67.6667
2390.17	66
2392.08	67.7778
2393.98	67.7778
2395.89	66.5556
2397.79	66.1111
2399.69	70.6667
2401.59	68.1111
2403.5	69.2222
2405.4	65
2407.3	66
2409.2	69.5556
2411.09	67.6667
2412.99	68.7778
2414.89	68
2416.79	67.8889
2418.69	69
2420.58	70.3333
2422.48	68.2222
2424.37	68.8889
2426.27	67.1111
2428.16	68
2430.06	69.1111
2431.95	68.6667
2433.84	68
2435.73	68.2222
2437.62	71.4444
2439.52	68.1111
2441.41	68.8889
2443.3	68.5556
2445.19	69.7778
