176.074	204
178.677	197.222
181.279	187
183.879	181.333
186.48	180.111
189.08	170.444
191.677	166
194.275	164.556
196.871	162.222
199.467	155.222
202.061	152.556
204.656	151
207.249	149.444
209.841	146.889
212.433	150.222
215.022	149.111
217.613	145.889
220.201	149.222
222.789	151.889
225.375	145.778
227.962	153.667
230.547	150.778
233.132	153.444
235.714	150.667
238.296	152.444
240.879	147
243.459	146.222
246.04	141.667
248.618	138.222
251.198	130.778
253.774	125.444
256.35	120.111
258.927	116.889
261.501	112.333
264.074	111.444
266.648	106.444
269.22	103.111
271.791	102.778
274.362	102.111
276.931	99.3333
279.5	100.889
282.069	98.7778
284.635	101.667
287.201	103.556
289.766	105.222
292.331	105.222
294.894	108.889
297.457	110.333
300.018	113.222
302.58	121.111
305.14	125.111
307.699	133.222
310.257	147.111
312.814	160
315.372	174.778
317.928	191.333
320.482	196.111
323.036	194.889
325.589	183.667
328.142	171.556
330.693	155.667
333.243	149.889
335.795	145.667
338.343	143.889
340.891	156.111
343.439	160.667
345.985	180.111
348.53	199.444
351.075	222.556
353.619	245
356.162	255.333
358.704	267
361.245	265.889
363.786	258.222
366.325	236.444
368.864	223.222
371.402	203.111
373.939	187.444
376.475	166.444
379.011	153.222
381.545	144.778
384.079	139.111
386.611	137
389.143	139
391.674	143.667
394.204	159
396.734	186.111
399.263	226.889
401.791	284.111
404.318	343.444
406.843	364.556
409.368	336.667
411.893	285.778
414.417	222.556
416.94	177.333
419.46	142.333
421.982	117.556
424.502	99.8889
427.022	90.6667
429.541	84.5556
432.057	77
434.574	74.1111
437.091	70
439.605	64.6667
442.12	64.4444
444.634	62.6667
447.145	58.3333
449.657	57.2222
452.169	56.7778
454.678	57.4444
457.188	56.4444
459.697	53.7778
462.204	49.7778
464.711	51
467.217	51.5556
469.722	48.1111
472.227	49.5556
474.729	47.2222
477.232	47.6667
479.735	48.2222
482.235	47.8889
484.736	46.6667
487.234	45.7778
489.734	45.3333
492.23	45.8889
494.728	48
497.223	46.1111
499.719	46
502.213	46.3333
504.707	45.4444
507.199	43.2222
509.69	45.7778
512.182	45.2222
514.672	44.2222
517.162	42.6667
519.65	44.7778
522.139	43.5556
524.625	42.2222
527.111	43.5556
529.597	44.4444
532.081	40.1111
534.564	41.5556
537.047	43.2222
539.529	41.1111
542.01	43.4444
544.491	44
546.97	44
549.448	43
551.927	42.5556
554.404	43.4444
556.88	42.6667
559.355	42.6667
561.831	44.1111
564.304	43.3333
566.777	42.3333
569.249	43.3333
571.72	42.6667
574.191	43.3333
576.661	43
579.129	43.5556
581.597	42.7778
584.064	43.1111
586.531	43.3333
588.997	41.5556
591.462	42.5556
593.926	44
596.389	42.6667
598.851	43.8889
601.313	43.6667
603.773	43
606.233	45.3333
608.692	43.4444
611.151	44.8889
613.608	42.4444
616.065	43.7778
618.521	46.7778
620.976	45.1111
623.43	47
625.883	45.8889
628.336	48.8889
630.788	46.4444
633.239	48.7778
635.69	51
638.139	55.2222
640.588	59.7778
643.036	67.8889
645.483	75.1111
647.929	93
650.375	121.444
652.818	182.778
655.262	345.111
657.706	671.333
660.148	899.333
662.59	822.444
665.031	557.778
667.471	311.222
669.909	174
672.347	114.222
674.785	85.8889
677.222	68.5556
679.656	60.5556
682.092	57.4444
684.526	56
686.96	53.7778
689.392	50
691.824	48.7778
694.256	48.4444
696.686	46.7778
699.115	45.6667
701.544	46.6667
703.972	45.1111
706.398	45.3333
708.825	45.6667
711.25	43.7778
713.675	44.5556
716.099	44.2222
718.522	43.2222
720.944	43.1111
723.366	41.7778
725.786	42.3333
728.207	40.3333
730.625	43.3333
733.044	41.4444
735.461	41.1111
737.879	40.2222
740.294	42.2222
742.71	39.7778
745.123	40
747.538	40
749.95	40
752.363	42.2222
754.773	39.7778
757.185	40
759.594	40.6667
762.002	40.5556
764.411	40.2222
766.818	37.2222
769.225	39.3333
771.63	37.8889
774.035	41
776.44	39.1111
778.843	40.5556
781.245	38.1111
783.648	39
786.048	39.6667
788.448	41
790.848	41.5556
793.247	40.8889
795.644	40.5556
798.042	39.4444
800.438	43.1111
802.834	41.7778
805.228	43.2222
807.623	42.1111
810.016	43.6667
812.408	43.1111
814.8	44.3333
817.191	43.6667
819.58	43.5556
821.971	43.7778
824.359	43.2222
826.747	45.1111
829.134	44.1111
831.52	45.4444
833.905	48.2222
836.29	47.8889
838.675	51.2222
841.058	51.5556
843.44	54.2222
845.822	56.6667
848.203	63.3333
850.583	76.7778
852.962	94.3333
855.341	124.111
857.718	163.444
860.095	270.778
862.471	515.556
864.847	916.111
867.222	1093.67
869.596	875.333
871.969	497.778
874.341	254.889
876.713	145.778
879.083	104.111
881.453	80.8889
883.822	70.7778
886.191	62.8889
888.559	58.3333
890.926	56.3333
893.293	50.4444
895.658	49.7778
898.022	49.7778
900.386	48.7778
902.75	44.6667
905.112	47.2222
907.474	42.7778
909.834	44.8889
912.194	42.3333
914.554	43.8889
916.913	42.2222
919.27	41.5556
921.627	42.1111
923.984	41.7778
926.34	41.7778
928.694	44
931.048	40.1111
933.402	43.1111
935.754	40.3333
938.106	42
940.458	42.3333
942.807	40.7778
945.157	40.1111
947.505	43.8889
949.853	41.8889
952.201	42.1111
954.547	44.1111
956.893	42.7778
959.237	43.5556
961.582	42.5556
963.925	44.1111
966.268	44.8889
968.609	44.6667
970.951	43.3333
973.291	43.5556
975.631	47.4444
977.97	45.7778
980.309	47.1111
982.645	44.3333
984.983	46
987.318	49.1111
989.653	50
991.988	51
994.321	52.4444
996.655	54.3333
998.987	58.6667
1001.32	60
1003.65	68.2222
1005.98	70.4444
1008.31	76
1010.64	75.8889
1012.96	77.5555
1015.29	78
1017.62	74.4444
1019.94	71.1111
1022.27	69.7778
1024.59	68.8889
1026.91	66
1029.24	63.2222
1031.56	62.2222
1033.88	61.6667
1036.2	59.3333
1038.52	59.8889
1040.84	60.2222
1043.16	63.2222
1045.47	61.4444
1047.79	62.5556
1050.1	63.6667
1052.42	70.6667
1054.74	73.1111
1057.05	77.2222
1059.36	87.7778
1061.67	92
1063.98	100.667
1066.29	100.333
1068.6	100.333
1070.91	98.2222
1073.22	94.1111
1075.53	93.2222
1077.84	97.6667
1080.14	110.111
1082.45	125.444
1084.75	141.444
1087.06	176.333
1089.36	219.111
1091.66	261.111
1093.96	277
1096.27	289.222
1098.57	283.556
1100.87	259.556
1103.16	239.333
1105.46	207.444
1107.76	174.778
1110.06	144.667
1112.35	126.667
1114.65	109.222
1116.94	96.8889
1119.23	88.1111
1121.53	79.7778
1123.82	75.4444
1126.11	70.4444
1128.4	67.8889
1130.69	65.3333
1132.98	62.5556
1135.27	61.8889
1137.56	61
1139.85	59.3333
1142.13	60.2222
1144.42	56.5556
1146.7	56.1111
1148.99	55.8889
1151.27	57.3333
1153.55	56
1155.84	54.8889
1158.12	55.1111
1160.4	52.7778
1162.68	52.7778
1164.96	52.3333
1167.23	52
1169.51	52.7778
1171.79	50.5556
1174.06	51.3333
1176.34	50.8889
1178.62	50.4444
1180.89	49.6667
1183.16	49.5556
1185.44	49.3333
1187.71	47.2222
1189.98	47.6667
1192.25	47.6667
1194.52	48.6667
1196.79	49.4444
1199.06	47.7778
1201.32	48.1111
1203.59	49.7778
1205.86	49
1208.12	48.7778
1210.39	47.4444
1212.65	47.4444
1214.91	51.2222
1217.18	49.3333
1219.44	50.2222
1221.7	49.2222
1223.96	49.8889
1226.22	51.2222
1228.48	50.1111
1230.74	50.6667
1232.99	50.7778
1235.25	51.6667
1237.51	50.6667
1239.76	50.1111
1242.02	50.7778
1244.27	49.5556
1246.53	49.3333
1248.78	52.4444
1251.03	52
1253.28	54.2222
1255.53	52.2222
1257.78	52.8889
1260.03	51.5556
1262.28	54.7778
1264.53	51
1266.77	54.4444
1269.02	53.8889
1271.26	54.7778
1273.51	54
1275.75	53.1111
1278	53.6667
1280.24	54.4444
1282.48	54.2222
1284.72	52.8889
1286.96	54.5556
1289.2	56.3333
1291.44	55.6667
1293.68	55.4444
1295.92	57.1111
1298.15	55.5556
1300.39	59.5556
1302.63	59.4444
1304.86	59.4444
1307.1	59.4444
1309.33	59.5556
1311.56	59
1313.79	60.7778
1316.02	61.3333
1318.26	62.6667
1320.49	61.7778
1322.71	62.3333
1324.94	62.7778
1327.17	63.7778
1329.4	65
1331.62	64
1333.85	66.2222
1336.08	65.8889
1338.3	70
1340.52	69.7778
1342.75	72
1344.97	71.6667
1347.19	72.7778
1349.41	78
1351.63	78.3333
1353.85	79.1111
1356.07	81.7778
1358.29	82.4444
1360.5	86.4444
1362.72	91.1111
1364.94	96.6667
1367.15	97
1369.37	108.556
1371.58	115
1373.79	121.556
1376.01	134.556
1378.22	147.556
1380.43	167.333
1382.64	189.889
1384.85	222.667
1387.06	248.111
1389.27	282.667
1391.47	307.778
1393.68	323.889
1395.89	344.222
1398.09	379.556
1400.3	447.111
1402.5	539.778
1404.71	650.444
1406.91	738.778
1409.11	789.778
1411.31	798
1413.51	730.667
1415.71	631
1417.91	524.889
1420.11	429.444
1422.31	366.111
1424.51	323.333
1426.7	315
1428.9	312.111
1431.1	352.556
1433.29	405.667
1435.48	487
1437.68	572
1439.87	627.222
1442.06	637.778
1444.25	588.556
1446.44	529.667
1448.63	466.556
1450.82	388.222
1453.01	343.556
1455.2	306.889
1457.39	279.111
1459.57	251.667
1461.76	234.444
1463.94	223.111
1466.13	205.667
1468.31	198.333
1470.49	188.111
1472.68	176.667
1474.86	171.333
1477.04	166.556
1479.22	157.667
1481.4	155.333
1483.58	141.111
1485.75	145.889
1487.93	143.889
1490.11	143.333
1492.29	145.667
1494.46	146.889
1496.64	148.333
1498.81	148.444
1500.98	147.222
1503.16	145.222
1505.33	144.333
1507.5	143.444
1509.67	137.667
1511.84	132.778
1514.01	126.889
1516.18	120.222
1518.35	113.111
1520.51	106.222
1522.68	97.6667
1524.85	97
1527.01	93.1111
1529.18	90.2222
1531.34	88.1111
1533.51	84.2222
1535.67	83
1537.83	81.1111
1539.99	80.5556
1542.15	81.4444
1544.31	79.2222
1546.47	78.1111
1548.63	76.5556
1550.79	74.6667
1552.95	77.4444
1555.1	73.3333
1557.26	74.4444
1559.41	75.2222
1561.57	73.7778
1563.72	74.2222
1565.88	73
1568.03	72.4444
1570.18	76.5556
1572.33	75.2222
1574.48	74.8889
1576.63	72.1111
1578.78	73.7778
1580.93	72
1583.08	70.7778
1585.23	71.5556
1587.37	71.3333
1589.52	73.2222
1591.66	69.2222
1593.81	72.2222
1595.95	70.2222
1598.1	72.6667
1600.24	73.2222
1602.38	70.2222
1604.52	71.4444
1606.66	71.5556
1608.8	73.3333
1610.94	72.8889
1613.08	72.3333
1615.22	74.6667
1617.36	73.8889
1619.49	76.4444
1621.63	76.8889
1623.77	74.5556
1625.9	79.7778
1628.03	79.1111
1630.17	84
1632.3	87.4444
1634.43	87.6667
1636.56	89.2222
1638.7	90.7778
1640.83	97.5556
1642.96	107.889
1645.08	123.556
1647.21	136.778
1649.34	165.333
1651.47	202.333
1653.59	243.556
1655.72	277.333
1657.84	292.778
1659.97	295.444
1662.09	289.889
1664.21	273.667
1666.34	256.222
1668.46	234
1670.58	220.556
1672.7	211
1674.82	198.333
1676.94	186.444
1679.06	178.222
1681.18	164.222
1683.29	152.556
1685.41	142.667
1687.52	130.778
1689.64	122.778
1691.76	112.444
1693.87	102.333
1695.98	91.6667
1698.09	84.8889
1700.21	83.3333
1702.32	79.8889
1704.43	73.3333
1706.54	76.4444
1708.65	74.4444
1710.76	71.7778
1712.86	68.2222
1714.97	68.4444
1717.08	70.1111
1719.19	71.7778
1721.29	71
1723.4	74.6667
1725.5	74.2222
1727.6	75.3333
1729.71	75.6667
1731.81	71.4444
1733.91	66.7778
1736.01	67.3333
1738.11	64.5556
1740.21	63.6667
1742.31	60.2222
1744.41	60.7778
1746.51	59.6667
1748.6	59.8889
1750.7	58.5556
1752.8	59.2222
1754.89	57.3333
1756.99	56.4444
1759.08	58.6667
1761.17	59.4444
1763.27	57.7778
1765.36	60
1767.45	55.8889
1769.54	55.8889
1771.63	57
1773.72	56.8889
1775.81	56.2222
1777.9	56.4444
1779.98	57.8889
1782.07	55.5556
1784.16	58.8889
1786.24	57
1788.33	57.2222
1790.41	56.7778
1792.5	56.3333
1794.58	57.4444
1796.66	57
1798.74	56
1800.83	56.6667
1802.91	57
1804.99	55.6667
1807.06	55.3333
1809.14	56.8889
1811.22	54.2222
1813.3	54.7778
1815.38	57
1817.45	56.4444
1819.53	57.2222
1821.6	54.3333
1823.68	55.8889
1825.75	56
1827.82	58
1829.9	54.7778
1831.97	53.8889
1834.04	56.4444
1836.11	54.3333
1838.18	54.8889
1840.25	55.1111
1842.32	55.8889
1844.38	55.6667
1846.45	56.8889
1848.52	55
1850.58	56.5556
1852.65	55.5556
1854.72	57.4444
1856.78	55.2222
1858.84	56.4444
1860.91	55.1111
1862.97	57.6667
1865.03	54
1867.09	54.6667
1869.15	56.4444
1871.21	56.8889
1873.27	55.7778
1875.33	56.5556
1877.39	55.1111
1879.44	54.5556
1881.5	53.6667
1883.56	55.3333
1885.61	57
1887.67	54
1889.72	55.7778
1891.78	56.2222
1893.83	54.8889
1895.88	57.5556
1897.93	56.4444
1899.98	56
1902.03	57
1904.08	55.8889
1906.13	57.3333
1908.18	56.3333
1910.23	54.1111
1912.28	57.8889
1914.32	55.4444
1916.37	56.3333
1918.41	57
1920.46	56.3333
1922.5	56.7778
1924.55	56.5556
1926.59	55.1111
1928.63	56.6667
1930.68	56.3333
1932.72	58
1934.76	55.7778
1936.8	56.3333
1938.84	58.5556
1940.87	57.7778
1942.91	55.8889
1944.95	54.7778
1946.99	55.4444
1949.02	56.2222
1951.06	56.4444
1953.09	57.4444
1955.13	58
1957.16	59.1111
1959.2	56.8889
1961.23	58.3333
1963.26	57.8889
1965.29	57.3333
1967.32	57.1111
1969.35	59.5556
1971.38	57.8889
1973.41	58.3333
1975.44	58.8889
1977.47	58.5556
1979.5	58
1981.52	58.6667
1983.55	59.2222
1985.57	60.8889
1987.6	60.3333
1989.62	61
1991.64	60.6667
1993.67	62.3333
1995.69	61.3333
1997.71	64.4444
1999.73	64.4444
2001.75	65.3333
2003.77	64.7778
2005.79	66.1111
2007.81	66.3333
2009.83	68.5555
2011.85	69.7778
2013.86	66.3333
2015.88	69.1111
2017.89	65.3333
2019.91	66.7778
2021.92	65.8889
2023.94	64.4444
2025.95	67.3333
2027.96	66.4445
2029.97	66.2222
2031.99	65.1111
2034	64.6667
2036.01	67.7778
2038.02	64.5556
2040.03	62.8889
2042.03	64.3333
2044.04	65
2046.05	64
2048.06	63.6667
2050.06	64.7778
2052.07	64.2222
2054.07	63.1111
2056.08	63.8889
2058.08	62.1111
2060.08	61.4444
2062.08	60.7778
2064.09	63
2066.09	62.7778
2068.09	61.3333
2070.09	60.5556
2072.09	61.4444
2074.09	58.7778
2076.08	61.5556
2078.08	59.8889
2080.08	61.3333
2082.07	63
2084.07	60.4444
2086.07	59.4444
2088.06	61.2222
2090.05	59.8889
2092.05	61.7778
2094.04	60.3333
2096.03	61.4444
2098.02	62.6667
2100.01	60.3333
2102	60.1111
2103.99	58.2222
2105.98	61.5556
2107.97	61
2109.96	63.2222
2111.95	62.6667
2113.94	62
2115.92	62.4444
2117.91	63.7778
2119.89	61.6667
2121.88	63.3333
2123.86	61.6667
2125.84	61.8889
2127.83	63.1111
2129.81	60.1111
2131.79	62.5556
2133.77	62.1111
2135.75	62.8889
2137.73	62
2139.71	61.7778
2141.69	60.5556
2143.67	61
2145.64	61.3333
2147.62	61.4444
2149.6	58.1111
2151.57	60.8889
2153.55	60.6667
2155.52	59.6667
2157.5	59.2222
2159.47	59.7778
2161.44	61.7778
2163.41	63.2222
2165.39	59.5556
2167.36	61.5556
2169.33	59.1111
2171.3	60.1111
2173.27	62.4444
2175.24	60.7778
2177.2	60.7778
2179.17	59.1111
2181.14	62.1111
2183.1	59.8889
2185.07	58.5556
2187.03	61.5556
2189	61
2190.96	60.5556
2192.93	61.3333
2194.89	61.8889
2196.85	61.1111
2198.81	61.1111
2200.77	59.8889
2202.73	62.4444
2204.69	62
2206.65	62.3333
2208.61	62.4444
2210.57	59.5556
2212.53	62
2214.48	60.6667
2216.44	63.1111
2218.4	62.4444
2220.35	60.7778
2222.31	62.1111
2224.26	64.5556
2226.21	61.5556
2228.17	64.2222
2230.12	62.3333
2232.07	62.8889
2234.02	61.3333
2235.97	63.2222
2237.92	64.2222
2239.87	61.5556
2241.82	63.7778
2243.77	62.5556
2245.72	64.3333
2247.66	62.7778
2249.61	62.1111
2251.56	63.8889
2253.5	63.1111
2255.45	62.5556
2257.39	63.5556
2259.33	65.3333
2261.28	64.5556
2263.22	65.8889
2265.16	61.5556
2267.1	63.3333
2269.04	63.4444
2270.99	65.2222
2272.92	64.2222
2274.86	61.8889
2276.8	63.1111
2278.74	63.3333
2280.68	63.7778
2282.61	62.2222
2284.55	63.8889
2286.49	63.8889
2288.42	62.3333
2290.36	63
2292.29	62.1111
2294.22	65
2296.16	65.3333
2298.09	62.3333
2300.02	65.5556
2301.95	65.4444
2303.88	65
2305.81	66.3333
2307.74	65.3333
2309.67	63.8889
2311.6	65.5556
2313.53	66.5556
2315.45	64.7778
2317.38	65.8889
2319.31	64.7778
2321.23	63.8889
2323.16	64.4444
2325.08	63.4444
2327	65
2328.93	63.2222
2330.85	64.1111
2332.77	61.6667
2334.69	66.1111
2336.62	64.1111
2338.54	63.7778
2340.46	64
2342.38	63
2344.29	62.8889
2346.21	63.2222
2348.13	61.3333
2350.05	62.4444
2351.96	63.2222
2353.88	64
2355.79	62.7778
2357.71	63.8889
2359.62	63
2361.54	64
2363.45	62.8889
2365.36	64.8889
2367.27	64
2369.19	63.2222
2371.1	63.5556
2373.01	63.2222
2374.92	63.2222
2376.83	63.5556
2378.73	61.8889
2380.64	62.8889
2382.55	64.1111
2384.46	64.3333
2386.36	66.2222
2388.27	61.8889
2390.17	63.4444
2392.08	64
2393.98	61
2395.89	65.5556
2397.79	64.2222
2399.69	63.6667
2401.59	63.7778
2403.5	63.2222
2405.4	63.1111
2407.3	66.4444
2409.2	64.8889
2411.09	60.4444
2412.99	62.8889
2414.89	61.8889
2416.79	65.1111
2418.69	66.3333
2420.58	63.2222
2422.48	66
2424.37	66.1111
2426.27	65.2222
2428.16	67.6667
2430.06	66
2431.95	64.3333
2433.84	63.3333
2435.73	64.2222
2437.62	65
2439.52	67.6667
2441.41	67.4444
2443.3	67.6667
2445.19	65.2222
