176.074	204.444
178.677	195.667
181.279	187.111
183.879	184.333
186.48	174.778
189.08	175.778
191.677	166.333
194.275	165.778
196.871	161.778
199.467	158.444
202.061	154.667
204.656	149.889
207.249	151.556
209.841	145.667
212.433	149.333
215.022	145.556
217.613	150.222
220.201	146.778
222.789	153.222
225.375	151.778
227.962	150.444
230.547	152.556
233.132	147.667
235.714	150.333
238.296	149.778
240.879	151.222
243.459	149.444
246.04	143.778
248.618	136.444
251.198	134.444
253.774	125.333
256.35	121.333
258.927	117.333
261.501	116.778
264.074	110.111
266.648	110.889
269.22	105
271.791	103
274.362	99.7778
276.931	99.5555
279.5	102.111
282.069	100.333
284.635	100.778
287.201	103.444
289.766	103.556
292.331	106.222
294.894	108.556
297.457	113.222
300.018	114.333
302.58	118
305.14	124.222
307.699	134.444
310.257	146.667
312.814	160
315.372	173.333
317.928	193.889
320.482	191.778
323.036	192
325.589	181.222
328.142	174.333
330.693	157.556
333.243	147.222
335.795	146.778
338.343	147.778
340.891	154.222
343.439	168.556
345.985	177.556
348.53	197.111
351.075	221.556
353.619	242.889
356.162	259.778
358.704	264.556
361.245	266.778
363.786	256.889
366.325	238.889
368.864	224.889
371.402	206.111
373.939	186.778
376.475	169.556
379.011	157.444
381.545	143.889
384.079	141.889
386.611	136.778
389.143	143.889
391.674	147.556
394.204	158
396.734	184
399.263	226.222
401.791	283
404.318	342.778
406.843	358
409.368	344.889
411.893	284
414.417	220.778
416.94	172.889
419.46	142.444
421.982	121.889
424.502	101.667
427.022	94.4445
429.541	86.5556
432.057	79.7778
434.574	73.7778
437.091	68.4444
439.605	68.7778
442.12	66.6667
444.634	63.4444
447.145	57.7778
449.657	56.5556
452.169	55.6667
454.678	55.8889
457.188	51.8889
459.697	55.1111
462.204	50.2222
464.711	51.3333
467.217	50.4444
469.722	50.5556
472.227	49.3333
474.729	50.8889
477.232	50.2222
479.735	47.1111
482.235	47.3333
484.736	47.6667
487.234	48
489.734	47
492.23	46.3333
494.728	47.6667
497.223	48
499.719	47.3333
502.213	45
504.707	47.3333
507.199	44.7778
509.69	44.3333
512.182	43.3333
514.672	45.4444
517.162	45.1111
519.65	44.5556
522.139	43
524.625	45.3333
527.111	45.4444
529.597	43.6667
532.081	43.7778
534.564	43.1111
537.047	44.6667
539.529	44
542.01	44.4444
544.491	42.5556
546.97	43.7778
549.448	42.6667
551.927	42.3333
554.404	44.1111
556.88	43.2222
559.355	43.6667
561.831	45
564.304	44.6667
566.777	41.8889
569.249	42.8889
571.72	42.4444
574.191	44.1111
576.661	43.5556
579.129	43.8889
581.597	43.7778
584.064	42.8889
586.531	44
588.997	44.7778
591.462	43.7778
593.926	44.4444
596.389	45.7778
598.851	43.7778
601.313	42
603.773	47.7778
606.233	45.7778
608.692	43.5556
611.151	46.4444
613.608	44.1111
616.065	45.2222
618.521	44.4444
620.976	46.3333
623.43	47.7778
625.883	48.2222
628.336	47.6667
630.788	49.4444
633.239	49
635.69	54
638.139	55.6667
640.588	57.1111
643.036	64.1111
645.483	75.5556
647.929	90
650.375	122.333
652.818	182.667
655.262	345.556
657.706	662.889
660.148	909.556
662.59	826.222
665.031	551.444
667.471	320.556
669.909	180.222
672.347	116.222
674.785	85
677.222	70.1111
679.656	62
682.092	58.6667
684.526	55.8889
686.96	51.2222
689.392	51.3333
691.824	50.6667
694.256	47.7778
696.686	49.1111
699.115	46.3333
701.544	47.6667
703.972	47.4444
706.398	46.6667
708.825	46.7778
711.25	44.8889
713.675	47.2222
716.099	45.5556
718.522	46.5556
720.944	44.3333
723.366	45.3333
725.786	42.2222
728.207	42.7778
730.625	43.4444
733.044	41.4444
735.461	42.8889
737.879	41
740.294	40.7778
742.71	40.4444
745.123	42.3333
747.538	39.7778
749.95	39.3333
752.363	41.2222
754.773	39.7778
757.185	40.5556
759.594	39.5556
762.002	39.5556
764.411	40.3333
766.818	39.2222
769.225	39.2222
771.63	38.8889
774.035	40.4444
776.44	40.1111
778.843	41.2222
781.245	41
783.648	41.2222
786.048	40.5556
788.448	41
790.848	40.5556
793.247	41.1111
795.644	40.7778
798.042	43.7778
800.438	41.3333
802.834	42.2222
805.228	44.2222
807.623	42.2222
810.016	44.3333
812.408	41.6667
814.8	44
817.191	44.4444
819.58	45.7778
821.971	46.2222
824.359	45
826.747	44.7778
829.134	46.7778
831.52	45.8889
833.905	49.4444
836.29	47.2222
838.675	48.8889
841.058	52.8889
843.44	58.7778
845.822	59.2222
848.203	64.5556
850.583	78.7778
852.962	93.2222
855.341	118.444
857.718	169.222
860.095	272.556
862.471	526
864.847	910.111
867.222	1082.78
869.596	877.444
871.969	496.333
874.341	257.778
876.713	147.333
879.083	100.889
881.453	80.5556
883.822	72
886.191	63
888.559	60.1111
890.926	56.1111
893.293	54.1111
895.658	50.2222
898.022	48.3333
900.386	47
902.75	48
905.112	46.3333
907.474	47.1111
909.834	44.1111
912.194	45.6667
914.554	43.8889
916.913	42.7778
919.27	44.6667
921.627	44.1111
923.984	42.6667
926.34	44
928.694	41.8889
931.048	42.4444
933.402	43.5556
935.754	42.5556
938.106	42.7778
940.458	44.3333
942.807	42.5556
945.157	41.6667
947.505	43.7778
949.853	44.1111
952.201	42
954.547	44.7778
956.893	43.7778
959.237	43.3333
961.582	43.5556
963.925	42.3333
966.268	42.5556
968.609	43.7778
970.951	45.1111
973.291	43.2222
975.631	46.4444
977.97	48.2222
980.309	45.8889
982.645	47
984.983	49
987.318	48.1111
989.653	49.4444
991.988	51.6667
994.321	54.7778
996.655	56.1111
998.987	58.3333
1001.32	63.4444
1003.65	64.7778
1005.98	73.4444
1008.31	78.2222
1010.64	80.2222
1012.96	77.6667
1015.29	79.8889
1017.62	75.8889
1019.94	71.6667
1022.27	71
1024.59	68.8889
1026.91	64.1111
1029.24	65.2222
1031.56	64.5556
1033.88	62
1036.2	61.4444
1038.52	60.2222
1040.84	60
1043.16	61.5556
1045.47	63.4444
1047.79	63
1050.1	65.5556
1052.42	68.5556
1054.74	75
1057.05	80.6667
1059.36	86.2222
1061.67	94.5556
1063.98	100.444
1066.29	99.4444
1068.6	101.222
1070.91	97.7778
1073.22	96
1075.53	94.3333
1077.84	100.333
1080.14	104.111
1082.45	122.889
1084.75	147.778
1087.06	179.667
1089.36	216.556
1091.66	254.889
1093.96	282.333
1096.27	295.556
1098.57	288.333
1100.87	267.222
1103.16	239.333
1105.46	204.222
1107.76	176.667
1110.06	150.444
1112.35	130.111
1114.65	110.556
1116.94	98
1119.23	88
1121.53	81.7778
1123.82	76.7778
1126.11	71.2222
1128.4	67.5555
1130.69	65.1111
1132.98	63.1111
1135.27	60
1137.56	60.3333
1139.85	57.7778
1142.13	59
1144.42	57.4444
1146.7	56.5556
1148.99	59.3333
1151.27	58.3333
1153.55	56.5556
1155.84	57.2222
1158.12	53.5556
1160.4	55.6667
1162.68	52.6667
1164.96	52.4444
1167.23	51.3333
1169.51	53.2222
1171.79	49.7778
1174.06	51.7778
1176.34	51.3333
1178.62	50.8889
1180.89	49.1111
1183.16	50.4444
1185.44	49.7778
1187.71	48.5556
1189.98	48.2222
1192.25	48.7778
1194.52	50.3333
1196.79	49.8889
1199.06	50.7778
1201.32	49.1111
1203.59	50.6667
1205.86	50.3333
1208.12	49.1111
1210.39	49.8889
1212.65	50.2222
1214.91	50
1217.18	49.2222
1219.44	49.4444
1221.7	50.3333
1223.96	50.1111
1226.22	52
1228.48	52.1111
1230.74	51.3333
1232.99	52
1235.25	50.7778
1237.51	54
1239.76	52.6667
1242.02	53.2222
1244.27	51.7778
1246.53	51.2222
1248.78	52.6667
1251.03	55
1253.28	54
1255.53	56.3333
1257.78	56
1260.03	54.7778
1262.28	54.3333
1264.53	55.8889
1266.77	53.3333
1269.02	54.5556
1271.26	55.4444
1273.51	55.8889
1275.75	54.3333
1278	56
1280.24	55.2222
1282.48	55.1111
1284.72	56
1286.96	55.4444
1289.2	57.4444
1291.44	53.7778
1293.68	57.7778
1295.92	57.2222
1298.15	56.6667
1300.39	59.3333
1302.63	57.6667
1304.86	56.7778
1307.1	58.1111
1309.33	58.4444
1311.56	62.3333
1313.79	61.8889
1316.02	60.8889
1318.26	61.1111
1320.49	65.7778
1322.71	65.1111
1324.94	63.7778
1327.17	64.2222
1329.4	67.1111
1331.62	67.3333
1333.85	68.1111
1336.08	66.7778
1338.3	66.3333
1340.52	67.2222
1342.75	73.3333
1344.97	73
1347.19	73.5556
1349.41	73.6667
1351.63	75
1353.85	80
1356.07	81
1358.29	84.3333
1360.5	88.6667
1362.72	92.3333
1364.94	95.3333
1367.15	99.2222
1369.37	107.667
1371.58	113.222
1373.79	118.333
1376.01	132.778
1378.22	145.333
1380.43	166.444
1382.64	189.889
1384.85	213.889
1387.06	249.111
1389.27	277.667
1391.47	310.889
1393.68	321.111
1395.89	344.667
1398.09	382.556
1400.3	456.556
1402.5	535.556
1404.71	643.222
1406.91	731.444
1409.11	805.444
1411.31	798.667
1413.51	738.222
1415.71	632.556
1417.91	521.555
1420.11	436.111
1422.31	357.667
1424.51	319.444
1426.7	313.333
1428.9	315.889
1431.1	342.667
1433.29	401.556
1435.48	485.667
1437.68	569.889
1439.87	625
1442.06	627.778
1444.25	594.111
1446.44	526.222
1448.63	454.889
1450.82	389.667
1453.01	348.333
1455.2	299.444
1457.39	275.778
1459.57	259.444
1461.76	237.111
1463.94	221.444
1466.13	204.667
1468.31	196.444
1470.49	191.556
1472.68	184.333
1474.86	174.444
1477.04	166.222
1479.22	160.889
1481.4	153.556
1483.58	148.444
1485.75	146.889
1487.93	146.556
1490.11	147.222
1492.29	146
1494.46	148.333
1496.64	147.111
1498.81	147.778
1500.98	148.778
1503.16	145
1505.33	143.333
1507.5	144.778
1509.67	137.444
1511.84	132.778
1514.01	126.333
1516.18	117.444
1518.35	110.667
1520.51	104.222
1522.68	99.6667
1524.85	97.7778
1527.01	91.3333
1529.18	91.2222
1531.34	88.6667
1533.51	84.7778
1535.67	81.8889
1537.83	81.6667
1539.99	80.3333
1542.15	78.4444
1544.31	79.3333
1546.47	79.3333
1548.63	75.8889
1550.79	79.1111
1552.95	76.5556
1555.1	77.6667
1557.26	74
1559.41	74
1561.57	75.3333
1563.72	74.7778
1565.88	76.5556
1568.03	75.3333
1570.18	73.5556
1572.33	72.8889
1574.48	74.7778
1576.63	74
1578.78	74.4444
1580.93	75.2222
1583.08	69.4445
1585.23	72
1587.37	72.8889
1589.52	71.7778
1591.66	73.2222
1593.81	73.2222
1595.95	69
1598.1	73
1600.24	69.8889
1602.38	71.6667
1604.52	72.3333
1606.66	73.3333
1608.8	75.4444
1610.94	71.5556
1613.08	73.8889
1615.22	73.1111
1617.36	69.5556
1619.49	75.5556
1621.63	75.8889
1623.77	78.1111
1625.9	79
1628.03	81.6667
1630.17	84.7778
1632.3	88.1111
1634.43	90.5556
1636.56	92.8889
1638.7	94.8889
1640.83	101.667
1642.96	109.889
1645.08	120.444
1647.21	143.333
1649.34	170
1651.47	209.222
1653.59	245.111
1655.72	273.778
1657.84	294.444
1659.97	296.778
1662.09	292.222
1664.21	269.444
1666.34	256.222
1668.46	238.333
1670.58	223.333
1672.7	208.889
1674.82	195.889
1676.94	190.333
1679.06	176.222
1681.18	167.556
1683.29	153.778
1685.41	137.778
1687.52	129.444
1689.64	121.889
1691.76	113.222
1693.87	102.333
1695.98	94.1111
1698.09	87.1111
1700.21	80.1111
1702.32	82
1704.43	76.5556
1706.54	73.8889
1708.65	74.2222
1710.76	71.4444
1712.86	71
1714.97	73.2222
1717.08	70.2222
1719.19	70.6667
1721.29	73
1723.4	73.2222
1725.5	76.3333
1727.6	75.5555
1729.71	74.1111
1731.81	75
1733.91	70.7778
1736.01	68.4444
1738.11	64.4444
1740.21	63.1111
1742.31	61.2222
1744.41	60.3333
1746.51	60.5556
1748.6	59.6667
1750.7	58.7778
1752.8	58.3333
1754.89	58.2222
1756.99	57
1759.08	61.7778
1761.17	56
1763.27	57.1111
1765.36	59.1111
1767.45	57.1111
1769.54	57.6667
1771.63	57.5556
1773.72	56.8889
1775.81	59.2222
1777.9	57
1779.98	56.2222
1782.07	56.1111
1784.16	56.3333
1786.24	59
1788.33	57.6667
1790.41	57.6667
1792.5	56.7778
1794.58	58.5556
1796.66	55.3333
1798.74	56.8889
1800.83	59.3333
1802.91	55.3333
1804.99	55.3333
1807.06	58.4444
1809.14	55.4444
1811.22	58.5556
1813.3	55.1111
1815.38	58.7778
1817.45	55.7778
1819.53	57
1821.6	55.6667
1823.68	55.7778
1825.75	55.4444
1827.82	58
1829.9	56
1831.97	58.3333
1834.04	57.3333
1836.11	56.1111
1838.18	56.7778
1840.25	58.1111
1842.32	55.2222
1844.38	57.6667
1846.45	56.4444
1848.52	56.6667
1850.58	56.7778
1852.65	57.8889
1854.72	56.2222
1856.78	56.1111
1858.84	58.1111
1860.91	54.2222
1862.97	56.2222
1865.03	56.2222
1867.09	57.8889
1869.15	54
1871.21	56.4444
1873.27	57.5556
1875.33	58.4444
1877.39	54.6667
1879.44	54.5556
1881.5	57.2222
1883.56	56.1111
1885.61	57.2222
1887.67	54.2222
1889.72	57.8889
1891.78	55.6667
1893.83	55.2222
1895.88	56.6667
1897.93	58.2222
1899.98	55.2222
1902.03	56.5556
1904.08	57.1111
1906.13	58.4444
1908.18	56.8889
1910.23	57.2222
1912.28	56.7778
1914.32	57.1111
1916.37	56.6667
1918.41	56.8889
1920.46	57.7778
1922.5	58.2222
1924.55	56.1111
1926.59	57
1928.63	58.2222
1930.68	56.3333
1932.72	57.5556
1934.76	57.6667
1936.8	57.6667
1938.84	56.6667
1940.87	56.8889
1942.91	59.2222
1944.95	57.4444
1946.99	58.2222
1949.02	56.4444
1951.06	58.8889
1953.09	56.5556
1955.13	57.4444
1957.16	57.7778
1959.2	57.3333
1961.23	58.2222
1963.26	57.7778
1965.29	57.4444
1967.32	56.6667
1969.35	55.8889
1971.38	59.2222
1973.41	59.2222
1975.44	58.3333
1977.47	59.2222
1979.5	57.7778
1981.52	62.7778
1983.55	59.7778
1985.57	58
1987.6	60
1989.62	60.7778
1991.64	59.3333
1993.67	61.7778
1995.69	60.5556
1997.71	64.1111
1999.73	64
2001.75	65.3333
2003.77	64.5556
2005.79	66.8889
2007.81	67.4445
2009.83	66.3333
2011.85	66.1111
2013.86	68.8889
2015.88	68.3333
2017.89	66.3333
2019.91	66.1111
2021.92	65.6667
2023.94	69.5556
2025.95	67.8889
2027.96	64.6667
2029.97	65.2222
2031.99	67.5556
2034	64.3333
2036.01	63.7778
2038.02	65.6667
2040.03	61.2222
2042.03	64
2044.04	63.4444
2046.05	63
2048.06	65.5556
2050.06	64.8889
2052.07	64
2054.07	64.2222
2056.08	62.4444
2058.08	62.3333
2060.08	64.7778
2062.08	65.2222
2064.09	60.1111
2066.09	61.5556
2068.09	61.1111
2070.09	62.2222
2072.09	60.7778
2074.09	62
2076.08	61.6667
2078.08	59.3333
2080.08	62.8889
2082.07	60.5556
2084.07	60.3333
2086.07	61.7778
2088.06	59.6667
2090.05	60.5556
2092.05	62.4444
2094.04	59.4444
2096.03	61.6667
2098.02	59.7778
2100.01	58.8889
2102	60.4444
2103.99	60.7778
2105.98	62.1111
2107.97	60.2222
2109.96	61.5556
2111.95	60.3333
2113.94	62.2222
2115.92	61.2222
2117.91	61.5556
2119.89	61.7778
2121.88	63.3333
2123.86	59
2125.84	61.7778
2127.83	63
2129.81	63.1111
2131.79	63.1111
2133.77	61.2222
2135.75	61.6667
2137.73	61.1111
2139.71	62.4444
2141.69	59.8889
2143.67	61.3333
2145.64	61.8889
2147.62	62.7778
2149.6	60.5556
2151.57	60.1111
2153.55	62
2155.52	61.2222
2157.5	61.7778
2159.47	61.8889
2161.44	62.8889
2163.41	62.4444
2165.39	60
2167.36	62.1111
2169.33	62.1111
2171.3	61.3333
2173.27	59.7778
2175.24	61.3333
2177.2	61.4444
2179.17	60.8889
2181.14	62.1111
2183.1	61.8889
2185.07	62.1111
2187.03	61.1111
2189	61.1111
2190.96	61.8889
2192.93	61.5556
2194.89	62.4444
2196.85	62.3333
2198.81	60.6667
2200.77	60.6667
2202.73	62.2222
2204.69	61.1111
2206.65	62.5556
2208.61	57.7778
2210.57	60.5556
2212.53	63.3333
2214.48	63.5556
2216.44	63.7778
2218.4	61.5556
2220.35	62
2222.31	61
2224.26	60
2226.21	60.8889
2228.17	60.8889
2230.12	63.2222
2232.07	61.7778
2234.02	63.7778
2235.97	62.5556
2237.92	61.1111
2239.87	63.3333
2241.82	63.3333
2243.77	61.2222
2245.72	63.6667
2247.66	64.5555
2249.61	59.4444
2251.56	65.1111
2253.5	62.4444
2255.45	64.8889
2257.39	62.8889
2259.33	61.8889
2261.28	64.2222
2263.22	63.6667
2265.16	63.7778
2267.1	64.2222
2269.04	63.5556
2270.99	64.6667
2272.92	61.6667
2274.86	65.6667
2276.8	65.2222
2278.74	65.2222
2280.68	62
2282.61	64.1111
2284.55	62.1111
2286.49	61
2288.42	66.5556
2290.36	63.5556
2292.29	63.4444
2294.22	66.8889
2296.16	64.4444
2298.09	63.8889
2300.02	64.3333
2301.95	66
2303.88	64.7778
2305.81	66
2307.74	66.1111
2309.67	67.3333
2311.6	67.7778
2313.53	66.1111
2315.45	64.7778
2317.38	65.8889
2319.31	66.2222
2321.23	64.2222
2323.16	65.2222
2325.08	66.1111
2327	62.7778
2328.93	65.5556
2330.85	66.3333
2332.77	64.1111
2334.69	65.2222
2336.62	66
2338.54	64.1111
2340.46	62.6667
2342.38	61.5556
2344.29	64.6667
2346.21	62.3333
2348.13	62.6667
2350.05	63.6667
2351.96	64.6667
2353.88	62.2222
2355.79	63
2357.71	65.3333
2359.62	61.7778
2361.54	63.2222
2363.45	61.6667
2365.36	64.6667
2367.27	63.1111
2369.19	64.7778
2371.1	63.2222
2373.01	62.2222
2374.92	61.5556
2376.83	63.4444
2378.73	65.5556
2380.64	65.5556
2382.55	64.1111
2384.46	62.4444
2386.36	64.3333
2388.27	63.3333
2390.17	61.5556
2392.08	63.4444
2393.98	64.2222
2395.89	65.1111
2397.79	64.7778
2399.69	64.2222
2401.59	65.1111
2403.5	63.3333
2405.4	63.6667
2407.3	63
2409.2	65.1111
2411.09	63.6667
2412.99	65
2414.89	65.7778
2416.79	65.8889
2418.69	64.5556
2420.58	63.5556
2422.48	64.2222
2424.37	66.3333
2426.27	65.7778
2428.16	66
2430.06	60.8889
2431.95	65.8889
2433.84	67.2222
2435.73	64.6667
2437.62	65.1111
2439.52	66.1111
2441.41	68.8889
2443.3	64.3333
2445.19	64.2222
