176.074	197.111
178.677	200.778
181.279	200.778
183.879	201.222
186.48	201.889
189.08	200.333
191.677	201.889
194.275	199.222
196.871	195.889
199.467	193.556
202.061	191
204.656	189.778
207.249	186.333
209.841	184.667
212.433	182.778
215.022	179.222
217.613	176.222
220.201	180.333
222.789	175.222
225.375	172.444
227.962	181.556
230.547	177.333
233.132	178.556
235.714	178
238.296	181.778
240.879	183.556
243.459	180.333
246.04	181.778
248.618	182.556
251.198	186.667
253.774	182.667
256.35	180.889
258.927	177.778
261.501	178
264.074	176.778
266.648	172
269.22	171.556
271.791	170.444
274.362	173.667
276.931	168.889
279.5	166.111
282.069	163
284.635	168.333
287.201	170.556
289.766	171.444
292.331	170.778
294.894	176.111
297.457	181.222
300.018	195.556
302.58	208.889
305.14	216.556
307.699	209.778
310.257	199.556
312.814	184.222
315.372	179.778
317.928	167
320.482	163.444
323.036	158.111
325.589	149.111
328.142	150.778
330.693	153.222
333.243	151.222
335.795	153.667
338.343	154.444
340.891	154.111
343.439	151.889
345.985	152.667
348.53	155.444
351.075	151.222
353.619	154
356.162	151.222
358.704	148.444
361.245	149.444
363.786	146.667
366.325	145.889
368.864	143.222
371.402	139.111
373.939	137.111
376.475	138.444
379.011	140.667
381.545	143.778
384.079	142.667
386.611	146.556
389.143	144.889
391.674	138.556
394.204	134.556
396.734	139.889
399.263	135.333
401.791	136.889
404.318	137.444
406.843	134.333
409.368	137.444
411.893	132.333
414.417	129.778
416.94	133.222
419.46	138.444
421.982	134.889
424.502	140
427.022	135.222
429.541	135.111
432.057	125.444
434.574	128
437.091	126.333
439.605	121.556
442.12	119.889
444.634	118.889
447.145	122.778
449.657	125.222
452.169	121.667
454.678	122.222
457.188	124.444
459.697	128.444
462.204	124.778
464.711	126.444
467.217	125.667
469.722	124
472.227	119
474.729	122.778
477.232	119.889
479.735	119.111
482.235	119
484.736	121.778
487.234	119.889
489.734	119
492.23	119.889
494.728	121
497.223	120.889
499.719	116.667
502.213	117.667
504.707	115.778
507.199	114.889
509.69	113.778
512.182	114.222
514.672	112.444
517.162	111
519.65	108.667
522.139	107.889
524.625	106.556
527.111	107.111
529.597	104.556
532.081	102.889
534.564	102.222
537.047	103.667
539.529	101.222
542.01	101.778
544.491	102.111
546.97	101.667
549.448	97.3333
551.927	97.8889
554.404	97.6667
556.88	96.4444
559.355	96.1111
561.831	99
564.304	95
566.777	95.8889
569.249	94
571.72	92.8889
574.191	91.7778
576.661	91.7778
579.129	92
581.597	90.6667
584.064	88.4444
586.531	86.4444
588.997	85.3333
591.462	88
593.926	86
596.389	84.1111
598.851	84.3333
601.313	84.3333
603.773	84.1111
606.233	83.6667
608.692	85
611.151	86.1111
613.608	87.3333
616.065	84.1111
618.521	83.3333
620.976	83.8889
623.43	82.5555
625.883	80.4444
628.336	83.3333
630.788	81
633.239	82
635.69	80
638.139	81.7778
640.588	81.8889
643.036	84.5556
645.483	78.4444
647.929	80.6667
650.375	78.4444
652.818	79.8889
655.262	79.4444
657.706	77.6667
660.148	80.7778
662.59	80.5556
665.031	78.8889
667.471	80.1111
669.909	80.7778
672.347	79.2222
674.785	81.2222
677.222	80.8889
679.656	80
682.092	81.2222
684.526	82.4444
686.96	78.5556
689.392	79.2222
691.824	81.6667
694.256	82
696.686	81.2222
699.115	82.6667
701.544	81.5556
703.972	83.2222
706.398	85.3333
708.825	86.5556
711.25	89.1111
713.675	89.5556
716.099	93.3333
718.522	96.3333
720.944	101
723.366	106.111
725.786	112.889
728.207	119.556
730.625	120.667
733.044	118.667
735.461	117.444
737.879	118
740.294	117.889
742.71	119.556
745.123	124.556
747.538	128.778
749.95	135.444
752.363	147.778
754.773	162.778
757.185	189.444
759.594	220.778
762.002	247.222
764.411	282.667
766.818	297.444
769.225	301
771.63	291
774.035	290.444
776.44	293
778.843	293.444
781.245	295.556
783.648	299.778
786.048	298.222
788.448	304.333
790.848	310.222
793.247	313.222
795.644	316.556
798.042	292.889
800.438	272.667
802.834	241.333
805.228	225.333
807.623	216.889
810.016	213.889
812.408	219.444
814.8	220.444
817.191	224.778
819.58	235.778
821.971	243.111
824.359	249
826.747	252.333
829.134	247.111
831.52	244.111
833.905	241
836.29	225.444
838.675	218
841.058	207.889
843.44	198.333
845.822	192.111
848.203	176
850.583	173
852.962	158.667
855.341	159.222
857.718	154.222
860.095	162.889
862.471	171.333
864.847	182.222
867.222	199.444
869.596	220.222
871.969	246.222
874.341	261.778
876.713	267.444
879.083	255.667
881.453	245.778
883.822	233.556
886.191	232.778
888.559	237.778
890.926	269.667
893.293	310.556
895.658	332.111
898.022	309.556
900.386	264.444
902.75	228
905.112	202
907.474	185.889
909.834	178.667
912.194	173.556
914.554	166.111
916.913	151
919.27	146.667
921.627	143.111
923.984	136.111
926.34	136.333
928.694	138
931.048	140.889
933.402	139.778
935.754	141.444
938.106	138.444
940.458	132.111
942.807	127.556
945.157	126.111
947.505	125
949.853	128.889
952.201	137.333
954.547	137.222
956.893	139.889
959.237	148.444
961.582	153.778
963.925	156.889
966.268	164.222
968.609	169.222
970.951	166.111
973.291	168.444
975.631	173.111
977.97	171
980.309	165.556
982.645	170.333
984.983	169.667
987.318	165.222
989.653	167
991.988	158
994.321	156.333
996.655	155
998.987	153.778
1001.32	158.333
1003.65	162.444
1005.98	161.333
1008.31	161.111
1010.64	163.778
1012.96	172.333
1015.29	180.222
1017.62	189.111
1019.94	192.556
1022.27	201.556
1024.59	206.778
1026.91	213.556
1029.24	214.889
1031.56	219.556
1033.88	232
1036.2	236.111
1038.52	241.667
1040.84	256.111
1043.16	262
1045.47	265.667
1047.79	261.556
1050.1	242.111
1052.42	223.778
1054.74	214.778
1057.05	228.444
1059.36	239.556
1061.67	260.889
1063.98	272.778
1066.29	266.667
1068.6	249.889
1070.91	237.111
1073.22	228.778
1075.53	216.444
1077.84	210.111
1080.14	208.556
1082.45	202.444
1084.75	192
1087.06	182.111
1089.36	163.111
1091.66	153.444
1093.96	140.111
1096.27	132.444
1098.57	123.667
1100.87	120.778
1103.16	116.333
1105.46	123.111
1107.76	124.778
1110.06	134.111
1112.35	140.222
1114.65	146
1116.94	152
1119.23	158.778
1121.53	157.333
1123.82	159.222
1126.11	162.111
1128.4	164
1130.69	164.222
1132.98	172
1135.27	177.556
1137.56	180.444
1139.85	182
1142.13	196.444
1144.42	203.111
1146.7	216.889
1148.99	218.444
1151.27	221.222
1153.55	214.111
1155.84	212.556
1158.12	208
1160.4	196.444
1162.68	183.222
1164.96	167.111
1167.23	149.667
1169.51	136.111
1171.79	121.778
1174.06	115.556
1176.34	107.889
1178.62	103.889
1180.89	101.222
1183.16	101
1185.44	100.222
1187.71	100.889
1189.98	101.778
1192.25	104.111
1194.52	101.222
1196.79	102.556
1199.06	105.222
1201.32	110
1203.59	116.889
1205.86	119.222
1208.12	121.778
1210.39	122.444
1212.65	128.556
1214.91	126.444
1217.18	119.778
1219.44	118
1221.7	114.444
1223.96	112.667
1226.22	111.667
1228.48	112.556
1230.74	119.333
1232.99	129.556
1235.25	135.556
1237.51	146.778
1239.76	154.556
1242.02	157.778
1244.27	155.111
1246.53	156.778
1248.78	159.556
1251.03	163.667
1253.28	170.667
1255.53	178
1257.78	181.778
1260.03	189.222
1262.28	198.444
1264.53	215.222
1266.77	223.111
1269.02	247.889
1271.26	260.556
1273.51	259.556
1275.75	253.222
1278	253
1280.24	251.778
1282.48	253.667
1284.72	254.333
1286.96	249.667
1289.2	252.444
1291.44	251.444
1293.68	255.556
1295.92	254
1298.15	260
1300.39	264
1302.63	275.667
1304.86	271.556
1307.1	279.778
1309.33	273.444
1311.56	270.889
1313.79	268.333
1316.02	253.333
1318.26	233.778
1320.49	211.778
1322.71	188.556
1324.94	174.778
1327.17	166.111
1329.4	159.667
1331.62	153.556
1333.85	154
1336.08	150.111
1338.3	152.556
1340.52	155.444
1342.75	158.889
1344.97	156.444
1347.19	153.667
1349.41	152.333
1351.63	152
1353.85	157.667
1356.07	163.667
1358.29	173.222
1360.5	171.111
1362.72	167.667
1364.94	161.556
1367.15	153.889
1369.37	149.889
1371.58	155
1373.79	148.556
1376.01	145.556
1378.22	145.444
1380.43	153.111
1382.64	152.667
1384.85	149
1387.06	149.667
1389.27	152.778
1391.47	145.444
1393.68	135.111
1395.89	133.556
1398.09	131.444
1400.3	128.111
1402.5	118.667
1404.71	124.333
1406.91	117.667
1409.11	120.111
1411.31	124.222
1413.51	121.333
1415.71	124
1417.91	129.111
1420.11	129.556
1422.31	134.889
1424.51	141.556
1426.7	148.667
1428.9	171.889
1431.1	194.556
1433.29	243
1435.48	301
1437.68	383.556
1439.87	429.667
1442.06	472.778
1444.25	496.889
1446.44	537.333
1448.63	571.667
1450.82	576.111
1453.01	557.556
1455.2	549.222
1457.39	536.556
1459.57	538.111
1461.76	513.222
1463.94	478.778
1466.13	458.667
1468.31	429.333
1470.49	406.667
1472.68	368.556
1474.86	332.444
1477.04	300.556
1479.22	272
1481.4	234.444
1483.58	214.778
1485.75	195.889
1487.93	174.111
1490.11	157.222
1492.29	150.222
1494.46	142.556
1496.64	134.889
1498.81	134.556
1500.98	125.556
1503.16	128.889
1505.33	126.444
1507.5	122.667
1509.67	118
1511.84	120.889
1514.01	119.222
1516.18	118.111
1518.35	116.778
1520.51	115.222
1522.68	113.556
1524.85	116.889
1527.01	109.444
1529.18	113.556
1531.34	107.889
1533.51	110.778
1535.67	110.222
1537.83	108.778
1539.99	108.222
1542.15	108.667
1544.31	107.111
1546.47	105.444
1548.63	107.111
1550.79	107.333
1552.95	104.778
1555.1	107.444
1557.26	106.778
1559.41	102.222
1561.57	106.222
1563.72	104.222
1565.88	107.889
1568.03	102.444
1570.18	102.667
1572.33	104.333
1574.48	104.111
1576.63	102.889
1578.78	104.556
1580.93	100.444
1583.08	100.667
1585.23	95
1587.37	98.6667
1589.52	98.1111
1591.66	101
1593.81	100.778
1595.95	101.889
1598.1	100.111
1600.24	103.222
1602.38	100
1604.52	99.1111
1606.66	99.8889
1608.8	100.222
1610.94	98.4444
1613.08	98.3333
1615.22	100.333
1617.36	101.333
1619.49	96.5556
1621.63	96.6667
1623.77	98.2222
1625.9	100.667
1628.03	94.4444
1630.17	97.2222
1632.3	94.7778
1634.43	100.889
1636.56	99.8889
1638.7	98.7778
1640.83	97.6667
1642.96	95.1111
1645.08	98.2222
1647.21	100.778
1649.34	95.6667
1651.47	95.3333
1653.59	95
1655.72	96.2222
1657.84	101.111
1659.97	96.5556
1662.09	95.2222
1664.21	95.8889
1666.34	97.2222
1668.46	96.8889
1670.58	101.111
1672.7	101
1674.82	97.1111
1676.94	98.1111
1679.06	95.5556
1681.18	98
1683.29	99.7778
1685.41	96.3333
1687.52	99.8889
1689.64	95.4445
1691.76	98.2222
1693.87	100.222
1695.98	98.1111
1698.09	98
1700.21	100.556
1702.32	99.8889
1704.43	97.8889
1706.54	95.8889
1708.65	98.8889
1710.76	98.3333
1712.86	97.8889
1714.97	97.3333
1717.08	97.8889
1719.19	94.8889
1721.29	95.6667
1723.4	95.2222
1725.5	97.4444
1727.6	94.2222
1729.71	99.1111
1731.81	96.7778
1733.91	97
1736.01	98.2222
1738.11	96.2222
1740.21	96.7778
1742.31	94.4444
1744.41	95
1746.51	90.1111
1748.6	94.8889
1750.7	96.2222
1752.8	94.4444
1754.89	94.4444
1756.99	95.5556
1759.08	92.7778
1761.17	93.8889
1763.27	97.7778
1765.36	96.1111
1767.45	95.6667
1769.54	91.5556
1771.63	94.7778
1773.72	91.6667
1775.81	93.4444
1777.9	97.4444
1779.98	95.5556
1782.07	94.8889
1784.16	94.3333
1786.24	93.5556
1788.33	96
1790.41	96.7778
1792.5	94.6667
1794.58	94
1796.66	93.2222
1798.74	91.8889
1800.83	92.5556
1802.91	94.8889
1804.99	95.8889
1807.06	96.5556
1809.14	93.6667
1811.22	97.2222
1813.3	93.2222
1815.38	93.6667
1817.45	93.3333
1819.53	94.7778
1821.6	92.7778
1823.68	96.4444
1825.75	96.3333
1827.82	94.1111
1829.9	94.3333
1831.97	92.1111
1834.04	95.6667
1836.11	92.8889
1838.18	93.8889
1840.25	94.1111
1842.32	91
1844.38	94.2222
1846.45	92.5556
1848.52	95.8889
1850.58	93.8889
1852.65	94.5556
1854.72	94.3333
1856.78	93.3333
1858.84	93.6667
1860.91	93.3333
1862.97	91.7778
1865.03	88.6667
1867.09	91.4444
1869.15	93.4444
1871.21	91.5556
1873.27	90.4444
1875.33	94.6667
1877.39	92.8889
1879.44	92
1881.5	93.7778
1883.56	94.4444
1885.61	94
1887.67	91.8889
1889.72	92
1891.78	93.7778
1893.83	93.8889
1895.88	93.5556
1897.93	90.8889
1899.98	94.5556
1902.03	95.1111
1904.08	95.7778
1906.13	94
1908.18	94.8889
1910.23	92.4445
1912.28	95.4444
1914.32	93.6667
1916.37	93.7778
1918.41	95.1111
1920.46	94.5556
1922.5	99
1924.55	94.5556
1926.59	93.1111
1928.63	93.4444
1930.68	94.7778
1932.72	96.2222
1934.76	93
1936.8	92.2222
1938.84	93.8889
1940.87	92.2222
1942.91	93.7778
1944.95	94.2222
1946.99	93.2222
1949.02	95.4444
1951.06	92.2222
1953.09	92.4444
1955.13	93.1111
1957.16	92.8889
1959.2	93.5556
1961.23	93.3333
1963.26	92.7778
1965.29	95.1111
1967.32	93.3333
1969.35	96
1971.38	93
1973.41	91.6667
1975.44	94.2222
1977.47	91.8889
1979.5	94.8889
1981.52	90.6667
1983.55	93.6667
1985.57	92.2222
1987.6	91.4444
1989.62	92.4444
1991.64	92.5556
1993.67	94.8889
1995.69	94
1997.71	94.6667
1999.73	94.8889
2001.75	92
2003.77	95.2222
2005.79	95.1111
2007.81	90.1111
2009.83	93.1111
2011.85	93.2222
2013.86	95.1111
2015.88	91.8889
2017.89	93.3333
2019.91	99
2021.92	95.2222
2023.94	94
2025.95	94.3333
2027.96	95.8889
2029.97	92.4444
2031.99	94.1111
2034	95.8889
2036.01	96.3333
2038.02	94.6667
2040.03	95.4445
2042.03	94.2222
2044.04	96
2046.05	92
2048.06	96.3333
2050.06	95.6667
2052.07	95.7778
2054.07	96.4445
2056.08	93.1111
2058.08	95.7778
2060.08	94.7778
2062.08	97.6667
2064.09	95.1111
2066.09	93.6667
2068.09	93.4444
2070.09	93.8889
2072.09	93.3333
2074.09	93.4444
2076.08	94.2222
2078.08	97
2080.08	94.1111
2082.07	92.4444
2084.07	96.5555
2086.07	91.6667
2088.06	96.3333
2090.05	94.3333
2092.05	99.5556
2094.04	90.8889
2096.03	96
2098.02	94.7778
2100.01	96.3333
2102	94
2103.99	94.5556
2105.98	91.8889
2107.97	94.7778
2109.96	93.3333
2111.95	97.6667
2113.94	95.2222
2115.92	94.6667
2117.91	96.1111
2119.89	94.1111
2121.88	96.2222
2123.86	93.8889
2125.84	94.2222
2127.83	94.4444
2129.81	96
2131.79	95.8889
2133.77	94.5556
2135.75	97.1111
2137.73	96.6667
2139.71	96.5556
2141.69	96
2143.67	97.3333
2145.64	92.7778
2147.62	95.2222
2149.6	96
2151.57	95.3333
2153.55	96.8889
2155.52	96
2157.5	96.8889
2159.47	95.5556
2161.44	96.6667
2163.41	96.1111
2165.39	95.6667
2167.36	98
2169.33	96.7778
2171.3	93.6667
2173.27	94.4444
2175.24	98
2177.2	96.1111
2179.17	94.7778
2181.14	98.3333
2183.1	100.444
2185.07	97.7778
2187.03	101.444
2189	98.3333
2190.96	100.111
2192.93	100
2194.89	95.5556
2196.85	99.6667
2198.81	95.8889
2200.77	100.778
2202.73	97
2204.69	97.5556
2206.65	98.1111
2208.61	96.1111
2210.57	94.1111
2212.53	97.7778
2214.48	100.333
2216.44	96.2222
2218.4	97.3333
2220.35	100.556
2222.31	100
2224.26	97.2222
2226.21	98.2222
2228.17	99.1111
2230.12	101.444
2232.07	97
2234.02	97.7778
2235.97	97.4444
2237.92	98.8889
2239.87	97
2241.82	99
2243.77	96.1111
2245.72	96.2222
2247.66	98.4445
2249.61	93.4444
2251.56	98.8889
2253.5	95.2222
2255.45	96.1111
2257.39	96.4444
2259.33	99
2261.28	94.8889
2263.22	96.2222
2265.16	94.1111
2267.1	95.4444
2269.04	97.8889
2270.99	97.8889
2272.92	97.4444
2274.86	96.4444
2276.8	96.3333
2278.74	96.7778
2280.68	96.1111
2282.61	95.1111
2284.55	98
2286.49	98.2222
2288.42	95.8889
2290.36	95
2292.29	95.4444
2294.22	93.4444
2296.16	99.2222
2298.09	95.4445
2300.02	96.3333
2301.95	97
2303.88	96.4444
2305.81	94.2222
2307.74	97.4444
2309.67	98.4444
2311.6	96.3333
2313.53	96
2315.45	96
2317.38	95.6667
2319.31	95.7778
2321.23	96.5556
2323.16	95.8889
2325.08	96.3333
2327	94.4444
2328.93	97.2222
2330.85	98.2222
2332.77	97.8889
2334.69	91.4444
2336.62	96.2222
2338.54	95
2340.46	96.6667
2342.38	99.1111
2344.29	97.2222
2346.21	94.6667
2348.13	98.1111
2350.05	96.4444
2351.96	97.4445
2353.88	100.556
2355.79	95.5556
2357.71	97.2222
2359.62	95.3333
2361.54	97.4444
2363.45	98
2365.36	96
2367.27	94.4444
2369.19	96.2222
2371.1	95.4444
2373.01	97.4445
2374.92	93.4444
2376.83	95.8889
2378.73	98.7778
2380.64	95.4444
2382.55	95.2222
2384.46	95.4444
2386.36	93.7778
2388.27	96.6667
2390.17	94.8889
2392.08	94.5556
2393.98	94.5555
2395.89	95.2222
2397.79	96.4444
2399.69	93.1111
2401.59	93.3333
2403.5	96.4444
2405.4	100.222
2407.3	96.3333
2409.2	96
2411.09	98.3333
2412.99	96.8889
2414.89	100.222
2416.79	100.444
2418.69	96.1111
2420.58	95.2222
2422.48	94.8889
2424.37	98.6667
2426.27	94.4445
2428.16	97.6667
2430.06	97.8889
2431.95	98.1111
2433.84	97.1111
2435.73	98
2437.62	97.2222
2439.52	97.2222
2441.41	97
2443.3	95.2222
2445.19	96.1111
