365.286	222.287
368.238	234.494
371.189	237.602
374.139	258.165
377.087	286.903
380.034	280.576
382.979	267.011
385.923	253.82
388.866	243.428
391.806	227.823
394.745	221.541
397.684	229.832
400.62	236.415
403.555	235.199
406.49	235.725
409.421	243.49
412.353	252.24
415.282	240.843
418.209	254.698
421.137	263.106
424.062	266.796
426.985	274.354
429.908	282.53
432.829	294.64
435.748	293.522
438.666	286.785
441.583	270.803
444.498	258.167
447.412	247.429
450.324	242.614
453.235	241.75
456.145	244.562
459.052	242.346
461.959	234.305
464.865	218.166
467.769	210.169
470.671	204.456
473.572	198.229
476.471	201.41
479.37	201.38
482.266	202.796
485.162	205.113
488.056	198.916
490.948	205.211
493.839	201.046
496.73	208.029
499.618	201.474
502.505	196.265
505.39	195.088
508.275	205.313
511.157	199.387
514.039	210.709
516.919	214.015
519.798	217.789
522.674	207.897
525.55	203.314
528.425	188.377
531.297	189.474
534.169	180.086
537.039	180.27
539.908	179.348
542.775	177.701
545.642	170.169
548.506	179.681
551.369	178.138
554.231	176.72
557.092	182.712
559.951	187.642
562.808	185.891
565.664	186.264
568.519	180.793
571.373	180.342
574.225	175.705
577.076	184.595
579.925	188.972
582.773	177.726
585.62	175.949
588.466	175.768
591.309	181.154
594.152	169.188
596.993	161.101
599.832	173.78
602.671	171.826
605.508	168.895
608.343	176.085
611.178	173.906
614.011	176.145
616.842	174.614
619.672	178.752
622.501	178.13
625.329	178.198
628.155	189.491
630.98	186.743
633.802	191.648
636.624	189.366
639.445	190.818
642.264	188.195
645.082	183.135
647.898	182.203
650.714	195.381
653.527	205.033
656.34	213.844
659.151	205.367
661.961	197.897
664.769	194.333
667.576	179.888
670.382	172.618
673.186	168.238
675.989	169.27
678.791	163.652
681.591	162.587
684.39	160.528
687.187	169.251
689.983	167.281
692.779	160.726
695.572	158.819
698.363	170.042
701.155	164
703.944	162.301
706.733	165.012
709.519	167.146
712.305	162.969
715.089	172.678
717.871	170.136
720.653	167.99
723.433	164.076
726.212	172.531
728.989	163.388
731.765	160.43
734.54	162.813
737.313	155.895
740.085	165.836
742.856	159.223
745.625	162.833
748.394	156.495
751.16	155.468
753.926	156.767
756.689	158.579
759.452	159.859
762.214	167.161
764.974	157.158
767.733	173.592
770.49	165.169
773.246	164.678
776.001	165.347
778.755	163.743
781.507	167.244
784.258	172.924
787.007	169.157
789.756	168.73
792.502	173.006
795.247	168.569
797.992	176.078
800.735	170.449
803.477	176.229
806.217	173.91
808.956	179.468
811.694	182.28
814.43	185.985
817.165	185.197
819.899	184.037
822.631	169.644
825.362	168.303
828.092	159.131
830.82	167.597
833.548	165.397
836.274	157.444
838.998	165.31
841.721	169.636
844.444	171.525
847.165	160.714
849.884	152.419
852.601	157.522
855.318	161.41
858.034	151.679
860.749	152.43
863.461	150.526
866.173	147.835
868.883	153.465
871.592	150.726
874.3	144.958
877.006	149.896
879.712	149.642
882.415	148.878
885.118	151.086
887.819	155.317
890.519	155.603
893.218	158.197
895.914	154.672
898.611	154.53
901.306	151.233
903.999	151.802
906.692	156.317
909.382	150.276
912.072	147.031
914.761	144.651
917.447	151.507
920.133	142.635
922.818	141.836
925.501	147.451
928.183	150.424
930.864	146.274
933.543	145.714
936.221	145.874
938.898	144.646
941.574	141.429
944.248	139.876
946.921	138.479
949.593	143.001
952.263	144.979
954.932	137.637
957.6	141.712
960.267	140.931
962.932	145.045
965.597	151.35
968.26	159.789
970.922	162.309
973.581	154.192
976.241	162.895
978.898	172.131
981.555	180.67
984.21	204.353
986.864	224.122
989.517	243.258
992.169	258.416
994.819	275.38
997.468	289.705
1000.12	311.292
1002.76	325.918
1005.41	334.508
1008.05	342.042
1010.69	319.794
1013.34	301.101
1015.98	270.285
1018.61	231.088
1021.25	209.712
1023.89	188.566
1026.52	169.75
1029.16	164.267
1031.79	170.712
1034.42	162.866
1037.05	165.752
1039.68	168.221
1042.31	170.897
1044.93	184.142
1047.56	188.777
1050.18	192.507
1052.81	189.002
1055.43	184.973
1058.05	180.094
1060.67	168.23
1063.28	171.754
1065.9	179.75
1068.52	176.126
1071.13	184.305
1073.74	188.208
1076.35	193.411
1078.96	200.824
1081.57	202.94
1084.18	209.164
1086.79	211.965
1089.39	225.375
1092	235.482
1094.6	252.79
1097.2	245.748
1099.8	228.762
1102.4	222.703
1105	213.508
1107.6	212.531
1110.19	207.492
1112.79	225.486
1115.38	232.672
1117.97	241.054
1120.56	238.703
1123.15	229.433
1125.74	222.844
1128.33	207.616
1130.91	194.976
1133.5	188.223
1136.08	182.539
1138.66	173.478
1141.24	161.264
1143.82	173.86
1146.4	175.335
1148.98	177.42
1151.55	171.226
1154.13	176.696
1156.7	181.372
1159.27	173.355
1161.85	169.338
1164.42	167.647
1166.98	165.304
1169.55	164.936
1172.12	166.283
1174.68	150.584
1177.25	157.019
1179.81	154.323
1182.37	148.861
1184.93	153.366
1187.49	144.146
1190.05	141.265
1192.6	134.637
1195.16	136.418
1197.71	135.323
1200.27	132.889
1202.82	134.191
1205.37	134.295
1207.92	137.628
1210.47	131.633
1213.01	128.695
1215.56	137.351
1218.1	133.6
1220.65	137.757
1223.19	139.412
1225.73	136.118
1228.27	143.926
1230.81	136.655
1233.35	137.23
1235.88	147.336
1238.42	135.116
1240.95	133.526
1243.48	137.725
1246.02	138.468
1248.55	136.082
1251.07	133.082
1253.6	138.646
1256.13	133.984
1258.66	140.298
1261.18	138.442
1263.7	139.299
1266.22	137.019
1268.75	133.309
1271.27	140.856
1273.78	141.821
1276.3	142.891
1278.82	140.212
1281.33	144.673
1283.85	138.739
1286.36	133.874
1288.87	140.675
1291.38	151.323
1293.89	148.037
1296.4	148.827
1298.9	153.574
1301.41	138.799
1303.91	140.275
1306.41	139.716
1308.92	141.646
1311.42	146.675
1313.92	140.591
1316.42	145.011
1318.91	140.323
1321.41	143.782
1323.9	147.357
1326.4	143.99
1328.89	149.609
1331.38	143.198
1333.87	150.351
1336.36	154.451
1338.85	153.972
1341.34	150.944
1343.82	149.674
1346.31	157
1348.79	153.119
1351.27	151.585
1353.75	150.671
1356.23	158.905
1358.71	160.322
1361.19	162.322
1363.66	179.614
1366.14	174.202
1368.61	178.247
1371.09	183.633
1373.56	191.315
1376.03	197.305
1378.5	204.63
1380.96	208.698
1383.43	198.913
1385.9	196.063
1388.36	185.374
1390.83	179.76
1393.29	170.632
1395.75	158.636
1398.21	156.638
1400.67	148.272
1403.13	140.966
1405.58	138.605
1408.04	140.383
1410.49	143.609
1412.95	136.601
1415.4	136.498
1417.85	136.051
1420.3	135.386
1422.75	133.168
1425.2	136.116
1427.64	136.244
1430.09	141.046
1432.53	137.739
1434.97	139.99
1437.42	132.751
1439.86	127.833
1442.3	129.556
1444.73	125.779
1447.17	126.537
1449.61	126.817
1452.04	119.137
1454.48	127.433
1456.91	125.013
1459.34	128.255
1461.77	122.251
1464.2	120.289
1466.63	119.515
1469.06	119.559
1471.48	118.802
1473.91	116.976
1476.33	115.136
1478.75	116.535
1481.17	116.844
1483.6	113.238
1486.01	113.535
1488.43	111.118
1490.85	112.385
1493.27	106.042
1495.68	99.3233
1498.09	101.054
1500.51	96.9854
1502.92	100.022
1505.33	98.761
1507.74	106.947
1510.14	100.892
1512.55	103.203
1514.96	103.485
1517.36	101.033
1519.77	99.7469
1522.17	107.069
1524.57	103.681
1526.97	110.803
1529.37	107.758
1531.77	106.621
1534.16	107.614
1536.56	108.842
1538.95	105.611
1541.35	110.493
1543.74	111.54
1546.13	108.341
1548.52	111.136
1550.91	112.136
1553.3	113.083
1555.68	109.97
1558.07	111.062
1560.45	109.526
1562.84	119.948
1565.22	115.484
1567.6	119.951
1569.98	121.579
1572.36	124.285
1574.74	122.75
1577.12	121.31
1579.49	119.607
1581.87	121.939
1584.24	119.357
1586.61	113.196
1588.98	111.101
1591.35	111.898
1593.72	114.496
1596.09	109.863
1598.46	109.46
1600.82	106.494
1603.19	105.457
1605.55	101.838
1607.92	103.531
1610.28	104.022
1612.64	96.1234
1615	96.4129
1617.36	100.716
1619.71	95.602
1622.07	92.3024
1624.42	96.1212
1626.78	91.5164
1629.13	95.4233
1631.48	86.7478
1633.83	87.9753
1636.18	92.3958
1638.53	93.7498
1640.88	89.8292
1643.22	89.6814
1645.57	88.4414
1647.91	91.2573
1650.26	87.3888
1652.6	89.2036
1654.94	87.6902
1657.28	88.8315
1659.62	89.6273
1661.96	86.7386
1664.29	87.1989
1666.63	83.6111
1668.96	82.6817
1671.3	89.6169
1673.63	83.7806
1675.96	81.7888
1678.29	81.2574
1680.62	83.6204
1682.95	79.2113
1685.27	77.989
1687.6	84.09
1689.92	81.6667
1692.25	77.4703
1694.57	82.0406
1696.89	86.5747
1699.21	85.4252
1701.53	80.5017
1703.85	79.3744
1706.17	81.9036
1708.48	80.131
1710.8	74.3925
1713.11	79.0046
1715.43	79.9363
1717.74	77.4748
1720.05	73.5656
1722.36	77.4345
1724.67	80.8533
1726.97	80.5072
1729.28	74.5017
1731.59	77.3878
1733.89	79.806
1736.19	76.8742
1738.5	81.6071
1740.8	74.8322
1743.1	75.7199
1745.4	75.8287
1747.7	72.4935
1749.99	75.8497
1752.29	72.1474
1754.58	73.1913
1756.88	71.0854
1759.17	71.8265
1761.46	68.6147
1763.75	66.8779
1766.04	72.1965
1768.33	72.1828
1770.62	72.5126
1772.91	71.7509
1775.19	71.6329
1777.48	69.2467
1779.76	65.9281
1782.04	65.0502
1784.32	72.6136
1786.6	60.9561
1788.88	70.7469
1791.16	71.0695
1793.44	65.858
1795.71	67.5419
1797.99	67.0555
1800.26	65.3549
1802.54	66.903
1804.81	70.9526
1807.08	66.2777
1809.35	62.5141
1811.62	66.4977
1813.88	67.5036
1816.15	65.7814
1818.42	67.9832
1820.68	62.7931
1822.95	63.2054
1825.21	65.2458
1827.47	68.9608
1829.73	63.8242
1831.99	68.6475
1834.25	67.31
1836.51	63.6814
1838.76	66.0525
1841.02	65.5208
1843.27	67.5695
1845.52	65.2422
1847.78	64.5105
1850.03	62.7882
1852.28	66.8696
1854.53	65.4614
1856.78	62.1241
1859.02	63.7181
1861.27	63.0245
1863.51	60.8764
1865.76	60.3481
1868	60.807
1870.24	60.5783
1872.48	62.8242
1874.72	58.5246
1876.96	62.0584
1879.2	61.6237
1881.44	64.8981
1883.67	62.1607
1885.91	57.7941
1888.14	59.3312
1890.37	58.8139
1892.61	61.0073
1894.84	61.7958
1897.07	58.9036
1899.29	59.1866
1901.52	63.0943
1903.75	65.949
1905.97	63.7778
1908.2	65.0323
1910.42	56.806
1912.64	60.6808
1914.87	61.5612
1917.09	60.8351
1919.31	57.8742
1921.52	62.5005
1923.74	59.7901
1925.96	59.3071
1928.17	58.7984
1930.39	57.6275
1932.6	54.7908
1934.81	56.7843
1937.03	54.7925
1939.24	59.1011
1941.45	60.4005
1943.65	58.6665
1945.86	55.4444
1948.07	56.7603
1950.27	53.5276
1952.48	55.6484
1954.68	59.4602
1956.88	55.0678
1959.08	55.9584
1961.29	57.949
1963.48	56.2323
1965.68	58.0697
1967.88	56.4971
1970.08	54.2029
1972.27	50.7521
1974.47	58.428
1976.66	54.0036
1978.85	52.7486
1981.04	52.2814
1983.23	54.3491
1985.42	55.9731
1987.61	60.7595
1989.8	51.682
1991.99	54.8646
1994.17	53.8456
1996.36	52.3983
1998.54	54.0591
2000.72	53.0882
2002.9	52.8714
2005.08	56.0858
2007.26	55.0986
2009.44	52.4174
2011.62	52.9309
2013.8	48.651
2015.97	47.9854
2018.15	51.6749
2020.32	54.6387
2022.49	49.6492
2024.66	51.2399
2026.83	52.5685
2029	53.8216
2031.17	50.6136
2033.34	51.2697
2035.51	49.1281
2037.67	51.7499
2039.84	50.7088
2042	49.0627
2044.16	52.1216
2046.32	50.2393
2048.48	47.086
2050.64	50.9011
2052.8	50.514
2054.96	48.611
2057.12	48.4999
2059.27	48.0762
2061.43	50.3533
2063.58	50.035
2065.73	45.3168
2067.89	45.0842
2070.04	47.7122
2072.19	51.8811
2074.34	52.0696
2076.48	48.8473
2078.63	49.3571
2080.78	45.5409
2082.92	47.269
2085.07	45.2919
2087.21	44.0326
2089.35	47.8926
2091.49	43.4145
2093.63	46.3561
2095.77	46.3543
2097.91	45.4234
2100.05	47.8714
2102.19	46.8789
2104.32	42.2011
2106.45	46.4795
2108.59	46.2872
2110.72	46.3468
2112.85	46.5432
2114.98	45.6117
2117.11	43.6912
2119.24	48.5064
2121.37	46.1753
2123.5	44.7247
2125.62	42.3064
2127.75	42.9472
2129.87	42.4727
2131.99	44.9299
2134.11	45.4135
2136.24	45.4795
2138.36	41.6147
2140.47	48.3877
2142.59	43.2439
2144.71	40.1942
2146.83	40.6275
2148.94	41.5793
2151.06	40.858
2153.17	41.8586
2155.28	41.4895
2157.39	41.786
2159.5	37.6949
2161.61	43.94
2163.72	42.4597
2165.83	46.3329
2167.94	43.4901
2170.04	40.5938
2172.15	41.744
2174.25	38.6455
2176.35	41.5924
2178.45	43.7019
2180.56	38.9567
2182.66	39.8242
2184.75	40.858
2186.85	44.7908
2188.95	39.0065
2191.05	37.9443
2193.14	41.9788
2195.24	40.1845
2197.33	40.6904
2199.42	39.2122
2201.51	39.4989
2203.6	42.6913
2205.69	39.3975
2207.78	39.0014
2209.87	38.6185
2211.96	40.9701
2214.04	43.1011
2216.13	38.8407
2218.21	40.5773
2220.29	40.5771
2222.38	42.3789
2224.46	41.7178
2226.54	40.1819
2228.62	38.4614
2230.69	40.8351
2232.77	38.9559
2234.85	34.0392
2236.92	38.6452
2239	37.238
2241.07	39.3579
2243.15	37.2085
2245.22	33.6185
2247.29	40.1288
2249.36	36.3224
2251.43	36.697
2253.49	37.1942
2255.56	33.2352
2257.63	36.0169
2259.69	36.1531
2261.76	39.379
2263.82	37.3849
2265.88	34.8889
2267.95	33.6702
2270.01	35.3965
2272.07	36.1913
2274.12	34.0819
2276.18	35.7792
2278.24	35.7948
2280.3	33.9426
2282.35	37.8707
2284.41	37.6275
2286.46	34.9655
2288.51	37.1656
2290.56	34.7948
2292.61	34.2701
2294.66	36.1578
2296.71	35.863
2298.76	36.0795
2300.8	34.3053
2302.85	32.6865
2304.9	35.1147
2306.94	34.9069
2308.98	30.9382
2311.03	33.8293
2313.07	35.6226
2315.11	33.5141
2317.15	37.5703
2319.19	35.1793
2321.22	33.082
2323.26	30.9363
2325.3	31.8368
2327.33	29.5783
2329.36	33.1304
2331.4	36.3953
2333.43	32.4651
2335.46	32.4199
2337.49	31.1356
2339.52	32.7566
2341.55	33.352
2343.58	35.3906
2345.6	34.8332
2347.63	43.498
2349.65	33.0418
2351.68	32.0382
2353.7	32.5373
2355.72	30.3958
2357.74	32.1783
2359.76	34.5616
2361.78	31.4727
2363.8	31.355
2365.82	29.7233
2367.84	28.0282
2369.85	28.6241
2371.87	29.4595
2373.88	27.3416
2375.9	31.6532
2377.91	32.2803
2379.92	31.9526
2381.93	29.6053
2383.94	29.7249
2385.95	30.2581
2387.96	32.9952
2389.96	28.2687
2391.97	29.697
2393.97	27.4335
2395.98	28.9759
2397.98	27.5072
2399.98	27.5602
2401.98	28.4345
2403.99	27.0842
2405.99	30.4982
2407.98	27.8714
2409.98	29.4008
2411.98	29.2439
2413.98	27.653
2415.97	28.1349
2417.96	27.4826
2419.96	26.9701
2421.95	29.3819
2423.94	23.2295
2425.93	27.1694
2427.92	28.3992
2429.91	28.5556
2431.9	25.2076
2433.89	27.1614
2435.87	27.175
2437.86	26.524
2439.84	29.0965
2441.83	31.607
2443.81	26.9731
2445.79	29.3159
2447.77	26.3885
2449.75	28.7084
2451.73	26.5141
2453.71	28.2687
2455.69	23.4107
2457.67	27.0464
2459.64	28.2467
2461.62	28.13
2463.59	25.3953
2465.56	26.8789
2467.54	28.2871
2469.51	23.5105
2471.48	26.7247
2473.45	26.8641
2475.42	32.0477
2477.38	25.6197
2479.35	24.1011
2481.32	26.3906
2483.28	25.7964
2485.25	26.3936
2487.21	26.2467
2489.17	25.5744
2491.13	26.2467
2493.09	25.5199
2495.05	25.9808
2497.01	25.397
2498.97	26.0637
2500.93	23.724
2502.89	26.2281
2504.84	24.3848
2506.8	24.8101
2508.75	23.2803
2510.7	25.8925
2512.65	24.5005
2514.61	24.8242
2516.56	26.124
2518.51	25.3234
2520.45	24.5005
2522.4	26.1854
2524.35	23.3532
2526.29	24.0474
2528.24	24.0457
2530.18	25.1111
2532.13	24.842
2534.07	23.5028
2536.01	26.4727
2537.95	25.2894
2539.89	23.2402
2541.83	21.2268
2543.77	25.3448
2545.71	27.2585
2547.64	23.2323
2549.58	20.0105
2551.51	22.2504
2553.45	24.8176
2555.38	21.8405
2557.31	26.3982
2559.25	24.9299
2561.18	21.062
2563.11	21.2842
2565.03	26.5783
2566.96	26.5915
2568.89	21.1807
2570.82	21.3092
2572.74	28.4491
2574.67	22.606
2576.59	23.9788
2578.51	19.8889
2580.43	25.9042
2582.36	22.7316
2584.28	20.5123
2586.2	20.9788
2588.11	22.2562
2590.03	19.1147
2591.95	22.5437
2593.86	19.2274
2595.78	21.4182
2597.69	24.2859
2599.61	22.7603
2601.52	21.4298
2603.43	22.9181
2605.34	23.8196
2607.25	23.3512
2609.16	21.5713
2611.07	19.5638
2612.98	23.6667
2614.89	23.2882
2616.79	21.1656
2618.7	22.6814
2620.6	22.4661
2622.5	20.3934
2624.41	21.2536
2626.31	21.1614
2628.21	22.5706
2630.11	28.5025
2632.01	21.3032
2633.91	24.4684
2635.8	21.836
2637.7	24.7363
2639.6	22.3024
2641.49	24.2849
2643.39	26.948
2645.28	28.903
2647.17	38.2026
2649.06	37.4345
2650.95	31.7832
2652.84	29.8023
2654.73	25.0819
2656.62	24.3836
2658.51	25.2965
2660.4	26.4338
2662.28	24.2976
2664.17	27.3032
2666.05	24.421
2667.93	31.7384
2669.82	36.1561
2671.7	47.4211
2673.58	77.0245
2675.46	98.7192
2677.34	96.1634
2679.21	73.761
2681.09	57.724
2682.97	51.7257
2684.84	38.3503
2686.72	33.1136
2688.59	43.7131
2690.47	66.6732
2692.34	95.3473
2694.21	251.456
2696.08	301.163
2697.95	287.479
2699.82	202.42
2701.69	102.573
2703.56	68.0864
2705.42	59.7872
2707.29	40.0637
2709.15	38.8779
2711.02	31.7521
2712.88	28.3426
2714.75	28.1298
2716.61	29.1317
2718.47	27.4194
2720.33	22.9066
2722.19	22.8013
2724.05	21.7228
2725.9	24.6484
2727.76	24.3532
2729.62	23.4592
2731.47	23.4817
2733.33	22.0854
2735.18	24.7462
2737.03	21.6498
2738.88	21.8724
2740.73	20.6022
2742.59	22.7362
2744.43	20.6076
2746.28	21.8721
2748.13	21.4491
2749.98	19.3924
2751.82	18.8234
2753.67	20.4491
2755.51	20.6376
2757.36	18.0878
2759.2	19.9606
2761.04	17.8794
2762.88	18.6789
