365.286	309.655
368.238	305.1
371.189	316.62
374.139	331.415
377.087	351.376
380.034	359.655
382.979	354.081
385.923	335.493
388.866	306.555
391.806	304.894
394.745	295.289
397.684	299.796
400.62	292.777
403.555	308.969
406.49	307.456
409.421	306.037
412.353	310.242
415.282	313.718
418.209	323.139
421.137	321.179
424.062	324.81
426.985	342.077
429.908	351.379
432.829	371.541
435.748	372.64
438.666	362.975
441.583	352.048
444.498	338.299
447.412	328.001
450.324	317.056
453.235	318.113
456.145	314.16
459.052	320.715
461.959	305.268
464.865	288.616
467.769	279.637
470.671	275.184
473.572	270.463
476.471	270.778
479.37	266.966
482.266	273.462
485.162	274.984
488.056	276.982
490.948	270.048
493.839	264.471
496.73	270.493
499.618	274.846
502.505	267.507
505.39	279.867
508.275	272.409
511.157	277.281
514.039	286.468
516.919	289.576
519.798	285.78
522.674	273.654
525.55	260.086
528.425	255.254
531.297	251.11
534.169	248.939
537.039	245.413
539.908	245.466
542.775	237.548
545.642	243.537
548.506	247.75
551.369	239.517
554.231	242.714
557.092	245.382
559.951	252.353
562.808	239.666
565.664	241.03
568.519	242.387
571.373	250.755
574.225	246.187
577.076	241.554
579.925	247.849
582.773	245.969
585.62	243.283
588.466	241.888
591.309	237.382
594.152	245.921
596.993	238.834
599.832	238.384
602.671	238.049
605.508	236.661
608.343	228.755
611.178	235.277
614.011	244.382
616.842	229.826
619.672	233.755
622.501	239.715
625.329	240.651
628.155	248.104
630.98	240.969
633.802	249.365
636.624	256.493
639.445	244.402
642.264	242.427
645.082	247.601
647.898	239.091
650.714	241.362
653.527	258.897
656.34	270.959
659.151	268.968
661.961	271.778
664.769	262.75
667.576	242.469
670.382	239.838
673.186	230.584
675.989	225.112
678.791	226.011
681.591	219.826
684.39	225.687
687.187	222.765
689.983	220.365
692.779	227.921
695.572	225.541
698.363	227.56
701.155	225.61
703.944	223.299
706.733	225.493
709.519	226.016
712.305	227.87
715.089	224.718
717.871	231.001
720.653	228.964
723.433	232.808
726.212	225.108
728.989	226.821
731.765	224.093
734.54	224.066
737.313	221.735
740.085	216.968
742.856	221.697
745.625	220.838
748.394	219.329
751.16	221.257
753.926	220.614
756.689	214.747
759.452	224.022
762.214	228.034
764.974	226.205
767.733	221.124
770.49	231.338
773.246	233.845
776.001	218.142
778.755	223.023
781.507	226.075
784.258	225.943
787.007	222.195
789.756	229.664
792.502	228.321
795.247	227.505
797.992	232.355
800.735	240.481
803.477	231.522
806.217	241.828
808.956	245.353
811.694	256.046
814.43	262.338
817.165	251.397
819.899	248.731
822.631	240.997
825.362	231.564
828.092	228.041
830.82	229.411
833.548	226.541
836.274	227.889
838.998	229.951
841.721	221.191
844.444	222.882
847.165	221.93
849.884	219.049
852.601	219.353
855.318	222.013
858.034	216.876
860.749	209.271
863.461	220.132
866.173	219.395
868.883	213.625
871.592	204.097
874.3	209.201
877.006	203.161
879.712	204.202
882.415	209.43
885.118	211.557
887.819	208.437
890.519	224.963
893.218	218.49
895.914	213.718
898.611	208.937
901.306	216.673
903.999	213.041
906.692	212.881
909.382	209.668
912.072	220.092
914.761	204.668
917.447	202.08
920.133	213.421
922.818	205.152
925.501	207.682
928.183	204.447
930.864	212.871
933.543	209.421
936.221	211.09
938.898	201.149
941.574	203.042
944.248	203.377
946.921	207.487
949.593	202.068
952.263	204.263
954.932	208.334
957.6	209.281
960.267	206.685
962.932	206.394
965.597	213.783
968.26	213.58
970.922	215.485
973.581	215.596
976.241	218.704
978.898	224.945
981.555	227.919
984.21	237.092
986.864	258.041
989.517	273.839
992.169	307.208
994.819	325.95
997.468	344.708
1000.12	377.493
1002.76	398.135
1005.41	419.142
1008.05	424.271
1010.69	419.573
1013.34	397.831
1015.98	356.046
1018.61	311.795
1021.25	271.685
1023.89	251.247
1026.52	229.241
1029.16	232.368
1031.79	224.85
1034.42	225.622
1037.05	226.775
1039.68	232.699
1042.31	229.283
1044.93	237.621
1047.56	243.586
1050.18	255.319
1052.81	252.187
1055.43	252.264
1058.05	247.526
1060.67	236.822
1063.28	238.113
1065.9	245.682
1068.52	247.714
1071.13	245.353
1073.74	256.659
1076.35	272.339
1078.96	281.505
1081.57	287.795
1084.18	296.202
1086.79	306.996
1089.39	311.912
1092	325.654
1094.6	319.11
1097.2	322.332
1099.8	316.476
1102.4	286.547
1105	287.392
1107.6	280.029
1110.19	276.666
1112.79	294.986
1115.38	293.999
1117.97	306.712
1120.56	307.451
1123.15	303.72
1125.74	289.786
1128.33	278.298
1130.91	270.796
1133.5	252.283
1136.08	249.137
1138.66	239.957
1141.24	236.403
1143.82	225.88
1146.4	235.443
1148.98	235.49
1151.55	242.165
1154.13	247.755
1156.7	244.487
1159.27	228.351
1161.85	222.949
1164.42	217.315
1166.98	217.453
1169.55	219.059
1172.12	215.838
1174.68	217.212
1177.25	215.292
1179.81	218.281
1182.37	212.663
1184.93	217.537
1187.49	200.485
1190.05	201.049
1192.6	202.986
1195.16	182.617
1197.71	193.415
1200.27	188.141
1202.82	187.269
1205.37	191.71
1207.92	189.861
1210.47	186.948
1213.01	183.794
1215.56	183.999
1218.1	187.155
1220.65	191.886
1223.19	188.989
1225.73	187.332
1228.27	187.107
1230.81	198.697
1233.35	194.881
1235.88	195.554
1238.42	200.757
1240.95	202.656
1243.48	187.69
1246.02	194.195
1248.55	192.464
1251.07	195.673
1253.6	199.481
1256.13	192.868
1258.66	194.492
1261.18	195.002
1263.7	197.16
1266.22	192.777
1268.75	200.045
1271.27	199.443
1273.78	196.449
1276.3	199.099
1278.82	199.834
1281.33	195.487
1283.85	208.199
1286.36	207.9
1288.87	206.182
1291.38	209.859
1293.89	206.755
1296.4	207.357
1298.9	206.382
1301.41	199.586
1303.91	195.329
1306.41	203.648
1308.92	195.47
1311.42	207.858
1313.92	205.562
1316.42	198.268
1318.91	202.896
1321.41	196.352
1323.9	198.372
1326.4	214.336
1328.89	213.047
1331.38	209.654
1333.87	212.522
1336.36	213.871
1338.85	210.421
1341.34	211.375
1343.82	211.221
1346.31	204.925
1348.79	202.696
1351.27	204.94
1353.75	208.625
1356.23	208.311
1358.71	206
1361.19	211.604
1363.66	228.595
1366.14	238.53
1368.61	232.269
1371.09	241.697
1373.56	247.631
1376.03	252.802
1378.5	259.634
1380.96	267.725
1383.43	266.562
1385.9	251.223
1388.36	242.926
1390.83	239.529
1393.29	220.808
1395.75	212.555
1398.21	205.053
1400.67	205.582
1403.13	193.394
1405.58	198.268
1408.04	190.571
1410.49	186.372
1412.95	196.188
1415.4	187.817
1417.85	188.334
1420.3	184.572
1422.75	184.038
1425.2	189.191
1427.64	187.851
1430.09	183.442
1432.53	179.48
1434.97	192.662
1437.42	188.229
1439.86	178.5
1442.3	181.859
1444.73	170.665
1447.17	171.751
1449.61	173.527
1452.04	174.185
1454.48	164.484
1456.91	173.623
1459.34	167.142
1461.77	165.663
1464.2	163.537
1466.63	161.697
1469.06	152.169
1471.48	163.749
1473.91	167.202
1476.33	169.808
1478.75	163.053
1481.17	159.011
1483.6	156.238
1486.01	153.834
1488.43	148.659
1490.85	146.13
1493.27	150.016
1495.68	143.188
1498.09	135.834
1500.51	142.239
1502.92	137.616
1505.33	143.422
1507.74	140.908
1510.14	142.897
1512.55	143.302
1514.96	141.431
1517.36	142.548
1519.77	141.858
1522.17	141.084
1524.57	141.056
1526.97	146.16
1529.37	141.097
1531.77	141.574
1534.16	146.989
1536.56	143.807
1538.95	148.017
1541.35	145.41
1543.74	142.798
1546.13	157.493
1548.52	153.666
1550.91	153.346
1553.3	154.553
1555.68	149.469
1558.07	151.625
1560.45	151.66
1562.84	151.543
1565.22	150.216
1567.6	153.178
1569.98	156.685
1572.36	161.425
1574.74	169.387
1577.12	171.827
1579.49	168.658
1581.87	155.542
1584.24	166.85
1586.61	163.943
1588.98	170.329
1591.35	155.204
1593.72	157.407
1596.09	149.74
1598.46	140.417
1600.82	146.119
1603.19	137.081
1605.55	135.601
1607.92	140.314
1610.28	132.906
1612.64	139.173
1615	135.406
1617.36	134.666
1619.71	133.299
1622.07	127.894
1624.42	127.101
1626.78	126.441
1629.13	133.038
1631.48	122.715
1633.83	120.498
1636.18	120.244
1638.53	128.009
1640.88	122.245
1643.22	121.589
1645.57	127.382
1647.91	125.158
1650.26	126.187
1652.6	117.728
1654.94	121.03
1657.28	118.878
1659.62	118.878
1661.96	123.027
1664.29	112.281
1666.63	116.161
1668.96	120.322
1671.3	117.181
1673.63	113.596
1675.96	116.336
1678.29	110.774
1680.62	113.565
1682.95	115.602
1685.27	114.693
1687.6	110.92
1689.92	110.157
1692.25	118.969
1694.57	110.842
1696.89	105.336
1699.21	109.157
1701.53	109.809
1703.85	110.482
1706.17	106.674
1708.48	105.847
1710.8	111.444
1713.11	107.407
1715.43	109.484
1717.74	107.169
1720.05	103.847
1722.36	105.132
1724.67	102.778
1726.97	107.503
1729.28	100.204
1731.59	102.392
1733.89	99.1934
1736.19	108.066
1738.5	97.4218
1740.8	103.922
1743.1	98.7178
1745.4	97.1137
1747.7	98.5935
1749.99	101.102
1752.29	94.2258
1754.58	95.4644
1756.88	93.6254
1759.17	98.6782
1761.46	98.3805
1763.75	100.847
1766.04	93.3461
1768.33	97.4475
1770.62	90.2631
1772.91	90.7489
1775.19	95.3645
1777.48	98.3978
1779.76	92.3959
1782.04	92.1201
1784.32	91.2161
1786.6	91.6037
1788.88	90.3531
1791.16	93.3844
1793.44	91.6037
1795.71	92.4854
1797.99	87.4786
1800.26	91.6942
1802.54	93.6394
1804.81	88.0645
1807.08	88.3359
1809.35	93.4405
1811.62	91.2104
1813.88	93.5468
1816.15	84.7463
1818.42	86.1083
1820.68	87.565
1822.95	91.7913
1825.21	91.8644
1827.47	89.0735
1829.73	85.7791
1831.99	87.3836
1834.25	89.016
1836.51	93.793
1838.76	86.3876
1841.02	85.8334
1843.27	85.775
1845.52	87.6383
1847.78	88.0342
1850.03	85.4156
1852.28	85.6064
1854.53	86.8556
1856.78	80.1566
1859.02	84.601
1861.27	88.3742
1863.51	84.4835
1865.76	85.1742
1868	86.6579
1870.24	78.3842
1872.48	85.0311
1874.72	81.3844
1876.96	78.2622
1879.2	82.3045
1881.44	79.9912
1883.67	83.601
1885.91	82.8187
1888.14	80.1502
1890.37	82.6712
1892.61	83.6863
1894.84	83.1939
1897.07	84.3227
1899.29	77.6624
1901.52	85.9279
1903.75	86.7775
1905.97	83.8719
1908.2	78.8934
1910.42	81.1604
1912.64	78.3842
1914.87	83.162
1917.09	78.4756
1919.31	78.3285
1921.52	80.0493
1923.74	74.5179
1925.96	73.3379
1928.17	78.3346
1930.39	78.8334
1932.6	75.3257
1934.81	73.8001
1937.03	77.3675
1939.24	77.2806
1941.45	79.2369
1943.65	73.8467
1945.86	74.0699
1948.07	76.4987
1950.27	72.9427
1952.48	74.4161
1954.68	78.9344
1956.88	70.9897
1959.08	75.0436
1961.29	78.3396
1963.48	76.8574
1965.68	77.1566
1967.88	71.7223
1970.08	76.7178
1972.27	75.1505
1974.47	75.2161
1976.66	75.0391
1978.85	74.2295
1981.04	73.1875
1983.23	71.2212
1985.42	78.8719
1987.61	71.6526
1989.8	68.3134
1991.99	75.4161
1994.17	69.2733
1996.36	70.571
1998.54	67.6561
2000.72	72.3893
2002.9	66.0753
2005.08	67.3772
2007.26	73.0197
2009.44	67.4451
2011.62	66.0626
2013.8	66.8968
2015.97	68.5329
2018.15	68.0375
2020.32	68.1977
2022.49	68.432
2024.66	65.94
2026.83	68.5028
2029	69.2704
2031.17	67.4143
2033.34	68.6176
2035.51	69.5268
2037.67	64.4326
2039.84	68.7287
2042	65.1566
2044.16	64.9578
2046.32	66.3857
2048.48	64.2733
2050.64	65.242
2052.8	63.9655
2054.96	60.0493
2057.12	67.1686
2059.27	58.2165
2061.43	62.0026
2063.58	60.2041
2065.73	61.3872
2067.89	61.9961
2070.04	61.2552
2072.19	62.6037
2074.34	59.0511
2076.48	62.8858
2078.63	59.94
2080.78	62.3959
2082.92	67.5562
2085.07	61.2973
2087.21	59.8512
2089.35	63.6549
2091.49	57.2715
2093.63	57.3227
2095.77	62.7533
2097.91	63.4926
2100.05	57.7401
2102.19	56.7121
2104.32	59.0841
2106.45	60.3227
2108.59	59.6394
2110.72	57.5179
2112.85	59.5946
2114.98	58.5283
2117.11	56.1206
2119.24	60.2219
2121.37	60.219
2123.5	58.2116
2125.62	59.1335
2127.75	57.8289
2129.87	58.9098
2131.99	57.3423
2134.11	59.1137
2136.24	56.4539
2138.36	59.7868
2140.47	59.0482
2142.59	54.0242
2144.71	58.827
2146.83	53.6227
2148.94	54.5452
2151.06	53.7495
2153.17	51.0557
2155.28	57.0436
2157.39	51.6263
2159.5	51.0266
2161.61	55.9382
2163.72	51.3273
2165.83	54.18
2167.94	49.0511
2170.04	55.951
2172.15	54.8512
2174.25	52.0409
2176.35	54.0493
2178.45	55.8316
2180.56	53.6978
2182.66	53.8556
2184.75	55.162
2186.85	51.7463
2188.95	53.275
2191.05	52.2052
2193.14	50.5752
2195.24	46.3107
2197.33	53.2292
2199.42	53.1005
2201.51	49.8542
2203.6	51.2085
2205.69	51.0941
2207.78	48.3778
2209.87	53.5696
2211.96	49.5001
2214.04	52.009
2216.13	52.3367
2218.21	50.2598
2220.29	51.1008
2222.38	58.826
2224.46	55.0753
2226.54	54.0342
2228.62	51.3061
2230.69	52.0455
2232.77	54.3815
2234.85	52.713
2236.92	51.9685
2239	47.5452
2241.07	50.0493
2243.15	48.2733
2245.22	49.6564
2247.29	47.3019
2249.36	44.0689
2251.43	46.725
2253.49	46.531
2255.56	47.1635
2257.63	49.0709
2259.69	45.7008
2261.76	49.9538
2263.82	48.1023
2265.88	48.6618
2267.95	46.7975
2270.01	49.1574
2272.07	45.5385
2274.12	48.0136
2276.18	44.7675
2278.24	44.8153
2280.3	42.2116
2282.35	41.3917
2284.41	41.8289
2286.46	44.7476
2288.51	42.4926
2290.56	41.009
2292.61	46.1678
2294.66	41.9427
2296.71	39.2101
2298.76	41.629
2300.8	39.6094
2302.85	41.2602
2304.9	42.0266
2306.94	40.9476
2308.98	44.4022
2311.03	45.4218
2313.07	43.2292
2315.11	41.4111
2317.15	41.1622
2319.19	39.8187
2321.22	41.1787
2323.26	40.6352
2325.3	40.531
2327.33	38.7735
2329.36	38.2085
2331.4	37.3257
2333.43	40.0524
2335.46	38.7607
2337.49	38.3032
2339.52	41.0778
2341.55	37.3815
2343.58	39.0778
2345.6	39.3227
2347.63	52.4786
2349.65	37.1649
2351.68	38.8153
2353.7	38.5071
2355.72	38.162
2357.74	37.6757
2359.76	38.1201
2361.78	37.812
2363.8	40.5227
2365.82	39.0493
2367.84	36.9958
2369.85	38.5449
2371.87	39.447
2373.88	38.6979
2375.9	39.1072
2377.91	37.014
2379.92	37.4472
2381.93	38.5241
2383.94	36.5583
2385.95	36.0493
2387.96	36.6094
2389.96	37.6819
2391.97	29.7445
2393.97	37.7671
2395.98	38.812
2397.98	36.0152
2399.98	32.7445
2401.98	36.0387
2403.99	34.8952
2405.99	32.8089
2407.98	35.5868
2409.98	38.122
2411.98	36.2101
2413.98	35.3872
2415.97	32.2631
2417.96	35.1035
2419.96	33.9667
2421.95	33.6693
2423.94	34.4835
2425.93	32.6736
2427.92	31.673
2429.91	31.7841
2431.9	33.1668
2433.89	29.1604
2435.87	30.2715
2437.86	30.6863
2439.84	31.5001
2441.83	32.2594
2443.81	31.7974
2445.79	29.8241
2447.77	28.9578
2449.75	34.2285
2451.73	32.4022
2453.71	33.94
2455.69	33.6131
2457.67	31.7607
2459.64	31.8601
2461.62	29.7505
2463.59	31.7159
2465.56	28.3345
2467.54	28.6182
2469.51	29.0072
2471.48	28.7653
2473.45	32.0493
2475.42	33.9894
2477.38	29.9515
2479.35	26.9325
2481.32	30.1556
2483.28	32.5625
2485.25	28.9382
2487.21	28.6186
2489.17	30.7445
2491.13	28.4357
2493.09	30.0538
2495.05	28.5468
2497.01	26.9755
2498.97	31.0941
2500.93	28.3675
2502.89	27.7356
2504.84	28.5779
2506.8	27.7205
2508.75	26.3872
2510.7	27.4066
2512.65	27.2733
2514.61	26.8104
2516.56	30.8353
2518.51	27.2658
2520.45	27.3646
2522.4	26.3163
2524.35	26.6545
2526.29	27.1604
2528.24	29.6739
2530.18	26.8316
2532.13	29.4086
2534.07	30.6067
2536.01	25.7671
2537.95	27.983
2539.89	26.2052
2541.83	27.4835
2543.77	26.4097
2545.71	26.6067
2547.64	24.2248
2549.58	30.182
2551.51	27.3227
2553.45	24.8752
2555.38	24.1889
2557.31	29.9912
2559.25	27.8289
2561.18	29.0538
2563.11	24.6232
2565.03	27.1023
2566.96	24.0538
2568.89	26.2248
2570.82	28.0751
2572.74	29.2249
2574.67	25.2165
2576.59	26.4357
2578.51	25.3826
2580.43	26.1502
2582.36	26.9068
2584.28	24.983
2586.2	25.3406
2588.11	25.3273
2590.03	28.1123
2591.95	30.2358
2593.86	26.2525
2595.78	24.2715
2597.69	21.3826
2599.61	24.1604
2601.52	22.3872
2603.43	23.1054
2605.34	24.8334
2607.25	25.7653
2609.16	24.8316
2611.07	22.5992
2612.98	26.3826
2614.89	26.0986
2616.79	22.9382
2618.7	27.6579
2620.6	25.7008
2622.5	25.432
2624.41	23.1622
2626.31	25.1378
2628.21	26.9086
2630.11	23.4156
2632.01	24.8512
2633.91	27.2613
2635.8	26.7054
2637.7	24.9427
2639.6	28.0941
2641.49	28.6394
2643.39	28.1737
2645.28	32.0941
2647.17	35.6067
2649.06	33.0493
2650.95	33.2134
2652.84	28.3396
2654.73	28.6394
2656.62	27.7645
2658.51	26.9382
2660.4	24.6496
2662.28	30.0342
2664.17	29.18
2666.05	26.5582
2667.93	28.0626
2669.82	37.0436
2671.7	49.1566
2673.58	68.5625
2675.46	85.5513
2677.34	87.1226
2679.21	74.1157
2681.09	54.9092
2682.97	50.1453
2684.84	43.4786
2686.72	40.3645
2688.59	46.5378
2690.47	65.6863
2692.34	88.7463
2694.21	238.762
2696.08	299.734
2697.95	270.722
2699.82	183.114
2701.69	94.1005
2703.56	65.5569
2705.42	64.3733
2707.29	40.3778
2709.15	38.1593
2711.02	29.7463
2712.88	26.2312
2714.75	28.2715
2716.61	24.3163
2718.47	27.7248
2720.33	24.94
2722.19	28.0796
2724.05	24.8289
2725.9	23.0689
2727.76	27.3403
2729.62	25.1604
2731.47	24.785
2733.33	23.8512
2735.18	19.8783
2737.03	23.4507
2738.88	21.9382
2740.73	21.5946
2742.59	21.1783
2744.43	21.3826
2746.28	23.4786
2748.13	18.0689
2749.98	19.1649
2751.82	15.4956
2753.67	19.8662
2755.51	22.9671
2757.36	22.9086
2759.2	19.3227
2761.04	19.2867
2762.88	18.0866
