365.286	485.465
368.238	494.197
371.189	498.45
374.139	511.381
377.087	523.666
380.034	517.672
382.979	520.197
385.923	499.492
388.866	493.038
391.806	495.047
394.745	481.101
397.684	494.752
400.62	498.845
403.555	515.202
406.49	510.931
409.421	524.71
412.353	532.592
415.282	538.063
418.209	540.02
421.137	561.945
424.062	577.001
426.985	604.598
429.908	615.864
432.829	610.814
435.748	602.338
438.666	582.294
441.583	587.559
444.498	586.116
447.412	568.54
450.324	541.184
453.235	515.736
456.145	496.308
459.052	465.969
461.959	458.863
464.865	451.017
467.769	428.53
470.671	422.8
473.572	417.433
476.471	406.906
479.37	414.372
482.266	419.117
485.162	419.292
488.056	399.801
490.948	420.196
493.839	414.777
496.73	410.021
499.618	415.845
502.505	408.913
505.39	409.81
508.275	412.791
511.157	412.913
514.039	414.968
516.919	423.457
519.798	410.167
522.674	415.64
525.55	414.834
528.425	407.993
531.297	398.796
534.169	382.77
537.039	383.011
539.908	388.24
542.775	379.041
545.642	375.868
548.506	382.258
551.369	368.979
554.231	373.887
557.092	387.834
559.951	375.096
562.808	381.883
565.664	386.541
568.519	380.772
571.373	384.553
574.225	386.974
577.076	386.373
579.925	385.419
582.773	384.485
585.62	375.275
588.466	367.167
591.309	382.036
594.152	371.573
596.993	368.197
599.832	385.949
602.671	372.863
605.508	376.857
608.343	377.239
611.178	380.08
614.011	376.191
616.842	369.406
619.672	381.159
622.501	394.086
625.329	413.734
628.155	415.826
630.98	440.043
633.802	436.926
636.624	426.236
639.445	412.691
642.264	410.899
645.082	404.014
647.898	409.86
650.714	430.597
653.527	451.573
656.34	467.279
659.151	478.08
661.961	460.68
664.769	447.818
667.576	434.445
670.382	454.086
673.186	474.999
675.989	457.773
678.791	412.795
681.591	390.679
684.39	374.017
687.187	378.351
689.983	381.061
692.779	385.834
695.572	380.734
698.363	396.279
701.155	382.956
703.944	384.257
706.733	373.145
709.519	386.753
712.305	394.443
715.089	388.752
717.871	392.998
720.653	396.505
723.433	387.485
726.212	390.683
728.989	386.554
731.765	374.906
734.54	375.622
737.313	375.02
740.085	387.851
742.856	385.09
745.625	387.24
748.394	375.756
751.16	387.956
753.926	389.37
756.689	386.64
759.452	387.477
762.214	407.148
764.974	418.814
767.733	411.757
770.49	417.979
773.246	407.417
776.001	415.668
778.755	410.021
781.507	405.178
784.258	403.439
787.007	414.77
789.756	409.544
792.502	416.55
795.247	418.548
797.992	414.122
800.735	421.71
803.477	412.822
806.217	425.906
808.956	429.394
811.694	444.418
814.43	455.147
817.165	433.034
819.899	428.988
822.631	421.417
825.362	402.877
828.092	382.372
830.82	390.837
833.548	398.396
836.274	387.099
838.998	415.178
841.721	421.215
844.444	409.802
847.165	400.133
849.884	393.333
852.601	392.685
855.318	381.501
858.034	369.834
860.749	370.375
863.461	362.24
866.173	370.172
868.883	366.488
871.592	369.042
874.3	361.768
877.006	358.524
879.712	358.655
882.415	361.309
885.118	354.038
887.819	367.702
890.519	372.839
893.218	372.433
895.914	376.301
898.611	374.065
901.306	385.593
903.999	394.038
906.692	422.038
909.382	401.555
912.072	400.223
914.761	370.975
917.447	372.279
920.133	368.501
922.818	360.617
925.501	369.433
928.183	354.107
930.864	362.544
933.543	356.295
936.221	358.906
938.898	363.905
941.574	369.573
944.248	369.709
946.921	373.646
949.593	377.751
952.263	356.524
954.932	348.678
957.6	364.444
960.267	366.753
962.932	361.723
965.597	364.815
968.26	372.93
970.922	379.413
973.581	377.528
976.241	386.9
978.898	415.526
981.555	442.896
984.21	490.631
986.864	540.617
989.517	591.789
992.169	656.309
994.819	706.501
997.468	767.307
1000.12	820.043
1002.76	883.086
1005.41	889.728
1008.05	915.612
1010.69	877.962
1013.34	797.289
1015.98	667.433
1018.61	560.617
1021.25	486.172
1023.89	435.723
1026.52	412.168
1029.16	409.702
1031.79	401.129
1034.42	423.133
1037.05	418.507
1039.68	412.044
1042.31	431.888
1044.93	469.979
1047.56	496.418
1050.18	496.929
1052.81	478.116
1055.43	452.456
1058.05	442.08
1060.67	413.24
1063.28	415.46
1065.9	409.689
1068.52	402.704
1071.13	420.815
1073.74	434.862
1076.35	449.116
1078.96	481.285
1081.57	489.772
1084.18	482.839
1086.79	500.322
1089.39	487.834
1092	479.617
1094.6	490.975
1097.2	481.945
1099.8	464.839
1102.4	474.678
1105	465.766
1107.6	477.456
1110.19	507.845
1112.79	512.708
1115.38	535.153
1117.97	546.217
1120.56	521.313
1123.15	500.891
1125.74	484.894
1128.33	469.351
1130.91	453.548
1133.5	438.331
1136.08	436.331
1138.66	420.598
1141.24	411.574
1143.82	413.28
1146.4	415.283
1148.98	418.751
1151.55	429.839
1154.13	422.217
1156.7	421.24
1159.27	412.745
1161.85	403.919
1164.42	407.689
1166.98	404.708
1169.55	394.345
1172.12	387.906
1174.68	386.129
1177.25	384.481
1179.81	370.789
1182.37	374.167
1184.93	376.524
1187.49	371.458
1190.05	374.355
1192.6	372.907
1195.16	375.598
1197.71	362.81
1200.27	360.678
1202.82	349.945
1205.37	358.683
1207.92	355.529
1210.47	347.461
1213.01	357.634
1215.56	372.073
1218.1	373.813
1220.65	375.796
1223.19	379.39
1225.73	385.01
1228.27	385.678
1230.81	396.834
1233.35	389.285
1235.88	385.347
1238.42	373.908
1240.95	376.592
1243.48	371.789
1246.02	365.586
1248.55	367.458
1251.07	367.969
1253.6	361.208
1256.13	365.167
1258.66	354.129
1261.18	359.191
1263.7	364.529
1266.22	366.907
1268.75	369.306
1271.27	374.056
1273.78	380.013
1276.3	366.142
1278.82	378.723
1281.33	375.911
1283.85	374.105
1286.36	371.795
1288.87	376.678
1291.38	386.257
1293.89	382.899
1296.4	385.423
1298.9	382.924
1301.41	391.762
1303.91	384.285
1306.41	376.215
1308.92	369.994
1311.42	383.21
1313.92	388.153
1316.42	380.505
1318.91	375.907
1321.41	371.063
1323.9	360.373
1326.4	367.462
1328.89	368.06
1331.38	360.09
1333.87	369.685
1336.36	372.481
1338.85	364.684
1341.34	370.292
1343.82	370.132
1346.31	369.683
1348.79	374.814
1351.27	372.191
1353.75	382.813
1356.23	400.813
1358.71	381.924
1361.19	389.703
1363.66	409.109
1366.14	411.505
1368.61	415.968
1371.09	443.067
1373.56	450.752
1376.03	474.364
1378.5	465.123
1380.96	464.665
1383.43	475.37
1385.9	455.746
1388.36	441.152
1390.83	427.555
1393.29	391.635
1395.75	373.147
1398.21	367.451
1400.67	358.546
1403.13	343.974
1405.58	343.036
1408.04	345.344
1410.49	329.196
1412.95	333.084
1415.4	354.122
1417.85	336.557
1420.3	339.771
1422.75	345.77
1425.2	357.861
1427.64	354.465
1430.09	364.592
1432.53	351.197
1434.97	358.468
1437.42	348.175
1439.86	340.689
1442.3	340.424
1444.73	327.667
1447.17	322.269
1449.61	321.757
1452.04	317.557
1454.48	320.157
1456.91	309.197
1459.34	310.677
1461.77	315.577
1464.2	318.197
1466.63	323.29
1469.06	327.629
1471.48	321.266
1473.91	319.484
1476.33	313.332
1478.75	307.464
1481.17	292.412
1483.6	299.511
1486.01	294.75
1488.43	286.124
1490.85	277.06
1493.27	280.512
1495.68	281.68
1498.09	288.612
1500.51	282.461
1502.92	276.263
1505.33	275.868
1507.74	260.901
1510.14	276.451
1512.55	282.085
1514.96	278.477
1517.36	284.073
1519.77	278.556
1522.17	289.722
1524.57	287.411
1526.97	296.418
1529.37	303.352
1531.77	305.227
1534.16	304.158
1536.56	309.85
1538.95	310.912
1541.35	304.374
1543.74	310.146
1546.13	319.616
1548.52	323.287
1550.91	324.61
1553.3	318.583
1555.68	316.83
1558.07	301.364
1560.45	303.831
1562.84	301.03
1565.22	325.768
1567.6	329.257
1569.98	324.985
1572.36	335.59
1574.74	348.881
1577.12	350.457
1579.49	340.594
1581.87	328.694
1584.24	331.824
1586.61	313.92
1588.98	309.584
1591.35	322.479
1593.72	309.901
1596.09	309.189
1598.46	309.173
1600.82	305.096
1603.19	297.789
1605.55	282.919
1607.92	270.598
1610.28	263.264
1612.64	261.268
1615	257.155
1617.36	247.837
1619.71	251.269
1622.07	250.74
1624.42	241.139
1626.78	233.072
1629.13	239.23
1631.48	234.207
1633.83	232.186
1636.18	230.965
1638.53	229.535
1640.88	226.303
1643.22	229.487
1645.57	225.919
1647.91	226.556
1650.26	225.347
1652.6	224.553
1654.94	218.347
1657.28	222.208
1659.62	224.298
1661.96	223.036
1664.29	212.713
1666.63	214.919
1668.96	216.399
1671.3	213.114
1673.63	216.447
1675.96	207.54
1678.29	213.975
1680.62	202.514
1682.95	206.429
1685.27	200.88
1687.6	209.39
1689.92	203.207
1692.25	201.472
1694.57	196.536
1696.89	204.346
1699.21	197.892
1701.53	204.568
1703.85	195.51
1706.17	202.273
1708.48	201.07
1710.8	199.919
1713.11	199.164
1715.43	193.474
1717.74	195.936
1720.05	183.057
1722.36	182.324
1724.67	184.579
1726.97	191.763
1729.28	189.014
1731.59	187.763
1733.89	184.078
1736.19	188.39
1738.5	179.606
1740.8	181.341
1743.1	186.384
1745.4	177.023
1747.7	185.275
1749.99	175.57
1752.29	172.432
1754.58	183.409
1756.88	169.694
1759.17	167.028
1761.46	177.076
1763.75	178.324
1766.04	172.347
1768.33	175.236
1770.62	172.459
1772.91	167.275
1775.19	175.946
1777.48	174.536
1779.76	175.213
1782.04	169.225
1784.32	168.047
1786.6	164.849
1788.88	174.929
1791.16	168.168
1793.44	175.103
1795.71	164.739
1797.99	168.696
1800.26	168.861
1802.54	162.769
1804.81	169.188
1807.08	168.965
1809.35	170.608
1811.62	170.219
1813.88	163.275
1816.15	171.403
1818.42	170.184
1820.68	160.245
1822.95	162.563
1825.21	165.965
1827.47	164.236
1829.73	159.965
1831.99	162.892
1834.25	160.227
1836.51	163.445
1838.76	159.39
1841.02	159.141
1843.27	160.134
1845.52	155.843
1847.78	159.609
1850.03	152.425
1852.28	160.672
1854.53	157.096
1856.78	159.287
1859.02	151.602
1861.27	156.854
1863.51	148.003
1865.76	153.409
1868	154.318
1870.24	147.341
1872.48	158.177
1874.72	152.386
1876.96	146.801
1879.2	149.236
1881.44	151.744
1883.67	149.318
1885.91	151.322
1888.14	144.763
1890.37	145.848
1892.61	152.269
1894.84	153.046
1897.07	145.19
1899.29	144.696
1901.52	147.769
1903.75	159.474
1905.97	145.324
1908.2	147.627
1910.42	142.732
1912.64	143.916
1914.87	143.874
1917.09	153.43
1919.31	144.651
1921.52	142.341
1923.74	140.602
1925.96	145.896
1928.17	147.223
1930.39	146.011
1932.6	144.546
1934.81	142.536
1937.03	140.583
1939.24	146.612
1941.45	137.991
1943.65	138.19
1945.86	140.743
1948.07	137.32
1950.27	135.775
1952.48	140.624
1954.68	126.341
1956.88	137.18
1959.08	139.07
1961.29	126.651
1963.48	135.961
1965.68	127.719
1967.88	127.184
1970.08	133.563
1972.27	131.25
1974.47	129.812
1976.66	131.409
1978.85	131.936
1981.04	126.565
1983.23	126.052
1985.42	131.236
1987.61	128.299
1989.8	124.98
1991.99	127.181
1994.17	127.585
1996.36	132.014
1998.54	132.341
2000.72	127.125
2002.9	123.83
2005.08	122.739
2007.26	125.824
2009.44	121.095
2011.62	123.187
2013.8	123.479
2015.97	120.764
2018.15	119.501
2020.32	118.57
2022.49	120.651
2024.66	127.829
2026.83	126.891
2029	119.955
2031.17	120.294
2033.34	117.007
2035.51	119.273
2037.67	119.089
2039.84	125.57
2042	124.115
2044.16	121.743
2046.32	117.246
2048.48	113.83
2050.64	121.427
2052.8	117.917
2054.96	109.491
2057.12	114.514
2059.27	110.207
2061.43	113.651
2063.58	112.23
2065.73	116.606
2067.89	113.102
2070.04	114.903
2072.19	112.405
2074.34	116.453
2076.48	115.985
2078.63	113.892
2080.78	113.435
2082.92	110.855
2085.07	113.076
2087.21	113.279
2089.35	115.613
2091.49	108.965
2093.63	115.96
2095.77	112.967
2097.91	112.83
2100.05	115.897
2102.19	111.781
2104.32	114.941
2106.45	114.742
2108.59	110.341
2110.72	106.853
2112.85	109.145
2114.98	110.177
2117.11	107.19
2119.24	105.608
2121.37	108.102
2123.5	109.008
2125.62	99.9588
2127.75	106.917
2129.87	113.288
2131.99	105.096
2134.11	104.717
2136.24	106.965
2138.36	103.158
2140.47	105.967
2142.59	105.85
2144.71	99.8672
2146.83	102.39
2148.94	103.279
2151.06	105.288
2153.17	103.423
2155.28	105.758
2157.39	103.386
2159.5	105.628
2161.61	106.67
2163.72	101.446
2165.83	105.536
2167.94	104.501
2170.04	101.668
2172.15	97.6314
2174.25	103.701
2176.35	104.563
2178.45	101.115
2180.56	105.051
2182.66	100.69
2184.75	98.2259
2186.85	96.8966
2188.95	96.1576
2191.05	103.497
2193.14	103.941
2195.24	98.1188
2197.33	97.6016
2199.42	99.5586
2201.51	106.07
2203.6	99.2193
2205.69	104.919
2207.78	98.1425
2209.87	96.7193
2211.96	95.6254
2214.04	96.7237
2216.13	98.8238
2218.21	101.54
2220.29	99.8012
2222.38	103.737
2224.46	102.608
2226.54	97.3161
2228.62	90.6515
2230.69	98.1389
2232.77	95.3351
2234.85	92.3793
2236.92	92.2985
2239	94.2065
2241.07	93.8289
2243.15	92.3474
2245.22	91.2748
2247.29	92.2994
2249.36	87.7561
2251.43	86.6314
2253.49	88.8289
2255.56	92.4287
2257.63	92.3904
2259.69	88.4956
2261.76	93.6684
2263.82	88.1144
2265.88	89.1456
2267.95	88.1128
2270.01	89.8776
2272.07	91.4953
2274.12	85.0973
2276.18	92.0033
2278.24	87.6744
2280.3	85.6126
2282.35	90.341
2284.41	89.0511
2286.46	90.0033
2288.51	86.6067
2290.56	86.1389
2292.61	79.762
2294.66	85.781
2296.71	88.4477
2298.76	87.6755
2300.8	85.207
2302.85	77.9167
2304.9	86.2109
2306.94	79.4477
2308.98	84.8966
2311.03	82.5339
2313.07	85.1252
2315.11	79.0571
2317.15	82.0571
2319.19	83.0954
2321.22	76.6509
2323.26	83.7665
2325.3	83.5339
2327.33	83.5633
2329.36	84.7866
2331.4	77.5015
2333.43	76.8992
2335.46	79.7919
2337.49	77.7665
2339.52	78.3351
2341.55	84.4192
2343.58	79.341
2345.6	80.5347
2347.63	87.4332
2349.65	75.9353
2351.68	76.8862
2353.7	72.9413
2355.72	76.2667
2357.74	71.4909
2359.76	77.168
2361.78	73.9908
2363.8	74.903
2365.82	73.0467
2367.84	76.4971
2369.85	71.5633
2371.87	73.9167
2373.88	73.6699
2375.9	71.25
2377.91	71.386
2379.92	73.2793
2381.93	72.5599
2383.94	70.7855
2385.95	70.5789
2387.96	74.6509
2389.96	74.7855
2391.97	69.7561
2393.97	70.8932
2395.98	69.7012
2397.98	70.0699
2399.98	72.1693
2401.98	72.3474
2403.99	70.5339
2405.99	67.5637
2407.98	70.7436
2409.98	71.4521
2411.98	64.9647
2413.98	69.2299
2415.97	67.1128
2417.96	66.6022
2419.96	66.0526
2421.95	67.8115
2423.94	68.5588
2425.93	71.38
2427.92	66.8932
2429.91	62.2995
2431.9	63.5398
2433.89	68.0141
2435.87	67.7919
2437.86	65.4417
2439.84	67.5203
2441.83	69.1682
2443.81	65.6808
2445.79	68.8346
2447.77	63.4521
2449.75	65.0511
2451.73	63.6554
2453.71	62.3116
2455.69	64.9783
2457.67	67.946
2459.64	66.7665
2461.62	66.0699
2463.59	56.781
2465.56	63.1188
2467.54	64.9036
2469.51	64.6509
2471.48	62.3857
2473.45	62.781
2475.42	66.205
2477.38	61.2005
2479.35	62.2748
2481.32	63.1128
2483.28	68.1144
2485.25	59.8732
2487.21	62.3904
2489.17	59.9349
2491.13	63.3793
2493.09	61.4521
2495.05	61.9973
2497.01	62.2065
2498.97	59.1682
2500.93	61.3904
2502.89	63.0445
2504.84	54.2793
2506.8	58.9887
2508.75	59.4287
2510.7	58.2109
2512.65	55.4956
2514.61	62.341
2516.56	60.7178
2518.51	56.5633
2520.45	58.4971
2522.4	59.6126
2524.35	61.7237
2526.29	57.9843
2528.24	58.2793
2530.18	55.2733
2532.13	54.1622
2534.07	55.0939
2536.01	55.6697
2537.95	59.38
2539.89	56.946
2541.83	54.6328
2543.77	59.7751
2545.71	58.2363
2547.64	54.1682
2549.58	54.3161
2551.51	52.5015
2553.45	50.2065
2555.38	56.2748
2557.31	54.6944
2559.25	54.4106
2561.18	51.6554
2563.11	56.7178
2565.03	52.2793
2566.96	52.4956
2568.89	54.4462
2570.82	54.8672
2572.74	54.4287
2574.67	50.8966
2576.59	56.4971
2578.51	53.5856
2580.43	50.5825
2582.36	52.4956
2584.28	54.3176
2586.2	47.2005
2588.11	51.7178
2590.03	49.0077
2591.95	54.4956
2593.86	54.2689
2595.78	51.6126
2597.69	53.8732
2599.61	51.4685
2601.52	50.341
2603.43	49.5015
2605.34	51.6067
2607.25	51.1637
2609.16	52.386
2611.07	48.7855
2612.98	50.3161
2614.89	49.0571
2616.79	45.6126
2618.7	49.6022
2620.6	51.0903
2622.5	52.9415
2624.41	52.7012
2626.31	52.1456
2628.21	49.0241
2630.11	49.2689
2632.01	52.5841
2633.91	49.5398
2635.8	49.2733
2637.7	47.2508
2639.6	50.4287
2641.49	48.6022
2643.39	50.7237
2645.28	59.5633
2647.17	59.8304
2649.06	58.6554
2650.95	53.1682
2652.84	55.4956
2654.73	54.1144
2656.62	52.6126
2658.51	54.6126
2660.4	52.0728
2662.28	50.8732
2664.17	52.5633
2666.05	51.3116
2667.93	54.6126
2669.82	59.5015
2671.7	70.8289
2673.58	92.5841
2675.46	101.724
2677.34	107.384
2679.21	90.7629
2681.09	76.2935
2682.97	71.5015
2684.84	63.3842
2686.72	61.2793
2688.59	69.3678
2690.47	86.2508
2692.34	114.874
2694.21	248.1
2696.08	284.348
2697.95	251.878
2699.82	189.812
2701.69	111.051
2703.56	78.5143
2705.42	79.1456
2707.29	63.8289
2709.15	56.8304
2711.02	54.9557
2712.88	46.479
2714.75	49.5794
2716.61	48.8289
2718.47	45.7237
2720.33	45.4477
2722.19	47.0285
2724.05	45.9349
2725.9	46.4956
2727.76	44.2065
2729.62	45.9174
2731.47	45.7439
2733.33	47.3626
2735.18	44.9661
2737.03	46.1578
2738.88	47.0345
2740.73	43.946
2742.59	41.386
2744.43	42.3634
2746.28	42.4956
2748.13	45.1682
2749.98	41.9234
2751.82	39.0894
2753.67	43.3574
2755.51	40.0571
2757.36	42.3904
2759.2	42.0894
2761.04	41.0998
2762.88	41.6126
