365.286	269.22
368.238	275.744
371.189	281.852
374.139	288.489
377.087	304.98
380.034	311.699
382.979	300.759
385.923	285.018
388.866	277.254
391.806	277.541
394.745	271.642
397.684	274.778
400.62	278.01
403.555	278.488
406.49	287.186
409.421	285.849
412.353	286.777
415.282	293.254
418.209	292.161
421.137	297.953
424.062	302.399
426.985	320.014
429.908	326.992
432.829	345.462
435.748	334.679
438.666	337.836
441.583	310.037
444.498	295.298
447.412	294.912
450.324	271.272
453.235	277.293
456.145	277.28
459.052	279.36
461.959	269.228
464.865	254.312
467.769	242.317
470.671	247.502
473.572	231.41
476.471	245.789
479.37	245.775
482.266	245.791
485.162	241.743
488.056	241.618
490.948	239.365
493.839	240.6
496.73	250.502
499.618	246.274
502.505	240.156
505.39	250.161
508.275	247.703
511.157	242.203
514.039	248.378
516.919	252.92
519.798	252.391
522.674	249.252
525.55	233.496
528.425	234.657
531.297	227.788
534.169	229.509
537.039	215.679
539.908	222.253
542.775	219.149
545.642	229.849
548.506	219.555
551.369	228.741
554.231	237.619
557.092	222.588
559.951	221.978
562.808	224.272
565.664	220.045
568.519	219.822
571.373	221.836
574.225	219.627
577.076	223.942
579.925	220.175
582.773	230.725
585.62	219.408
588.466	219.796
591.309	219.94
594.152	218.385
596.993	213.71
599.832	219.684
602.671	218.116
605.508	212.79
608.343	213.698
611.178	216.741
614.011	219.222
616.842	221.359
619.672	231.451
622.501	227.333
625.329	233.687
628.155	230.17
630.98	233.104
633.802	248.959
636.624	243.444
639.445	234.377
642.264	233.693
645.082	230.149
647.898	232.181
650.714	256.468
653.527	259.058
656.34	271.241
659.151	267.209
661.961	249.254
664.769	234.231
667.576	230.568
670.382	226.855
673.186	217.823
675.989	222.384
678.791	207.952
681.591	205.725
684.39	208.627
687.187	206.177
689.983	217.999
692.779	214.272
695.572	219.189
698.363	220.431
701.155	211.606
703.944	212.042
706.733	211.856
709.519	206.934
712.305	224.092
715.089	216.64
717.871	218.36
720.653	217.898
723.433	215.358
726.212	211.117
728.989	208.672
731.765	209.255
734.54	207.469
737.313	213.457
740.085	206.854
742.856	210.849
745.625	205.937
748.394	214.316
751.16	214.529
753.926	208.739
756.689	218.095
759.452	220.208
762.214	219.219
764.974	228.195
767.733	220.389
770.49	221.201
773.246	214.529
776.001	213.665
778.755	225.594
781.507	214.822
784.258	215.836
787.007	221.207
789.756	223.41
792.502	223.494
795.247	224.79
797.992	225.534
800.735	230.347
803.477	240.796
806.217	235.222
808.956	233.764
811.694	240.958
814.43	250.076
817.165	248.457
819.899	233.627
822.631	230.673
825.362	222.992
828.092	224.607
830.82	219.156
833.548	221.543
836.274	217.455
838.998	230.693
841.721	226.643
844.444	230.135
847.165	220.444
849.884	217.371
852.601	217.955
855.318	217.117
858.034	214.603
860.749	203.14
863.461	205.576
866.173	194.312
868.883	202.888
871.592	208.116
874.3	197.404
877.006	197.17
879.712	193.365
882.415	198.661
885.118	192.332
887.819	194.112
890.519	199.548
893.218	200.444
895.914	193.194
898.611	203.023
901.306	193.725
903.999	198.363
906.692	203.167
909.382	188.926
912.072	191.535
914.761	194.967
917.447	196.934
920.133	187.093
922.818	185.891
925.501	188.762
928.183	183.759
930.864	184.953
933.543	201.554
936.221	188.039
938.898	190.389
941.574	190.326
944.248	185.913
946.921	187.377
949.593	185.913
952.263	188.761
954.932	186.541
957.6	186.234
960.267	195.225
962.932	195.828
965.597	204.561
968.26	198.292
970.922	202.457
973.581	223.836
976.241	221.854
978.898	234.436
981.555	243.685
984.21	247.73
986.864	274.789
989.517	304.457
992.169	322.992
994.819	346.509
997.468	373.634
1000.12	416.579
1002.76	446.149
1005.41	468.933
1008.05	489.884
1010.69	474.485
1013.34	444.647
1015.98	368.688
1018.61	310.889
1021.25	260.876
1023.89	237.807
1026.52	208.313
1029.16	207.651
1031.79	216.039
1034.42	212.501
1037.05	218.71
1039.68	217.067
1042.31	219.96
1044.93	233.519
1047.56	257.888
1050.18	265.476
1052.81	261.011
1055.43	243.065
1058.05	236.407
1060.67	220.267
1063.28	218.823
1065.9	220.488
1068.52	217.246
1071.13	227.952
1073.74	233.351
1076.35	244.706
1078.96	239.894
1081.57	258.751
1084.18	257.168
1086.79	262.51
1089.39	261.83
1092	265.534
1094.6	265.202
1097.2	263.425
1099.8	256.378
1102.4	254.116
1105	245.788
1107.6	246.377
1110.19	250.319
1112.79	258.065
1115.38	268.044
1117.97	277.441
1120.56	257.222
1123.15	261.456
1125.74	253.508
1128.33	241.842
1130.91	236.807
1133.5	223.983
1136.08	222.405
1138.66	216.933
1141.24	219.096
1143.82	219.214
1146.4	219.632
1148.98	221.429
1151.55	216.555
1154.13	214.898
1156.7	220.672
1159.27	215.378
1161.85	209.523
1164.42	216.031
1166.98	196.869
1169.55	204.633
1172.12	212.558
1174.68	206.594
1177.25	197.381
1179.81	197.059
1182.37	191.392
1184.93	191.646
1187.49	195.961
1190.05	183.314
1192.6	189.683
1195.16	179.468
1197.71	185.156
1200.27	183.5
1202.82	186.934
1205.37	174.155
1207.92	181.85
1210.47	181.424
1213.01	184.423
1215.56	176.651
1218.1	175.685
1220.65	184.243
1223.19	183.868
1225.73	186.95
1228.27	185.939
1230.81	183.862
1233.35	188.104
1235.88	189.487
1238.42	188.219
1240.95	186.135
1243.48	189.992
1246.02	187.954
1248.55	191.979
1251.07	192.867
1253.6	191.762
1256.13	180.913
1258.66	191.934
1261.18	189.77
1263.7	176.738
1266.22	182.695
1268.75	186.376
1271.27	186.586
1273.78	176.834
1276.3	194.389
1278.82	189.835
1281.33	186.788
1283.85	192.653
1286.36	189.934
1288.87	194.614
1291.38	192.102
1293.89	189.488
1296.4	192.541
1298.9	194.345
1301.41	193.999
1303.91	189.902
1306.41	194.39
1308.92	188.439
1311.42	188.418
1313.92	190.934
1316.42	194.121
1318.91	186.691
1321.41	189.438
1323.9	192.211
1326.4	188.991
1328.89	202.722
1331.38	197.332
1333.87	197.741
1336.36	191.736
1338.85	196.012
1341.34	184.174
1343.82	192.627
1346.31	197.82
1348.79	189.555
1351.27	190.156
1353.75	194.534
1356.23	200.213
1358.71	201.506
1361.19	210.776
1363.66	218.05
1366.14	208.325
1368.61	215.868
1371.09	225.561
1373.56	237.467
1376.03	249.6
1378.5	249.973
1380.96	253.299
1383.43	256.748
1385.9	240.773
1388.36	235.909
1390.83	222.843
1393.29	213.67
1395.75	200.267
1398.21	187.696
1400.67	179.823
1403.13	188.519
1405.58	182.223
1408.04	176.685
1410.49	168.62
1412.95	181.005
1415.4	172.259
1417.85	175.94
1420.3	177.004
1422.75	171.741
1425.2	178.808
1427.64	175.003
1430.09	182.847
1432.53	180.892
1434.97	179.68
1437.42	181.013
1439.86	179.202
1442.3	174.756
1444.73	169.544
1447.17	159.614
1449.61	157.271
1452.04	161.8
1454.48	160.38
1456.91	160.415
1459.34	159.472
1461.77	159.155
1464.2	153.344
1466.63	158.071
1469.06	155.616
1471.48	159.58
1473.91	157.28
1476.33	153.469
1478.75	138.482
1481.17	154.468
1483.6	153.557
1486.01	143.126
1488.43	147.643
1490.85	148.65
1493.27	141.639
1495.68	140.834
1498.09	132.877
1500.51	141.854
1502.92	137.898
1505.33	136.24
1507.74	136.067
1510.14	142.664
1512.55	136.625
1514.96	144.345
1517.36	136.856
1519.77	132.069
1522.17	139.508
1524.57	138.847
1526.97	137.247
1529.37	142.847
1531.77	142.132
1534.16	140.953
1536.56	142.993
1538.95	147.221
1541.35	139.976
1543.74	145.299
1546.13	154.6
1548.52	146.331
1550.91	151.97
1553.3	154.783
1555.68	153.196
1558.07	147.782
1560.45	153.124
1562.84	150.893
1565.22	148.463
1567.6	162.952
1569.98	166.241
1572.36	165.11
1574.74	173.082
1577.12	167.508
1579.49	168.588
1581.87	158.209
1584.24	162.357
1586.61	156.363
1588.98	152.16
1591.35	151.123
1593.72	151.243
1596.09	150.787
1598.46	138.746
1600.82	138.514
1603.19	138.697
1605.55	142.148
1607.92	131.353
1610.28	128.568
1612.64	128.115
1615	128.52
1617.36	126.697
1619.71	125.371
1622.07	126.32
1624.42	123.031
1626.78	123.05
1629.13	117.074
1631.48	119.798
1633.83	115.409
1636.18	114.64
1638.53	113.267
1640.88	120.395
1643.22	108.234
1645.57	107.913
1647.91	113.236
1650.26	111.025
1652.6	105.768
1654.94	115.892
1657.28	113.424
1659.62	107.892
1661.96	113.765
1664.29	113.267
1666.63	113.015
1668.96	105.599
1671.3	103.134
1673.63	101.876
1675.96	109.397
1678.29	102.029
1680.62	107.205
1682.95	106.247
1685.27	107.961
1687.6	106.31
1689.92	105.009
1692.25	108.636
1694.57	102.201
1696.89	106.451
1699.21	100.652
1701.53	103.869
1703.85	100.507
1706.17	98.1806
1708.48	102.405
1710.8	103.067
1713.11	102.596
1715.43	100.214
1717.74	100.541
1720.05	101.141
1722.36	99.7361
1724.67	93.5849
1726.97	100.815
1729.28	94.3314
1731.59	96.3496
1733.89	96.8018
1736.19	97.0061
1738.5	98.4634
1740.8	99.3363
1743.1	98.272
1745.4	93.6934
1747.7	99.8496
1749.99	95.9761
1752.29	94.4684
1754.58	90.8866
1756.88	93.9026
1759.17	92.7152
1761.46	91.3426
1763.75	87.3304
1766.04	89.8575
1768.33	93.7606
1770.62	90.8127
1772.91	89.466
1775.19	92.5248
1777.48	85.493
1779.76	91.5317
1782.04	88.1806
1784.32	94.4818
1786.6	87.2138
1788.88	88.7635
1791.16	89.4314
1793.44	91.8732
1795.71	87.666
1797.99	84.1895
1800.26	81.9829
1802.54	88.3095
1804.81	81.8794
1807.08	85.446
1809.35	88.0927
1811.62	88.8085
1813.88	84.187
1816.15	88.7937
1818.42	86.5599
1820.68	84.0609
1822.95	79.3626
1825.21	85.9819
1827.47	85.4908
1829.73	86.4005
1831.99	90.0867
1834.25	85.1414
1836.51	85.7152
1838.76	84.6729
1841.02	86.6187
1843.27	87.6113
1845.52	86.3186
1847.78	82.8773
1850.03	82.4397
1852.28	83.8241
1854.53	80.9387
1856.78	81.8951
1859.02	86.1609
1861.27	86.775
1863.51	81.7464
1865.76	82.7411
1868	83.4581
1870.24	81.5791
1872.48	79.4684
1874.72	83.3426
1876.96	79.1636
1879.2	85.9387
1881.44	79.7813
1883.67	79.1467
1885.91	80.7994
1888.14	78.3784
1890.37	77.2078
1892.61	79.8076
1894.84	80.9844
1897.07	77.2917
1899.29	84.4269
1901.52	76.0298
1903.75	86.7821
1905.97	79.4478
1908.2	81.1993
1910.42	75.8335
1912.64	77.329
1914.87	75.8135
1917.09	78.9311
1919.31	76.0221
1921.52	79.5116
1923.74	78.388
1925.96	78.8873
1928.17	74.1477
1930.39	75.767
1932.6	75.9068
1934.81	78.1163
1937.03	75.9843
1939.24	76.8624
1941.45	79.8082
1943.65	74.2707
1945.86	74.0967
1948.07	72.6387
1950.27	76.7957
1952.48	70.2917
1954.68	77.8797
1956.88	74.3041
1959.08	72.5718
1961.29	71.5455
1963.48	70.4165
1965.68	76.8303
1967.88	73.2769
1970.08	68.146
1972.27	73.9718
1974.47	71.1761
1976.66	73.1126
1978.85	72.0163
1981.04	73.7189
1983.23	70.3818
1985.42	74.5991
1987.61	68.1311
1989.8	67.9597
1991.99	71.5094
1994.17	68.3239
1996.36	71.3167
1998.54	71.3942
2000.72	73.4694
2002.9	66.8076
2005.08	64.1596
2007.26	68.9529
2009.44	68.8723
2011.62	68.6495
2013.8	69.4506
2015.97	67.0495
2018.15	66.2707
2020.32	66.2051
2022.49	65.4397
2024.66	60.9384
2026.83	63.5905
2029	64.578
2031.17	74.3822
2033.34	68.7361
2035.51	62.9633
2037.67	66.2128
2039.84	64.1126
2042	65.7474
2044.16	68.4939
2046.32	69.31
2048.48	62.8276
2050.64	65.8624
2052.8	61.7602
2054.96	61.977
2057.12	63.4794
2059.27	61.9708
2061.43	65.3506
2063.58	59.446
2065.73	61.4028
2067.89	65.3699
2070.04	64.9766
2072.19	66.1248
2074.34	62.3636
2076.48	66.8525
2078.63	65.5599
2080.78	66.6251
2082.92	59.8391
2085.07	63.6491
2087.21	61.6428
2089.35	59.5589
2091.49	64.3818
2093.63	61.0366
2095.77	63.303
2097.91	66.2521
2100.05	59.1985
2102.19	64.5116
2104.32	61.5992
2106.45	60.5599
2108.59	58.2388
2110.72	58.9561
2112.85	57.1284
2114.98	58.1301
2117.11	57.1609
2119.24	54.932
2121.37	55.5326
2123.5	58.329
2125.62	58.3239
2127.75	59.4478
2129.87	56.4607
2131.99	61.9638
2134.11	60.7415
2136.24	56.7941
2138.36	56.6437
2140.47	59.6767
2142.59	56.6682
2144.71	56.2645
2146.83	59.4028
2148.94	57.0968
2151.06	58.7281
2153.17	57.4875
2155.28	55.5058
2157.39	57.661
2159.5	57.9829
2161.61	52.5252
2163.72	58.6041
2165.83	55.8683
2167.94	55.6314
2170.04	57.446
2172.15	60.3965
2174.25	52.2462
2176.35	56.2174
2178.45	56.2501
2180.56	52.9982
2182.66	53.4453
2184.75	54.4867
2186.85	56.4617
2188.95	51.0151
2191.05	54.7941
2193.14	55.2862
2195.24	52.6227
2197.33	53.5871
2199.42	52.4137
2201.51	52.3583
2203.6	51.2845
2205.69	50.3637
2207.78	57.4669
2209.87	54.4028
2211.96	52.3632
2214.04	55.3947
2216.13	54.4723
2218.21	54.762
2220.29	52.3484
2222.38	57.7081
2224.46	55.7821
2226.54	51.9915
2228.62	55.5349
2230.69	52.2435
2232.77	47.7152
2234.85	51.2448
2236.92	51.67
2239	49.4743
2241.07	49.1561
2243.15	53.1284
2245.22	48.4411
2247.29	48.481
2249.36	49.0163
2251.43	50.578
2253.49	53.2835
2255.56	49.8263
2257.63	49.9829
2259.69	49.6701
2261.76	46.0015
2263.82	48.0613
2265.88	50.7734
2267.95	46.3558
2270.01	45.1806
2272.07	44.2707
2274.12	46.4169
2276.18	51.1409
2278.24	46.7152
2280.3	47.3555
2282.35	52.0349
2284.41	48.4656
2286.46	47.6197
2288.51	45.9512
2290.56	46.8127
2292.61	43.8904
2294.66	47.8656
2296.71	46.9512
2298.76	45.8598
2300.8	46.14
2302.85	43.5412
2304.9	46.9775
2306.94	46.5058
2308.98	46.1547
2311.03	46.33
2313.07	44.4533
2315.11	44.0694
2317.15	46.6839
2319.19	43.6523
2321.22	44.7165
2323.26	47.2845
2325.3	44.14
2327.33	42.3496
2329.36	43.9693
2331.4	45.1209
2333.43	48.0694
2335.46	43.0758
2337.49	41.9767
2339.52	44.2385
2341.55	46.0163
2343.58	44.795
2345.6	43.7016
2347.63	56.625
2349.65	42.1077
2351.68	41.263
2353.7	39.2128
2355.72	41.1815
2357.74	39.5648
2359.76	42.904
2361.78	42.6888
2363.8	43.2385
2365.82	41.1262
2367.84	40.5522
2369.85	42.4542
2371.87	44.4958
2373.88	42.8536
2375.9	36.5509
2377.91	43.0298
2379.92	39.5718
2381.93	38.904
2383.94	43.025
2385.95	40.2314
2387.96	41.7867
2389.96	41.4411
2391.97	35.2373
2393.97	39.2521
2395.98	39.5116
2397.98	41.6808
2399.98	40.0762
2401.98	38.3632
2403.99	37.617
2405.99	36.5116
2407.98	41.2189
2409.98	41.8597
2411.98	38.1596
2413.98	36.1596
2415.97	41.9966
2417.96	39.9906
2419.96	37.2385
2421.95	36.9699
2423.94	40.8855
2425.93	37.9384
2427.92	36.0495
2429.91	33.9374
2431.9	34.6178
2433.89	35.9325
2435.87	38.5728
2437.86	38.8855
2439.84	36.8002
2441.83	38.7744
2443.81	34.6764
2445.79	37.538
2447.77	32.0694
2449.75	33.4852
2451.73	40.5248
2453.71	36.3484
2455.69	35.2079
2457.67	35.3159
2459.64	36.8266
2461.62	36.9634
2463.59	37.7296
2465.56	33.9493
2467.54	36.2913
2469.51	37.2836
2471.48	35.6897
2473.45	36.3828
2475.42	38.2262
2477.38	34.14
2479.35	38.5203
2481.32	32.9819
2483.28	35.9718
2485.25	34.0672
2487.21	34.1209
2489.17	37.6108
2491.13	36.1077
2493.09	37.329
2495.05	28.5265
2497.01	34.2511
2498.97	33.7813
2500.93	32.492
2502.89	31.5255
2504.84	31.5706
2506.8	35.9857
2508.75	38.1146
2510.7	31.2658
2512.65	35.5522
2514.61	37.4092
2516.56	30.9297
2518.51	34.0498
2520.45	30.2452
2522.4	32.9824
2524.35	29.7606
2526.29	33.3232
2528.24	30.6965
2530.18	32.2066
2532.13	32.6572
2534.07	30.8444
2536.01	31.9387
2537.95	29.3632
2539.89	31.7371
2541.83	33.3818
2543.77	28.6178
2545.71	30.369
2547.64	32.0758
2549.58	31.5197
2551.51	28.8135
2553.45	32.0878
2555.38	32.4794
2557.31	32.093
2559.25	30.1992
2561.18	31.6314
2563.11	30.9303
2565.03	32.2056
2566.96	30.3496
2568.89	28.0804
2570.82	29.9325
2572.74	26.8127
2574.67	30.5522
2576.59	30.4154
2578.51	30.8391
2580.43	29.5728
2582.36	29.3506
2584.28	28.6178
2586.2	31.6433
2588.11	28.0629
2590.03	30.4411
2591.95	28.9303
2593.86	27.0015
2595.78	27.9966
2597.69	26.1547
2599.61	28.2852
2601.52	31.0753
2603.43	31.6054
2605.34	28.1989
2607.25	27.6376
2609.16	26.742
2611.07	29.1806
2612.98	23.329
2614.89	27.9512
2616.79	25.538
2618.7	28.8125
2620.6	29.8536
2622.5	24.6633
2624.41	27.2128
2626.31	29.4733
2628.21	27.3946
2630.11	30.8057
2632.01	30.6041
2633.91	28.1077
2635.8	30.2444
2637.7	25.8263
2639.6	28.7813
2641.49	30.0495
2643.39	29.9502
2645.28	34.9187
2647.17	37.2926
2649.06	42.9384
2650.95	29.4617
2652.84	31.3741
2654.73	28.4401
2656.62	29.6286
2658.51	32.4929
2660.4	30.8472
2662.28	32.2314
2664.17	28.6829
2666.05	29.9966
2667.93	32.7793
2669.82	39.5149
2671.7	47.4991
2673.58	65.9245
2675.46	78.671
2677.34	86.671
2679.21	67.5718
2681.09	57.7161
2682.97	51.5979
2684.84	44.48
2686.72	34.0613
2688.59	44.0495
2690.47	60.5777
2692.34	91.4082
2694.21	201.623
2696.08	231.794
2697.95	206.395
2699.82	150.093
2701.69	80.7471
2703.56	60.9829
2705.42	56.7821
2707.29	39.0968
2709.15	38.7683
2711.02	31.729
2712.88	31.9061
2714.75	25.5834
2716.61	26.9178
2718.47	27.4617
2720.33	26.094
2722.19	23.0819
2724.05	25.4881
2725.9	29.4398
2727.76	25.9973
2729.62	25.5203
2731.47	26.9699
2733.33	22.2189
2735.18	24.2511
2737.03	27.2189
2738.88	24.4278
2740.73	19.9325
2742.59	24.0495
2744.43	25.0279
2746.28	23.8186
2748.13	22.7867
2749.98	24.6031
2751.82	23.2658
2753.67	23.9693
2755.51	22.165
2757.36	22.0089
2759.2	21.0945
2761.04	20.7161
2762.88	21.4278
