365.286	1759.29
368.238	1754.02
371.189	1776.24
374.139	1765.13
377.087	1774.91
380.034	1793.57
382.979	1812.51
385.923	1782.35
388.866	1786.8
391.806	1794.35
394.745	1801.62
397.684	1799.06
400.62	1807.17
403.555	1806.57
406.49	1811.69
409.421	1805.57
412.353	1850.02
415.282	1839.35
418.209	1823.8
421.137	1825.46
424.062	1834.13
426.985	1841.02
429.908	1846.24
432.829	1842.02
435.748	1837.8
438.666	1857.13
441.583	1832.35
444.498	1813.8
447.412	1815.69
450.324	1803.02
453.235	1810.35
456.145	1777.34
459.052	1759.13
461.959	1728.57
464.865	1732.13
467.769	1722.46
470.671	1706.13
473.572	1684.57
476.471	1690.73
479.37	1682.46
482.266	1682.69
485.162	1692.13
488.056	1694.8
490.948	1678.69
493.839	1680.57
496.73	1708.57
499.618	1721.13
502.505	1732.8
505.39	1737.46
508.275	1737.8
511.157	1736.46
514.039	1726.24
516.919	1705.02
519.798	1721.91
522.674	1706.69
525.55	1689.69
528.425	1691.46
531.297	1658.46
534.169	1658.84
537.039	1651.13
539.908	1667.02
542.775	1642.25
545.642	1622.24
548.506	1664.35
551.369	1649.46
554.231	1632.69
557.092	1659.13
559.951	1663.69
562.808	1680.24
565.664	1685.13
568.519	1680.35
571.373	1671.69
574.225	1689.69
577.076	1667.13
579.925	1673.69
582.773	1671.57
585.62	1667.24
588.466	1672.13
591.309	1686.57
594.152	1650.69
596.993	1656.69
599.832	1659.91
602.671	1677.69
605.508	1649.24
608.343	1655.46
611.178	1646.8
614.011	1625.13
616.842	1652.13
619.672	1639.69
622.501	1636.02
625.329	1642.02
628.155	1663.02
630.98	1677.69
633.802	1674.13
636.624	1674.46
639.445	1683.69
642.264	1675.02
645.082	1692.91
647.898	1680.69
650.714	1686.69
653.527	1694.35
656.34	1688.35
659.151	1684.57
661.961	1689.13
664.769	1657.24
667.576	1660.69
670.382	1642.02
673.186	1632.57
675.989	1634.46
678.791	1602.02
681.591	1618.91
684.39	1611.13
687.187	1606.13
689.983	1607.46
692.779	1609.46
695.572	1609.06
698.363	1603.8
701.155	1606.35
703.944	1594.13
706.733	1613.46
709.519	1617.35
712.305	1615.91
715.089	1631.95
717.871	1638.13
720.653	1623.69
723.433	1659.91
726.212	1657.9
728.989	1657.8
731.765	1660.8
734.54	1647.8
737.313	1659.57
740.085	1661.57
742.856	1654.24
745.625	1655.35
748.394	1656.02
751.16	1655.34
753.926	1651.8
756.689	1656.02
759.452	1648.91
762.214	1679.24
764.974	1666.13
767.733	1651.46
770.49	1647.35
773.246	1646.02
776.001	1651.13
778.755	1658.24
781.507	1660.35
784.258	1662.57
787.007	1676.24
789.756	1666.12
792.502	1670.13
795.247	1660.02
797.992	1677.14
800.735	1682.91
803.477	1664.69
806.217	1644.03
808.956	1651.35
811.694	1667.03
814.43	1637.46
817.165	1647.36
819.899	1619.35
822.631	1633.91
825.362	1623.24
828.092	1637.69
830.82	1648.36
833.548	1638.46
836.274	1665.91
838.998	1667.58
841.721	1680.24
844.444	1675.24
847.165	1681.69
849.884	1666.13
852.601	1695.14
855.318	1658.35
858.034	1677.24
860.749	1695.03
863.461	1686.46
866.173	1693.91
868.883	1675.69
871.592	1672.69
874.3	1672.13
877.006	1667.47
879.712	1684.24
882.415	1673.26
885.118	1671.24
887.819	1680.04
890.519	1654.24
893.218	1661.8
895.914	1656.91
898.611	1664.9
901.306	1674.24
903.999	1651.13
906.692	1682.24
909.382	1669.24
912.072	1673.46
914.761	1689.01
917.447	1698.46
920.133	1690.69
922.818	1692.8
925.501	1706.23
928.183	1708.34
930.864	1708.01
933.543	1693.68
936.221	1710.23
938.898	1700.12
941.574	1722.45
944.248	1716.68
946.921	1723.8
949.593	1711.24
952.263	1696.91
954.932	1704.46
957.6	1680.69
960.267	1701.24
962.932	1700.57
965.597	1692.36
968.26	1708.36
970.922	1716.24
973.581	1709.46
976.241	1708.8
978.898	1725.68
981.555	1721.8
984.21	1752.91
986.864	1779.46
989.517	1796.36
992.169	1807.13
994.819	1838.01
997.468	1837.13
1000.12	1899.69
1002.76	1911.23
1005.41	1906.58
1008.05	1919.47
1010.69	1923.69
1013.34	1862.68
1015.98	1824.57
1018.61	1766.13
1021.25	1746.24
1023.89	1730.9
1026.52	1690.35
1029.16	1698.23
1031.79	1721.9
1034.42	1732.56
1037.05	1732.36
1039.68	1714.24
1042.31	1703.01
1044.93	1700.8
1047.56	1704.57
1050.18	1714.01
1052.81	1723.68
1055.43	1723.57
1058.05	1723.91
1060.67	1723.01
1063.28	1737.57
1065.9	1730.36
1068.52	1728.01
1071.13	1727.13
1073.74	1759.79
1076.35	1781.13
1078.96	1773.46
1081.57	1789.46
1084.18	1809.69
1086.79	1810.24
1089.39	1815.24
1092	1820.57
1094.6	1811.57
1097.2	1797.68
1099.8	1788.02
1102.4	1755.57
1105	1759.79
1107.6	1749.9
1110.19	1749.8
1112.79	1749.36
1115.38	1737.91
1117.97	1752.24
1120.56	1734.8
1123.15	1724.13
1125.74	1762.01
1128.33	1741.01
1130.91	1725.9
1133.5	1719.79
1136.08	1706.79
1138.66	1676.01
1141.24	1694.45
1143.82	1693.57
1146.4	1713.27
1148.98	1721.83
1151.55	1715.24
1154.13	1702.58
1156.7	1703.47
1159.27	1721.24
1161.85	1702.01
1164.42	1723.06
1166.98	1696.36
1169.55	1717.13
1172.12	1725.02
1174.68	1740.61
1177.25	1729.46
1179.81	1722.9
1182.37	1723.01
1184.93	1718.56
1187.49	1687.68
1190.05	1691.45
1192.6	1700.45
1195.16	1711.67
1197.71	1721.89
1200.27	1709.12
1202.82	1742.71
1205.37	1763.39
1207.92	1757.7
1210.47	1762.94
1213.01	1729.81
1215.56	1748.48
1218.1	1782.01
1220.65	1769.92
1223.19	1761.45
1225.73	1758.61
1228.27	1740.67
1230.81	1740.9
1233.35	1717.34
1235.88	1729.78
1238.42	1735.83
1240.95	1738.34
1243.48	1767.68
1246.02	1765.48
1248.55	1767.82
1251.07	1778.15
1253.6	1784.04
1256.13	1786.92
1258.66	1787.41
1261.18	1797.64
1263.7	1808.26
1266.22	1801.01
1268.75	1801.04
1271.27	1816.34
1273.78	1800.16
1276.3	1837.68
1278.82	1826.12
1281.33	1804.35
1283.85	1815.01
1286.36	1829.27
1288.87	1844.57
1291.38	1852.46
1293.89	1860.23
1296.4	1875.23
1298.9	1866.12
1301.41	1848.93
1303.91	1879.75
1306.41	1846.04
1308.92	1827.01
1311.42	1835.05
1313.92	1846.56
1316.42	1830.94
1318.91	1831.08
1321.41	1859.35
1323.9	1849.01
1326.4	1842.45
1328.89	1867.72
1331.38	1833.89
1333.87	1836.56
1336.36	1841.72
1338.85	1843.94
1341.34	1857.27
1343.82	1840.23
1346.31	1856.19
1348.79	1861.79
1351.27	1869.01
1353.75	1865.42
1356.23	1859.85
1358.71	1853.46
1361.19	1860.25
1363.66	1846.59
1366.14	1878.69
1368.61	1878.91
1371.09	1905.03
1373.56	1897.73
1376.03	1936.62
1378.5	1921.69
1380.96	1911.62
1383.43	1915.28
1385.9	1916.13
1388.36	1873.23
1390.83	1870.83
1393.29	1888.5
1395.75	1871.01
1398.21	1871.83
1400.67	1885.52
1403.13	1898.7
1405.58	1844.37
1408.04	1821.41
1410.49	1817.93
1412.95	1798.7
1415.4	1785.59
1417.85	1792.49
1420.3	1764.01
1422.75	1768.82
1425.2	1768.46
1427.64	1759.01
1430.09	1764.89
1432.53	1756.12
1434.97	1747.12
1437.42	1747.9
1439.86	1720.67
1442.3	1726.01
1444.73	1727.27
1447.17	1729.01
1449.61	1733.46
1452.04	1743.54
1454.48	1718.49
1456.91	1745.56
1459.34	1726.5
1461.77	1721.34
1464.2	1740.43
1466.63	1714.51
1469.06	1719.21
1471.48	1674.43
1473.91	1680.09
1476.33	1673.1
1478.75	1670.43
1481.17	1696.43
1483.6	1702.25
1486.01	1679.39
1488.43	1669.29
1490.85	1669
1493.27	1698.93
1495.68	1677.01
1498.09	1662.34
1500.51	1665.56
1502.92	1659.16
1505.33	1674.34
1507.74	1672.89
1510.14	1689.01
1512.55	1680.49
1514.96	1686.92
1517.36	1692.93
1519.77	1676.04
1522.17	1662.3
1524.57	1659.37
1526.97	1675.49
1529.37	1657.98
1531.77	1666.12
1534.16	1643.67
1536.56	1660.78
1538.95	1660.76
1541.35	1638.94
1543.74	1660.5
1546.13	1658.01
1548.52	1644.27
1550.91	1684.37
1553.3	1671.56
1555.68	1683.89
1558.07	1679.23
1560.45	1674.89
1562.84	1674.59
1565.22	1683.7
1567.6	1682.79
1569.98	1670.7
1572.36	1656.19
1574.74	1664.42
1577.12	1663.15
1579.49	1628.93
1581.87	1640.89
1584.24	1599.64
1586.61	1594.15
1588.98	1617.01
1591.35	1599.72
1593.72	1563.3
1596.09	1563.97
1598.46	1527.26
1600.82	1512.42
1603.19	1521.04
1605.55	1490.97
1607.92	1475.61
1610.28	1426.27
1612.64	1452.04
1615	1418.04
1617.36	1400.61
1619.71	1367.16
1622.07	1355.99
1624.42	1346.34
1626.78	1320.4
1629.13	1321.72
1631.48	1291.82
1633.83	1289.46
1636.18	1285.53
1638.53	1261.71
1640.88	1253.96
1643.22	1250.48
1645.57	1230.27
1647.91	1181.93
1650.26	1191.83
1652.6	1177.61
1654.94	1172.1
1657.28	1139.56
1659.62	1145.51
1661.96	1140.45
1664.29	1125.73
1666.63	1115.72
1668.96	1131.93
1671.3	1133.7
1673.63	1110.43
1675.96	1088.32
1678.29	1089.08
1680.62	1072.1
1682.95	1101.09
1685.27	1072.35
1687.6	1089.16
1689.92	1069.62
1692.25	1048.32
1694.57	1065.12
1696.89	1045.61
1699.21	1053.22
1701.53	1033.22
1703.85	1034.36
1706.17	1029.14
1708.48	1035.53
1710.8	1034.25
1713.11	1015.59
1715.43	1009.7
1717.74	1016.88
1720.05	992.357
1722.36	999.734
1724.67	1005.36
1726.97	1015.44
1729.28	1001.88
1731.59	1015.44
1733.89	996.542
1736.19	1006.01
1738.5	1002.01
1740.8	984.828
1743.1	1001.72
1745.4	989.717
1747.7	1004.05
1749.99	998.734
1752.29	981.001
1754.58	978.097
1756.88	956.774
1759.17	962.736
1761.46	938.209
1763.75	956.556
1766.04	941.854
1768.33	948.104
1770.62	941.344
1772.91	957.542
1775.19	943.551
1777.48	921.329
1779.76	938.7
1782.04	925.956
1784.32	921.178
1786.6	897.764
1788.88	898.885
1791.16	899.1
1793.44	912.1
1795.71	914.707
1797.99	896.188
1800.26	904.455
1802.54	890.996
1804.81	871.707
1807.08	859.885
1809.35	870.764
1811.62	858.152
1813.88	853.707
1816.15	848.209
1818.42	849.811
1820.68	859.152
1822.95	858.329
1825.21	844.41
1827.47	853.344
1829.73	840.033
1831.99	844.478
1834.25	833.882
1836.51	832.299
1838.76	835.218
1841.02	823.374
1843.27	835.01
1845.52	820.44
1847.78	837.885
1850.03	825.551
1852.28	823.263
1854.53	827.818
1856.78	817.596
1859.02	838.677
1861.27	818.107
1863.51	826.707
1865.76	820.297
1868	814.485
1870.24	813.152
1872.48	809.663
1874.72	817.299
1876.96	809.559
1879.2	824.344
1881.44	817.344
1883.67	825.929
1885.91	805.818
1888.14	777.774
1890.37	802.929
1892.61	783.663
1894.84	803.677
1897.07	792.878
1899.29	787.478
1901.52	771.818
1903.75	787.263
1905.97	783.328
1908.2	766.033
1910.42	775.44
1912.64	760.922
1914.87	763.152
1917.09	767.152
1919.31	762.152
1921.52	751.329
1923.74	752.596
1925.96	761.44
1928.17	772.485
1930.39	748.596
1932.6	739.677
1934.81	742.818
1937.03	754.596
1939.24	741.218
1941.45	738.885
1943.65	736.374
1945.86	745.374
1948.07	734.041
1950.27	743.929
1952.48	736.152
1954.68	716.596
1956.88	714.478
1959.08	726.041
1961.29	722.929
1963.48	724.566
1965.68	722.818
1967.88	723.929
1970.08	713.033
1972.27	706.374
1974.47	703.263
1976.66	681.707
1978.85	701.774
1981.04	699.485
1983.23	691.218
1985.42	683.374
1987.61	685.041
1989.8	686.929
1991.99	678.263
1994.17	691.041
1996.36	677.152
1998.54	652.152
2000.72	673.041
2002.9	677.485
2005.08	674.596
2007.26	663.485
2009.44	655.707
2011.62	656.263
2013.8	651.899
2015.97	638.263
2018.15	639.596
2020.32	626.374
2022.49	627.818
2024.66	645.485
2026.83	601.263
2029	624.152
2031.17	622.596
2033.34	630.663
2035.51	625.929
2037.67	621.152
2039.84	620.374
2042	621.707
2044.16	621.596
2046.32	622.818
2048.48	620.263
2050.64	613.707
2052.8	603.041
2054.96	605.263
2057.12	597.041
2059.27	607.263
2061.43	608.041
2063.58	605.818
2065.73	588.152
2067.89	596.041
2070.04	578.818
2072.19	589.922
2074.34	592.7
2076.48	584.818
2078.63	590.144
2080.78	569.144
2082.92	583.485
2085.07	576.041
2087.21	585.263
2089.35	563.041
2091.49	568.929
2093.63	540.818
2095.77	558.707
2097.91	556.033
2100.05	534.485
2102.19	522.374
2104.32	541.374
2106.45	541.374
2108.59	534.707
2110.72	535.818
2112.85	528.374
2114.98	530.374
2117.11	515.263
2119.24	506.811
2121.37	522.596
2123.5	477.818
2125.62	504.152
2127.75	502.374
2129.87	507.485
2131.99	514.041
2134.11	505.367
2136.24	486.374
2138.36	494.144
2140.47	491.596
2142.59	490.256
2144.71	494.485
2146.83	501.485
2148.94	470.152
2151.06	474.818
2153.17	481.152
2155.28	471.256
2157.39	459.263
2159.5	463.485
2161.61	466.152
2163.72	467.374
2165.83	449.707
2167.94	453.374
2170.04	456.707
2172.15	464.596
2174.25	442.929
2176.35	451.041
2178.45	437.144
2180.56	439.929
2182.66	440.152
2184.75	429.596
2186.85	443.596
2188.95	436.478
2191.05	439.374
2193.14	430.367
2195.24	427.485
2197.33	436.152
2199.42	422.929
2201.51	407.374
2203.6	427.478
2205.69	410.596
2207.78	417.152
2209.87	406.374
2211.96	417.263
2214.04	407.929
2216.13	407.596
2218.21	424.374
2220.29	421.929
2222.38	423.041
2224.46	413.818
2226.54	403.596
2228.62	396.707
2230.69	397.144
2232.77	395.485
2234.85	401.152
2236.92	388.929
2239	399.707
2241.07	380.485
2243.15	384.485
2245.22	382.485
2247.29	392.818
2249.36	385.818
2251.43	381.256
2253.49	371.818
2255.56	364.041
2257.63	369.929
2259.69	348.152
2261.76	364.374
2263.82	358.041
2265.88	350.152
2267.95	352.374
2270.01	347.707
2272.07	358.263
2274.12	345.707
2276.18	334.485
2278.24	334.152
2280.3	321.144
2282.35	335.707
2284.41	333.929
2286.46	329.818
2288.51	321.818
2290.56	321.374
2292.61	314.367
2294.66	319.374
2296.71	312.144
2298.76	306.811
2300.8	320.263
2302.85	310.374
2304.9	306.263
2306.94	286.485
2308.98	295.929
2311.03	288.256
2313.07	292.152
2315.11	298.374
2317.15	284.374
2319.19	281.485
2321.22	292.367
2323.26	280.922
2325.3	284.929
2327.33	272.929
2329.36	270.041
2331.4	257.596
2333.43	269.589
2335.46	268.478
2337.49	268.485
2339.52	260.926
2341.55	255.707
2343.58	254.707
2345.6	256.374
2347.63	260.152
2349.65	263.596
2351.68	255.922
2353.7	256.374
2355.72	247.596
2357.74	244.589
2359.76	239.707
2361.78	243.922
2363.8	243.818
2365.82	242.152
2367.84	237.929
2369.85	235.041
2371.87	233.374
2373.88	242.144
2375.9	232.596
2377.91	235.256
2379.92	235.485
2381.93	226.152
2383.94	227.485
2385.95	230.152
2387.96	233.485
2389.96	225.263
2391.97	218.374
2393.97	208.929
2395.98	221.485
2397.98	218.263
2399.98	216.033
2401.98	208.256
2403.99	211.152
2405.99	202.263
2407.98	195.596
2409.98	212.707
2411.98	198.818
2413.98	204.033
2415.97	197.707
2417.96	194.152
2419.96	199.707
2421.95	204.374
2423.94	187.041
2425.93	195.589
2427.92	181.707
2429.91	195.818
2431.9	175.922
2433.89	183.818
2435.87	188.922
2437.86	183.596
2439.84	188.263
2441.83	166.707
2443.81	181.707
2445.79	172.485
2447.77	176.263
2449.75	165.263
2451.73	174.263
2453.71	170.367
2455.69	166.596
2457.67	171.256
2459.64	170.596
2461.62	164.818
2463.59	179.818
2465.56	155.485
2467.54	161.374
2469.51	157.152
2471.48	155.263
2473.45	174.589
2475.42	157.263
2477.38	161.485
2479.35	155.152
2481.32	161.922
2483.28	155.152
2485.25	155.485
2487.21	144.707
2489.17	145.152
2491.13	144.707
2493.09	142.929
2495.05	139.152
2497.01	130.707
2498.97	134.263
2500.93	139.485
2502.89	129.707
2504.84	124.263
2506.8	136.374
2508.75	134.707
2510.7	124.263
2512.65	113.596
2514.61	125.263
2516.56	110.263
2518.51	123.707
2520.45	103.929
2522.4	112.478
2524.35	103.707
2526.29	120.374
2528.24	109.263
2530.18	107.707
2532.13	114.478
2534.07	113.152
2536.01	105.152
2537.95	105.041
2539.89	107.707
2541.83	102.933
2543.77	107.152
2545.71	101.152
2547.64	101.485
2549.58	101.929
2551.51	97.485
2553.45	89.5961
2555.38	93.1517
2557.31	83.7
2559.25	89.485
2561.18	83.2628
2563.11	80.5961
2565.03	81.7
2566.96	85.0406
2568.89	82.3739
2570.82	80.5961
2572.74	81.1517
2574.67	82.7072
2576.59	74.0406
2578.51	76.0333
2580.43	67.485
2582.36	71.1517
2584.28	71.0333
2586.2	71.8184
2588.11	74.3666
2590.03	70.4778
2591.95	54.9295
2593.86	69.1444
2595.78	60.1517
2597.69	61.4778
2599.61	54.1517
2601.52	57.7072
2603.43	65.8184
2605.34	57.7072
2607.25	44.7072
2609.16	49.9295
2611.07	52.8184
2612.98	46.9295
2614.89	48.0444
2616.79	43.7072
2618.7	39.0406
2620.6	30.7072
2622.5	34.7072
2624.41	37.9295
2626.31	26.2628
2628.21	32.2628
2630.11	27.9295
2632.01	26.2628
2633.91	28.3666
2635.8	27.5889
2637.7	19.485
2639.6	24.5961
2641.49	25.3666
2643.39	28.5961
2645.28	32.0406
2647.17	24.3666
2649.06	29.4778
2650.95	24.1517
2652.84	20.3739
2654.73	18.0406
2656.62	14.1517
2658.51	23.7072
2660.4	14.5961
2662.28	11.0406
2664.17	18.0406
2666.05	13.2628
2667.93	16.8184
2669.82	15.8184
2671.7	33.485
2673.58	58.7072
2675.46	74.5961
2677.34	69.5961
2679.21	50.5889
2681.09	37.2628
2682.97	34.9295
2684.84	27.485
2686.72	15.485
2688.59	25.2628
2690.47	53.3666
2692.34	72.7072
2694.21	224.589
2696.08	273.811
2697.95	239.596
2699.82	144.374
2701.69	72.8184
2703.56	37.5961
2705.42	19.1517
2707.29	-0.737196
2709.15	5.15169
2711.02	-5.63336
2712.88	-13.6261
2714.75	-11.0705
2716.61	-15.515
2718.47	-23.515
2720.33	-10.6261
2722.19	-13.8556
2724.05	-16.9594
2725.9	-21.4039
2727.76	-19.6261
2729.62	-22.3
2731.47	-17.2928
2733.33	-25.515
2735.18	-30.8483
2737.03	-16.9594
2738.88	-35.5222
2740.73	-33.0705
2742.59	-37.0705
2744.43	-31.7372
2746.28	-28.8556
2748.13	-36.8556
2749.98	-35.6261
2751.82	-40.7372
2753.67	-38.1889
2755.51	-36.0778
2757.36	-37.515
2759.2	-46.6261
2761.04	-46.8483
2762.88	-49.5222
