365.286	251.144
368.238	254.81
371.189	264.784
374.139	260.954
377.087	269.187
380.034	282.908
382.979	283.386
385.923	273.285
388.866	252.914
391.806	250.537
394.745	243.685
397.684	250.648
400.62	253.392
403.555	259.113
406.49	261.102
409.421	251.365
412.353	254.45
415.282	262.53
418.209	265.961
421.137	264.239
424.062	270.385
426.985	280.252
429.908	286.109
432.829	286.762
435.748	288.597
438.666	280.359
441.583	277.208
444.498	271.934
447.412	255.06
450.324	261.878
453.235	264.496
456.145	256.504
459.052	263.878
461.959	254.906
464.865	248.451
467.769	239.929
470.671	233.721
473.572	226.338
476.471	232.478
479.37	237.663
482.266	227.374
485.162	234.385
488.056	242.428
490.948	234.192
493.839	235.273
496.73	238.438
499.618	235.461
502.505	234.443
505.39	234.856
508.275	240.377
511.157	234.878
514.039	232.557
516.919	236.172
519.798	235.238
522.674	225.973
525.55	228.786
528.425	221.887
531.297	220.835
534.169	214.23
537.039	217.531
539.908	223.092
542.775	213.355
545.642	216.537
548.506	215.016
551.369	213.05
554.231	219.33
557.092	220.309
559.951	223.795
562.808	224.684
565.664	226.509
568.519	224.221
571.373	221.9
574.225	221.109
577.076	222.797
579.925	217.796
582.773	218.198
585.62	222.065
588.466	222.65
591.309	226.372
594.152	216.317
596.993	216.289
599.832	208.526
602.671	219.184
605.508	212.673
608.343	216.073
611.178	212.052
614.011	211.351
616.842	211.998
619.672	207.227
622.501	217.181
625.329	212.383
628.155	214.913
630.98	220.238
633.802	223.389
636.624	222.949
639.445	223.236
642.264	220.254
645.082	222.784
647.898	219.487
650.714	216.274
653.527	231.309
656.34	227.209
659.151	238.718
661.961	234.656
664.769	231.141
667.576	216.094
670.382	214.886
673.186	201.101
675.989	199.613
678.791	199.451
681.591	198.59
684.39	202.319
687.187	198.241
689.983	197.282
692.779	205.144
695.572	200.117
698.363	205.132
701.155	204.388
703.944	208.775
706.733	203.057
709.519	206.145
712.305	210.679
715.089	203.979
717.871	202.779
720.653	203.794
723.433	215.751
726.212	207.653
728.989	193.48
731.765	193.297
734.54	204.74
737.313	206.776
740.085	204.162
742.856	203.113
745.625	206.947
748.394	193.602
751.16	206.07
753.926	207.105
756.689	201.551
759.452	205.487
762.214	210.748
764.974	204.285
767.733	208.265
770.49	205.124
773.246	211.687
776.001	206.943
778.755	205.181
781.507	204.461
784.258	211.115
787.007	218.905
789.756	216.998
792.502	217.163
795.247	213.552
797.992	217.673
800.735	216.101
803.477	224.566
806.217	214.281
808.956	229.873
811.694	229.137
814.43	232.838
817.165	223.227
819.899	229.041
822.631	210.683
825.362	203.843
828.092	210.107
830.82	208.238
833.548	202.136
836.274	203.981
838.998	203.58
841.721	208.066
844.444	210.406
847.165	204.051
849.884	198.597
852.601	199.941
855.318	191.137
858.034	196.954
860.749	192.206
863.461	198.83
866.173	201.934
868.883	199.838
871.592	191.405
874.3	191.228
877.006	188.572
879.712	192.357
882.415	186.248
885.118	188.997
887.819	191.788
890.519	193.616
893.218	197.734
895.914	196.47
898.611	195.282
901.306	192.427
903.999	193.865
906.692	190.274
909.382	190.033
912.072	179.692
914.761	196.566
917.447	184.238
920.133	187.677
922.818	183.994
925.501	181.263
928.183	179.024
930.864	177.16
933.543	179.554
936.221	181.967
938.898	182.309
941.574	182.457
944.248	185.851
946.921	176.886
949.593	178.617
952.263	174.007
954.932	185.806
957.6	174.441
960.267	182.962
962.932	185.697
965.597	184.044
968.26	176.508
970.922	184.281
973.581	192.894
976.241	194.127
978.898	196.054
981.555	204.699
984.21	210.891
986.864	217.816
989.517	233.072
992.169	251.778
994.819	272.502
997.468	285.04
1000.12	313.479
1002.76	341.665
1005.41	354.828
1008.05	365.058
1010.69	366.976
1013.34	346.667
1015.98	315.096
1018.61	270.923
1021.25	242.16
1023.89	210.216
1026.52	208.896
1029.16	195.203
1031.79	194.959
1034.42	190.2
1037.05	195.756
1039.68	194.221
1042.31	197.981
1044.93	201.62
1047.56	207.603
1050.18	207.044
1052.81	214.947
1055.43	207.514
1058.05	205.842
1060.67	197.796
1063.28	199.93
1065.9	203.452
1068.52	195.211
1071.13	205.146
1073.74	211.828
1076.35	218.273
1078.96	219.941
1081.57	221.323
1084.18	229.962
1086.79	236.06
1089.39	255.187
1092	253.197
1094.6	258.737
1097.2	254.422
1099.8	245.022
1102.4	237.038
1105	222.648
1107.6	227.253
1110.19	220.886
1112.79	226.058
1115.38	232.667
1117.97	237.544
1120.56	240.263
1123.15	239.04
1125.74	236.5
1128.33	231.178
1130.91	219.532
1133.5	211.553
1136.08	211.721
1138.66	200.393
1141.24	200.74
1143.82	206.836
1146.4	210.327
1148.98	205.836
1151.55	206.262
1154.13	208.554
1156.7	206.608
1159.27	198.761
1161.85	205.776
1164.42	193.976
1166.98	184.961
1169.55	200.298
1172.12	193.824
1174.68	185.606
1177.25	193.557
1179.81	189.905
1182.37	182.428
1184.93	188.024
1187.49	184.113
1190.05	178.535
1192.6	173.323
1195.16	170.078
1197.71	176.357
1200.27	166.617
1202.82	163.275
1205.37	167.791
1207.92	165.87
1210.47	165.896
1213.01	169.924
1215.56	165.463
1218.1	164.203
1220.65	162.866
1223.19	162.707
1225.73	180.257
1228.27	175.412
1230.81	170.235
1233.35	172.238
1235.88	172.67
1238.42	167.897
1240.95	175.972
1243.48	169.567
1246.02	173.537
1248.55	169.924
1251.07	172.612
1253.6	175.474
1256.13	170.932
1258.66	165.238
1261.18	172.375
1263.7	175.221
1266.22	179.387
1268.75	174.596
1271.27	180.292
1273.78	176.317
1276.3	186.377
1278.82	182.922
1281.33	176.087
1283.85	175.52
1286.36	173.941
1288.87	184.468
1291.38	179.081
1293.89	175.337
1296.4	178.947
1298.9	183.163
1301.41	178.626
1303.91	172.474
1306.41	178.216
1308.92	176.794
1311.42	173.246
1313.92	179.899
1316.42	171.794
1318.91	174.699
1321.41	177.918
1323.9	178.859
1326.4	180.878
1328.89	182.48
1331.38	177.035
1333.87	187.323
1336.36	190.464
1338.85	187.228
1341.34	175.376
1343.82	188.931
1346.31	175.932
1348.79	179.989
1351.27	182.637
1353.75	197.94
1356.23	192.864
1358.71	194.665
1361.19	190.438
1363.66	207.673
1366.14	199.651
1368.61	209.56
1371.09	211.269
1373.56	213.523
1376.03	228.287
1378.5	221.172
1380.96	231.225
1383.43	237.098
1385.9	227.886
1388.36	210.87
1390.83	208.885
1393.29	197.677
1395.75	189.913
1398.21	178.885
1400.67	178.93
1403.13	168.13
1405.58	170.996
1408.04	167.614
1410.49	161.761
1412.95	165.515
1415.4	166.594
1417.85	165.474
1420.3	166.891
1422.75	169.17
1425.2	168.309
1427.64	164.393
1430.09	169.843
1432.53	171.192
1434.97	175.93
1437.42	173.616
1439.86	172.327
1442.3	163.163
1444.73	161.253
1447.17	161.406
1449.61	162.149
1452.04	161.239
1454.48	149.677
1456.91	151.97
1459.34	155.292
1461.77	150.358
1464.2	158.984
1466.63	154.504
1469.06	156.526
1471.48	153.767
1473.91	161.282
1476.33	153.327
1478.75	155.717
1481.17	157.469
1483.6	150.434
1486.01	145.227
1488.43	142.135
1490.85	147.552
1493.27	137.925
1495.68	144.794
1498.09	139.772
1500.51	136.737
1502.92	142.549
1505.33	146.712
1507.74	143.67
1510.14	138.853
1512.55	144.093
1514.96	144.144
1517.36	142.352
1519.77	140.867
1522.17	144.837
1524.57	139.697
1526.97	135.303
1529.37	145.289
1531.77	146.081
1534.16	146.076
1536.56	138.883
1538.95	146.296
1541.35	151.743
1543.74	149.219
1546.13	152.246
1548.52	146.667
1550.91	152.982
1553.3	151.625
1555.68	151.202
1558.07	145.59
1560.45	147.035
1562.84	150.541
1565.22	150.966
1567.6	159.292
1569.98	149.051
1572.36	151.428
1574.74	151.924
1577.12	155.924
1579.49	152.106
1581.87	153.139
1584.24	152.476
1586.61	145.563
1588.98	149.747
1591.35	145.022
1593.72	142.434
1596.09	150.322
1598.46	146.29
1600.82	138.215
1603.19	131.164
1605.55	138.515
1607.92	131.238
1610.28	125.924
1612.64	129.479
1615	123.262
1617.36	126.851
1619.71	122.549
1622.07	126.17
1624.42	116.515
1626.78	121.086
1629.13	118.633
1631.48	120.205
1633.83	120.691
1636.18	117.411
1638.53	117.387
1640.88	115.812
1643.22	117.563
1645.57	112.639
1647.91	111.17
1650.26	116.742
1652.6	115.885
1654.94	116.411
1657.28	114.951
1659.62	121.064
1661.96	115.785
1664.29	113.092
1666.63	110.46
1668.96	114.402
1671.3	115.777
1673.63	115.867
1675.96	110.737
1678.29	109.36
1680.62	111.82
1682.95	109.055
1685.27	112.989
1687.6	109.409
1689.92	107.728
1692.25	112.964
1694.57	110.077
1696.89	110.763
1699.21	109.878
1701.53	110.957
1703.85	107.765
1706.17	104.598
1708.48	110.32
1710.8	109.077
1713.11	108.053
1715.43	110.617
1717.74	106.222
1720.05	106.185
1722.36	112.076
1724.67	111.17
1726.97	108.802
1729.28	103.702
1731.59	108.406
1733.89	105.634
1736.19	101.153
1738.5	101.708
1740.8	99.5277
1743.1	99.9113
1745.4	102.318
1747.7	102.478
1749.99	99.6087
1752.29	102.598
1754.58	97.2157
1756.88	100.027
1759.17	99.3273
1761.46	100.666
1763.75	95.5743
1766.04	91.9601
1768.33	99.1104
1770.62	95.0422
1772.91	100.476
1775.19	93.5743
1777.48	94.878
1779.76	93.6479
1782.04	101.445
1784.32	93.2293
1786.6	90.4574
1788.88	92.8664
1791.16	95.0965
1793.44	90.8753
1795.71	90.7422
1797.99	93.2993
1800.26	95.848
1802.54	88.7907
1804.81	93.4632
1807.08	90.7198
1809.35	96.0558
1811.62	85.8658
1813.88	92.667
1816.15	94.1813
1818.42	88.5146
1820.68	92.3976
1822.95	89.8002
1825.21	90.3627
1827.47	97.5559
1829.73	89.3944
1831.99	84.0241
1834.25	91.4098
1836.51	91.7771
1838.76	87.1797
1841.02	92.3192
1843.27	90.3419
1845.52	90.52
1847.78	90.7422
1850.03	85.4336
1852.28	83.2431
1854.53	86.4515
1856.78	89.1837
1859.02	86.488
1861.27	86.1114
1863.51	83.7369
1865.76	85.777
1868	84.4685
1870.24	79.8615
1872.48	84.271
1874.72	84.7713
1876.96	80.1532
1879.2	81.5324
1881.44	87.6558
1883.67	87.7008
1885.91	77.8266
1888.14	81.6199
1890.37	82.3865
1892.61	87.4493
1894.84	84.2993
1897.07	83.513
1899.29	84.6258
1901.52	87.3697
1903.75	87.8207
1905.97	84.6862
1908.2	84.0187
1910.42	88.7256
1912.64	81.3065
1914.87	82.5146
1917.09	83.1453
1919.31	81.367
1921.52	84.5897
1923.74	79.8363
1925.96	79.813
1928.17	77.4437
1930.39	77.1046
1932.6	78.0235
1934.81	75.6198
1937.03	78.5753
1939.24	78.6399
1941.45	77.9881
1943.65	76.7282
1945.86	77.2923
1948.07	79.0781
1950.27	73.9994
1952.48	77.1658
1954.68	78.2304
1956.88	75.6337
1959.08	75.1131
1961.29	84.848
1963.48	72.6337
1965.68	78.3675
1967.88	78.3327
1970.08	76.1105
1972.27	77.9875
1974.47	76.3754
1976.66	77.0559
1978.85	79.6044
1981.04	73.5908
1983.23	77.6891
1985.42	76.8737
1987.61	75.3146
1989.8	76.7452
1991.99	71.8882
1994.17	75.5146
1996.36	81.3891
1998.54	77.4099
2000.72	74.5574
2002.9	69.9076
2005.08	79.9242
2007.26	75.2641
2009.44	75.8881
2011.62	72.4863
2013.8	73.5495
2015.97	78.3627
2018.15	71.9018
2020.32	73.8325
2022.49	72.7085
2024.66	71.0073
2026.83	73.2404
2029	77.6311
2031.17	69.0563
2033.34	70.3686
2035.51	70.8892
2037.67	68.5628
2039.84	69.666
2042	70.4659
2044.16	71.3865
2046.32	68.7658
2048.48	72.2401
2050.64	67.5908
2052.8	66.9102
2054.96	71.3406
2057.12	69.2044
2059.27	69.6198
2061.43	69.3462
2063.58	66.0975
2065.73	67.7796
2067.89	67.7448
2070.04	67.0642
2072.19	64.8255
2074.34	67.2462
2076.48	69.3896
2078.63	65.4336
2080.78	63.8543
2082.92	70.5226
2085.07	61.3214
2087.21	68.1114
2089.35	64.3003
2091.49	64.5405
2093.63	65.4878
2095.77	66.1668
2097.91	69.9231
2100.05	64.5281
2102.19	68.3225
2104.32	60.3573
2106.45	62.818
2108.59	65.1532
2110.72	66.5209
2112.85	61.9114
2114.98	66.5181
2117.11	65.0422
2119.24	65.1643
2121.37	60.8753
2123.5	60.2924
2125.62	63.388
2127.75	62.812
2129.87	59.1405
2131.99	61.9242
2134.11	61.8737
2136.24	59.5625
2138.36	62.5972
2140.47	59.5908
2142.59	63.1104
2144.71	63.1528
2146.83	61.3891
2148.94	60.7096
2151.06	57.8199
2153.17	56.5626
2155.28	58.124
2157.39	62.0753
2159.5	60.9785
2161.61	59.999
2163.72	60.0781
2165.83	54.9183
2167.94	51.0532
2170.04	56.256
2172.15	61.9129
2174.25	58.9655
2176.35	58.6171
2178.45	59.9725
2180.56	63.8679
2182.66	53.3352
2184.75	58.2215
2186.85	57.5764
2188.95	55.3406
2191.05	55.8141
2193.14	59.931
2195.24	58.842
2197.33	55.7282
2199.42	55.1866
2201.51	55.2754
2203.6	57.7369
2205.69	57.7658
2207.78	55.4437
2209.87	52.7008
2211.96	52.5226
2214.04	53.9876
2216.13	54.0129
2218.21	58.6716
2220.29	60.0213
2222.38	59.9447
2224.46	56.7282
2226.54	57.1453
2228.62	54.506
2230.69	48.9591
2232.77	56.8464
2234.85	54.7642
2236.92	55.0532
2239	56.6908
2241.07	48.7669
2243.15	54.7424
2245.22	51.6739
2247.29	53.3627
2249.36	53.5893
2251.43	52.7713
2253.49	51.9226
2255.56	54.931
2257.63	51.4786
2259.69	52.1643
2261.76	52.7223
2263.82	50.9504
2265.88	50.6337
2267.95	52.9854
2270.01	51.5087
2272.07	50.5226
2274.12	47.549
2276.18	48.8019
2278.24	48.812
2280.3	53.3003
2282.35	51.0003
2284.41	49.3944
2286.46	50.6442
2288.51	47.0071
2290.56	49.9881
2292.61	49.7224
2294.66	45.3754
2296.71	52.4669
2298.76	47.5405
2300.8	45.0686
2302.85	47.0896
2304.9	48.6199
2306.94	47.8711
2308.98	46.3327
2311.03	51.5226
2313.07	48.0766
2315.11	47.0421
2317.15	45.8615
2319.19	45.0014
2321.22	49.4517
2323.26	45.6854
2325.3	46.7198
2327.33	50.1184
2329.36	46.6337
2331.4	43.7907
2333.43	47.9939
2335.46	46.5003
2337.49	50.0421
2339.52	46.9993
2341.55	47.8753
2343.58	45.0531
2345.6	48.7088
2347.63	55.9935
2349.65	50.0686
2351.68	44.0547
2353.7	47.3531
2355.72	48.7547
2357.74	45.498
2359.76	41.0129
2361.78	43.5087
2363.8	44.0642
2365.82	41.9892
2367.84	42.9654
2369.85	44.0895
2371.87	45.0337
2373.88	41.1813
2375.9	42.2641
2377.91	43.578
2379.92	44.3742
2381.93	44.9183
2383.94	40.1866
2385.95	41.931
2387.96	42.2754
2389.96	42.1532
2391.97	39.8559
2393.97	41.9876
2395.98	41.8892
2397.98	44.3696
2399.98	42.4517
2401.98	42.4865
2403.99	40.8701
2405.99	41.4104
2407.98	37.967
2409.98	39.506
2411.98	41.6198
2413.98	35.2114
2415.97	34.3462
2417.96	39.0129
2419.96	39.4865
2421.95	41.0073
2423.94	40.4865
2425.93	39.1184
2427.92	39.1533
2429.91	36.2924
2431.9	42.3001
2433.89	38.0018
2435.87	36.1892
2437.86	36.1475
2439.84	37.3102
2441.83	37.0364
2443.81	37.6908
2445.79	39.7986
2447.77	39.8199
2449.75	37.242
2451.73	34.6097
2453.71	36.9575
2455.69	39.52
2457.67	36.542
2459.64	37.4104
2461.62	37.1877
2463.59	34.4786
2465.56	37.5226
2467.54	36.2833
2469.51	38.7631
2471.48	33.8141
2473.45	36.4739
2475.42	39.2924
2477.38	38.4517
2479.35	34.2099
2481.32	35.1599
2483.28	38.8882
2485.25	32.8543
2487.21	33.9848
2489.17	36.7627
2491.13	33.1533
2493.09	36.1892
2495.05	33.1105
2497.01	38.6875
2498.97	33.8614
2500.93	35.8479
2502.89	34.9129
2504.84	33.7658
2506.8	33.667
2508.75	34.967
2510.7	39.5146
2512.65	33.8548
2514.61	35.7713
2516.56	34.0896
2518.51	31.666
2520.45	33.2977
2522.4	33.813
2524.35	33.9644
2526.29	33.4293
2528.24	32.5628
2530.18	32.4517
2532.13	34.3172
2534.07	33.0422
2536.01	29.6739
2537.95	34.8548
2539.89	30.9156
2541.83	34.3327
2543.77	31.9071
2545.71	28.4922
2547.64	31.9478
2549.58	32.7627
2551.51	31.3003
2553.45	31.5432
2555.38	33.4797
2557.31	34.4517
2559.25	33.9097
2561.18	31.8738
2563.11	32.8389
2565.03	30.0342
2566.96	30.2644
2568.89	33.3353
2570.82	31.5061
2572.74	34.5897
2574.67	31.3003
2576.59	29.0337
2578.51	29.7448
2580.43	29.7437
2582.36	30.3675
2584.28	31.7717
2586.2	32.5628
2588.11	33.3531
2590.03	28.9876
2591.95	31.614
2593.86	32.7781
2595.78	34.0616
2597.69	31.9848
2599.61	29.2241
2601.52	28.0615
2603.43	30.8962
2605.34	31.2076
2607.25	28.0364
2609.16	36.3326
2611.07	32.0294
2612.98	32.8559
2614.89	29.077
2616.79	31.7369
2618.7	33.0766
2620.6	27.967
2622.5	26.3671
2624.41	29.0643
2626.31	33.1325
2628.21	30.6681
2630.11	33.2586
2632.01	32.667
2633.91	33.0129
2635.8	29.7448
2637.7	31.9257
2639.6	29.2753
2641.49	29.6337
2643.39	33.5226
2645.28	37.5088
2647.17	42.8559
2649.06	42.7847
2650.95	36.7563
2652.84	31.585
2654.73	33.666
2656.62	33.2977
2658.51	33.8938
2660.4	36.9086
2662.28	31.8141
2664.17	30.931
2666.05	32.8197
2667.93	38.7008
2669.82	45.5431
2671.7	59.0532
2673.58	86.4267
2675.46	100.866
2677.34	104.43
2679.21	88.2505
2681.09	67.113
2682.97	60.2657
2684.84	50.8962
2686.72	40.7669
2688.59	52.931
2690.47	75.4115
2692.34	104.655
2694.21	266.59
2696.08	306.996
2697.95	262.95
2699.82	190.832
2701.69	99.6531
2703.56	74.6311
2705.42	58.4786
2707.29	47.9769
2709.15	41.0781
2711.02	36.7626
2712.88	34.1319
2714.75	29.7197
2716.61	32.7573
2718.47	31.4867
2720.33	28.2225
2722.19	29.8393
2724.05	30.0766
2725.9	26.7448
2727.76	29.52
2729.62	28.3531
2731.47	32.7283
2733.33	27.278
2735.18	24.9849
2737.03	26.0702
2738.88	26.3406
2740.73	23.9668
2742.59	25.5549
2744.43	26.7831
2746.28	24.113
2748.13	27.6326
2749.98	23.3003
2751.82	27.1892
2753.67	22.4384
2755.51	23.7088
2757.36	25.0781
2759.2	27.2811
2761.04	25.5609
2762.88	22.5796
