365.286	361.553
368.238	368.338
371.189	380.968
374.139	381.548
377.087	407.6
380.034	414.543
382.979	406.367
385.923	387.531
388.866	370.44
391.806	352.515
394.745	360.336
397.684	347.289
400.62	356.398
403.555	354.342
406.49	358.446
409.421	360.36
412.353	369.273
415.282	365.782
418.209	362.171
421.137	375.448
424.062	380.395
426.985	388.429
429.908	395.109
432.829	401.276
435.748	399.252
438.666	402.296
441.583	387.7
444.498	387.007
447.412	375.883
450.324	371.571
453.235	373.34
456.145	378.362
459.052	375.735
461.959	357.655
464.865	344.995
467.769	337.809
470.671	320.413
473.572	315.908
476.471	316.942
479.37	309.715
482.266	313.607
485.162	305.34
488.056	310.898
490.948	317.023
493.839	324.278
496.73	319.573
499.618	317.427
502.505	321.133
505.39	320.371
508.275	314.996
511.157	320.705
514.039	335.702
516.919	337.651
519.798	335.968
522.674	317.841
525.55	307.696
528.425	305.496
531.297	300.553
534.169	296.464
537.039	290.976
539.908	285.799
542.775	282.688
545.642	277.846
548.506	284.531
551.369	291.094
554.231	283.169
557.092	286.3
559.951	292.336
562.808	292.287
565.664	294.169
568.519	285.442
571.373	298.618
574.225	290.916
577.076	294.321
579.925	288.626
582.773	290.523
585.62	292.822
588.466	289.503
591.309	294.741
594.152	284.448
596.993	300.401
599.832	295.466
602.671	289.832
605.508	289.018
608.343	276.609
611.178	279.731
614.011	282.858
616.842	287.691
619.672	275.858
622.501	277.544
625.329	281.983
628.155	293.333
630.98	286.894
633.802	293.412
636.624	296.444
639.445	296.16
642.264	290.469
645.082	297.412
647.898	286.951
650.714	301.598
653.527	309.221
656.34	321.37
659.151	321.534
661.961	322.454
664.769	326.114
667.576	307.189
670.382	288.696
673.186	286.38
675.989	274.317
678.791	272.865
681.591	271.15
684.39	267.211
687.187	275.323
689.983	274.143
692.779	279.205
695.572	279.604
698.363	281.22
701.155	282.484
703.944	274.996
706.733	278.307
709.519	279.351
712.305	285.544
715.089	284.007
717.871	284.028
720.653	289.01
723.433	293.699
726.212	294.017
728.989	284.989
731.765	280.996
734.54	279.544
737.313	276.418
740.085	279.253
742.856	278.767
745.625	279.914
748.394	263.538
751.16	271.926
753.926	276.914
756.689	278.861
759.452	279.237
762.214	277.205
764.974	274.803
767.733	275.746
770.49	285.003
773.246	285.38
776.001	290.851
778.755	279.54
781.507	280.207
784.258	270.948
787.007	278.231
789.756	289.372
792.502	288.796
795.247	293.138
797.992	297.087
800.735	300.28
803.477	298.332
806.217	300.989
808.956	294.985
811.694	307.477
814.43	308.3
817.165	323.825
819.899	313.497
822.631	316.325
825.362	293.614
828.092	294.585
830.82	287.913
833.548	292.603
836.274	285.831
838.998	281.15
841.721	289.292
844.444	289.947
847.165	291.403
849.884	284.178
852.601	285.025
855.318	284.947
858.034	275.781
860.749	279.185
863.461	284.025
866.173	270.602
868.883	269.995
871.592	274.913
874.3	277.338
877.006	276.656
879.712	270.775
882.415	269.036
885.118	264.165
887.819	269.935
890.519	271.531
893.218	268.108
895.914	255.392
898.611	266.675
901.306	269.462
903.999	271.886
906.692	267.938
909.382	268.123
912.072	263.907
914.761	273.469
917.447	258.896
920.133	274.439
922.818	272.636
925.501	257.065
928.183	263.783
930.864	261.572
933.543	262.822
936.221	257.825
938.898	258.38
941.574	254.087
944.248	264.781
946.921	260.402
949.593	259.218
952.263	253.371
954.932	248.471
957.6	258.564
960.267	257.358
962.932	256.747
965.597	259.814
968.26	255.053
970.922	255.856
973.581	258.681
976.241	268.333
978.898	269.173
981.555	267.243
984.21	283.342
986.864	292.819
989.517	309.173
992.169	332.112
994.819	351.11
997.468	378.262
1000.12	379.911
1002.76	417.12
1005.41	415.473
1008.05	446.041
1010.69	440.469
1013.34	438.76
1015.98	412.178
1018.61	377.832
1021.25	333.094
1023.89	301.603
1026.52	288.08
1029.16	281.422
1031.79	264.798
1034.42	272.58
1037.05	267.869
1039.68	264.427
1042.31	264.649
1044.93	286.563
1047.56	287.491
1050.18	288.036
1052.81	295.883
1055.43	292.068
1058.05	300.541
1060.67	288.424
1063.28	282.206
1065.9	283.723
1068.52	292.962
1071.13	293.042
1073.74	299.857
1076.35	301.651
1078.96	304.585
1081.57	319.207
1084.18	325.74
1086.79	342.037
1089.39	351.916
1092	380.491
1094.6	385.045
1097.2	385.471
1099.8	369.775
1102.4	359.594
1105	342.471
1107.6	328.644
1110.19	341.022
1112.79	338.359
1115.38	343.878
1117.97	347.921
1120.56	344.631
1123.15	350.26
1125.74	343.86
1128.33	331.523
1130.91	313.433
1133.5	301.74
1136.08	298.19
1138.66	288.185
1141.24	280.087
1143.82	271.383
1146.4	284.112
1148.98	285.803
1151.55	286.016
1154.13	283.884
1156.7	277.947
1159.27	277.211
1161.85	268.863
1164.42	267.154
1166.98	266.065
1169.55	260.351
1172.12	268.521
1174.68	271.582
1177.25	260.387
1179.81	257.767
1182.37	254.498
1184.93	259.471
1187.49	249.024
1190.05	246.723
1192.6	249.367
1195.16	240.691
1197.71	238.155
1200.27	246.831
1202.82	230.836
1205.37	232.392
1207.92	234.822
1210.47	237.605
1213.01	232.942
1215.56	234.044
1218.1	230.08
1220.65	240.137
1223.19	246.197
1225.73	236.176
1228.27	234.053
1230.81	242.453
1233.35	244.512
1235.88	240.067
1238.42	248.38
1240.95	244.582
1243.48	239.067
1246.02	225.51
1248.55	232.711
1251.07	232.434
1253.6	232.351
1256.13	229.489
1258.66	235.08
1261.18	236.573
1263.7	237.143
1266.22	239.018
1268.75	234.491
1271.27	242.642
1273.78	239.81
1276.3	246.073
1278.82	248.723
1281.33	245.074
1283.85	243.76
1286.36	242.872
1288.87	249.018
1291.38	245.605
1293.89	247.892
1296.4	241.35
1298.9	241.249
1301.41	241.955
1303.91	237.65
1306.41	237.54
1308.92	232.157
1311.42	236.992
1313.92	235.538
1316.42	238.37
1318.91	238.025
1321.41	242.351
1323.9	235.872
1326.4	237.085
1328.89	250.651
1331.38	246.874
1333.87	242.066
1336.36	240.36
1338.85	250.956
1341.34	246.872
1343.82	236.939
1346.31	245.491
1348.79	238.691
1351.27	238.358
1353.75	242.027
1356.23	246.881
1358.71	239.66
1361.19	247.482
1363.66	254.234
1366.14	255.194
1368.61	261.458
1371.09	270.563
1373.56	274.434
1376.03	276.724
1378.5	291.664
1380.96	294.456
1383.43	281.874
1385.9	288.935
1388.36	273.898
1390.83	275.269
1393.29	259.609
1395.75	241.439
1398.21	241.117
1400.67	232.365
1403.13	229.762
1405.58	232.289
1408.04	219.878
1410.49	219.289
1412.95	222.462
1415.4	211.48
1417.85	221.594
1420.3	215.433
1422.75	219.753
1425.2	225.176
1427.64	217.762
1430.09	220.503
1432.53	222.246
1434.97	216.35
1437.42	213.157
1439.86	211.938
1442.3	210.256
1444.73	202.933
1447.17	208.983
1449.61	202.933
1452.04	206.661
1454.48	204.535
1456.91	191.473
1459.34	198.933
1461.77	191.684
1464.2	190.951
1466.63	198.663
1469.06	197.176
1471.48	205.252
1473.91	193.567
1476.33	190.888
1478.75	195.121
1481.17	187.457
1483.6	196.266
1486.01	190.473
1488.43	186.433
1490.85	186.442
1493.27	180.036
1495.68	178.913
1498.09	173.138
1500.51	176.896
1502.92	177.716
1505.33	175.672
1507.74	177.047
1510.14	171.826
1512.55	174.478
1514.96	171.098
1517.36	169.362
1519.77	171.985
1522.17	171.283
1524.57	176.603
1526.97	175.73
1529.37	172.791
1531.77	172.427
1534.16	178.353
1536.56	177.752
1538.95	184.205
1541.35	182.341
1543.74	183.758
1546.13	181.428
1548.52	180.989
1550.91	189.535
1553.3	186.384
1555.68	181.036
1558.07	182.969
1560.45	178.562
1562.84	189.287
1565.22	189.997
1567.6	196.343
1569.98	192.402
1572.36	189.247
1574.74	194.025
1577.12	196.091
1579.49	194.448
1581.87	192.42
1584.24	188.711
1586.61	180.031
1588.98	178.08
1591.35	175.446
1593.72	179.022
1596.09	176.627
1598.46	166.312
1600.82	166.757
1603.19	165.19
1605.55	162.38
1607.92	167.66
1610.28	162.634
1612.64	164.422
1615	158.597
1617.36	153.326
1619.71	158.397
1622.07	152.314
1624.42	151.305
1626.78	144.993
1629.13	154.774
1631.48	147.931
1633.83	147.078
1636.18	152.745
1638.53	155.775
1640.88	147.478
1643.22	149.254
1645.57	153.649
1647.91	151.078
1650.26	149.12
1652.6	147.814
1654.94	147.771
1657.28	146.779
1659.62	150.762
1661.96	150.551
1664.29	140.625
1666.63	146.313
1668.96	144.043
1671.3	141.391
1673.63	142.133
1675.96	135.25
1678.29	141.437
1680.62	135.478
1682.95	138.638
1685.27	136.513
1687.6	136.716
1689.92	140.932
1692.25	141.666
1694.57	131.639
1696.89	132.758
1699.21	136.556
1701.53	137.027
1703.85	133.718
1706.17	133.607
1708.48	135.041
1710.8	134.329
1713.11	138.04
1715.43	138.434
1717.74	137.877
1720.05	135.848
1722.36	128.104
1724.67	133.846
1726.97	130.042
1729.28	133.84
1731.59	134.514
1733.89	130.622
1736.19	134.404
1738.5	127.007
1740.8	129.283
1743.1	126.84
1745.4	126.757
1747.7	128.119
1749.99	124.385
1752.29	132.897
1754.58	121.176
1756.88	126.867
1759.17	119.141
1761.46	120.785
1763.75	122.089
1766.04	116.443
1768.33	118.18
1770.62	120.548
1772.91	118.029
1775.19	119.882
1777.48	115.256
1779.76	112.402
1782.04	117.557
1784.32	115.132
1786.6	111.355
1788.88	112.624
1791.16	110.633
1793.44	113.654
1795.71	113.741
1797.99	112.286
1800.26	116.663
1802.54	104.563
1804.81	114.172
1807.08	115.39
1809.35	111.825
1811.62	108.077
1813.88	111.993
1816.15	106.271
1818.42	112.526
1820.68	106.403
1822.95	103.416
1825.21	103.256
1827.47	98.1198
1829.73	105.001
1831.99	105.201
1834.25	102.636
1836.51	101.152
1838.76	105.832
1841.02	101.674
1843.27	101.707
1845.52	100.853
1847.78	95.0611
1850.03	98.7089
1852.28	100.478
1854.53	94.8704
1856.78	98.3049
1859.02	96.5076
1861.27	97.0541
1863.51	96.6242
1865.76	95.9681
1868	87.9868
1870.24	98.535
1872.48	94.8089
1874.72	94.0429
1876.96	93.5049
1879.2	96.034
1881.44	93.2975
1883.67	87.6581
1885.91	93.2137
1888.14	92.6674
1890.37	91.9576
1892.61	92.2999
1894.84	91.2651
1897.07	91.019
1899.29	94.616
1901.52	87.437
1903.75	96.4581
1905.97	84.7915
1908.2	89.8398
1910.42	85.4783
1912.64	86.7202
1914.87	85.1248
1917.09	86.5745
1919.31	87.145
1921.52	90.1513
1923.74	87.6978
1925.96	88.4836
1928.17	90.6047
1930.39	81.4867
1932.6	89.5197
1934.81	87.8704
1937.03	84.5692
1939.24	85.1301
1941.45	89.5065
1943.65	86.7354
1945.86	91.0047
1948.07	88.4455
1950.27	86.7005
1952.48	83.6857
1954.68	87.9005
1956.88	85.8409
1959.08	89.938
1961.29	85.1864
1963.48	85.9576
1965.68	81.75
1967.88	86.8465
1970.08	86.1188
1972.27	79.5895
1974.47	83.6866
1976.66	82.1825
1978.85	79.3846
1981.04	82.347
1983.23	82.6097
1985.42	79.2909
1987.61	77.2644
1989.8	77.8389
1991.99	79.7152
1994.17	78.3868
1996.36	80.417
1998.54	76.7772
2000.72	78.826
2002.9	79.2714
2005.08	79.3351
2007.26	74.1888
2009.44	79.4581
2011.62	81.2827
2013.8	73.3523
2015.97	75.324
2018.15	79.0242
2020.32	82.4125
2022.49	78.4431
2024.66	73.2412
2026.83	75.2833
2029	75.7695
2031.17	77.8555
2033.34	76.7179
2035.51	75.1715
2037.67	68.9722
2039.84	77.1451
2042	71.6747
2044.16	74.1301
2046.32	64.6999
2048.48	74.8814
2050.64	72.8806
2052.8	72.1443
2054.96	75.6068
2057.12	73.1596
2059.27	68.3762
2061.43	73.5543
2063.58	71.9995
2065.73	69.2909
2067.89	71.1715
2070.04	68.414
2072.19	67.742
2074.34	68.1241
2076.48	72.8479
2078.63	65.9995
2080.78	69.5278
2082.92	72.1883
2085.07	66.4644
2087.21	65.1917
2089.35	69.0956
2091.49	67.4783
2093.63	64.4854
2095.77	65.1825
2097.91	68.4372
2100.05	65.9095
2102.19	63.6684
2104.32	66.4957
2106.45	69.1533
2108.59	66.6866
2110.72	69.6783
2112.85	62.3825
2114.98	62.7208
2117.11	58.1722
2119.24	64.5271
2121.37	64.0332
2123.5	57.9695
2125.62	58.0392
2127.75	64.1722
2129.87	60.2338
2131.99	60.3725
2134.11	62.9311
2136.24	60.9785
2138.36	59.2442
2140.47	61.2936
2142.59	57.1503
2144.71	63.7569
2146.83	58.8409
2148.94	57.3248
2151.06	55.6863
2153.17	61.7473
2155.28	58.7765
2157.39	52.324
2159.5	56.6332
2161.61	55.0116
2163.72	54.5947
2165.83	57.3965
2167.94	59.321
2170.04	53.952
2172.15	57.0827
2174.25	57.1128
2176.35	51.347
2178.45	54.4439
2180.56	52.8409
2182.66	54.5692
2184.75	52.6803
2186.85	57.6215
2188.95	48.152
2191.05	52.2562
2193.14	55.6389
2195.24	50.0137
2197.33	52.6187
2199.42	49.4986
2201.51	50.8681
2203.6	51.1513
2205.69	52.0409
2207.78	49.1743
2209.87	54.1356
2211.96	48.3944
2214.04	47.7915
2216.13	51.0512
2218.21	45.3965
2220.29	50.6753
2222.38	52.8734
2224.46	46.9695
2226.54	52.8674
2228.62	49.2028
2230.69	48.2854
2232.77	48.4784
2234.85	49.9079
2236.92	49.7765
2239	45.6803
2241.07	47.6348
2243.15	45.959
2245.22	47.8409
2247.29	49.1301
2249.36	41.0714
2251.43	44.9079
2253.49	41.959
2255.56	43.1743
2257.63	44.5692
2259.69	41.4784
2261.76	43.7915
2263.82	40.1743
2265.88	41.2562
2267.95	45.4379
2270.01	43.3533
2272.07	41.0541
2274.12	41.9716
2276.18	44.152
2278.24	40.2554
2280.3	37.944
2282.35	44.7068
2284.41	39.1503
2286.46	40.3944
2288.51	39.9925
2290.56	42.5957
2292.61	39.3056
2294.66	38.8438
2296.71	40.811
2298.76	42.3328
2300.8	39.5745
2302.85	37.8584
2304.9	39.5341
2306.94	38.7623
2308.98	39.2495
2311.03	38.5692
2313.07	37.9925
2315.11	36.5076
2317.15	40.8409
2319.19	38.8169
2321.22	36.8883
2323.26	36.8824
2325.3	37.6389
2327.33	39.8409
2329.36	40.3944
2331.4	38.95
2333.43	38.4575
2335.46	37.952
2337.49	37.6389
2339.52	35.5267
2341.55	39.8605
2343.58	36.2833
2345.6	39.5543
2347.63	46.4047
2349.65	35.8409
2351.68	38.3965
2353.7	36.0611
2355.72	35.959
2357.74	35.8633
2359.76	37.3875
2361.78	32.0632
2363.8	36.5278
2365.82	33.7765
2367.84	37.556
2369.85	35.3875
2371.87	32.347
2373.88	36.95
2375.9	33.022
2377.91	34.3965
2379.92	35.7278
2381.93	34.1301
2383.94	35.7563
2385.95	33.3742
2387.96	33.8409
2389.96	31.7076
2391.97	30.423
2393.97	29.6309
2395.98	30.3735
2397.98	33.6602
2399.98	33.5895
2401.98	35.2833
2403.99	30.8117
2405.99	31.5762
2407.98	32.3049
2409.98	31.2554
2411.98	32.1248
2413.98	31.2014
2415.97	29.6866
2417.96	33.7158
2419.96	27.8187
2421.95	32.0409
2423.94	24.4431
2425.93	29.8806
2427.92	29.6803
2429.91	29.2644
2431.9	29.6661
2433.89	30.6389
2435.87	31.3258
2437.86	32.7368
2439.84	28.75
2441.83	30.952
2443.81	30.9229
2445.79	29.8611
2447.77	27.0047
2449.75	27.3049
2451.73	25.6166
2453.71	28.1106
2455.69	25.8674
2457.67	23.7298
2459.64	27.1248
2461.62	27.7915
2463.59	26.6166
2465.56	26.8389
2467.54	25.7873
2469.51	26.2854
2471.48	22.5543
2473.45	26.952
2475.42	28.8611
2477.38	27.3482
2479.35	25.9095
2481.32	27.5049
2483.28	30.332
2485.25	22.9009
2487.21	25.0165
2489.17	23.6187
2491.13	24.9722
2493.09	29.2882
2495.05	26.2168
2497.01	27.4665
2498.97	28.8584
2500.93	23.034
2502.89	24.943
2504.84	26.3938
2506.8	28.7278
2508.75	26.3056
2510.7	24.7167
2512.65	24.8187
2514.61	26.5014
2516.56	25.4034
2518.51	23.0833
2520.45	24.8382
2522.4	24.3624
2524.35	26.7563
2526.29	26.1036
2528.24	21.7298
2530.18	20.6097
2532.13	25.6803
2534.07	24.2359
2536.01	24.943
2537.95	24.3268
2539.89	21.3944
2541.83	26.347
2543.77	22.1743
2545.71	23.5692
2547.64	21.5347
2549.58	21.0611
2551.51	22.7824
2553.45	23.3125
2555.38	24.5543
2557.31	23.1771
2559.25	21.2338
2561.18	21.5347
2563.11	22.2412
2565.03	22.7765
2566.96	24.9298
2568.89	18.2854
2570.82	21.75
2572.74	19.8389
2574.67	23.5509
2576.59	20.3875
2578.51	19.8319
2580.43	21.5076
2582.36	19.8187
2584.28	22.1308
2586.2	21.3993
2588.11	20.3965
2590.03	22.0485
2591.95	24.6584
2593.86	18.95
2595.78	22.259
2597.69	20.4854
2599.61	22.3429
2601.52	20.2521
2603.43	20.959
2605.34	18.5035
2607.25	19.6166
2609.16	22.1876
2611.07	21.0896
2612.98	19.5055
2614.89	18.5055
2616.79	22.6166
2618.7	22.7298
2620.6	18.1743
2622.5	18.75
2624.41	22.7563
2626.31	23.0408
2628.21	20.1046
2630.11	16.5745
2632.01	23.2014
2633.91	20.5745
2635.8	20.1743
2637.7	25.0903
2639.6	20.6458
2641.49	20.7765
2643.39	27.8814
2645.28	30.9095
2647.17	35.1098
2649.06	30.943
2650.95	26.9716
2652.84	24.2792
2654.73	23.7058
2656.62	23.3924
2658.51	26.7772
2660.4	24.2854
2662.28	21.8883
2664.17	23.3965
2666.05	21.7915
2667.93	24.4431
2669.82	32.5237
2671.7	44.9026
2673.58	71.2785
2675.46	80.3604
2677.34	87.7731
2679.21	70.8773
2681.09	56.4593
2682.97	48.4328
2684.84	38.6125
2686.72	32.5299
2688.59	41.7298
2690.47	67.3268
2692.34	89.1462
2694.21	221.447
2696.08	259.509
2697.95	244.571
2699.82	186.299
2701.69	89.8347
2703.56	59.662
2705.42	45.1798
2707.29	37.5543
2709.15	32.6389
2711.02	22.3965
2712.88	23.4449
2714.75	22.1029
2716.61	21.5076
2718.47	21.3965
2720.33	21.4125
2722.19	20.8681
2724.05	18.9925
2725.9	21.0632
2727.76	18.7006
2729.62	17.7202
2731.47	20.4167
2733.33	21.3944
2735.18	19.7984
2737.03	15.407
2738.88	17.2827
2740.73	16.5055
2742.59	15.0137
2744.43	18.0632
2746.28	16.75
2748.13	18.1722
2749.98	15.6866
2751.82	17.0409
2753.67	16.1451
2755.51	16.5676
2757.36	14.2147
2759.2	16.1966
2761.04	12.2854
2762.88	14.549
