365.286	356.502
368.238	366.709
371.189	377.483
374.139	389.511
377.087	412.7
380.034	411.893
382.979	389.423
385.923	391.149
388.866	364.7
391.806	373.067
394.745	366.495
397.684	362.753
400.62	378.265
403.555	381.462
406.49	374.934
409.421	393.71
412.353	388.74
415.282	388.582
418.209	386.018
421.137	390.399
424.062	409.864
426.985	422.505
429.908	438.68
432.829	444.511
435.748	443.915
438.666	428.331
441.583	412.82
444.498	401.753
447.412	385.367
450.324	389.125
453.235	375.726
456.145	380.833
459.052	383.892
461.959	363.712
464.865	333.598
467.769	328.44
470.671	335.795
473.572	332.149
476.471	330.602
479.37	329.268
482.266	335.058
485.162	319.717
488.056	333.884
490.948	323.693
493.839	330.374
496.73	333.734
499.618	318.218
502.505	324.09
505.39	328.864
508.275	321.241
511.157	323.859
514.039	329
516.919	330.033
519.798	329.351
522.674	321.4
525.55	313.244
528.425	309.613
531.297	302.891
534.169	296.419
537.039	290.531
539.908	288.385
542.775	295.098
545.642	295.55
548.506	297.132
551.369	294.925
554.231	289.243
557.092	287.899
559.951	289.645
562.808	285.927
565.664	299.784
568.519	294.135
571.373	294.528
574.225	287.089
577.076	286.244
579.925	290.237
582.773	290.892
585.62	279.439
588.466	283.931
591.309	279.254
594.152	282.125
596.993	285.268
599.832	291.772
602.671	283.359
605.508	284.494
608.343	280.347
611.178	293.839
614.011	296.422
616.842	291.729
619.672	296.74
622.501	307.95
625.329	313.824
628.155	307.792
630.98	309.009
633.802	307.024
636.624	319.542
639.445	304.511
642.264	295.554
645.082	301.16
647.898	304.131
650.714	324.239
653.527	327.346
656.34	330.935
659.151	323.748
661.961	324.019
664.769	318.042
667.576	302.037
670.382	282.224
673.186	285.994
675.989	279.74
678.791	283.439
681.591	279.109
684.39	279.265
687.187	273.26
689.983	279.375
692.779	277.836
695.572	279.69
698.363	281.641
701.155	283.458
703.944	286.815
706.733	291.934
709.519	294.57
712.305	296.667
715.089	307.22
717.871	307.482
720.653	301.782
723.433	295.665
726.212	294.898
728.989	297.283
731.765	292.525
734.54	291.459
737.313	290.326
740.085	294.401
742.856	297.106
745.625	297.956
748.394	300.395
751.16	294.042
753.926	293.775
756.689	299.557
759.452	298.439
762.214	308.554
764.974	303.502
767.733	302.49
770.49	293.264
773.246	290.039
776.001	292.707
778.755	301.323
781.507	288.927
784.258	288.359
787.007	306.918
789.756	298.866
792.502	298.042
795.247	297.003
797.992	305.947
800.735	288.954
803.477	293.669
806.217	296.029
808.956	299.347
811.694	306.798
814.43	311.105
817.165	302.021
819.899	298.771
822.631	292.7
825.362	291.125
828.092	287.887
830.82	281.529
833.548	288.929
836.274	279.058
838.998	294.598
841.721	289.906
844.444	276.642
847.165	275.736
849.884	276.588
852.601	273.69
855.318	278.192
858.034	267.24
860.749	271.394
863.461	272.693
866.173	268.915
868.883	262.661
871.592	265.749
874.3	273.889
877.006	269.417
879.712	259.062
882.415	259.109
885.118	261.816
887.819	263.903
890.519	265.926
893.218	259.951
895.914	268.617
898.611	267.491
901.306	270.264
903.999	265.105
906.692	264.923
909.382	268.644
912.072	276.665
914.761	265.661
917.447	268.526
920.133	263.824
922.818	265.983
925.501	270.459
928.183	252.261
930.864	266.664
933.543	259.553
936.221	259.003
938.898	256.681
941.574	255.755
944.248	258.17
946.921	263.553
949.593	265.065
952.263	257.154
954.932	263.439
957.6	264.511
960.267	263.883
962.932	263.106
965.597	272.797
968.26	272.404
970.922	287.024
973.581	292.758
976.241	300.359
978.898	313.197
981.555	333.149
984.21	362.938
986.864	402.394
989.517	430.377
992.169	479.575
994.819	508.753
997.468	539.932
1000.12	539.843
1002.76	549.778
1005.41	534.582
1008.05	501.468
1010.69	456.69
1013.34	418.268
1015.98	375.174
1018.61	329.978
1021.25	306.169
1023.89	300.19
1026.52	285.13
1029.16	282.68
1031.79	286.522
1034.42	290.891
1037.05	286.839
1039.68	302.346
1042.31	324.129
1044.93	338.45
1047.56	340.864
1050.18	332.509
1052.81	325.903
1055.43	307.69
1058.05	313.316
1060.67	307.617
1063.28	292.862
1065.9	299.403
1068.52	308.89
1071.13	308.755
1073.74	325.553
1076.35	342.062
1078.96	340.927
1081.57	353.505
1084.18	347.473
1086.79	355.451
1089.39	361.115
1092	383.706
1094.6	392.287
1097.2	393.693
1099.8	379.42
1102.4	362.184
1105	362.642
1107.6	369.64
1110.19	372.321
1112.79	389
1115.38	400.553
1117.97	401.086
1120.56	386.299
1123.15	375.471
1125.74	355.343
1128.33	348.042
1130.91	320.002
1133.5	316.498
1136.08	298.663
1138.66	298.399
1141.24	296.374
1143.82	292.562
1146.4	289.177
1148.98	303.366
1151.55	302.343
1154.13	304.083
1156.7	298.689
1159.27	303.641
1161.85	293.795
1164.42	294.044
1166.98	285.68
1169.55	279.856
1172.12	277.82
1174.68	270.569
1177.25	273.304
1179.81	272.51
1182.37	264.903
1184.93	267.091
1187.49	262.692
1190.05	258.937
1192.6	258.729
1195.16	250.476
1197.71	247.729
1200.27	249.617
1202.82	231.65
1205.37	244.884
1207.92	244.89
1210.47	245.773
1213.01	244.886
1215.56	236.109
1218.1	255.106
1220.65	251.197
1223.19	262.312
1225.73	261.312
1228.27	258.365
1230.81	257.326
1233.35	260.713
1235.88	258.671
1238.42	257.263
1240.95	251.022
1243.48	248.24
1246.02	255.013
1248.55	255.884
1251.07	247.422
1253.6	252.47
1256.13	250.684
1258.66	249.727
1261.18	250.882
1263.7	257.797
1266.22	256.91
1268.75	256.478
1271.27	263.42
1273.78	274.309
1276.3	255.712
1278.82	273.525
1281.33	272.751
1283.85	263.177
1286.36	266.995
1288.87	268.375
1291.38	273.336
1293.89	272.68
1296.4	272.383
1298.9	275.153
1301.41	271.541
1303.91	277.728
1306.41	278.046
1308.92	265.788
1311.42	277.125
1313.92	257.2
1316.42	269.747
1318.91	261.125
1321.41	274.125
1323.9	259.645
1326.4	272.326
1328.89	271.545
1331.38	262.417
1333.87	265.596
1336.36	271.508
1338.85	280.792
1341.34	277.903
1343.82	267.085
1346.31	271.042
1348.79	262.797
1351.27	270.748
1353.75	265.798
1356.23	262.772
1358.71	286.173
1361.19	276.482
1363.66	286.574
1366.14	282.19
1368.61	285.709
1371.09	281.985
1373.56	296.744
1376.03	313.3
1378.5	311.657
1380.96	303.343
1383.43	300.307
1385.9	289.531
1388.36	291.237
1390.83	279.621
1393.29	269.439
1395.75	255.419
1398.21	255.522
1400.67	255.995
1403.13	254.309
1405.58	250.62
1408.04	248.356
1410.49	245.8
1412.95	251.928
1415.4	237.38
1417.85	235.423
1420.3	234.479
1422.75	236.442
1425.2	243.129
1427.64	238.772
1430.09	238.892
1432.53	231.102
1434.97	226.086
1437.42	229.62
1439.86	233.194
1442.3	219.474
1444.73	222.745
1447.17	218.531
1449.61	220.086
1452.04	215.594
1454.48	219.885
1456.91	220.336
1459.34	219.916
1461.77	215.439
1464.2	212.193
1466.63	214.506
1469.06	216.391
1471.48	213.468
1473.91	209.216
1476.33	214.88
1478.75	214.652
1481.17	222.28
1483.6	205.439
1486.01	202.417
1488.43	210.922
1490.85	203.534
1493.27	201.097
1495.68	205.176
1498.09	191.511
1500.51	188.867
1502.92	197.839
1505.33	190.293
1507.74	202.217
1510.14	199.109
1512.55	197.657
1514.96	194.404
1517.36	206.816
1519.77	198.346
1522.17	208.95
1524.57	197.887
1526.97	205.483
1529.37	207.636
1531.77	207.329
1534.16	201.793
1536.56	203.349
1538.95	203.57
1541.35	210.55
1543.74	210.658
1546.13	222.243
1548.52	216.264
1550.91	208.407
1553.3	211.788
1555.68	214.34
1558.07	206.101
1560.45	223.205
1562.84	210.324
1565.22	222.772
1567.6	222.176
1569.98	229.947
1572.36	234.653
1574.74	233.189
1577.12	228.237
1579.49	221.902
1581.87	226.931
1584.24	219.107
1586.61	216.756
1588.98	217.884
1591.35	213.121
1593.72	222.297
1596.09	205.864
1598.46	207.546
1600.82	204.117
1603.19	191.53
1605.55	200.019
1607.92	192.859
1610.28	189.582
1612.64	194.467
1615	191.531
1617.36	186.505
1619.71	187.189
1622.07	178.661
1624.42	178.886
1626.78	182.576
1629.13	177.106
1631.48	173.229
1633.83	178.971
1636.18	180.01
1638.53	177.362
1640.88	170.106
1643.22	174.347
1645.57	170.704
1647.91	168.482
1650.26	173.779
1652.6	171.01
1654.94	175.128
1657.28	168.208
1659.62	168.102
1661.96	170.904
1664.29	167.947
1666.63	167.967
1668.96	159.503
1671.3	159.213
1673.63	159.736
1675.96	160.861
1678.29	162.502
1680.62	153.059
1682.95	161.308
1685.27	159.288
1687.6	163.177
1689.92	160.26
1692.25	161.662
1694.57	153.832
1696.89	167.772
1699.21	158.629
1701.53	155.411
1703.85	158.308
1706.17	163.78
1708.48	159.331
1710.8	157.137
1713.11	156.558
1715.43	165.667
1717.74	162.681
1720.05	165.355
1722.36	157.003
1724.67	160.089
1726.97	153.288
1729.28	159.177
1731.59	151.686
1733.89	158.411
1736.19	153.484
1738.5	163.815
1740.8	155.265
1743.1	155.795
1745.4	150.015
1747.7	150.117
1749.99	156.006
1752.29	149.192
1754.58	153.889
1756.88	153.343
1759.17	147.305
1761.46	154.184
1763.75	145.285
1766.04	144.198
1768.33	146.782
1770.62	146.466
1772.91	146.984
1775.19	148.101
1777.48	142.402
1779.76	147.859
1782.04	147.149
1784.32	140.633
1786.6	142.518
1788.88	143.336
1791.16	137.295
1793.44	147.308
1795.71	142.769
1797.99	144.804
1800.26	134.423
1802.54	142.864
1804.81	148.133
1807.08	137.03
1809.35	139.962
1811.62	139.102
1813.88	139.215
1816.15	140.056
1818.42	141.445
1820.68	140.384
1822.95	140.879
1825.21	146.161
1827.47	141.202
1829.73	137.106
1831.99	135.88
1834.25	145.018
1836.51	131.697
1838.76	137.594
1841.02	136.848
1843.27	133.376
1845.52	135.681
1847.78	135.149
1850.03	139.268
1852.28	135.72
1854.53	138.337
1856.78	137.997
1859.02	135.006
1861.27	132.724
1863.51	140.788
1865.76	136.879
1868	133.962
1870.24	136.88
1872.48	138.582
1874.72	136.217
1876.96	140.908
1879.2	135.384
1881.44	135.081
1883.67	125.387
1885.91	134.517
1888.14	133.403
1890.37	134.221
1892.61	130.647
1894.84	128.406
1897.07	133.607
1899.29	135.892
1901.52	131.705
1903.75	137.207
1905.97	126.296
1908.2	125.403
1910.42	128.962
1912.64	128.986
1914.87	129.769
1917.09	130.975
1919.31	129.232
1921.52	130.383
1923.74	131.574
1925.96	136.55
1928.17	128.473
1930.39	133.562
1932.6	132.978
1934.81	138.232
1937.03	134.306
1939.24	129.491
1941.45	130.129
1943.65	128.252
1945.86	126.785
1948.07	131.294
1950.27	127.362
1952.48	128.237
1954.68	119.986
1956.88	122.839
1959.08	127.277
1961.29	116.645
1963.48	115.947
1965.68	118.44
1967.88	124.428
1970.08	124.573
1972.27	125.092
1974.47	121.986
1976.66	122.652
1978.85	120.053
1981.04	117.709
1983.23	119.78
1985.42	121.089
1987.61	117.363
1989.8	119.303
1991.99	123.536
1994.17	118.534
1996.36	120.55
1998.54	123.749
2000.72	120.118
2002.9	117.161
2005.08	126.791
2007.26	122.539
2009.44	119.629
2011.62	124.192
2013.8	122.297
2015.97	120.658
2018.15	119.339
2020.32	117.614
2022.49	118.931
2024.66	114.566
2026.83	119.423
2029	118.004
2031.17	124.086
2033.34	110.899
2035.51	119.662
2037.67	120.446
2039.84	117.039
2042	120.271
2044.16	114.672
2046.32	118.915
2048.48	118.935
2050.64	117.638
2052.8	119.673
2054.96	120.657
2057.12	115.447
2059.27	111.323
2061.43	113.319
2063.58	118.359
2065.73	116.609
2067.89	113.502
2070.04	112.097
2072.19	108.626
2074.34	107.657
2076.48	109.01
2078.63	115.094
2080.78	111.799
2082.92	109.628
2085.07	111.768
2087.21	111.388
2089.35	107.471
2091.49	107.669
2093.63	101.698
2095.77	107.805
2097.91	106.547
2100.05	108.93
2102.19	105.734
2104.32	104.419
2106.45	108.876
2108.59	106.845
2110.72	108.164
2112.85	104.407
2114.98	105.879
2117.11	104.901
2119.24	112.679
2121.37	110.609
2123.5	103.428
2125.62	112.102
2127.75	104.42
2129.87	103.983
2131.99	104.324
2134.11	106.003
2136.24	101.503
2138.36	104.384
2140.47	101.165
2142.59	105.184
2144.71	103.629
2146.83	101.229
2148.94	101.405
2151.06	104.93
2153.17	103.464
2155.28	102.737
2157.39	103.713
2159.5	102.537
2161.61	102.357
2163.72	99.3919
2165.83	97.5145
2167.94	98.6857
2170.04	102.077
2172.15	101.474
2174.25	99.2479
2176.35	99.2757
2178.45	99.3949
2180.56	98.3048
2182.66	98.2999
2184.75	97.4289
2186.85	93.8957
2188.95	96.6445
2191.05	99.0119
2193.14	98.0882
2195.24	93.6723
2197.33	90.7441
2199.42	94.7791
2201.51	92.7612
2203.6	95.8479
2205.69	98.964
2207.78	91.3233
2209.87	92.3642
2211.96	94.4542
2214.04	91.6953
2216.13	93.4753
2218.21	93.1209
2220.29	96.336
2222.38	98.3416
2224.46	95.363
2226.54	89.4108
2228.62	90.7692
2230.69	89.8508
2232.77	86.2993
2234.85	89.8511
2236.92	88.2799
2239	88.7586
2241.07	85.3397
2243.15	89.123
2245.22	90.1175
2247.29	87.2122
2249.36	85.4472
2251.43	88.8064
2253.49	85.1688
2255.56	83.1941
2257.63	80.0308
2259.69	81.6567
2261.76	82.4753
2263.82	87.514
2265.88	83.3671
2267.95	85.4657
2270.01	81.5215
2272.07	74.7805
2274.12	81.0733
2276.18	82.232
2278.24	81.118
2280.3	77.3116
2282.35	80.0262
2284.41	81.4289
2286.46	79.7414
2288.51	79.7207
2290.56	82.8987
2292.61	82.8525
2294.66	80.1407
2296.71	76.5624
2298.76	75.657
2300.8	71.4283
2302.85	80.3836
2304.9	77.9845
2306.94	74.3112
2308.98	76.232
2311.03	74.876
2313.07	77.2435
2315.11	72.7846
2317.15	71.4533
2319.19	72.4457
2321.22	70.8511
2323.26	71.7871
2325.3	69.0522
2327.33	69.8086
2329.36	70.9871
2331.4	72.1937
2333.43	71.0775
2335.46	69.0577
2337.49	69.0068
2339.52	71.1011
2341.55	72.6709
2343.58	71.1831
2345.6	73.4706
2347.63	83.3204
2349.65	67.3911
2351.68	67.4274
2353.7	71.8931
2355.72	67.4104
2357.74	62.7875
2359.76	69.5137
2361.78	68.8957
2363.8	62.319
2365.82	68.7388
2367.84	64.7875
2369.85	62.1204
2371.87	63.3911
2373.88	67.6574
2375.9	66.8035
2377.91	62.1171
2379.92	64.4702
2381.93	67.562
2383.94	63.3448
2385.95	63.9008
2387.96	69.6726
2389.96	67.426
2391.97	60.9834
2393.97	63.6133
2395.98	55.3874
2397.98	66.4289
2399.98	60.1877
2401.98	63.5022
2403.99	62.0536
2405.99	64.3646
2407.98	63.4034
2409.98	55.5219
2411.98	59.6505
2413.98	59.1877
2415.97	57.5842
2417.96	57.7879
2419.96	61.2923
2421.95	59.5796
2423.94	59.5371
2425.93	63.8902
2427.92	62.0144
2429.91	58.2075
2431.9	51.7492
2433.89	55.7156
2435.87	59.9655
2437.86	57.7897
2439.84	57.5624
2441.83	55.4542
2443.81	58.763
2445.79	58.495
2447.77	53.8511
2449.75	53.1886
2451.73	53.0257
2453.71	49.5456
2455.69	57.077
2457.67	57.4053
2459.64	57.4104
2461.62	55.0982
2463.59	58.0305
2465.56	51.6963
2467.54	54.4545
2469.51	58.1859
2471.48	55.521
2473.45	54.1179
2475.42	57.6538
2477.38	54.7791
2479.35	50.0775
2481.32	54.99
2483.28	58.9395
2485.25	56.4034
2487.21	50.2311
2489.17	50.5426
2491.13	53.0089
2493.09	47.4315
2495.05	50.2122
2497.01	50.83
2498.97	53.9871
2500.93	55.1179
2502.89	52.8035
2504.84	48.5897
2506.8	51.0485
2508.75	52.5653
2510.7	45.4345
2512.65	48.498
2514.61	51.3402
2516.56	51.0968
2518.51	50.1886
2520.45	47.521
2522.4	48.4315
2524.35	48.876
2526.29	46.7586
2528.24	48.7244
2530.18	50.7649
2532.13	49.0337
2534.07	48.5426
2536.01	50.0968
2537.95	50.12
2539.89	45.3228
2541.83	46.4345
2543.77	46.7441
2545.71	43.0577
2547.64	49.5569
2549.58	46.5364
2551.51	45.6924
2553.45	48.0719
2555.38	46.4223
2557.31	47.6133
2559.25	44.0068
2561.18	46.0241
2563.11	40.7441
2565.03	43.1688
2566.96	44.2716
2568.89	43.3874
2570.82	45.2799
2572.74	43.0286
2574.67	43.5408
2576.59	41.2479
2578.51	41.1933
2580.43	42.0485
2582.36	42.8548
2584.28	38.6523
2586.2	41.0098
2588.11	42.8949
2590.03	43.8035
2591.95	43.3044
2593.86	40.4533
2595.78	42.2988
2597.69	35.1424
2599.61	39.2134
2601.52	40.9466
2603.43	43.3827
2605.34	43.3874
2607.25	42.7649
2609.16	39.4731
2611.07	41.5419
2612.98	37.7556
2614.89	35.5897
2616.79	40.5817
2618.7	38.7488
2620.6	42.3671
2622.5	40.3233
2624.41	38.9816
2626.31	40.9845
2628.21	38.1886
2630.11	39.3402
2632.01	41.1882
2633.91	35.7686
2635.8	40.0042
2637.7	38.9845
2639.6	37.1877
2641.49	37.0719
2643.39	42.7441
2645.28	47.8957
2647.17	50.8553
2649.06	48.0101
2650.95	43.4589
2652.84	39.8949
2654.73	40.3402
2656.62	39.8902
2658.51	39.8553
2660.4	41.8988
2662.28	41.2799
2664.17	42.4155
2666.05	37.3402
2667.93	42.7437
2669.82	46.3178
2671.7	61.077
2673.58	80.7686
2675.46	100.61
2677.34	102.991
2679.21	83.7875
2681.09	68.2728
2682.97	62.253
2684.84	54.7586
2686.72	48.6726
2688.59	56.0701
2690.47	83.5459
2692.34	103.232
2694.21	263.325
2696.08	319.703
2697.95	291.232
2699.82	203.348
2701.69	110.142
2703.56	82.8283
2705.42	73.4533
2707.29	54.2122
2709.15	46.0013
2711.02	40.8599
2712.88	36.0098
2714.75	36.5897
2716.61	35.4589
2718.47	36.9033
2720.33	33.7875
2722.19	34.9004
2724.05	33.8789
2725.9	32.6501
2727.76	35.2134
2729.62	33.0982
2731.47	33.971
2733.33	32.1877
2735.18	31.4104
2737.03	31.6735
2738.88	29.1886
2740.73	27.9655
2742.59	28.1023
2744.43	31.3818
2746.28	31.9175
2748.13	29.1933
2749.98	30.0577
2751.82	28.2744
2753.67	30.6049
2755.51	28.0821
2757.36	27.9845
2759.2	28.5615
2761.04	27.7871
2762.88	24.6445
