365.286	246.001
368.238	246.484
371.189	265.445
374.139	278.779
377.087	299.286
380.034	305.21
382.979	288.337
385.923	267.117
388.866	250.52
391.806	241.915
394.745	233.286
397.684	236.037
400.62	243.268
403.555	242.948
406.49	242.005
409.421	238.978
412.353	239.104
415.282	239.845
418.209	244.851
421.137	244.058
424.062	256.861
426.985	264.183
429.908	282.912
432.829	280.948
435.748	291.765
438.666	283.208
441.583	270.961
444.498	262.172
447.412	255.08
450.324	258.2
453.235	257.723
456.145	259.175
459.052	267.534
461.959	250.373
464.865	239.15
467.769	220.339
470.671	213.031
473.572	211.578
476.471	212.984
479.37	207.43
482.266	207.712
485.162	216.873
488.056	221.569
490.948	217.008
493.839	220.409
496.73	213.818
499.618	212.782
502.505	209.64
505.39	210.934
508.275	209.158
511.157	206.601
514.039	215.092
516.919	213.995
519.798	215.283
522.674	206.825
525.55	205.287
528.425	195.565
531.297	194.904
534.169	194.846
537.039	190.661
539.908	188.178
542.775	188.059
545.642	181.867
548.506	184.601
551.369	191.895
554.231	190.637
557.092	188.353
559.951	189.098
562.808	187.051
565.664	199.128
568.519	188.834
571.373	189.853
574.225	187.867
577.076	189.49
579.925	190.503
582.773	185.044
585.62	190.15
588.466	184.769
591.309	184.097
594.152	186.768
596.993	176.565
599.832	182.69
602.671	182.55
605.508	179.562
608.343	181.416
611.178	177.972
614.011	182.45
616.842	184.955
619.672	181.453
622.501	183.823
625.329	194.609
628.155	184.581
630.98	198.435
633.802	189.213
636.624	189.297
639.445	198.089
642.264	183.673
645.082	194.016
647.898	192.726
650.714	198.435
653.527	206.275
656.34	215.845
659.151	218.177
661.961	199.177
664.769	205.475
667.576	189.547
670.382	183.309
673.186	177.948
675.989	171.697
678.791	175.086
681.591	167.75
684.39	170.112
687.187	167.953
689.983	172.047
692.779	176.176
695.572	180.509
698.363	174.068
701.155	163.393
703.944	172.222
706.733	176.008
709.519	172.294
712.305	181.219
715.089	169.367
717.871	170.441
720.653	177.895
723.433	176.253
726.212	172.956
728.989	172.196
731.765	176.539
734.54	165.756
737.313	170.422
740.085	168.832
742.856	168.023
745.625	167.772
748.394	169.512
751.16	169.876
753.926	167.65
756.689	161.637
759.452	169.556
762.214	174.085
764.974	168.994
767.733	176.013
770.49	171.829
773.246	165.831
776.001	170.217
778.755	168.4
781.507	168.461
784.258	173.775
787.007	175.618
789.756	174.837
792.502	180.337
795.247	173.876
797.992	173.405
800.735	181.893
803.477	182.124
806.217	178.795
808.956	185.309
811.694	192.103
814.43	188.658
817.165	188.712
819.899	191.084
822.631	181.328
825.362	173.711
828.092	163.415
830.82	168.196
833.548	164.203
836.274	161.517
838.998	170.581
841.721	158.984
844.444	162.84
847.165	158.85
849.884	155.9
852.601	163.009
855.318	162.828
858.034	158.998
860.749	155.175
863.461	156.973
866.173	165.779
868.883	152.419
871.592	155.092
874.3	153.363
877.006	157.497
879.712	154.717
882.415	157.279
885.118	156.245
887.819	161.731
890.519	162.72
893.218	159.689
895.914	167.388
898.611	169.366
901.306	170.779
903.999	164.525
906.692	159.002
909.382	157.95
912.072	161.984
914.761	153.388
917.447	151.137
920.133	155.658
922.818	153.658
925.501	146.231
928.183	148.339
930.864	149.765
933.543	150.173
936.221	144.172
938.898	150.351
941.574	151.384
944.248	159.828
946.921	148.192
949.593	157.044
952.263	152.334
954.932	152.641
957.6	153.063
960.267	149.12
962.932	157.239
965.597	156.175
968.26	161.046
970.922	159.842
973.581	160.28
976.241	164.519
978.898	172.697
981.555	190.507
984.21	203.295
986.864	215.045
989.517	237.658
992.169	264.653
994.819	280.116
997.468	293.654
1000.12	317.118
1002.76	324.489
1005.41	337.762
1008.05	337.617
1010.69	307.236
1013.34	315.166
1015.98	279.187
1018.61	248.213
1021.25	213.849
1023.89	195.2
1026.52	177.658
1029.16	176.286
1031.79	176.189
1034.42	172.724
1037.05	174.289
1039.68	181.001
1042.31	186.303
1044.93	194.827
1047.56	208.03
1050.18	209.317
1052.81	203.192
1055.43	202.162
1058.05	197.875
1060.67	198.228
1063.28	190.703
1065.9	190.37
1068.52	203.273
1071.13	200.176
1073.74	205.352
1076.35	213.68
1078.96	225.572
1081.57	229.823
1084.18	242.169
1086.79	259.453
1089.39	273.536
1092	303.262
1094.6	316.993
1097.2	321.984
1099.8	298.984
1102.4	271.41
1105	262.176
1107.6	249.383
1110.19	243.015
1112.79	249.044
1115.38	253.326
1117.97	262.063
1120.56	255.806
1123.15	266.258
1125.74	254.383
1128.33	248.372
1130.91	222.778
1133.5	213.39
1136.08	196.543
1138.66	186.12
1141.24	192.613
1143.82	178.64
1146.4	185.416
1148.98	185.011
1151.55	189.884
1154.13	185.258
1156.7	178.398
1159.27	184.123
1161.85	174.28
1164.42	167.015
1166.98	172.311
1169.55	170.222
1172.12	157.97
1174.68	157.956
1177.25	153.833
1179.81	155.619
1182.37	153.393
1184.93	147.05
1187.49	154.064
1190.05	142.039
1192.6	146.978
1195.16	139.235
1197.71	142.745
1200.27	138.666
1202.82	139.4
1205.37	143.122
1207.92	139.066
1210.47	132.405
1213.01	134.592
1215.56	140.497
1218.1	144.006
1220.65	137.231
1223.19	143.854
1225.73	142.627
1228.27	139.464
1230.81	133.636
1233.35	146.502
1235.88	145.147
1238.42	146.761
1240.95	145.809
1243.48	149.337
1246.02	137.609
1248.55	149.192
1251.07	141.265
1253.6	141.295
1256.13	140.006
1258.66	140.935
1261.18	136.828
1263.7	150.121
1266.22	144.042
1268.75	146.414
1271.27	157.681
1273.78	156.436
1276.3	151.748
1278.82	155.178
1281.33	159.068
1283.85	155.017
1286.36	148.186
1288.87	164.935
1291.38	157.287
1293.89	162.974
1296.4	161.587
1298.9	153.859
1301.41	157.078
1303.91	157.275
1306.41	149.348
1308.92	151.133
1311.42	149.842
1313.92	156.543
1316.42	150.442
1318.91	153.587
1321.41	158.05
1323.9	156.953
1326.4	157.742
1328.89	175.027
1331.38	167.089
1333.87	180.103
1336.36	180.775
1338.85	181.78
1341.34	171.828
1343.82	169.209
1346.31	171.014
1348.79	166.636
1351.27	171.339
1353.75	162.273
1356.23	166.405
1358.71	178.729
1361.19	169.748
1363.66	181.059
1366.14	184.517
1368.61	185.842
1371.09	197.513
1373.56	205.409
1376.03	198.987
1378.5	205.426
1380.96	212.143
1383.43	206.685
1385.9	210.34
1388.36	198.019
1390.83	189.189
1393.29	176.254
1395.75	167.263
1398.21	157.053
1400.67	150.84
1403.13	146.365
1405.58	147.622
1408.04	140.376
1410.49	142.805
1412.95	147.335
1415.4	139.081
1417.85	144.503
1420.3	149.139
1422.75	144.542
1425.2	151.376
1427.64	140.49
1430.09	147.532
1432.53	144.464
1434.97	137.65
1437.42	139.291
1439.86	133.339
1442.3	132.685
1444.73	134.601
1447.17	128.556
1449.61	127.113
1452.04	128.516
1454.48	125.842
1456.91	131.752
1459.34	128.762
1461.77	128.481
1464.2	136.241
1466.63	133.863
1469.06	135.449
1471.48	132.486
1473.91	132.289
1476.33	135.811
1478.75	125.641
1481.17	128.363
1483.6	126.884
1486.01	117.74
1488.43	113.988
1490.85	112.675
1493.27	115.064
1495.68	111.326
1498.09	108.553
1500.51	108.552
1502.92	107.73
1505.33	109.555
1507.74	105.822
1510.14	102.984
1512.55	108.051
1514.96	105.406
1517.36	105.751
1519.77	101.379
1522.17	107.34
1524.57	106.731
1526.97	109.898
1529.37	111.539
1531.77	109.596
1534.16	108.272
1536.56	111.013
1538.95	115.68
1541.35	113.405
1543.74	111.898
1546.13	119.725
1548.52	119.511
1550.91	116.788
1553.3	114.62
1555.68	118.801
1558.07	116.013
1560.45	120.497
1562.84	120.87
1565.22	125.373
1567.6	125.502
1569.98	131.239
1572.36	130.987
1574.74	133.995
1577.12	128.512
1579.49	131.289
1581.87	126.752
1584.24	127.436
1586.61	126.169
1588.98	124.32
1591.35	120.124
1593.72	118.858
1596.09	118.157
1598.46	109.579
1600.82	114.448
1603.19	106.795
1605.55	109.56
1607.92	104.401
1610.28	99.4391
1612.64	98.0227
1615	99.7478
1617.36	93.2358
1619.71	97.6287
1622.07	98.7866
1624.42	93.6854
1626.78	93.4835
1629.13	90.7122
1631.48	91.4012
1633.83	89.2804
1636.18	92.4898
1638.53	90.2586
1640.88	85.3035
1643.22	85.6444
1645.57	91.3278
1647.91	84.1012
1650.26	88.2585
1652.6	89.2613
1654.94	87.3978
1657.28	86.8398
1659.62	93.8454
1661.96	89.3075
1664.29	80.3556
1666.63	79.5393
1668.96	85.1595
1671.3	82.6385
1673.63	85.8309
1675.96	83.7398
1678.29	80.37
1680.62	77.5687
1682.95	84.6013
1685.27	84.369
1687.6	82.9347
1689.92	77.0582
1692.25	79.7081
1694.57	80.7201
1696.89	82.226
1699.21	82.2984
1701.53	84.3607
1703.85	81.8946
1706.17	78.5918
1708.48	80.6679
1710.8	88.5691
1713.11	81.0718
1715.43	82.0227
1717.74	80.751
1720.05	75.761
1722.36	82.6365
1724.67	76.9605
1726.97	80.9438
1729.28	73.6089
1731.59	80.1926
1733.89	78.1723
1736.19	76.4868
1738.5	75.4398
1740.8	78.7722
1743.1	79.0527
1745.4	74.6274
1747.7	73.2093
1749.99	76.8896
1752.29	74.9312
1754.58	73.7122
1756.88	73.4188
1759.17	73.534
1761.46	71.2724
1763.75	70.7881
1766.04	70.891
1768.33	71.9827
1770.62	72.2505
1772.91	76.1469
1775.19	70.0275
1777.48	63.6311
1779.76	76.1028
1782.04	66.7216
1784.32	67.4996
1786.6	72.2955
1788.88	65.5284
1791.16	73.5472
1793.44	67.9692
1795.71	67.5566
1797.99	67.4974
1800.26	66.2449
1802.54	64.8732
1804.81	65.0188
1807.08	67.3566
1809.35	61.7218
1811.62	65.2974
1813.88	63.9774
1816.15	66.1863
1818.42	65.8972
1820.68	66.3606
1822.95	60.6148
1825.21	62.7029
1827.47	67.0056
1829.73	58.5163
1831.99	57.9531
1834.25	62.6475
1836.51	64.4054
1838.76	62.2056
1841.02	63.9772
1843.27	55.3467
1845.52	64.7512
1847.78	61.2789
1850.03	60.6731
1852.28	61.1584
1854.53	58.6635
1856.78	58.6137
1859.02	57.7772
1861.27	64.1428
1863.51	64.2728
1865.76	60.8066
1868	59.3622
1870.24	57.9945
1872.48	60.2139
1874.72	58.6986
1876.96	61.5037
1879.2	58.7285
1881.44	61.1863
1883.67	57.4993
1885.91	59.5314
1888.14	58.6689
1890.37	61.7705
1892.61	58.8061
1894.84	59.9692
1897.07	53.0081
1899.29	60.3206
1901.52	59.0582
1903.75	66.1966
1905.97	60.911
1908.2	60.2678
1910.42	58.8414
1912.64	51.9533
1914.87	58.4011
1917.09	64.0869
1919.31	58.0551
1921.52	57.8286
1923.74	55.515
1925.96	59.3217
1928.17	53.1704
1930.39	54.3757
1932.6	56.4439
1934.81	52.5779
1937.03	56.5429
1939.24	56.3789
1941.45	59.6081
1943.65	52.533
1945.86	57.3302
1948.07	55.3928
1950.27	56.4109
1952.48	55.1552
1954.68	57.004
1956.88	52.3304
1959.08	52.1619
1961.29	52.3423
1963.48	53.5174
1965.68	53.9744
1967.88	55.8812
1970.08	56.1277
1972.27	53.3313
1974.47	52.8609
1976.66	54.4011
1978.85	55.453
1981.04	53.2721
1983.23	51.4304
1985.42	53.3691
1987.61	54.168
1989.8	52.4439
1991.99	52.5844
1994.17	49.333
1996.36	56.7527
1998.54	56.5333
2000.72	51.3067
2002.9	46.7479
2005.08	54.6133
2007.26	49.5885
2009.44	52.6311
2011.62	51.4807
2013.8	51.4671
2015.97	49.7216
2018.15	48.3204
2020.32	50.7479
2022.49	49.3634
2024.66	51.3109
2026.83	46.8277
2029	48.7744
2031.17	49.2637
2033.34	49.1608
2035.51	52.6427
2037.67	51.8327
2039.84	48.4055
2042	48.3555
2044.16	45.9923
2046.32	49.4006
2048.48	45.4718
2050.64	47.0805
2052.8	46.1914
2054.96	51.6983
2057.12	49.1192
2059.27	47.662
2061.43	44.8005
2063.58	47.1723
2065.73	46.4967
2067.89	47.5426
2070.04	47.0724
2072.19	48.2386
2074.34	47.7112
2076.48	49.3861
2078.63	51.1088
2080.78	48.3928
2082.92	50.0131
2085.07	47.5691
2087.21	46.1443
2089.35	50.0813
2091.49	50.7244
2093.63	44.7775
2095.77	47.4083
2097.91	46.29
2100.05	48.7775
2102.19	41.6308
2104.32	47.4398
2106.45	45.4146
2108.59	40.2219
2110.72	42.0951
2112.85	44.1829
2114.98	45.2052
2117.11	46.506
2119.24	48.6401
2121.37	42.1249
2123.5	40.934
2125.62	43.3918
2127.75	44.9301
2129.87	44.0671
2131.99	44.9204
2134.11	41.7775
2136.24	42.6222
2138.36	46.0722
2140.47	39.5196
2142.59	42.1773
2144.71	40.944
2146.83	43.6538
2148.94	41.983
2151.06	41.1443
2153.17	40.2418
2155.28	41.6611
2157.39	39.8977
2159.5	40.6174
2161.61	41.9651
2163.72	40.5637
2165.83	38.8312
2167.94	40.495
2170.04	41.4439
2172.15	37.3467
2174.25	40.5257
2176.35	42.7555
2178.45	45.4855
2180.56	38.7868
2182.66	38.902
2184.75	42.68
2186.85	38.161
2188.95	40.6144
2191.05	40.6955
2193.14	37.897
2195.24	44.5981
2197.33	34.5305
2199.42	41.1505
2201.51	41.1291
2203.6	39.1694
2205.69	39.9116
2207.78	37.0971
2209.87	38.5292
2211.96	38.4367
2214.04	38.555
2216.13	38.0549
2218.21	37.2941
2220.29	41.6663
2222.38	42.5643
2224.46	38.0889
2226.54	38.3109
2228.62	39.886
2230.69	29.9195
2232.77	38.7309
2234.85	36.4582
2236.92	35.1863
2239	38.9691
2241.07	38.8927
2243.15	38.0566
2245.22	38.4456
2247.29	34.5123
2249.36	37.9022
2251.43	33.6527
2253.49	35.9118
2255.56	36.6661
2257.63	36.3062
2259.69	37.7742
2261.76	38.3918
2263.82	34.0425
2265.88	32.1831
2267.95	31.1696
2270.01	35.2941
2272.07	32.55
2274.12	33.9342
2276.18	35.0752
2278.24	33.5333
2280.3	33.3035
2282.35	35.5333
2284.41	34.2632
2286.46	31.7976
2288.51	30.4731
2290.56	37.0585
2292.61	36.8286
2294.66	33.6124
2296.71	31.3193
2298.76	33.6587
2300.8	32.8623
2302.85	32.8277
2304.9	31.5292
2306.94	32.943
2308.98	33.0229
2311.03	34.0716
2313.07	33.2169
2315.11	34.4053
2317.15	34.036
2319.19	35.1056
2321.22	30.2173
2323.26	30.7388
2325.3	34.787
2327.33	35.4529
2329.36	28.5022
2331.4	30.4006
2333.43	32.0752
2335.46	31.0941
2337.49	31.7355
2339.52	31.5779
2341.55	33.422
2343.58	31.7303
2345.6	34.6587
2347.63	40.1064
2349.65	31.7252
2351.68	30.7484
2353.7	29.4896
2355.72	30.8456
2357.74	29.9786
2359.76	28.9195
2361.78	32.4731
2363.8	30.8666
2365.82	32.1833
2367.84	34.182
2369.85	31.6401
2371.87	29.5522
2373.88	29.961
2375.9	28.8582
2377.91	28.464
2379.92	29.2145
2381.93	31.4176
2383.94	27.8262
2385.95	29.9055
2387.96	29.0752
2389.96	30.6138
2391.97	30.7699
2393.97	26.3467
2395.98	28.8108
2397.98	31.689
2399.98	29.1972
2401.98	28.547
2403.99	27.897
2405.99	28.1415
2407.98	26.8883
2409.98	28.2898
2411.98	27.1565
2413.98	28.5996
2415.97	29.5331
2417.96	27.9003
2419.96	28.2799
2421.95	26.6444
2423.94	27.4668
2425.93	26.9256
2427.92	26.7413
2429.91	24.5166
2431.9	27.614
2433.89	24.8883
2435.87	26.0886
2437.86	26.2008
2439.84	24.8951
2441.83	24.033
2443.81	24.9639
2445.79	25.7482
2447.77	24.55
2449.75	24.9871
2451.73	26.1643
2453.71	25.1696
2455.69	28.3191
2457.67	23.637
2459.64	24.1199
2461.62	25.981
2463.59	25.1192
2465.56	20.6663
2467.54	24.5476
2469.51	23.9455
2471.48	24.5331
2473.45	24.5703
2475.42	29.9871
2477.38	27.0133
2479.35	25.6444
2481.32	22.7553
2483.28	26.2391
2485.25	23.9423
2487.21	21.9206
2489.17	21.6862
2491.13	23.2444
2493.09	25.6631
2495.05	26.7077
2497.01	25.3193
2498.97	21.0088
2500.93	23.3639
2502.89	25.6862
2504.84	22.5862
2506.8	22.098
2508.75	21.9577
2510.7	25.6644
2512.65	25.4331
2514.61	21.8229
2516.56	21.5457
2518.51	23.8001
2520.45	20.5788
2522.4	21.8095
2524.35	24.6942
2526.29	21.0306
2528.24	22.1169
2530.18	25.4592
2532.13	24.1789
2534.07	24.075
2536.01	24.475
2537.95	23.2359
2539.89	22.9858
2541.83	23.0889
2543.77	22.9704
2545.71	22.312
2547.64	23.1552
2549.58	22.6092
2551.51	22.0013
2553.45	22.2676
2555.38	19.8896
2557.31	23.5637
2559.25	22.3421
2561.18	21.7122
2563.11	20.9786
2565.03	18.9577
2566.96	22.4811
2568.89	23.55
2570.82	22.9575
2572.74	24.2082
2574.67	21.5998
2576.59	21.2093
2578.51	22.4625
2580.43	24.9069
2582.36	21.8977
2584.28	22.37
2586.2	24.1165
2588.11	22.7345
2590.03	19.2217
2591.95	22.3943
2593.86	23.9039
2595.78	23.547
2597.69	21.4083
2599.61	22.3261
2601.52	22.0263
2603.43	25.1471
2605.34	21.4145
2607.25	20.0369
2609.16	25.0752
2611.07	22.7909
2612.98	22.0525
2614.89	23.9605
2616.79	23.3298
2618.7	22.5054
2620.6	21.1207
2622.5	22.4948
2624.41	23.6368
2626.31	24.7553
2628.21	23.2807
2630.11	24.0678
2632.01	21.3465
2633.91	23.1207
2635.8	25.0752
2637.7	21.2354
2639.6	20.7555
2641.49	22.0662
2643.39	27.8145
2645.28	32.1797
2647.17	37.1502
2649.06	41.0221
2650.95	32.8095
2652.84	27.0843
2654.73	27.3918
2656.62	25.5288
2658.51	24.6444
2660.4	24.1858
2662.28	23.8675
2664.17	25.3278
2666.05	27.4137
2667.93	29.3354
2669.82	37.8747
2671.7	53.9639
2673.58	74.9249
2675.46	94.1924
2677.34	100.613
2679.21	78.4272
2681.09	60.4948
2682.97	54.7798
2684.84	46.7079
2686.72	34.6275
2688.59	43.3109
2690.47	62.1998
2692.34	102.391
2694.21	261.152
2696.08	307.071
2697.95	239.755
2699.82	175.703
2701.69	90.561
2703.56	61.4948
2705.42	53.4053
2707.29	39.0752
2709.15	33.2974
2711.02	29.7033
2712.88	26.9288
2714.75	25.1833
2716.61	25.7925
2718.47	25.8454
2720.33	24.2444
2722.19	25.4439
2724.05	22.0131
2725.9	25.0148
2727.76	25.328
2729.62	24.9256
2731.47	25.4136
2733.33	25.0709
2735.18	22.5998
2737.03	23.68
2738.88	20.1417
2740.73	22.223
2742.59	19.7859
2744.43	21.2974
2746.28	20.9997
2748.13	24.2418
2749.98	22.3193
2751.82	23.422
2753.67	18.3639
2755.51	20.2446
2757.36	20.1428
2759.2	21.4085
2761.04	19.6494
2762.88	19.2446
