365.286	192.153
368.238	204.802
371.189	203.266
374.139	200.445
377.087	213.491
380.034	215.836
382.979	213.796
385.923	191.041
388.866	196.573
391.806	199.064
394.745	193.913
397.684	195.619
400.62	199.024
403.555	196.269
406.49	198.953
409.421	189.024
412.353	196.602
415.282	190.397
418.209	195.469
421.137	190.486
424.062	198.508
426.985	207.993
429.908	214.041
432.829	204.046
435.748	209.175
438.666	206.708
441.583	207.597
444.498	192.269
447.412	201.841
450.324	204.153
453.235	197.38
456.145	195.795
459.052	186.684
461.959	184.867
464.865	191.486
467.769	188.358
470.671	182.041
473.572	178.046
476.471	178.175
479.37	181.778
482.266	178.223
485.162	182.907
488.056	185.642
490.948	183.486
493.839	177.802
496.73	183.713
499.618	181.756
502.505	182.639
505.39	183.802
508.275	185.935
511.157	175.024
514.039	184.913
516.919	180.024
519.798	187.129
522.674	187.375
525.55	177.935
528.425	180.445
531.297	178.619
534.169	176.819
537.039	170.935
539.908	168.153
542.775	171.93
545.642	165.095
548.506	167.491
551.369	172.548
554.231	169.597
557.092	176.394
559.951	167.175
562.808	172.264
565.664	179.602
568.519	179.93
571.373	169.619
574.225	170.58
577.076	174.824
579.925	174.509
582.773	164.58
585.62	177.58
588.466	173.796
591.309	170.551
594.152	165.841
596.993	167.288
599.832	170.907
602.671	170.129
605.508	170.842
608.343	168.75
611.178	169.619
614.011	168.708
616.842	162.913
619.672	169.73
622.501	178.374
625.329	173.375
628.155	165.619
630.98	169.73
633.802	171.112
636.624	167.264
639.445	164.756
642.264	171.064
645.082	174.935
647.898	176.135
650.714	170.773
653.527	171.286
656.34	174.065
659.151	167.135
661.961	173.73
664.769	163.286
667.576	169.935
670.382	154.932
673.186	167.556
675.989	160.574
678.791	160.107
681.591	159.129
684.39	153.508
687.187	153.93
689.983	159.288
692.779	155.935
695.572	158.684
698.363	166.73
701.155	162.978
703.944	163.135
706.733	156.713
709.519	156
712.305	160.913
715.089	169.135
717.871	157.375
720.653	163.796
723.433	161.756
726.212	161.046
728.989	159.885
731.765	159.778
734.54	155.312
737.313	163.462
740.085	164.375
742.856	158.486
745.625	171.591
748.394	165.93
751.16	159.089
753.926	164.375
756.689	161.953
759.452	160.486
762.214	156.819
764.974	162.397
767.733	158.264
770.49	157.064
773.246	166.619
776.001	155.398
778.755	165.223
781.507	163.089
784.258	154.958
787.007	159.819
789.756	161.399
792.502	161.621
795.247	165.662
797.992	161.246
800.735	159.153
803.477	160.153
806.217	164.509
808.956	162.066
811.694	162.773
814.43	167.394
817.165	163.375
819.899	163.579
822.631	161.335
825.362	157.107
828.092	152.932
830.82	146.399
833.548	154.819
836.274	149.99
838.998	148.865
841.721	153.867
844.444	155.195
847.165	155.882
849.884	152.639
852.601	145.913
855.318	162.527
858.034	145.913
860.749	151.439
863.461	152.029
866.173	151.153
868.883	146.821
871.592	151.041
874.3	146.375
877.006	142.083
879.712	151.491
882.415	140.112
885.118	147.083
887.819	152.58
890.519	150.044
893.218	146.844
895.914	153.036
898.611	147
901.306	146.645
903.999	154.158
906.692	153.713
909.382	145.596
912.072	146.801
914.761	143.94
917.447	143.708
920.133	142.286
922.818	144.041
925.501	154.264
928.183	145.404
930.864	140.93
933.543	141.264
936.221	136.774
938.898	146.515
941.574	138.913
944.248	140.539
946.921	141.597
949.593	143.889
952.263	146.953
954.932	142.24
957.6	148.24
960.267	142.092
962.932	149.042
965.597	148.556
968.26	147.885
970.922	149.486
973.581	146.691
976.241	142.351
978.898	153.09
981.555	147.51
984.21	150.534
986.864	158.177
989.517	160.089
992.169	160.38
994.819	167.773
997.468	178.958
1000.12	181.557
1002.76	193.895
1005.41	201.198
1008.05	195.65
1010.69	196.153
1013.34	192.913
1015.98	178.505
1018.61	168.438
1021.25	155.16
1023.89	160.527
1026.52	157.508
1029.16	147.599
1031.79	151.844
1034.42	154.844
1037.05	156.625
1039.68	144.534
1042.31	151.505
1044.93	154.861
1047.56	160.293
1050.18	153.352
1052.81	157.732
1055.43	152.733
1058.05	158.323
1060.67	156.714
1063.28	159.017
1065.9	146.802
1068.52	155.469
1071.13	156.925
1073.74	157.287
1076.35	159.819
1078.96	161.971
1081.57	167.112
1084.18	170.662
1086.79	164.599
1089.39	178.172
1092	182.083
1094.6	184.001
1097.2	182.918
1099.8	182.935
1102.4	178.158
1105	164.849
1107.6	165.104
1110.19	165.334
1112.79	164.112
1115.38	167.37
1117.97	171.599
1120.56	180.092
1123.15	172.4
1125.74	166.667
1128.33	168.155
1130.91	153.93
1133.5	161.375
1136.08	159.662
1138.66	152.445
1141.24	152.527
1143.82	152.51
1146.4	153.001
1148.98	154.001
1151.55	156.041
1154.13	153.172
1156.7	152.841
1159.27	145.415
1161.85	150.09
1164.42	148.691
1166.98	148.561
1169.55	142.176
1172.12	146.778
1174.68	142.293
1177.25	145.907
1179.81	143.377
1182.37	144.153
1184.93	147.509
1187.49	139.394
1190.05	139.422
1192.6	140.841
1195.16	139.771
1197.71	137.95
1200.27	138.264
1202.82	135.462
1205.37	137.129
1207.92	140.713
1210.47	131.727
1213.01	131.89
1215.56	131.638
1218.1	132.885
1220.65	136.445
1223.19	136.312
1225.73	135.795
1228.27	140.457
1230.81	136.532
1233.35	132.082
1235.88	137.959
1238.42	137.041
1240.95	142.305
1243.48	135.215
1246.02	145.172
1248.55	145.882
1251.07	140.082
1253.6	139.047
1256.13	139.708
1258.66	142.152
1261.18	139.865
1263.7	137.935
1266.22	141.234
1268.75	140.369
1271.27	141.174
1273.78	142.93
1276.3	139.549
1278.82	144.023
1281.33	139.971
1283.85	143.502
1286.36	136.882
1288.87	145.213
1291.38	152.526
1293.89	151.434
1296.4	145.041
1298.9	142.596
1301.41	155.375
1303.91	152.657
1306.41	144.235
1308.92	138.93
1311.42	145.619
1313.92	144.48
1316.42	143.351
1318.91	148.153
1321.41	146.879
1323.9	145.304
1326.4	153.546
1328.89	151.213
1331.38	156.901
1333.87	151.947
1336.36	154.42
1338.85	150.305
1341.34	157.328
1343.82	149.814
1346.31	143.064
1348.79	144.304
1351.27	143.304
1353.75	139.193
1356.23	144.415
1358.71	143.749
1361.19	153.749
1363.66	151.177
1366.14	151.551
1368.61	147.346
1371.09	152.041
1373.56	152.591
1376.03	154.485
1378.5	155.153
1380.96	157.559
1383.43	162.129
1385.9	155.824
1388.36	151.644
1390.83	152.44
1393.29	145.62
1395.75	137.532
1398.21	140.996
1400.67	138.695
1403.13	140.727
1405.58	132.907
1408.04	129.645
1410.49	136.75
1412.95	137.768
1415.4	139.597
1417.85	135.736
1420.3	138.375
1422.75	135.662
1425.2	138.304
1427.64	136.819
1430.09	142.392
1432.53	137.973
1434.97	135.768
1437.42	132.402
1439.86	130.24
1442.3	136.771
1444.73	134.79
1447.17	128.947
1449.61	135.104
1452.04	128.531
1454.48	134.397
1456.91	132.281
1459.34	131.952
1461.77	129.087
1464.2	132.691
1466.63	129.981
1469.06	130.069
1471.48	127.754
1473.91	126.508
1476.33	125.421
1478.75	124.264
1481.17	126.796
1483.6	131.041
1486.01	126.836
1488.43	124.784
1490.85	123.89
1493.27	120.551
1495.68	115.245
1498.09	119.578
1500.51	125.087
1502.92	125.887
1505.33	119.153
1507.74	113.689
1510.14	116.245
1512.55	115.713
1514.96	116.719
1517.36	118.221
1519.77	119.153
1522.17	111.24
1524.57	119.801
1526.97	118.607
1529.37	114.602
1531.77	119.941
1534.16	115.627
1536.56	117.847
1538.95	116.205
1541.35	113.163
1543.74	108.426
1546.13	108.783
1548.52	112.134
1550.91	109.379
1553.3	110.27
1555.68	113.496
1558.07	116.83
1560.45	111.581
1562.84	116.876
1565.22	114.211
1567.6	117.233
1569.98	123.847
1572.36	115.093
1574.74	120.144
1577.12	119.38
1579.49	119.916
1581.87	112.935
1584.24	113.543
1586.61	110.145
1588.98	105.047
1591.35	109.1
1593.72	114.25
1596.09	108.445
1598.46	111.367
1600.82	110.093
1603.19	111.092
1605.55	107.801
1607.92	106.872
1610.28	106.937
1612.64	103.76
1615	107.063
1617.36	99.0054
1619.71	98.7371
1622.07	101.538
1624.42	96.8892
1626.78	100.269
1629.13	103.046
1631.48	95.0006
1633.83	101.602
1636.18	97.5639
1638.53	93.1985
1640.88	95.1213
1643.22	95.1404
1645.57	101.895
1647.91	94.6432
1650.26	91.5888
1652.6	94.8947
1654.94	97.3819
1657.28	97.0697
1659.62	100.503
1661.96	98.5377
1664.29	97.4503
1666.63	95.357
1668.96	97.1413
1671.3	99.0001
1673.63	94.1628
1675.96	88.7179
1678.29	91.52
1680.62	89.0002
1682.95	91.5161
1685.27	89.1875
1687.6	87.9577
1689.92	91.1162
1692.25	90.3622
1694.57	91.1636
1696.89	92.076
1699.21	87.0353
1701.53	91.8294
1703.85	91.8541
1706.17	89.6775
1708.48	85.2957
1710.8	86.7836
1713.11	88.8461
1715.43	88.9246
1717.74	89.0537
1720.05	89.0059
1722.36	92.0332
1724.67	89.8081
1726.97	85.0228
1729.28	84.7834
1731.59	86.3385
1733.89	83.1213
1736.19	84.4093
1738.5	82.4977
1740.8	87.5035
1743.1	80.8315
1745.4	87.8083
1747.7	85.8311
1749.99	85.9019
1752.29	81.6969
1754.58	85.3039
1756.88	81.917
1759.17	82.6722
1761.46	78.6775
1763.75	84.7183
1766.04	85.3819
1768.33	80.1871
1770.62	79.5686
1772.91	78.1821
1775.19	74.387
1777.48	80.0055
1779.76	79.1871
1782.04	79.3686
1784.32	75.4575
1786.6	78.7183
1788.88	80.327
1791.16	74.5493
1793.44	76.8487
1795.71	80.8294
1797.99	78.8533
1800.26	84.7325
1802.54	79.7599
1804.81	76.5434
1807.08	78.385
1809.35	78.7204
1811.62	80.2281
1813.88	72.4982
1816.15	76.2759
1818.42	77.6265
1820.68	76.3154
1822.95	79.5664
1825.21	76.6311
1827.47	75.0928
1829.73	78.0008
1831.99	81.3215
1834.25	74.1464
1836.51	74.1418
1838.76	71.6746
1841.02	72.6604
1843.27	75.6072
1845.52	76.7182
1847.78	73.2759
1850.03	70.1585
1852.28	77.3686
1854.53	77.52
1856.78	70.1866
1859.02	75.8085
1861.27	72.2336
1863.51	66.7426
1865.76	75.6553
1868	72.9229
1870.24	69.5204
1872.48	78.3686
1874.72	70.39
1876.96	72.3464
1879.2	70.765
1881.44	74.4265
1883.67	70.9418
1885.91	72.6969
1888.14	69.1641
1890.37	71.2529
1892.61	66.6072
1894.84	77.1464
1897.07	72.8487
1899.29	77.0332
1901.52	74.5204
1903.75	77.4324
1905.97	64.1871
1908.2	69.0293
1910.42	69.4049
1912.64	70.0537
1914.87	71.2562
1917.09	67.9644
1919.31	64.9246
1921.52	64.8537
1923.74	72.5608
1925.96	66.7832
1928.17	68.117
1930.39	70.6311
1932.6	73.2099
1934.81	69.4501
1937.03	65.9422
1939.24	66.6488
1941.45	72.5607
1943.65	65.9821
1945.86	66.0529
1948.07	66.4801
1950.27	67.6093
1952.48	69.5563
1954.68	69.9196
1956.88	66.0533
1959.08	70.1866
1961.29	71.3677
1963.48	68.387
1965.68	68.4265
1967.88	68.8006
1970.08	70.4797
1972.27	63.871
1974.47	70.2324
1976.66	68.7657
1978.85	63.7204
1981.04	65.6797
1983.23	68.445
1985.42	65.0688
1987.61	67.917
1989.8	65.0279
1991.99	64.9599
1994.17	68.0279
1996.36	68.9599
1998.54	60.2982
2000.72	64.2977
2002.9	66.2982
2005.08	61.7024
2007.26	61.917
2009.44	60.1644
2011.62	65.2932
2013.8	64.1597
2015.97	64.4982
2018.15	60.6294
2020.32	65.2982
2022.49	64.6551
2024.66	58.8307
2026.83	58.387
2029	64.1221
2031.17	58.4961
2033.34	61.9648
2035.51	58.8537
2037.67	57.5035
2039.84	66.385
2042	60.5435
2044.16	58.5614
2046.32	62.7908
2048.48	59.6488
2050.64	55.6315
2052.8	56.7599
2054.96	56.0159
2057.12	63.6488
2059.27	56.7376
2061.43	53.9648
2063.58	57.1168
2065.73	53.0755
2067.89	57.5442
2070.04	53.1678
2072.19	59.0293
2074.34	57.117
2076.48	57.1871
2078.63	52.0106
2080.78	55.1217
2082.92	58.7664
2085.07	59.4551
2087.21	58.3863
2089.35	53.4551
2091.49	50.4093
2093.63	56.6974
2095.77	57.6311
2097.91	53.071
2100.05	60.7429
2102.19	54.4503
2104.32	53.6725
2106.45	47.8997
2108.59	56.0811
2110.72	49.0997
2112.85	49.2108
2114.98	50.385
2117.11	52.9426
2119.24	54.0108
2121.37	51.4265
2123.5	43.4093
2125.62	53.7836
2127.75	52.9196
2129.87	49.2982
2131.99	52.3154
2134.11	52.7024
2136.24	50.4982
2138.36	49.8487
2140.47	48.7426
2142.59	53.7261
2144.71	47.9648
2146.83	49.7019
2148.94	44.59
2151.06	48.9405
2153.17	50.2759
2155.28	45.9426
2157.39	53.2106
2159.5	48.2329
2161.61	45.3392
2163.72	50.8307
2165.83	50.2159
2167.94	44.2043
2170.04	46.4551
2172.15	48.4148
2174.25	42.9648
2176.35	48.2961
2178.45	48.7479
2180.56	47.6488
2182.66	49.076
2184.75	49.1871
2186.85	45.9648
2188.95	46.8122
2191.05	48.5664
2193.14	44.9426
2195.24	47.6315
2197.33	45.6608
2199.42	45.6492
2201.51	48.2789
2203.6	45.0106
2205.69	46.9455
2207.78	48.5183
2209.87	45.3217
2211.96	47.9648
2214.04	45.0106
2216.13	42.8537
2218.21	49.7912
2220.29	44.7599
2222.38	41.7426
2224.46	43.6315
2226.54	44.4093
2228.62	43.9246
2230.69	40.1468
2232.77	38.6093
2234.85	43.4265
2236.92	39.9821
2239	40.8315
2241.07	42.3468
2243.15	43.7599
2245.22	43.7204
2247.29	41.076
2249.36	41.3924
2251.43	38.6315
2253.49	44.7376
2255.56	37.8315
2257.63	41.7884
2259.69	39.0344
2261.76	42.8591
2263.82	40.9648
2265.88	41.6315
2267.95	38.387
2270.01	36.5204
2272.07	43.4386
2274.12	35.6315
2276.18	40.7912
2278.24	37.9821
2280.3	41.0997
2282.35	43.7233
2284.41	40.9648
2286.46	34.7011
2288.51	38.5913
2290.56	38.2982
2292.61	39.5204
2294.66	33.4093
2296.71	36.344
2298.76	37.344
2300.8	36.076
2302.85	40.9886
2304.9	37.4579
2306.94	37.5662
2308.98	35.8537
2311.03	36.8537
2313.07	35.4093
2315.11	39.387
2317.15	37.6773
2319.19	35.6773
2321.22	34.8315
2323.26	35.9648
2325.3	32.6315
2327.33	34.4043
2329.36	36.364
2331.4	33.5204
2333.43	36.7662
2335.46	34.4093
2337.49	32.4093
2339.52	36.7422
2341.55	32.8537
2343.58	36.2759
2345.6	33.9426
2347.63	44.39
2349.65	37.7183
2351.68	33.2108
2353.7	37.4331
2355.72	33.4982
2357.74	34.4553
2359.76	33.076
2361.78	32.0106
2363.8	32.8775
2365.82	34.6093
2367.84	32.9886
2369.85	33.1871
2371.87	31.8537
2373.88	35.5662
2375.9	33.387
2377.91	31.6773
2379.92	33.1673
2381.93	33.8537
2383.94	32.7426
2385.95	33.1648
2387.96	34.2982
2389.96	34.1678
2391.97	30.9886
2393.97	31.1648
2395.98	33.1871
2397.98	36.5011
2399.98	30.9886
2401.98	30.8315
2403.99	31.569
2405.99	36.6093
2407.98	32.4579
2409.98	31.7376
2411.98	32.9648
2413.98	33.387
2415.97	28.076
2417.96	34.6545
2419.96	29.4093
2421.95	31.2579
2423.94	32.8537
2425.93	29.076
2427.92	28.5204
2429.91	30.071
2431.9	28.4801
2433.89	27.6775
2435.87	26.2982
2437.86	27.871
2439.84	27.9426
2441.83	25.2108
2443.81	30.9648
2445.79	32.076
2447.77	31.1648
2449.75	33.122
2451.73	33.7426
2453.71	31.0344
2455.69	32.3464
2457.67	24.8537
2459.64	26.0537
2461.62	28.8775
2463.59	28.387
2465.56	28.387
2467.54	32.7233
2469.51	26.7204
2471.48	33.9246
2473.45	29.2932
2475.42	35.7664
2477.38	31.6315
2479.35	26.1648
2481.32	26.8122
2483.28	27.7204
2485.25	25.9426
2487.21	24.4265
2489.17	24.5204
2491.13	22.9648
2493.09	25.9648
2495.05	27.1455
2497.01	23.8537
2498.97	29.1246
2500.93	26.2759
2502.89	26.9599
2504.84	22.1871
2506.8	24.5204
2508.75	28.1648
2510.7	25.2759
2512.65	25.4093
2514.61	26.6315
2516.56	25.4093
2518.51	24.5204
2520.45	23.813
2522.4	27.1922
2524.35	24.2759
2526.29	25.1648
2528.24	24.3926
2530.18	24.4331
2532.13	25.8315
2534.07	23.4093
2536.01	24.2982
2537.95	26.076
2539.89	24.9426
2541.83	28.1871
2543.77	25.9886
2545.71	27.0995
2547.64	24.076
2549.58	26.7204
2551.51	24.0357
2553.45	22.7019
2555.38	24.5204
2557.31	24.0997
2559.25	25.4553
2561.18	23.9426
2563.11	19.076
2565.03	26.2108
2566.96	22.7426
2568.89	24.6773
2570.82	20.4265
2572.74	23.6315
2574.67	21.5204
2576.59	22.5439
2578.51	22.9648
2580.43	25.2575
2582.36	21.8537
2584.28	23.6315
2586.2	21.8315
2588.11	25.6315
2590.03	20.1648
2591.95	24.4551
2593.86	26.2108
2595.78	23.8537
2597.69	21.5204
2599.61	22.9242
2601.52	20.2759
2603.43	19.0537
2605.34	20.076
2607.25	20.387
2609.16	18.2759
2611.07	19.4093
2612.98	21.076
2614.89	20.9648
2616.79	23.076
2618.7	23.076
2620.6	21.7886
2622.5	22.369
2624.41	21.7204
2626.31	18.076
2628.21	21.4982
2630.11	19.2566
2632.01	22.0357
2633.91	19.0357
2635.8	24.7482
2637.7	23.076
2639.6	18.2982
2641.49	22.7884
2643.39	22.1871
2645.28	29.8315
2647.17	28.8537
2649.06	26.9246
2650.95	25.076
2652.84	24.8135
2654.73	18.1871
2656.62	21.9426
2658.51	18.8537
2660.4	23.2982
2662.28	19.5204
2664.17	19.3217
2666.05	17.5204
2667.93	23.7426
2669.82	31.6315
2671.7	34.0537
2673.58	50.9023
2675.46	57.4982
2677.34	64.8773
2679.21	50.9426
2681.09	40.6093
2682.97	38.6315
2684.84	33.4093
2686.72	29.7204
2688.59	38.9246
2690.47	46.6551
2692.34	69.8315
2694.21	152.837
2696.08	196.498
2697.95	180.498
2699.82	128.72
2701.69	72.2357
2703.56	49.0537
2705.42	42.1246
2707.29	28.4982
2709.15	26.4579
2711.02	21.387
2712.88	20.8315
2714.75	19.5204
2716.61	18.387
2718.47	16.0537
2720.33	18.6773
2722.19	16.6315
2724.05	16.4982
2725.9	20.1871
2727.76	15.1217
2729.62	20.1246
2731.47	17.4982
2733.33	15.0537
2735.18	14.6315
2737.03	14.8537
2738.88	16.7599
2740.73	12.387
2742.59	12.4093
2744.43	16.1648
2746.28	14.9426
2748.13	13.7426
2749.98	12.9648
2751.82	13.9426
2753.67	12.9648
2755.51	11.4093
2757.36	11.7426
2759.2	13.4093
2761.04	8.21083
2762.88	13.4982
