365.286	280.66
368.238	284.986
371.189	293.089
374.139	317.354
377.087	323.916
380.034	334.826
382.979	310.07
385.923	300.464
388.866	292.698
391.806	279.66
394.745	285.429
397.684	282.745
400.62	280.899
403.555	284.532
406.49	293.558
409.421	288.895
412.353	288.181
415.282	291.143
418.209	303.932
421.137	310.847
424.062	310.776
426.985	321.856
429.908	335.104
432.829	341.721
435.748	333.592
438.666	348.147
441.583	335.852
444.498	311.577
447.412	315.673
450.324	314.831
453.235	309.422
456.145	307.948
459.052	296.852
461.959	285.147
464.865	275.666
467.769	260.528
470.671	259.016
473.572	259.974
476.471	256.866
479.37	262.746
482.266	265.701
485.162	265.026
488.056	263.91
490.948	258.27
493.839	259.524
496.73	257.751
499.618	258.619
502.505	245.199
505.39	257.46
508.275	268.095
511.157	255.802
514.039	257.254
516.919	260.988
519.798	272.519
522.674	267.973
525.55	263.677
528.425	244.665
531.297	248.281
534.169	238.863
537.039	235.072
539.908	240.021
542.775	233.188
545.642	230.532
548.506	231.486
551.369	235.391
554.231	233.862
557.092	232.665
559.951	231.365
562.808	241.91
565.664	249.215
568.519	234.683
571.373	243.942
574.225	237.67
577.076	238.348
579.925	237.65
582.773	236.82
585.62	227.513
588.466	241.466
591.309	223.297
594.152	234.016
596.993	228.248
599.832	229.908
602.671	236.248
605.508	221.035
608.343	229.185
611.178	228.894
614.011	234.238
616.842	237.353
619.672	238.775
622.501	244.259
625.329	229.553
628.155	245.184
630.98	243.137
633.802	237.137
636.624	241.876
639.445	226.945
642.264	238.286
645.082	238.741
647.898	234.054
650.714	239.66
653.527	240.703
656.34	258.427
659.151	257.722
661.961	257.178
664.769	251.93
667.576	241.366
670.382	235.554
673.186	227.243
675.989	230.969
678.791	231.317
681.591	223.258
684.39	216.895
687.187	227.923
689.983	224.36
692.779	220.191
695.572	220.889
698.363	221.762
701.155	222.723
703.944	219.37
706.733	223.331
709.519	228.069
712.305	229.319
715.089	229.539
717.871	236.11
720.653	232.568
723.433	232.271
726.212	230.296
728.989	224.741
731.765	230.444
734.54	229.795
737.313	225.826
740.085	228.25
742.856	222.609
745.625	227.862
748.394	227.392
751.16	224.294
753.926	221.586
756.689	220.181
759.452	227.244
762.214	228.965
764.974	236.576
767.733	239.698
770.49	238.155
773.246	231.081
776.001	239.32
778.755	247.529
781.507	244.932
784.258	238.014
787.007	241.643
789.756	243.586
792.502	241.27
795.247	236.053
797.992	244.803
800.735	237.882
803.477	240.516
806.217	240.33
808.956	238.277
811.694	238.133
814.43	243.906
817.165	246.311
819.899	233.275
822.631	237.244
825.362	232.017
828.092	224.805
830.82	226.524
833.548	227.837
836.274	222.146
838.998	225.345
841.721	225.035
844.444	217.529
847.165	214.846
849.884	217.239
852.601	211.077
855.318	211.794
858.034	208.073
860.749	205.973
863.461	210.301
866.173	205.805
868.883	207.654
871.592	215.914
874.3	208.292
877.006	213.47
879.712	200.583
882.415	213.724
885.118	208.35
887.819	208.138
890.519	204.776
893.218	212.58
895.914	207.443
898.611	207.99
901.306	213.974
903.999	213.22
906.692	209.539
909.382	210.08
912.072	206.165
914.761	197.834
917.447	206.445
920.133	210.287
922.818	200.692
925.501	197.051
928.183	202.571
930.864	198.09
933.543	202.438
936.221	193.875
938.898	196.14
941.574	199.905
944.248	198.778
946.921	195.162
949.593	205.158
952.263	204.762
954.932	196.93
957.6	195.053
960.267	195.349
962.932	207.377
965.597	208.92
968.26	213.48
970.922	208.215
973.581	223.31
976.241	237.416
978.898	240.085
981.555	266.929
984.21	287.942
986.864	310.088
989.517	335.947
992.169	372.011
994.819	377.234
997.468	422.016
1000.12	436.988
1002.76	457.301
1005.41	453.513
1008.05	440.72
1010.69	417.915
1013.34	388.524
1015.98	339.694
1018.61	292.208
1021.25	263.58
1023.89	243.784
1026.52	228.324
1029.16	233.784
1031.79	232.532
1034.42	219.576
1037.05	225.803
1039.68	224.943
1042.31	237.302
1044.93	239.002
1047.56	257.683
1050.18	267.379
1052.81	263.716
1055.43	243.465
1058.05	239.355
1060.67	224.302
1063.28	233.74
1065.9	240.53
1068.52	248.659
1071.13	257.528
1073.74	272.266
1076.35	297.471
1078.96	305.076
1081.57	308.259
1084.18	308.591
1086.79	298.316
1089.39	319.671
1092	322.345
1094.6	331.249
1097.2	319.295
1099.8	313.024
1102.4	289.353
1105	296.071
1107.6	286.052
1110.19	299.972
1112.79	323.078
1115.38	335.301
1117.97	344.155
1120.56	336.286
1123.15	323.667
1125.74	304.503
1128.33	295.113
1130.91	273.169
1133.5	269.479
1136.08	263.834
1138.66	249.979
1141.24	254.766
1143.82	250.624
1146.4	243.538
1148.98	242.838
1151.55	251.25
1154.13	247.995
1156.7	237.919
1159.27	235.18
1161.85	237.398
1164.42	224.808
1166.98	222.942
1169.55	232.966
1172.12	221.437
1174.68	225.026
1177.25	216.264
1179.81	208.715
1182.37	217.737
1184.93	212.619
1187.49	198.576
1190.05	202.03
1192.6	199.913
1195.16	203.413
1197.71	195.672
1200.27	198.138
1202.82	202.186
1205.37	197.249
1207.92	188.559
1210.47	195.137
1213.01	191.445
1215.56	186.204
1218.1	194.565
1220.65	191.873
1223.19	198.43
1225.73	209.222
1228.27	204.528
1230.81	209.65
1233.35	207.847
1235.88	209.543
1238.42	209.374
1240.95	204.713
1243.48	200.979
1246.02	188.532
1248.55	196.771
1251.07	185.609
1253.6	185.48
1256.13	182.329
1258.66	179.127
1261.18	183.958
1263.7	189.022
1266.22	190.306
1268.75	179.3
1271.27	188.479
1273.78	191.721
1276.3	199.169
1278.82	193.233
1281.33	197.209
1283.85	197.781
1286.36	196.549
1288.87	190.581
1291.38	192.454
1293.89	200.196
1296.4	200.877
1298.9	204.25
1301.41	206.083
1303.91	199.295
1306.41	208.809
1308.92	197.118
1311.42	200.647
1313.92	200.46
1316.42	202.861
1318.91	203.809
1321.41	202.921
1323.9	198.784
1326.4	197.875
1328.89	195.276
1331.38	209.662
1333.87	210.883
1336.36	206.047
1338.85	201.061
1341.34	206.837
1343.82	202.443
1346.31	200.218
1348.79	191.256
1351.27	195.659
1353.75	201.08
1356.23	192.338
1358.71	202.221
1361.19	201.529
1363.66	204.973
1366.14	208.625
1368.61	217.144
1371.09	220.122
1373.56	222.945
1376.03	232.254
1378.5	240.269
1380.96	245.584
1383.43	238.008
1385.9	238.753
1388.36	232.743
1390.83	222.157
1393.29	211.086
1395.75	206.961
1398.21	199.174
1400.67	191.469
1403.13	186.017
1405.58	186.366
1408.04	177.713
1410.49	182.135
1412.95	184.209
1415.4	180.858
1417.85	175.667
1420.3	174.884
1422.75	167.226
1425.2	176.933
1427.64	173.683
1430.09	174.164
1432.53	171.222
1434.97	166.157
1437.42	169.439
1439.86	168.557
1442.3	165.041
1444.73	163.732
1447.17	171.388
1449.61	164.249
1452.04	163.358
1454.48	155.313
1456.91	144.746
1459.34	156.179
1461.77	152.803
1464.2	153.379
1466.63	147.449
1469.06	156.913
1471.48	151.591
1473.91	161.212
1476.33	161.761
1478.75	157.143
1481.17	153.002
1483.6	154.22
1486.01	152.885
1488.43	149.075
1490.85	145.535
1493.27	142.981
1495.68	141.365
1498.09	143.08
1500.51	146.678
1502.92	140.215
1505.33	146.006
1507.74	138.259
1510.14	143.422
1512.55	139.227
1514.96	139.138
1517.36	139.757
1519.77	141.233
1522.17	136.579
1524.57	141.16
1526.97	142.592
1529.37	134.822
1531.77	141.989
1534.16	142.781
1536.56	141.102
1538.95	144.281
1541.35	143.861
1543.74	143.266
1546.13	141.16
1548.52	148.47
1550.91	154.47
1553.3	155.601
1555.68	150.91
1558.07	152.444
1560.45	149.764
1562.84	153.684
1565.22	154.144
1567.6	158.54
1569.98	161.371
1572.36	167.116
1574.74	175.731
1577.12	165.024
1579.49	165.276
1581.87	163.609
1584.24	169.55
1586.61	154.77
1588.98	160.634
1591.35	148.025
1593.72	147.389
1596.09	137.911
1598.46	133.076
1600.82	133.802
1603.19	135.182
1605.55	130.61
1607.92	127.699
1610.28	130.241
1612.64	119.643
1615	125.55
1617.36	123.29
1619.71	125.33
1622.07	123.89
1624.42	127.064
1626.78	123.515
1629.13	122.72
1631.48	116.361
1633.83	118.142
1636.18	117.409
1638.53	119.653
1640.88	111.14
1643.22	118.344
1645.57	114.365
1647.91	108.43
1650.26	112.471
1652.6	115.1
1654.94	112.042
1657.28	114.274
1659.62	114.905
1661.96	112.237
1664.29	107.805
1666.63	105.82
1668.96	108.765
1671.3	105.168
1673.63	105.905
1675.96	105.88
1678.29	104.427
1680.62	107.465
1682.95	105.137
1685.27	109.333
1687.6	105.021
1689.92	107.137
1692.25	105.001
1694.57	108.876
1696.89	101.436
1699.21	103.351
1701.53	103.915
1703.85	102.666
1706.17	102.813
1708.48	105.455
1710.8	103.115
1713.11	98.6513
1715.43	105.02
1717.74	102.394
1720.05	101.644
1722.36	100.488
1724.67	102.811
1726.97	100.946
1729.28	99.157
1731.59	98.5436
1733.89	102.72
1736.19	96.5712
1738.5	96.8526
1740.8	93.8643
1743.1	98.9291
1745.4	95.76
1747.7	95.0168
1749.99	95.5294
1752.29	95.6336
1754.58	94.946
1756.88	90.6376
1759.17	94.5235
1761.46	95.81
1763.75	90.0757
1766.04	91.747
1768.33	91.3587
1770.62	94.7973
1772.91	91.0952
1775.19	86.1075
1777.48	96.3502
1779.76	84.9143
1782.04	94.012
1784.32	88.2079
1786.6	89.1966
1788.88	94.031
1791.16	88.9937
1793.44	88.0939
1795.71	85.698
1797.99	90.1421
1800.26	84.4885
1802.54	88.96
1804.81	89.0581
1807.08	84.1332
1809.35	84.962
1811.62	87.5662
1813.88	82.0776
1816.15	82.157
1818.42	88.1233
1820.68	82.1795
1822.95	79.8654
1825.21	86.3609
1827.47	84.4251
1829.73	81.9964
1831.99	85.01
1834.25	79.8461
1836.51	85.9923
1838.76	84.1075
1841.02	80.1312
1843.27	81.3964
1845.52	82.5686
1847.78	80.2741
1850.03	83.1989
1852.28	83.6142
1854.53	80.8516
1856.78	74.7193
1859.02	79.4688
1861.27	82.8495
1863.51	83.1123
1865.76	75.4654
1868	82.6557
1870.24	84.5819
1872.48	82.4488
1874.72	80.2606
1876.96	80.6239
1879.2	80.4486
1881.44	77.8048
1883.67	78.3262
1885.91	78.6895
1888.14	84.1682
1890.37	74.943
1892.61	83.011
1894.84	80.0254
1897.07	86.0067
1899.29	77.4171
1901.52	80.1332
1903.75	85.218
1905.97	77.1955
1908.2	79.5739
1910.42	78.4188
1912.64	82.9449
1914.87	81.4693
1917.09	75.8304
1919.31	79.3878
1921.52	79.2
1923.74	83.5704
1925.96	78.8316
1928.17	77.501
1930.39	80.5547
1932.6	77.132
1934.81	76.1387
1937.03	77.4602
1939.24	78.8937
1941.45	79.2971
1943.65	76.2577
1945.86	76.0533
1948.07	72.5857
1950.27	76.592
1952.48	73.1279
1954.68	73.277
1956.88	75.195
1959.08	71.6977
1961.29	74.1357
1963.48	69.7021
1965.68	74.8954
1967.88	76.3169
1970.08	76.6566
1972.27	74.5549
1974.47	73.085
1976.66	74.8675
1978.85	75.1271
1981.04	71.9837
1983.23	72.501
1985.42	73.5164
1987.61	72.1692
1989.8	72.8059
1991.99	69.6474
1994.17	72.1976
1996.36	74.3801
1998.54	73.5202
2000.72	73.8372
2002.9	74.8091
2005.08	73.157
2007.26	72.0303
2009.44	67.0838
2011.62	69.7143
2013.8	68.8032
2015.97	69.7184
2018.15	70.5883
2020.32	75.0202
2022.49	73.71
2024.66	64.8574
2026.83	69.5721
2029	74.2871
2031.17	65.5585
2033.34	69.4017
2035.51	71.8032
2037.67	72.1955
2039.84	70.659
2042	70.6313
2044.16	67.298
2046.32	66.0538
2048.48	64.7505
2050.64	67.1584
2052.8	64.5299
2054.96	65.0381
2057.12	65.9528
2059.27	67.0174
2061.43	64.7442
2063.58	66.8856
2065.73	64.6251
2067.89	65.7706
2070.04	65.7979
2072.19	62.2866
2074.34	61.4183
2076.48	68.7084
2078.63	62.1922
2080.78	68.0264
2082.92	63.968
2085.07	65.0317
2087.21	64.3837
2089.35	62.7193
2091.49	64.5958
2093.63	62.8832
2095.77	58.0688
2097.91	63.5138
2100.05	60.1936
2102.19	64.6074
2104.32	61.7946
2106.45	62.7943
2108.59	60.9669
2110.72	64.472
2112.85	62.661
2114.98	62.4799
2117.11	60.2841
2119.24	61.1122
2121.37	59.9991
2123.5	59.5084
2125.62	59.9985
2127.75	58.1615
2129.87	56.3644
2131.99	61.3147
2134.11	60.0581
2136.24	60.3217
2138.36	53.5182
2140.47	62.645
2142.59	62.0531
2144.71	54.523
2146.83	57.3087
2148.94	62.085
2151.06	55.8218
2153.17	57.2266
2155.28	58.6924
2157.39	61.4708
2159.5	55.0257
2161.61	56.7458
2163.72	55.5552
2165.83	56.5712
2167.94	58.7718
2170.04	53.789
2172.15	57.3013
2174.25	54.7662
2176.35	54.1955
2178.45	52.8316
2180.56	55.6903
2182.66	61.6042
2184.75	56.6313
2186.85	55.4174
2188.95	55.6994
2191.05	59.5333
2193.14	56.7789
2195.24	50.7034
2197.33	52.7775
2199.42	56.6357
2201.51	53.4412
2203.6	51.4488
2205.69	55.9867
2207.78	55.9137
2209.87	51.1629
2211.96	49.6357
2214.04	54.76
2216.13	52.9739
2218.21	59.7469
2220.29	53.0257
2222.38	61.6136
2224.46	58.7615
2226.54	58.349
2228.62	54.5202
2230.69	55.227
2232.77	58.1913
2234.85	51.5025
2236.92	53.1584
2239	50.9528
2241.07	51.7843
2243.15	49.8716
2245.22	46.2058
2247.29	49.5235
2249.36	47.4909
2251.43	51.9881
2253.49	51.2659
2255.56	50.6507
2257.63	49.0266
2259.69	48.4918
2261.76	47.6195
2263.82	48.552
2265.88	49.5857
2267.95	47.7558
2270.01	46.4672
2272.07	48.9411
2274.12	47.8847
2276.18	47.9674
2278.24	46.2015
2280.3	45.0145
2282.35	47.6696
2284.41	44.0403
2286.46	46.7442
2288.51	43.591
2290.56	43.9155
2292.61	46.1223
2294.66	46.003
2296.71	45.7069
2298.76	49.6895
2300.8	46.0355
2302.85	45.661
2304.9	43.9766
2306.94	44.8032
2308.98	44.0791
2311.03	42.3698
2313.07	45.9143
2315.11	43.1466
2317.15	42.8781
2319.19	43.671
2321.22	42.4144
2323.26	47.4865
2325.3	41.7208
2327.33	44.4488
2329.36	42.4613
2331.4	42.0642
2333.43	40.9217
2335.46	37.9362
2337.49	45.3003
2339.52	42.3875
2341.55	40.1742
2343.58	43.85
2345.6	44.7658
2347.63	55.9475
2349.65	42.2544
2351.68	36.9949
2353.7	45.9218
2355.72	43.3502
2357.74	39.4438
2359.76	42.7448
2361.78	40.7126
2363.8	42.6566
2365.82	43.2603
2367.84	42.2058
2369.85	41.8006
2371.87	42.4746
2373.88	40.9218
2375.9	40.1868
2377.91	43.0531
2379.92	37.0939
2381.93	38.8932
2383.94	33.602
2385.95	40.9406
2387.96	39.2793
2389.96	37.4556
2391.97	38.3318
2393.97	40.9408
2395.98	39.3914
2397.98	39.3852
2399.98	36.0571
2401.98	37.7979
2403.99	36.4962
2405.99	33.1476
2407.98	34.2957
2409.98	37.7929
2411.98	36.0855
2413.98	34.3614
2415.97	36.887
2417.96	38.1769
2419.96	37.085
2421.95	36.1897
2423.94	36.0802
2425.93	35.9881
2427.92	34.9253
2429.91	35.9511
2431.9	39.2387
2433.89	38.9153
2435.87	36.5513
2437.86	30.7543
2439.84	34.642
2441.83	34.4272
2443.81	30.887
2445.79	34.1742
2447.77	34.9371
2449.75	34.1324
2451.73	35.2808
2453.71	34.2998
2455.69	31.6126
2457.67	34.3061
2459.64	37.9683
2461.62	34.736
2463.59	34.0947
2465.56	31.2166
2467.54	33.085
2469.51	33.031
2471.48	32.6258
2473.45	36.0011
2475.42	38.4119
2477.38	30.9475
2479.35	33.4986
2481.32	35.3972
2483.28	37.0757
2485.25	31.4702
2487.21	35.1692
2489.17	33.4171
2491.13	35.2317
2493.09	33.4556
2495.05	32.6578
2497.01	32.2741
2498.97	35.306
2500.93	34.8105
2502.89	34.0381
2504.84	32.8316
2506.8	32.3534
2508.75	32.349
2510.7	32.9192
2512.65	31.2053
2514.61	31.2633
2516.56	34.4118
2518.51	31.2488
2520.45	30.7943
2522.4	33.2089
2524.35	29.7389
2526.29	31.3534
2528.24	32.7776
2530.18	34.4847
2532.13	29.4065
2534.07	34.0825
2536.01	31.5694
2537.95	30.7499
2539.89	29.9982
2541.83	30.8079
2543.77	30.5075
2545.71	30.1653
2547.64	30.5246
2549.58	29.0156
2551.51	30.7707
2553.45	31.136
2555.38	30.0038
2557.31	32.5756
2559.25	29.0112
2561.18	31.9153
2563.11	26.9827
2565.03	28.5335
2566.96	32.0571
2568.89	28.5857
2570.82	29.4281
2572.74	27.7504
2574.67	28.5756
2576.59	30.642
2578.51	26.195
2580.43	26.5783
2582.36	28.7232
2584.28	25.1055
2586.2	25.0254
2588.11	33.255
2590.03	30.0838
2591.95	30.3161
2593.86	29.9691
2595.78	27.4135
2597.69	26.7405
2599.61	27.8107
2601.52	27.7605
2603.43	29.9084
2605.34	29.1577
2607.25	28.6933
2609.16	26.1466
2611.07	28.4971
2612.98	28.3024
2614.89	29.0011
2616.79	25.4963
2618.7	27.1019
2620.6	27.1093
2622.5	30.7975
2624.41	29.2214
2626.31	27.195
2628.21	27.8006
2630.11	32.5566
2632.01	30.8417
2633.91	25.3893
2635.8	29.8308
2637.7	29.3087
2639.6	27.4772
2641.49	28.7522
2643.39	35.082
2645.28	29.0518
2647.17	38.629
2649.06	35.7522
2650.95	33.3904
2652.84	30.8417
2654.73	33.1377
2656.62	30.5436
2658.51	27.8954
2660.4	31.2207
2662.28	29.2524
2664.17	29.2803
2666.05	28.7658
2667.93	34.6126
2669.82	37.867
2671.7	48.7614
2673.58	65.1123
2675.46	77.314
2677.34	78.9192
2679.21	66.2287
2681.09	58.6915
2682.97	52.9354
2684.84	42.9469
2686.72	39.4488
2688.59	43.0855
2690.47	67.0365
2692.34	93.693
2694.21	187.83
2696.08	240.191
2697.95	210.303
2699.82	153.422
2701.69	87.5763
2703.56	64.6696
2705.42	56.6313
2707.29	41.562
2709.15	40.1312
2711.02	35.0257
2712.88	29.5299
2714.75	28.5686
2716.61	28.8105
2718.47	31.8588
2720.33	29.9153
2722.19	26.4962
2724.05	22.7658
2725.9	27.7452
2727.76	28.4385
2729.62	28.943
2731.47	24.826
2733.33	28.0418
2735.18	28.0248
2737.03	24.5439
2738.88	24.8032
2740.73	25.7253
2742.59	23.3587
2744.43	24.2577
2746.28	24.9009
2748.13	23.9744
2749.98	25.9392
2751.82	24.4091
2753.67	22.2219
2755.51	25.213
2757.36	21.8296
2759.2	23.0796
2761.04	21.76
2762.88	21.3534
