365.286	300.403
368.238	302.992
371.189	304.017
374.139	318.959
377.087	331.029
380.034	328.327
382.979	329.61
385.923	315.004
388.866	309.97
391.806	292.737
394.745	300.04
397.684	295.444
400.62	297.169
403.555	300.691
406.49	303.329
409.421	302.631
412.353	307.405
415.282	304.651
418.209	311.774
421.137	316.964
424.062	322.014
426.985	325.957
429.908	326.9
432.829	330.648
435.748	330.163
438.666	325.151
441.583	310.66
444.498	313.992
447.412	309.667
450.324	309.813
453.235	298.541
456.145	304.853
459.052	302.617
461.959	305.89
464.865	283.888
467.769	276.172
470.671	279.204
473.572	275.597
476.471	270.617
479.37	274.847
482.266	275.33
485.162	277.831
488.056	272.403
490.948	281.534
493.839	265.598
496.73	274.709
499.618	270.49
502.505	269.912
505.39	272.268
508.275	262.246
511.157	270.274
514.039	274.132
516.919	278.857
519.798	277.412
522.674	277.165
525.55	267.079
528.425	257.563
531.297	261.216
534.169	254.741
537.039	245.021
539.908	252.651
542.775	252.8
545.642	254.979
548.506	251.895
551.369	251.354
554.231	254.344
557.092	258.286
559.951	258.8
562.808	261.23
565.664	259.982
568.519	261.245
571.373	257.856
574.225	246.371
577.076	257.158
579.925	254.385
582.773	255.703
585.62	248.706
588.466	245.746
591.309	251.871
594.152	243.669
596.993	250.651
599.832	255.333
602.671	250.482
605.508	253.535
608.343	256.839
611.178	249.21
614.011	262.631
616.842	254.555
619.672	261.148
622.501	268.122
625.329	263.973
628.155	257.773
630.98	266.575
633.802	260.152
636.624	259.394
639.445	264.312
642.264	260.631
645.082	255.412
647.898	255.327
650.714	254.857
653.527	269.68
656.34	277.999
659.151	272.919
661.961	283.756
664.769	276.771
667.576	265.261
670.382	263.425
673.186	252.24
675.989	251.289
678.791	243.839
681.591	243.039
684.39	241.304
687.187	246.387
689.983	250.278
692.779	243.284
695.572	245.372
698.363	256.181
701.155	250.099
703.944	252.211
706.733	251.668
709.519	248.666
712.305	254.608
715.089	250.9
717.871	243.986
720.653	251.936
723.433	261.283
726.212	254.283
728.989	254.95
731.765	250.72
734.54	253.201
737.313	246.87
740.085	239.135
742.856	247.72
745.625	244.771
748.394	241.76
751.16	248.803
753.926	243.728
756.689	246.645
759.452	252.033
762.214	246.201
764.974	250.383
767.733	253.722
770.49	242.158
773.246	241.722
776.001	249.152
778.755	245.825
781.507	240.891
784.258	242.04
787.007	242.668
789.756	252.54
792.502	262.624
795.247	256.085
797.992	259.274
800.735	252.552
803.477	264.017
806.217	265.925
808.956	258.748
811.694	271.753
814.43	280.113
817.165	270.59
819.899	277.475
822.631	270.656
825.362	260.563
828.092	247.545
830.82	240.586
833.548	243.224
836.274	238.593
838.998	235.09
841.721	235.982
844.444	237.608
847.165	234.785
849.884	230.38
852.601	238.127
855.318	236.679
858.034	233.339
860.749	231.4
863.461	237.921
866.173	229.394
868.883	228.418
871.592	226.697
874.3	223.218
877.006	225.096
879.712	218.161
882.415	213.602
885.118	221.198
887.819	219.729
890.519	226.847
893.218	228.013
895.914	223.371
898.611	230.986
901.306	225.796
903.999	225.003
906.692	221.86
909.382	227.078
912.072	226.142
914.761	231.171
917.447	225.04
920.133	232.322
922.818	225.743
925.501	233.854
928.183	232.522
930.864	232.078
933.543	232.475
936.221	235.206
938.898	244.166
941.574	244.802
944.248	237.759
946.921	238.633
949.593	226.047
952.263	228.036
954.932	229.061
957.6	235.44
960.267	234.312
962.932	238.825
965.597	236.269
968.26	232.758
970.922	228.003
973.581	238.479
976.241	229.493
978.898	238.684
981.555	248.698
984.21	248.973
986.864	258.368
989.517	268.827
992.169	278.076
994.819	300.545
997.468	316.859
1000.12	338.703
1002.76	365.018
1005.41	390.403
1008.05	409.973
1010.69	416.307
1013.34	422.313
1015.98	384.802
1018.61	347.082
1021.25	318.388
1023.89	277.757
1026.52	260.053
1029.16	252.576
1031.79	246.936
1034.42	243.143
1037.05	246.982
1039.68	244.254
1042.31	245.617
1044.93	251.372
1047.56	255.893
1050.18	252.588
1052.81	251.982
1055.43	254.322
1058.05	257.798
1060.67	250.899
1063.28	264.698
1065.9	260.684
1068.52	270.507
1071.13	277.433
1073.74	276.921
1076.35	285.587
1078.96	293.329
1081.57	305.339
1084.18	295.254
1086.79	301.247
1089.39	302.777
1092	318.29
1094.6	317.368
1097.2	320.255
1099.8	302.612
1102.4	289.38
1105	279.469
1107.6	277.645
1110.19	271.121
1112.79	271.342
1115.38	264.742
1117.97	279.404
1120.56	282.967
1123.15	276.243
1125.74	276.733
1128.33	270.513
1130.91	257.526
1133.5	250.617
1136.08	249.182
1138.66	245.372
1141.24	248.195
1143.82	253.109
1146.4	240.425
1148.98	257.366
1151.55	255.057
1154.13	247.928
1156.7	245.263
1159.27	258.29
1161.85	248.631
1164.42	241.368
1166.98	241.158
1169.55	234.58
1172.12	244.734
1174.68	237.129
1177.25	235.477
1179.81	236.674
1182.37	237.278
1184.93	237.337
1187.49	233.271
1190.05	227.749
1192.6	213.563
1195.16	221.666
1197.71	221.602
1200.27	212.335
1202.82	219.009
1205.37	215.645
1207.92	206.743
1210.47	206.245
1213.01	205.522
1215.56	208.415
1218.1	204.383
1220.65	210.257
1223.19	219.25
1225.73	217.399
1228.27	211.545
1230.81	206.078
1233.35	213.485
1235.88	217.195
1238.42	219.207
1240.95	224.566
1243.48	219.626
1246.02	216.315
1248.55	220.107
1251.07	218.498
1253.6	222.389
1256.13	221.761
1258.66	225.957
1261.18	220.107
1263.7	218.978
1266.22	225.937
1268.75	220.6
1271.27	235.269
1273.78	227.401
1276.3	230.981
1278.82	238.522
1281.33	229.312
1283.85	230.318
1286.36	241.804
1288.87	236.936
1291.38	237.674
1293.89	235.633
1296.4	237.481
1298.9	236.347
1301.41	234.684
1303.91	227.26
1306.41	227.61
1308.92	227.621
1311.42	230.684
1313.92	220.306
1316.42	227.312
1318.91	227.959
1321.41	226.259
1323.9	222.634
1326.4	225.083
1328.89	238.423
1331.38	232.592
1333.87	234.897
1336.36	229.563
1338.85	240.475
1341.34	228.245
1343.82	240.569
1346.31	230.923
1348.79	232.574
1351.27	227.277
1353.75	236.329
1356.23	233.651
1358.71	229.895
1361.19	230.038
1363.66	239.787
1366.14	238.333
1368.61	252.777
1371.09	257.018
1373.56	262.485
1376.03	269.704
1378.5	281.512
1380.96	275.602
1383.43	285.549
1385.9	277.796
1388.36	267.976
1390.83	265.506
1393.29	254.115
1395.75	252.3
1398.21	228.796
1400.67	236.701
1403.13	223.745
1405.58	216.339
1408.04	216.143
1410.49	219.775
1412.95	211.673
1415.4	211.084
1417.85	206.339
1420.3	213.586
1422.75	223.124
1425.2	215.161
1427.64	219.588
1430.09	221.493
1432.53	217.59
1434.97	219.5
1437.42	219.561
1439.86	211.953
1442.3	210.493
1444.73	211.984
1447.17	213.306
1449.61	216.44
1452.04	205.936
1454.48	208.697
1456.91	209.393
1459.34	210.035
1461.77	204.058
1464.2	201.329
1466.63	201.146
1469.06	201.353
1471.48	214.413
1473.91	208.16
1476.33	215.228
1478.75	219.242
1481.17	223.781
1483.6	225.788
1486.01	218.576
1488.43	215.322
1490.85	218.59
1493.27	200.767
1495.68	205.187
1498.09	199.121
1500.51	193.253
1502.92	192.201
1505.33	184.54
1507.74	181.905
1510.14	186.471
1512.55	180.314
1514.96	178.38
1517.36	179.329
1519.77	180.989
1522.17	183.233
1524.57	179.158
1526.97	181.602
1529.37	177.204
1531.77	176.161
1534.16	170.942
1536.56	172.608
1538.95	168.76
1541.35	175.3
1543.74	179.498
1546.13	169.29
1548.52	176.18
1550.91	184.623
1553.3	178.5
1555.68	177.269
1558.07	178.238
1560.45	184.092
1562.84	186.794
1565.22	193.802
1567.6	194.499
1569.98	194.004
1572.36	198.142
1574.74	195.788
1577.12	196.812
1579.49	200.286
1581.87	196.038
1584.24	195.785
1586.61	191.545
1588.98	179.347
1591.35	167.802
1593.72	175.768
1596.09	169.444
1598.46	169.574
1600.82	164.508
1603.19	164.54
1605.55	155.836
1607.92	159.148
1610.28	152.752
1612.64	153.129
1615	153.068
1617.36	151.603
1619.71	144.04
1622.07	150.856
1624.42	144.996
1626.78	148.913
1629.13	146.219
1631.48	138.149
1633.83	141.933
1636.18	138.222
1638.53	141.192
1640.88	145.749
1643.22	136.266
1645.57	136.672
1647.91	133.827
1650.26	137.369
1652.6	129.305
1654.94	136.793
1657.28	138.76
1659.62	136.023
1661.96	135.745
1664.29	130.426
1666.63	136.684
1668.96	131.281
1671.3	132.912
1673.63	135.879
1675.96	133.48
1678.29	132.69
1680.62	133.62
1682.95	132.817
1685.27	129.622
1687.6	135.248
1689.92	131.912
1692.25	130.848
1694.57	139.038
1696.89	134.317
1699.21	138.001
1701.53	135.411
1703.85	141.755
1706.17	136.877
1708.48	141.52
1710.8	143.87
1713.11	141.758
1715.43	141.296
1717.74	142.483
1720.05	138.78
1722.36	135.489
1724.67	132.148
1726.97	128.78
1729.28	130.128
1731.59	126.402
1733.89	123.832
1736.19	123.577
1738.5	121.14
1740.8	127.338
1743.1	126.438
1745.4	119.585
1747.7	119.885
1749.99	113.78
1752.29	118.892
1754.58	116.947
1756.88	114.606
1759.17	111.384
1761.46	118.826
1763.75	107.31
1766.04	107.852
1768.33	110.745
1770.62	108.297
1772.91	106.505
1775.19	109.6
1777.48	107.632
1779.76	109.692
1782.04	108.914
1784.32	103.495
1786.6	100.533
1788.88	105.052
1791.16	108.842
1793.44	104.311
1795.71	107.786
1797.99	106.491
1800.26	102.577
1802.54	101.418
1804.81	103.513
1807.08	102.481
1809.35	101.982
1811.62	99.9457
1813.88	98.2214
1816.15	99.8218
1818.42	101.571
1820.68	97.991
1822.95	106.25
1825.21	98.6059
1827.47	95.6339
1829.73	99.5908
1831.99	101.082
1834.25	100.469
1836.51	97.9392
1838.76	97.6885
1841.02	97.5599
1843.27	97.6597
1845.52	96.3181
1847.78	95.207
1850.03	93.3474
1852.28	93.2376
1854.53	92.3798
1856.78	96.602
1859.02	92.2866
1861.27	97.7821
1863.51	95.4914
1865.76	97.7517
1868	95.1687
1870.24	96.8593
1872.48	89.8242
1874.72	97.9289
1876.96	100.159
1879.2	98.2214
1881.44	86.0902
1883.67	91.731
1885.91	90.7626
1888.14	89.1734
1890.37	91.8972
1892.61	91.4494
1894.84	90.6487
1897.07	89.3383
1899.29	91.005
1901.52	95.2335
1903.75	92.6283
1905.97	86.2834
1908.2	86.888
1910.42	88.0672
1912.64	86.2503
1914.87	91.3405
1917.09	88.5196
1919.31	88.2335
1921.52	85.7989
1923.74	87.4516
1925.96	86.1346
1928.17	86.565
1930.39	79.2074
1932.6	83.3096
1934.81	85.6717
1937.03	88.0791
1939.24	84.7327
1941.45	87.4207
1943.65	84.5056
1945.86	79.7031
1948.07	84.0031
1950.27	77.406
1952.48	84.025
1954.68	82.0094
1956.88	78.7415
1959.08	86.4641
1961.29	83.3325
1963.48	76.6518
1965.68	85.9973
1967.88	78.9042
1970.08	85.0931
1972.27	79.8511
1974.47	76.5407
1976.66	80.7872
1978.85	82.8279
1981.04	80.5486
1983.23	81.888
1985.42	81.903
1987.61	80.0281
1989.8	82.9638
1991.99	80.3734
1994.17	77.8979
1996.36	78.675
1998.54	79.4845
2000.72	87.1224
2002.9	81.5465
2005.08	77.4948
2007.26	79.4949
2009.44	76.4826
2011.62	77.0815
2013.8	72.7626
2015.97	79.7562
2018.15	77.7919
2020.32	69.8242
2022.49	73.3715
2024.66	76.0473
2026.83	74.5852
2029	69.0752
2031.17	70.565
2033.34	76.4296
2035.51	74.3902
2037.67	71.5816
2039.84	71.2457
2042	70.2623
2044.16	71.6597
2046.32	72.2664
2048.48	75.2623
2050.64	71.1786
2052.8	73.4354
2054.96	74.9353
2057.12	67.8593
2059.27	71.2687
2061.43	70.1923
2063.58	68.3902
2065.73	70.7872
2067.89	69.0382
2070.04	67.4557
2072.19	72.1923
2074.34	74.4354
2076.48	68.7049
2078.63	67.982
2080.78	71.0429
2082.92	66.7708
2085.07	69.8218
2087.21	68.5407
2089.35	70.2727
2091.49	65.8012
2093.63	64.0672
2095.77	68.2419
2097.91	72.9353
2100.05	66.0931
2102.19	68.6988
2104.32	66.9107
2106.45	64.7989
2108.59	63.9107
2110.72	65.5528
2112.85	60.9704
2114.98	67.5235
2117.11	64.207
2119.24	63.7704
2121.37	65.7478
2123.5	66.588
2125.62	63.2524
2127.75	62.2294
2129.87	63.4085
2131.99	61.5486
2134.11	62.1783
2136.24	61.0141
2138.36	59.1786
2140.47	62.7626
2142.59	60.4705
2144.71	64.154
2146.83	62.0141
2148.94	59.2604
2151.06	62.5668
2153.17	58.7458
2155.28	57.4296
2157.39	62.3658
2159.5	59.9973
2161.61	54.968
2163.72	56.5466
2165.83	58.9762
2167.94	58.8593
2170.04	59.5528
2172.15	59.1615
2174.25	62.1267
2176.35	61.3321
2178.45	52.9988
2180.56	61.2894
2182.66	55.3077
2184.75	54.3325
2186.85	55.579
2188.95	55.6515
2191.05	57.2791
2193.14	57.4124
2195.24	53.9851
2197.33	51.4539
2199.42	60.9271
2201.51	57.8346
2203.6	53.5056
2205.69	55.5119
2207.78	55.0815
2209.87	52.2153
2211.96	51.0815
2214.04	55.2195
2216.13	55.1615
2218.21	54.9991
2220.29	55.7626
2222.38	54.9317
2224.46	50.3855
2226.54	56.2214
2228.62	53.8027
2230.69	51.816
2232.77	54.0962
2234.85	50.8059
2236.92	51.1493
2239	53.968
2241.07	48.2623
2243.15	53.0094
2245.22	49.5171
2247.29	47.7856
2249.36	47.5528
2251.43	46.7279
2253.49	44.6761
2255.56	46.8012
2257.63	46.4873
2259.69	43.4005
2261.76	49.5259
2263.82	48.7171
2265.88	52.8691
2267.95	46.9991
2270.01	45.0815
2272.07	47.588
2274.12	50.1392
2276.18	45.0791
2278.24	47.7338
2280.3	49.4436
2282.35	51.0733
2284.41	48.0815
2286.46	48.4725
2288.51	44.244
2290.56	50.8511
2292.61	45.1493
2294.66	43.637
2296.71	43.7766
2298.76	44.9213
2300.8	40.9457
2302.85	43.2897
2304.9	45.2074
2306.94	47.0812
2308.98	42.0815
2311.03	41.2503
2313.07	45.717
2315.11	41.1926
2317.15	44.7482
2319.19	45.7568
2321.22	44.4601
2323.26	40.4845
2325.3	39.2317
2327.33	40.4008
2329.36	43.816
2331.4	41.3474
2333.43	40.5407
2335.46	42.8862
2337.49	39.6518
2339.52	40.7342
2341.55	45.4148
2343.58	39.2604
2345.6	46.7458
2347.63	51.9775
2349.65	40.1392
2351.68	41.2869
2353.7	37.637
2355.72	35.9501
2357.74	39.4826
2359.76	39.4005
2361.78	38.1615
2363.8	37.6208
2365.82	37.7279
2367.84	34.7338
2369.85	39.8178
2371.87	31.6808
2373.88	39.2214
2375.9	37.2503
2377.91	37.657
2379.92	35.637
2381.93	36.1511
2383.94	34.4436
2385.95	36.1084
2387.96	35.9396
2389.96	36.2791
2391.97	33.5547
2393.97	33.2791
2395.98	37.8453
2397.98	36.5547
2399.98	32.3614
2401.98	34.6761
2403.99	36.4008
2405.99	37.0873
2407.98	33.4826
2409.98	31.6593
2411.98	32.0815
2413.98	34.0569
2415.97	32.9851
2417.96	36.565
2419.96	34.2074
2421.95	34.6124
2423.94	31.4539
2425.93	32.4539
2427.92	31.1786
2429.91	31.8593
2431.9	29.2726
2433.89	35.4145
2435.87	32.2897
2437.86	32.0934
2439.84	31.6927
2441.83	33.4909
2443.81	32.168
2445.79	33.2148
2447.77	26.6761
2449.75	29.8242
2451.73	32.637
2453.71	32.4725
2455.69	33.637
2457.67	28.1615
2459.64	31.2791
2461.62	30.3037
2463.59	31.2894
2465.56	28.5528
2467.54	28.7629
2469.51	28.0365
2471.48	32.5239
2473.45	28.4008
2475.42	31.1252
2477.38	29.4005
2479.35	30.7769
2481.32	26.9564
2483.28	33.3185
2485.25	27.9851
2487.21	28.0503
2489.17	28.4296
2491.13	28.3325
2493.09	28.9253
2495.05	27.3037
2497.01	23.8453
2498.97	29.5239
2500.93	30.4296
2502.89	26.0815
2504.84	25.5119
2506.8	26.565
2508.75	25.6808
2510.7	29.4826
2512.65	23.3428
2514.61	28.384
2516.56	31.3594
2518.51	25.623
2520.45	27.8862
2522.4	27.5091
2524.35	29.637
2526.29	30.7629
2528.24	27.688
2530.18	29.8453
2532.13	26.0113
2534.07	26.5407
2536.01	29.1224
2537.95	25.5816
2539.89	32.4951
2541.83	26.6991
2543.77	26.0214
2545.71	26.602
2547.64	27.8983
2549.58	27.5056
2551.51	28.3306
2553.45	24.8346
2555.38	28.0815
2557.31	27.903
2559.25	22.6717
2561.18	24.6077
2563.11	25.4557
2565.03	25.623
2566.96	22.4008
2568.89	25.874
2570.82	26.0522
2572.74	25.1926
2574.67	24.0675
2576.59	27.2045
2578.51	23.8102
2580.43	24.9564
2582.36	23.0962
2584.28	24.2214
2586.2	26.4436
2588.11	23.5239
2590.03	22.4296
2591.95	21.7482
2593.86	23.5547
2595.78	20.8102
2597.69	23.0675
2599.61	24.4008
2601.52	25.168
2603.43	22.7131
2605.34	25.3474
2607.25	22.8453
2609.16	22.7482
2611.07	20.2897
2612.98	24.9704
2614.89	21.8453
2616.79	25.5956
2618.7	27.6761
2620.6	24.6658
2622.5	24.5407
2624.41	27.8983
2626.31	20.3325
2628.21	25.0675
2630.11	26.5407
2632.01	25.1252
2633.91	23.4008
2635.8	26.637
2637.7	21.2974
2639.6	24.592
2641.49	24.1786
2643.39	27.2886
2645.28	33.0507
2647.17	33.4148
2649.06	38.8453
2650.95	27.9564
2652.84	26.678
2654.73	24.6059
2656.62	29.0234
2658.51	24.9991
2660.4	25.9411
2662.28	24.9991
2664.17	26.2074
2666.05	29.3777
2667.93	28.9501
2669.82	34.874
2671.7	47.3715
2673.58	65.7629
2675.46	81.5938
2677.34	79.4845
2679.21	66.2132
2681.09	47.4268
2682.97	51.2457
2684.84	40.5404
2686.72	36.9973
2688.59	45.3243
2690.47	67.2956
2692.34	87.7191
2694.21	221.964
2696.08	228.874
2697.95	208.508
2699.82	148.442
2701.69	83.4826
2703.56	56.4436
2705.42	49.2897
2707.29	35.0962
2709.15	30.7919
2711.02	28.8983
2712.88	22.7342
2714.75	25.3325
2716.61	26.0429
2718.47	23.6062
2720.33	20.917
2722.19	25.1786
2724.05	21.0647
2725.9	25.6518
2727.76	22.2074
2729.62	21.2074
2731.47	23.3658
2733.33	21.0962
2735.18	20.4008
2737.03	24.1206
2738.88	18.4769
2740.73	19.7049
2742.59	17.3185
2744.43	20.1926
2746.28	17.3715
2748.13	19.1786
2749.98	17.5119
2751.82	20.3428
2753.67	21.637
2755.51	19.3037
2757.36	19.9991
2759.2	16.839
2761.04	16.0675
2762.88	16.6059
