epoch,beta,learning_rate,train_loss,train_reconstruction_loss,train_kl_unnormalized,train_kl_normalized,mean_unclipped_gradient_norm
1,0.0,0.001,0.11003086268901825,0.11003086268901825,9.885289244651794,0.007055880974055528,0.15798043459653854
2,0.02,0.001,0.09180843085050583,0.09019344598054886,113.12968139648437,0.08074923725659128,0.21879756078124046
3,0.04,0.001,0.06484059870243072,0.05334297731518745,402.70419921875,0.2874405419120271,0.19190979562699795
4,0.06,0.001,0.06218402922153473,0.03857437238097191,551.28548828125,0.39349428142844395,0.14995195344090462
5,0.08,0.001,0.05138603910803795,0.035567810535430906,277.0167559814453,0.19772787721730573,0.09663848578929901
6,0.1,0.001,0.045467285066843034,0.03946977287530899,84.02515029907227,0.05997512512424858,0.14463856630027294
7,0.12,0.001,0.04222344756126404,0.03768260806798935,53.01430999755859,0.03784033547291834,0.09969504736363888
8,0.14,0.001,0.03862312480807304,0.03228485122323036,63.42800811767578,0.04527338195408692,0.07359209842979908
9,0.16,0.001,0.03511193484067917,0.030785187184810638,37.88608932495117,0.027042176534583278,0.06988822761923075
10,0.18,0.001,0.034157834351062774,0.03022157557308674,30.637223052978516,0.021868110673075314,0.044942955020815134
11,0.2,0.001,0.03379689410328865,0.02941448047757149,30.69881065368652,0.021912070416621358,0.04191258177161217
12,0.22,0.001,0.03276284031569958,0.029866771176457405,18.442695922851563,0.013163951408173849,0.06515262695029378
13,0.24,0.001,0.031943493857979774,0.02836850106716156,20.869022827148438,0.01489580501580902,0.05405382812023163
14,0.25,0.001,0.031030544340610505,0.028564925342798232,13.81732681274414,0.009862474527297745,0.06853863969445229
15,0.25,0.001,0.02968387007713318,0.026077776923775674,20.20854690551758,0.014424373237343026,0.05918775498867035
16,0.25,0.001,0.02812920480966568,0.0250934636592865,17.01229034423828,0.012142962415587637,0.056632513646036386
17,0.25,0.001,0.026925049126148223,0.02291225001215935,22.48772720336914,0.016051197147301313,0.05057988874614239
18,0.25,0.001,0.02573770336806774,0.02202873818576336,20.785038833618163,0.014835859267393408,0.03778413916006684
19,0.25,0.001,0.025023780390620233,0.02106741763651371,22.171457901000977,0.015825451749465366,0.04377928143367171
20,0.25,0.001,0.024032090231776236,0.020155465081334114,21.72460464477539,0.015506498675785432,0.02529833256267011
21,0.25,0.001,0.023028541058301925,0.01859992489218712,24.81796371459961,0.01771446375060643,0.03660860424861312
22,0.25,0.001,0.02181883528828621,0.018004330918192864,21.376484832763673,0.015258019152579353,0.03692473564296961
23,0.25,0.001,0.02128856673836708,0.017302452251315117,22.3381884765625,0.015944460011821912,0.044266226002946496
24,0.25,0.001,0.020597939416766166,0.01669827587902546,21.85371467590332,0.01559865430114441,0.041413940489292145
25,0.25,0.001,0.02012751005589962,0.0159926525503397,23.171740951538087,0.01653942965848543,0.039118526969105005
26,0.0,0.001,0.01594700701534748,0.01594700701534748,22.176915817260742,0.015829347478415946,0.05872313305735588
27,0.02,0.001,0.015492222011089326,0.015048827454447746,31.05980682373047,0.022169740773540662,0.05216411268338561
28,0.04,0.001,0.015165991485118865,0.013898162879049778,44.405708923339844,0.031695723714018444,0.04234107304364443
29,0.06,0.001,0.015458577983081341,0.013144137896597385,54.04217590332031,0.03857400135854412,0.03228267375379801
30,0.08,0.001,0.015781198032200336,0.01255402572453022,56.51586029052734,0.04033965759495171,0.032666197046637535
31,0.1,0.001,0.01626114584505558,0.01249972052872181,52.69757232666016,0.037614255764925164,0.03759671584703028
32,0.12,0.001,0.016883360892534255,0.012787819281220436,47.815450286865236,0.03412951483716291,0.04723217012360692
33,0.14,0.001,0.016673594787716864,0.01289038136601448,37.859159240722654,0.027022954490166062,0.031205007806420326
34,0.16,0.001,0.016827031746506693,0.01325426071882248,31.284079132080077,0.022329820936531103,0.029129976173862815
35,0.18,0.001,0.017104222401976586,0.0136897636577487,26.57586639404297,0.018969212272693055,0.03051466541364789
36,0.2,0.001,0.017439046949148176,0.013718184381723404,26.064642868041993,0.01860431325342041,0.04565858654677868
37,0.22,0.001,0.017866920083761215,0.014220945313572883,23.218226013183592,0.016572609574006848,0.04369247518479824
38,0.24,0.001,0.017753149420022964,0.013610271960496903,24.184046325683592,0.017261988812051102,0.023998889606446028
39,0.25,0.001,0.018189305365085603,0.014089933410286904,22.972882080078126,0.016397488993631783,0.048935287864878774
40,0.25,0.001,0.01760850988328457,0.01364265900105238,22.224627685546874,0.015863403058919968,0.05407827068120241
41,0.25,0.001,0.0175497467815876,0.013791921064257622,21.058854064941407,0.01503130197354847,0.04068215936422348
42,0.25,0.001,0.017655145674943924,0.013988666459918022,20.54695053100586,0.014665917581017743,0.02753967372700572
43,0.25,0.001,0.017510459646582602,0.013525045961141586,22.33426025390625,0.015941656141260706,0.03152312897145748
44,0.25,0.001,0.0173166598379612,0.013404054455459119,21.92623977661133,0.01565042096831644,0.048346430994570255
45,0.25,0.001,0.016978352144360543,0.01315566547214985,21.422335586547852,0.015290746314452429,0.0414273370988667
46,0.25,0.001,0.017120484076440335,0.013696597330272198,19.187460632324218,0.01369554648988167,0.032779484055936337
47,0.25,0.001,0.016674193143844603,0.013144578039646148,19.779961395263673,0.014118459240016897,0.041106164921075106
48,0.25,0.001,0.016415760591626166,0.012610220350325108,21.326248245239256,0.015222161488393473,0.03527262480929494
49,0.25,0.001,0.01626728378236294,0.012754916846752166,19.683304748535157,0.014049468057484053,0.03276360873132944
50,0.25,0.001,0.015825551822781562,0.0122187165543437,20.21270462036133,0.014427340913891027,0.036500823218375444
51,0.0,0.001,0.012377850748598575,0.012377850748598575,19.32515396118164,0.013793828666082543,0.06100436393171549
52,0.02,0.001,0.01200170859694481,0.01162666991353035,26.271451416015626,0.018751928205578604,0.021136194933205843
53,0.04,0.001,0.011609014868736268,0.010620542541146279,34.62123184204101,0.02471180003000786,0.03321040445007384
54,0.06,0.001,0.0117720852419734,0.009937649257481099,42.83408264160156,0.030573934790579273,0.025826776633039117
55,0.08,0.001,0.0123518405854702,0.009649274200201034,47.32869873046875,0.0337820833193924,0.018172312062233686
56,0.1,0.001,0.0127571477368474,0.009290632084012032,48.5658854675293,0.034665157364403495,0.02227209322154522
57,0.12,0.001,0.013072593808174134,0.009261094033718109,44.499261932373045,0.03176249959484157,0.03706414648331702
58,0.14,0.001,0.013136516362428664,0.009217875599861146,39.21440124511719,0.027990293536843104,0.019735806388780475
59,0.16,0.001,0.013122592940926553,0.009431608021259308,32.31918640136719,0.023068655532738895,0.01665743929333985
60,0.18,0.001,0.01373585820198059,0.010181067436933517,27.668121185302734,0.019748837391365265,0.03820158448070288
61,0.2,0.001,0.013934087008237839,0.010307474583387375,25.404418869018556,0.018133061291233803,0.0229788429569453
62,0.22,0.001,0.014011628217995167,0.01033894881606102,23.38829055786133,0.01669399754308446,0.017656058073043823
63,0.24,0.001,0.014387221150100231,0.010711623057723045,21.45630500793457,0.015314992867904761,0.03098437190055847
64,0.25,0.001,0.01455358974635601,0.010543065294623375,22.474979095458984,0.01604209785543111,0.028120097937062383
65,0.25,0.001,0.014426194019615651,0.010634543932974338,21.248406372070313,0.015166599837309289,0.035908376798033714
66,0.25,0.001,0.014152396321296692,0.010310615487396717,21.529339065551756,0.015367122816239654,0.024922670796513557
67,0.25,0.001,0.013943393379449845,0.010422312133014202,19.73213912963867,0.014084324860555797,0.045224994886666536
68,0.25,0.001,0.014007660746574401,0.010439005866646766,19.99874206542969,0.014274619604161091,0.038261156529188156
69,0.25,0.001,0.013859961852431298,0.010291210934519767,19.999281463623046,0.01427500461357819,0.027195850620046258
70,0.25,0.001,0.013918558843433857,0.010393327847123147,19.755395812988283,0.01410092492004874,0.029919910011813045
71,0.25,0.001,0.013912407606840134,0.010399914048612117,19.684012451171874,0.014049973198552373,0.032534817699342966
72,0.25,0.001,0.013822893798351287,0.010163587629795074,20.50675262451172,0.014637225285161827,0.04600640293210745
73,0.25,0.001,0.014093459285795688,0.010573127679526806,19.727937393188476,0.014081325762447163,0.05197032354772091
74,0.25,0.001,0.013785196244716644,0.010162946749478579,20.299085388183595,0.014488997421972587,0.022566128289327025
75,0.25,0.001,0.013659300655126572,0.01015932746231556,19.61384971618652,0.01399989273103963,0.017720768111757934
76,0.0,0.001,0.010046915449202061,0.010046915449202061,19.786085891723634,0.014122830757832714,0.046152654103934765
77,0.02,0.001,0.009716860167682171,0.00934619691222906,25.964968872070312,0.01853316835979323,0.01637319033034146
78,0.04,0.001,0.009827471673488616,0.008865926563739777,33.67812744140625,0.02403863486181745,0.019963469821959734
79,0.06,0.001,0.0101077938079834,0.008439566269516944,38.953114624023435,0.027803793450409304,0.017406982136890292
80,0.08,0.001,0.010622195415198803,0.008196479231119156,42.48035385131836,0.030321451714003113,0.017775631393305957
81,0.1,0.001,0.011119140908122063,0.00809511475265026,42.36660400390625,0.030240259817206457,0.012800972675904632
82,0.12,0.001,0.011292873322963715,0.007897132616490126,39.64527587890625,0.02829784145532209,0.012809782987460494
83,0.14,0.001,0.011723564118146896,0.008265973068773746,34.60060760498047,0.024697078947166645,0.01658965810202062
84,0.16,0.001,0.012040489204227924,0.00875432588160038,28.774468536376954,0.020538521439241224,0.018792399670928717
85,0.18,0.001,0.01201032929122448,0.008774119168519974,25.188498458862306,0.01797894251167902,0.01733326935209334
86,0.2,0.001,0.01242937996983528,0.009086333699524402,23.418038787841798,0.01671523111194989,0.046235913410782814
87,0.22,0.001,0.013481725677847863,0.010360377319157123,19.877315368652344,0.014187948157496319,0.06400300655514002
88,0.24,0.001,0.013292981460690498,0.009733213856816293,20.780144653320313,0.014832365919571959,0.0475600641220808
89,0.25,0.001,0.013198218271136285,0.009707038439810276,19.56457046508789,0.013964718390498137,0.047549053095281124
90,0.25,0.001,0.012969426736235619,0.009655299074947834,18.57237159729004,0.0132565107760814,0.020210323040373623
91,0.25,0.001,0.012880400717258454,0.009451364651322364,19.216319580078125,0.013716145310548268,0.024280963116325438
92,0.25,0.001,0.013065407425165177,0.009605284705758095,19.390526580810548,0.013840490064818379,0.032037238823249936
93,0.25,0.001,0.012890596576035022,0.009610511139035225,18.381600036621094,0.013120342638558954,0.02907182858325541
94,0.25,0.001,0.013069909177720546,0.009751123748719693,18.59847381591797,0.01327514191000569,0.03194831474684179
95,0.25,0.001,0.012942012697458267,0.009686273522675037,18.245162353515624,0.013022956712002588,0.03420135471969843
96,0.25,0.001,0.012862271219491959,0.009595199041068554,18.30867248535156,0.013068288711885482,0.021967987064272165
97,0.25,0.001,0.012886057943105697,0.009640540406107902,18.187879486083986,0.012982069583214836,0.026701899245381355
98,0.25,0.001,0.012642513923346997,0.009649366587400437,16.773597602844237,0.011972589295392033,0.03882535034790635
99,0.25,0.001,0.012967923507094383,0.00992740698158741,17.039055633544923,0.012162066833365398,0.03602313855662942
100,0.25,0.001,0.013127840831875801,0.009699050225317479,19.21494400024414,0.013715163454849494,0.041302408557385206
101,0.25,0.001,0.012820265665650367,0.00953279122710228,18.423005981445314,0.013149897203030203,0.029066169634461403
102,0.25,0.001,0.012784442007541657,0.009545828960835934,18.14918960571289,0.012954453680023476,0.03274165280163288
103,0.25,0.001,0.01278615154325962,0.009505757614970207,18.383326797485353,0.013121575158804678,0.020437030121684074
104,0.25,0.001,0.012651200704276562,0.009359856359660626,18.444692306518554,0.013165376378671345,0.016099133528769016
105,0.25,0.001,0.0127100994810462,0.009552565179765224,17.69482238769531,0.012630137321695439,0.02055972279049456
106,0.25,0.001,0.01253193985670805,0.009472115635871888,17.14725555419922,0.012239297326337772,0.0207960803527385
107,0.25,0.001,0.012598281428217888,0.009527208395302295,17.21029312133789,0.012284292020940678,0.012604151736013591
108,0.25,0.001,0.012534949332475662,0.00950041577219963,17.005525512695314,0.012138133842038054,0.0198790798895061
109,0.25,0.001,0.012772255539894105,0.009631154946982861,17.602728424072264,0.012564402872285699,0.020503767649643123
110,0.25,0.001,0.012497756332159042,0.009225039593875408,18.340304260253905,0.01309086670967445,0.02416827972047031
111,0.25,0.001,0.012456569597125053,0.009381972085684538,17.230044860839843,0.012298390336074121,0.02017448330298066
112,0.25,0.001,0.012324639521539211,0.009238867461681366,17.292666625976562,0.012343088241239517,0.012930618249811232
113,0.25,0.001,0.012096098437905312,0.008853946067392825,18.1690234375,0.012968610590649536,0.022308588959276676
114,0.25,0.001,0.012388659231364728,0.009317943528294563,17.20829032897949,0.01228286247607387,0.01726317685097456
115,0.25,0.001,0.012338694743812084,0.00943506058305502,16.27196517944336,0.011614536173763996,0.026345910504460335
116,0.25,0.001,0.012202742621302604,0.0091941499710083,16.86015365600586,0.012034370917919958,0.04164548637345433
117,0.25,0.001,0.012566672526299954,0.009544660337269306,16.935356369018553,0.012088048800155998,0.04872493725270033
118,0.25,0.001,0.01219152484089136,0.008986160233616829,17.962864303588866,0.01282145917458163,0.01630250073503703
119,0.25,0.001,0.012303612791001797,0.00921047206968069,17.33396064758301,0.012372562917618136,0.028048296459019184
120,0.25,0.001,0.01243392363190651,0.009615359716117383,15.79523178100586,0.011274255375450293,0.01763041061349213
121,0.25,0.001,0.012078761868178845,0.009210668168962002,16.072795486450197,0.011472373651998713,0.03443298349156976
122,0.25,0.001,0.012401340492069722,0.009229914583265782,17.772671508789063,0.012685704146173492,0.048812839202582836
123,0.25,0.001,0.01198074672371149,0.008994137160480023,16.736958465576173,0.011946437163152157,0.0299604800529778
124,0.25,0.001,0.012249492146074771,0.009419276006519794,15.860533142089844,0.01132086591155592,0.03305080137215555
125,0.25,0.001,0.012097209468483925,0.009188798405230045,16.298734741210936,0.011633643641121296,0.021058969432488084
126,0.25,0.001,0.011989525109529496,0.009001752622425556,16.743476638793947,0.011951089677940004,0.013599765719845891
127,0.25,0.001,0.011967493891716004,0.00904003880918026,16.40545783996582,0.01170982001425112,0.023303474998101592
128,0.25,0.001,0.011601029932498931,0.008775018081068993,15.836970672607421,0.01130404758929866,0.01803532033227384
129,0.25,0.001,0.0118488460034132,0.009065195918083191,15.599576187133788,0.011134601132857807,0.017423310317099094
130,0.25,0.001,0.011943784393370151,0.00905266460031271,16.20183479309082,0.011564478795924926,0.01875044102780521
131,0.25,0.001,0.011798539385199546,0.008903844114392996,16.221870727539063,0.011578779962554648,0.01737038977444172
132,0.25,0.001,0.011707930825650692,0.008815853260457515,16.20720359802246,0.011568310919359358,0.02038811333477497
133,0.25,0.001,0.012043977789580822,0.009176015965640544,16.072057876586914,0.0114718471638736,0.017433166969567537
134,0.25,0.001,0.011831179559230805,0.008881968446075916,16.527381172180174,0.01179684594730919,0.020866297418251634
135,0.25,0.001,0.011823192350566386,0.008978323079645634,15.942648696899415,0.011379478013489947,0.014862220035865903
136,0.25,0.001,0.011793102286756039,0.009131822809576988,14.913812255859375,0.010645119383197269,0.024957893881946802
137,0.25,0.001,0.011694206111133098,0.00892859723418951,15.498472747802735,0.01106243593704692,0.01223320874851197
138,0.25,0.001,0.01177097275853157,0.008891611881554127,16.135939025878905,0.0115174439870656,0.02933016186580062
139,0.25,0.001,0.011650101579725743,0.008881272114813328,15.516521453857422,0.01107531866799245,0.03400758421048522
140,0.25,0.001,0.011826179288327694,0.00890689082443714,16.35969352722168,0.01167715455190698,0.027033697930164635
141,0.25,0.001,0.011755728125572205,0.008748733270913363,16.85119888305664,0.012027979217028294,0.016994129633530974
142,0.25,0.001,0.011827047243714332,0.008948398269712925,16.13194911956787,0.011514596088199765,0.032138034235686064
143,0.25,0.001,0.011555109098553657,0.008807487227022648,15.397671661376954,0.010990486553445363,0.012861107708886266
144,0.25,0.001,0.01177023895084858,0.009068244583904744,15.141975784301758,0.010807977005211819,0.010952404467388988
145,0.25,0.001,0.011443433240056039,0.008654598649591207,15.62862937927246,0.011155338600479986,0.013260529842227697
146,0.25,0.001,0.01176441326737404,0.00897523868829012,15.630533981323243,0.01115669805947412,0.026221276726573706
147,0.25,0.001,0.011541558988392353,0.008663426600396634,16.129054641723634,0.011512530079745635,0.02697853185236454
148,0.25,0.001,0.011359448581933974,0.008619996625930071,15.351889419555665,0.010957808293758505,0.02491295849904418
149,0.25,0.001,0.011442316435277463,0.008774049282073974,14.952970008850098,0.010673069242576801,0.023612063960172236
150,0.25,0.001,0.01159249521791935,0.008827828634530306,15.493191108703613,0.011058666030480809,0.038191004656255245
151,0.25,0.001,0.011430520378053189,0.008792077079415322,14.785836029052735,0.01055377304000909,0.019751889165490866
152,0.25,0.001,0.011603120379149914,0.008995575457811355,14.612681655883788,0.010430179625898492,0.027011103462427855
153,0.25,0.001,0.011566066965460777,0.008854404762387276,15.196155395507812,0.010846649104573742,0.02387488866224885
154,0.25,0.001,0.011243687123060226,0.00858189381659031,14.916688766479492,0.010647172567080294,0.02416201401501894
155,0.25,0.001,0.011176050677895545,0.008582004271447658,14.53703628540039,0.010376185785439251,0.011485070455819368
156,0.25,0.001,0.011373731568455695,0.008702880218625069,14.96744987487793,0.010683404621611657,0.02926730178296566
157,0.25,0.001,0.011208791695535182,0.008493946436792611,15.213993873596191,0.010859381779868801,0.014168929308652878
158,0.25,0.001,0.011150405406951905,0.008416304290294647,15.32190170288086,0.010936403785068423,0.0166747379116714
159,0.25,0.001,0.011127185747027398,0.008359816521406174,15.508336372375489,0.011069476354300849,0.01911210233811289
160,0.25,0.001,0.011339016556739807,0.00866798523813486,14.968458366394042,0.010684124458525368,0.01954963698517531
161,0.25,0.001,0.011200989559292794,0.008570056445896625,14.743750152587891,0.010523733156736539,0.01631815265864134
162,0.25,0.001,0.011146667711436749,0.00850914690643549,14.780667610168457,0.010550083947300826,0.026955910259857774
163,0.25,0.001,0.011053650230169297,0.008442027643322945,14.635534248352052,0.010446491255069273,0.012484974460676312
164,0.25,0.001,0.011134279184043408,0.008573368154466153,14.351345291137696,0.010243644033645749,0.019223033217713237
165,0.25,0.001,0.010926229879260063,0.008376263789832592,14.290011672973632,0.010199865576712085,0.02290971775073558
166,0.25,0.001,0.011059977374970912,0.008593021780252457,13.824820518493652,0.009867823353671415,0.016946328803896904
167,0.25,0.001,0.011194835342466831,0.008789422940462827,13.479929351806641,0.009621648359605026,0.023683775449171662
168,0.25,0.001,0.011167519949376583,0.00866877330467105,14.002976150512696,0.009994986545690717,0.021912198746576905
169,0.25,0.001,0.0111051070317626,0.008523178435862065,14.469128341674805,0.010327714733529482,0.030370491091161966
170,0.25,0.001,0.011207930147647857,0.008621698953211307,14.493241043090821,0.010344925798066253,0.02774167386814952
171,0.25,0.001,0.011194153428077698,0.008444095924496652,15.411323738098144,0.01100023107644407,0.020546460757032037
172,0.25,0.001,0.010906863622367383,0.008236184269189834,14.96648811340332,0.010682718139474176,0.01356724021025002
173,0.25,0.001,0.010934394225478173,0.008443874642252922,13.956872634887695,0.0099620789685137,0.025095722172409296
174,0.25,0.001,0.010904830060899257,0.008374904692173004,14.177701454162598,0.010119701252078943,0.015519570792093873
175,0.25,0.001,0.010887275002896785,0.008310099244117736,14.442491226196289,0.010308701803137964,0.019158795243129134
176,0.25,0.001,0.01108350269496441,0.008644582591950894,13.667710113525391,0.009755681736991715,0.03136875061318278
177,0.25,0.001,0.011286824084818363,0.008778292387723922,14.057813186645507,0.010034127899104574,0.02074475004337728
178,0.25,0.001,0.010743634477257728,0.00815332667902112,14.516085357666016,0.010361231518676671,0.02220675814896822
179,0.25,0.001,0.01084758758544922,0.008358572237193584,13.948442115783692,0.009956061467368802,0.020431479206308722
180,0.25,0.001,0.010854373946785926,0.008476982153952121,13.322902374267578,0.009509566291411548,0.01826659496873617
181,0.25,0.001,0.011006511747837067,0.008559579364955425,13.712608489990235,0.009787729114910946,0.02100641024298966
182,0.25,0.001,0.010964554399251938,0.008345384262502193,14.677828636169433,0.010476679968714799,0.017553895711898804
183,0.25,0.001,0.01092318095266819,0.00823141574859619,15.084652709960938,0.01076706117770231,0.017125453799962997
184,0.25,0.001,0.011004402935504913,0.008340860940515995,14.926489334106446,0.010654167975807599,0.02023172238841653
185,0.25,0.001,0.010776869282126426,0.00833722498267889,13.671767082214355,0.009758577503364993,0.016581568401306868
186,0.25,0.001,0.010882489569485187,0.008507065773010254,13.311876106262208,0.009501696007324917,0.019074350129812956
187,0.25,0.001,0.010880407243967057,0.008401625752449036,13.89109115600586,0.00991512573590711,0.03823380405083299
188,0.25,0.001,0.01071828193962574,0.008286781795322894,13.626127090454101,0.00972600077833983,0.02628128952346742
189,0.25,0.001,0.010538979507982731,0.008130904473364352,13.494852027893067,0.009632299805776637,0.01412024674937129
190,0.25,0.001,0.010583544708788395,0.008179727345705032,13.47099338531494,0.009615270082309023,0.019832634134218097
191,0.25,0.001,0.010428559221327304,0.008068139608949422,13.22779167175293,0.009441678566561692,0.012088189250789583
192,0.25,0.001,0.010626139640808106,0.008246750831604003,13.334094467163085,0.00951755493730413,0.01672828185837716
193,0.25,0.001,0.01077604316174984,0.008371206112205981,13.476707458496094,0.009619348649890145,0.018599595176056027
194,0.25,0.001,0.010651669278740884,0.008337474167346955,12.968749694824218,0.009256780652979456,0.02217308897525072
195,0.25,0.001,0.010667386166751384,0.008262285515666008,13.478182830810546,0.009620401735053923,0.01179607305675745
196,0.25,0.001,0.010646191760897636,0.00805455319583416,14.52354164123535,0.010366553634000963,0.024265190586447716
197,0.25,0.001,0.010573956072330476,0.007968640625476838,14.600187072753906,0.010421261293900004,0.014160842867568135
198,0.25,0.001,0.010555193647742272,0.008037414252758026,14.109636764526368,0.010071118318719749,0.012726714136078954
199,0.25,0.001,0.010571005791425704,0.008122372403740884,13.722141876220704,0.009794533816003358,0.010960066341795027
200,0.25,0.001,0.010355275794863701,0.007940990515053273,13.529654922485351,0.00965714127229504,0.011792254284955561
201,0.25,0.001,0.010595947802066803,0.008175142109394073,13.56619556427002,0.009683223100835131,0.013202358037233353
202,0.25,0.001,0.010706353560090065,0.00816132988780737,14.262313423156739,0.010180095234230363,0.016184439999051392
203,0.25,0.001,0.010548016130924225,0.008005257081240415,14.249622039794922,0.010171036430974249,0.01645428640767932
204,0.25,0.001,0.010545621290802956,0.008102632835507393,13.690508613586426,0.009771954756307228,0.02114446193445474
205,0.25,0.001,0.010571230389177799,0.00811157139018178,13.783929824829102,0.009838636563047181,0.02325838734395802
206,0.25,0.001,0.010373402945697307,0.007966998778283597,13.485491142272949,0.009625618231458207,0.017704815487377346
207,0.25,0.001,0.010526479482650756,0.008178614489734172,13.157436447143555,0.009391460704599255,0.020306472666561604
208,0.25,0.001,0.010562031418085099,0.008144709449261427,13.546672019958496,0.009669287665923267,0.025202841381542385
209,0.25,0.001,0.01045241616666317,0.008066290877759457,13.371845474243164,0.009544500695391266,0.022195307537913322
210,0.25,0.001,0.010342207849025726,0.008004622533917427,13.09982852935791,0.009350341562710857,0.0179402525536716
211,0.25,0.001,0.010343123860657215,0.00797539010643959,13.268780708312988,0.009470935551972154,0.013415758032351732
212,0.25,0.001,0.010490990877151489,0.008140760473906994,13.17069034576416,0.00940092101767606,0.016533790854737163
213,0.25,0.001,0.010371218882501126,0.007994537092745304,13.318925323486328,0.009506727568512724,0.015561169828288257
214,0.25,0.001,0.010350462943315507,0.008076812848448753,12.741534957885742,0.00909460025545021,0.01133028301410377
215,0.25,0.001,0.010438076928257942,0.008186458647251128,12.618069877624512,0.009006473859831915,0.016232230700552464
216,0.25,0.001,0.010300290249288082,0.007894774693995714,13.480508422851562,0.009622061686546439,0.0180218277964741
217,0.25,0.001,0.010461377948522567,0.008052979446947574,13.496664962768556,0.009633593834952573,0.021500262897461653
218,0.25,0.001,0.01039205029606819,0.008049494400620461,13.127683181762695,0.009370223541586505,0.02368333889171481
219,0.25,0.001,0.010405146181583405,0.008038430660963058,13.26307342529297,0.009466861831044232,0.02088426030240953
220,0.25,0.001,0.010515701845288277,0.007949066031724215,14.383426818847656,0.010266543054138228,0.012036885367706418
221,0.25,0.001,0.01044582836329937,0.0078435917198658,14.582934799194335,0.010408947037255057,0.02185935969464481
222,0.25,0.001,0.010247428268194199,0.007895275466144085,13.181464157104493,0.009408611104285862,0.01818045659456402
223,0.25,0.001,0.010094212144613266,0.007870086096227169,12.464001617431641,0.008896503652699244,0.009953859262168407
224,0.25,0.001,0.010239328369498252,0.008013550117611885,12.473261947631835,0.008903113452984893,0.018379969871602952
225,0.25,0.001,0.010248059779405594,0.00796838264912367,12.775312042236328,0.009118709523366401,0.016909973579458892
226,0.25,0.001,0.010239053331315518,0.007936333641409873,12.90444263458252,0.009210879824826924,0.024674964835867286
227,0.25,0.001,0.010309944711625576,0.00789796631783247,13.516725769042969,0.00964791275449177,0.018632284132763743
228,0.25,0.001,0.010002335868775844,0.007636597212404013,13.257598724365234,0.009462954121602593,0.021796098677441478
229,0.25,0.001,0.010313511490821839,0.008089711107313633,12.462176551818848,0.00889520096489568,0.01208508014678955
230,0.25,0.001,0.01030655562877655,0.008026833087205887,12.775565910339356,0.009118890728293616,0.02209958340972662
231,0.25,0.001,0.010234605483710767,0.007937147058546543,12.874956741333008,0.009189833505591013,0.015045318752527237
232,0.25,0.001,0.010183953084051608,0.007809384390711784,13.307082977294922,0.009498274787505298,0.014189921668730676
233,0.25,0.001,0.010218501389026642,0.007791526615619659,13.600767059326172,0.009707899399947303,0.007999048568308353
234,0.25,0.001,0.010224563665688038,0.00783728078007698,13.378333206176757,0.00954913148192488,0.020556497620418668
235,0.25,0.001,0.010076143480837345,0.007719272822141647,13.207903213500977,0.009427482664882924,0.011115615721791983
236,0.25,0.001,0.010411091428250075,0.008052224647253753,13.219090690612793,0.009435468016140466,0.011851975112222135
237,0.25,0.001,0.010162232927978038,0.007787005342543125,13.3107759475708,0.009500910740593005,0.017109165899455547
238,0.25,0.001,0.010190838202834129,0.007780997008085251,13.50474868774414,0.009639363802815232,0.018305335892364383
239,0.25,0.001,0.010104248821735383,0.007743476517498493,13.229768524169922,0.009443089596124141,0.018949268385767937
240,0.25,0.001,0.01004567701369524,0.00771889753639698,13.03927230834961,0.009307117993111784,0.011349778971634805
241,0.25,0.001,0.009971750341355801,0.0077738044969737526,12.317289276123047,0.008791783923000033,0.008711299626156688
242,0.25,0.001,0.01002400103956461,0.00790075808763504,11.898653564453125,0.008492971851858048,0.014418505132198334
243,0.25,0.001,0.009957532957196235,0.007790044546127319,12.146605529785155,0.008669953982716028,0.012321905116550624
244,0.25,0.001,0.009913332685828209,0.007688727509230375,12.466687622070312,0.008898420858008788,0.017033428186550736
245,0.25,0.001,0.00995942234992981,0.007702520340681076,12.647679138183594,0.009027608235677083,0.01889536459930241
246,0.25,0.001,0.009990231618285179,0.00771161712706089,12.769356155395508,0.009114458355028913,0.017390605760738254
247,0.25,0.001,0.009962334856390953,0.0077535281144082546,12.378153419494629,0.008835227280153197,0.012268524733372033
248,0.25,0.001,0.010066792853176593,0.007869145423173905,12.315616149902343,0.00879058968586891,0.017012398573569953
249,0.25,0.001,0.009954976700246334,0.007646328695118427,12.937665328979492,0.00923459338256923,0.01242426480166614
250,0.25,0.001,0.010021549835801124,0.007667687945067883,13.191042976379395,0.009415448234389289,0.014390114112757146
251,0.25,0.001,0.010051717683672905,0.0077867996878921986,12.69260097503662,0.009059672359055405,0.014073987258598208
252,0.25,0.001,0.010014504119753838,0.007827283255755902,12.25718723297119,0.008748884534597566,0.017523705726489425
253,0.25,0.001,0.00990403864532709,0.007702427115291357,12.337829704284667,0.00880644518507114,0.014622679678723216
254,0.25,0.001,0.009927347376942635,0.0077171319723129276,12.386046600341796,0.008840861242213987,0.013948809821158648
255,0.25,0.001,0.009880744069814682,0.007727046590298414,12.069320335388184,0.008614789675509054,0.014035389060154557
256,0.25,0.001,0.009829495921730996,0.007722987234592438,11.804873428344727,0.008426033853208227,0.012358644395135343
257,0.25,0.001,0.009801783747971058,0.007578460015356541,12.459508438110351,0.008893296529700464,0.01042076526209712
258,0.25,0.001,0.00985497198998928,0.007558233588933944,12.870920715332032,0.009186952687603164,0.015370700741186738
259,0.25,0.001,0.009774925746023655,0.007566201537847519,12.377691116333008,0.008834897299309785,0.013534558936953545
260,0.25,0.001,0.00989042766392231,0.0077125060185790064,12.205074157714844,0.008711687478740075,0.024693647865206003
261,0.25,0.001,0.009807896129786968,0.007542604021728039,12.69469638824463,0.009061168014450128,0.010992801049724221
262,0.25,0.001,0.009786788299679756,0.007539878450334072,12.591683197021485,0.008987639683812623,0.012275446439161897
263,0.25,0.001,0.009777147360146045,0.007635271772742271,12.003070678710937,0.00856750226888718,0.012331360136158764
264,0.25,0.001,0.009953652583062649,0.007873797081410885,11.655510711669923,0.008319422349514577,0.02061368292197585
265,0.25,0.001,0.009918632656335831,0.007630524672567845,12.822557678222656,0.009152432318502967,0.017498963978141546
266,0.25,0.001,0.009848445989191532,0.00747950728982687,13.275532989501952,0.009475755167381836,0.012668137322179973
267,0.25,0.001,0.009921280629932881,0.007757838312536478,12.12393280029297,0.008653770735398265,0.014121473301202059
268,0.25,0.001,0.009855857901275158,0.00777361698448658,11.668876647949219,0.008328962632369178,0.02036597137339413
269,0.25,0.001,0.009887392707169056,0.007662716209888458,12.467087211608886,0.008898706075381076,0.016996931983157992
270,0.25,0.001,0.009788692854344845,0.007561075054109096,12.483568878173829,0.008910470291344631,0.013027446693740785
271,0.25,0.001,0.009818613603711128,0.007661596387624741,12.087925567626954,0.00862806964141824,0.012582807568833232
272,0.25,0.001,0.009720032401382923,0.007474450692534447,12.584240341186524,0.008982327152881173,0.014772134367376566
273,0.25,0.001,0.009777870140969753,0.007493636198341846,12.80084758758545,0.009136936179575623,0.017768525518476963
274,0.25,0.001,0.009757026359438896,0.007545298114418984,12.394524688720702,0.008846912697159674,0.011954387184232473
275,0.25,0.001,0.009824651442468166,0.007706288918852806,11.871304168701172,0.008473450512991558,0.013268909882754087
276,0.25,0.001,0.009931660518050193,0.007758593969047069,12.177864379882813,0.008692265795776455,0.011975337052717805
277,0.25,0.001,0.009763843193650246,0.007507519852370023,12.644435577392578,0.009025293060237386,0.012309972196817398
278,0.25,0.001,0.009702794998884202,0.007422494888305664,12.778800659179687,0.009121199613975508,0.011481234454549849
279,0.25,0.001,0.009616619870066644,0.007390494998544455,12.475203666687012,0.008904499405201292,0.010875572450459003
280,0.25,0.001,0.009632972367107868,0.007416784092783928,12.419518852233887,0.00886475292807558,0.012974680052138865
281,0.25,0.001,0.009650056399405003,0.007486388944089413,12.125192985534667,0.008654670225221033,0.011017241049557924
282,0.25,0.001,0.009534160792827606,0.00744638592004776,11.699892044067383,0.00835110067385252,0.00837432814296335
283,0.25,0.001,0.009578240476548672,0.007525113001465797,11.505725593566895,0.008212509345872159,0.012474299292080104
284,0.25,0.001,0.009545350670814514,0.0074530572257936,11.725213928222656,0.008369174823856285,0.01371370442211628
285,0.25,0.001,0.00959994588047266,0.0075192352756857875,11.660301132202148,0.008322841636118593,0.011020859354175627
286,0.25,0.001,0.009611873254179955,0.0075414258986711506,11.60278537750244,0.008281788278017446,0.009141853894107044
287,0.25,0.001,0.009587061367928982,0.0074520610645413396,11.964542045593262,0.00854000146009512,0.016050997655838728
288,0.25,0.001,0.009660807214677334,0.007431040741503239,12.495612716674804,0.008919066892701503,0.024321092758327723
289,0.25,0.001,0.009499944560229779,0.007351555749773979,12.039571571350098,0.00859355572544618,0.014022937277331948
290,0.25,0.001,0.009590496458113194,0.007527677863836288,11.560034332275391,0.008251273613330043,0.02192996838130057
291,0.25,0.001,0.00965520080178976,0.007575360555201769,11.655425033569337,0.008319361194553416,0.02066208957694471
292,0.25,0.001,0.009664268158376217,0.007618873883038759,11.46238883972168,0.008181576616503696,0.018092697369866073
293,0.25,0.001,0.009656142629683017,0.007599971182644367,11.52278419494629,0.008224685363987358,0.013743069022893906
294,0.25,0.001,0.009580731317400932,0.007498430795967579,11.669211769104004,0.008329201833764456,0.012706076144240797
295,0.25,0.001,0.009611913301050663,0.007386442087590694,12.471541595458984,0.008901885507108482,0.018435110803693533
296,0.25,0.001,0.009620226286351681,0.0073980817943811415,12.45289939880371,0.008888579156890586,0.008701043552719057
297,0.25,0.001,0.00953091163188219,0.007390274535864592,11.996130485534668,0.008562548526434453,0.012890941929072142
298,0.25,0.001,0.00956795010715723,0.0074362107366323475,11.94626667022705,0.008526956938063561,0.015463732881471515
299,0.25,0.001,0.009608427919447422,0.007526132743805647,11.669180755615235,0.008329179697084393,0.01774971280246973
300,0.25,0.001,0.009635779447853566,0.007518156021833419,11.867160034179687,0.008470492529749955,0.019798852736130357
301,0.25,0.001,0.009558554403483868,0.007465752549469471,11.728061981201172,0.008371207695361293,0.016291740583255887
302,0.25,0.001,0.009668369069695473,0.007585133016109466,11.674454956054687,0.008332944294114695,0.014670961070805788
303,0.25,0.001,0.009643126353621483,0.007522145174443722,11.885977783203124,0.008483924185012936,0.016594595042988658
304,0.25,0.001,0.009529298208653926,0.0074030300043523315,11.915606842041015,0.008505072692391874,0.013174616848118603
305,0.25,0.001,0.009443677812814712,0.007317656073719263,11.914226150512695,0.008504087188089005,0.011258419253863394
306,0.25,0.001,0.009486660920083522,0.007384949307888747,11.77799285888672,0.008406847151239629,0.015529462601989508
307,0.25,0.001,0.009477298371493817,0.007421810328960419,11.518954544067382,0.008221951851582714,0.01181985018774867
308,0.25,0.001,0.009642783813178539,0.00761701786890626,11.352391891479492,0.008103063448593498,0.018217673990875483
309,0.25,0.001,0.009487932249903679,0.007348562143743038,11.989030494689942,0.0085574807242612,0.012243289267644286
310,0.25,0.001,0.009545910768210888,0.007400462366640568,12.023092155456544,0.008581793115957562,0.012343449983745813
311,0.25,0.001,0.009646675959229469,0.007583621367812157,11.561358375549316,0.008252218683475601,0.010045329807326198
312,0.25,0.001,0.00946289800107479,0.007371191643178463,11.721921844482422,0.008366825013906082,0.009215997066348791
313,0.25,0.001,0.009535957425832749,0.007397697847336531,11.98280601501465,0.008553037840838437,0.016121230786666274
314,0.25,0.001,0.009413906186819077,0.007358981966972351,11.515794525146484,0.008219696306314406,0.02188651612959802
315,0.25,0.001,0.009416573978960514,0.007352442182600498,11.567395706176757,0.008256527984423096,0.015483028022572398
316,0.25,0.001,0.009507056027650833,0.007358070388436317,12.042914581298827,0.00859594188529538,0.023960741702467203
317,0.25,0.001,0.009480850026011466,0.007380794361233711,11.768712768554687,0.0084002232466486,0.017897704849019647
318,0.25,0.001,0.009592551849782466,0.0074177257344126704,12.187725067138672,0.008699304116444448,0.01402208732906729
319,0.25,0.001,0.009580058977007866,0.007246619388461113,13.076594848632812,0.00933375792193634,0.02045403025113046
320,0.25,0.001,0.009622099176049233,0.007294646203517914,13.043047103881836,0.009309812351093388,0.01357335434295237
321,0.25,0.001,0.009616656862199306,0.00749559435993433,11.886433792114257,0.008484249673172203,0.02136651729233563
322,0.25,0.001,0.009615635052323341,0.007567063756287098,11.48019401550293,0.008194285521415367,0.011887864675372839
323,0.25,0.001,0.009519727043807507,0.007397916130721569,11.89062957763672,0.00848724452365219,0.012383600464090705
324,0.25,0.001,0.00947568966075778,0.0073363097943365575,11.989085540771484,0.008557520014826184,0.021025897469371557
325,0.25,0.001,0.009494273439049721,0.0074950456619262695,11.2036714553833,0.007996910389281442,0.013816538616083562
326,0.25,0.001,0.009560064226388932,0.007561700101941824,11.198832092285157,0.007993456168654644,0.024154594750143588
327,0.25,0.001,0.009477907568216324,0.007322277277708054,12.080153121948243,0.008622521857207882,0.0169945964589715
328,0.25,0.001,0.00942651104182005,0.007365029491484165,11.55254280090332,0.008245926338974531,0.016572113148868084
329,0.25,0.001,0.0095485357940197,0.007509096711874008,11.429015731811523,0.0081577556972245,0.013840163359418511
330,0.25,0.001,0.00939127117395401,0.007239260897040367,12.059864692687988,0.00860804046587294,0.012443710234947503
331,0.25,0.001,0.009430437870323658,0.00726664861664176,12.12587459564209,0.008655156742071441,0.016460955375805497
332,0.25,0.001,0.009360950961709023,0.00726218193769455,11.761501541137696,0.008395076046493716,0.01895143324509263
333,0.25,0.001,0.00952361784875393,0.00748145543038845,11.444279556274415,0.008168650646876812,0.0196172627620399
334,0.25,0.001,0.009481286257505417,0.007352340817451477,11.930610313415528,0.008515781808290884,0.013442897237837315
335,0.25,0.001,0.009371522292494773,0.007249978817999363,11.889130096435547,0.008486174230146715,0.017535870778374374
336,0.25,0.001,0.009373427033424378,0.007294382341206074,11.650965156555175,0.008316177841938027,0.016161637380719185
337,0.25,0.001,0.009438451640307903,0.007273736018687487,12.131067581176758,0.008658863369862069,0.011435077642090619
338,0.25,0.001,0.009454312659800053,0.00728253522887826,12.170640487670898,0.008687109555796501,0.01290106528904289
339,0.25,0.001,0.009500271398574114,0.00735180975869298,12.039978065490722,0.008593845871156832,0.010911250137723982
340,0.25,0.001,0.009431019872426987,0.007297552600502968,11.955950241088868,0.008533868837322532,0.011785793583840132
341,0.25,0.001,0.009426587671041488,0.007294208239763975,11.949853057861327,0.008529516815033068,0.012755714706145227
342,0.25,0.001,0.009436853267252444,0.007297127544879913,11.991023025512696,0.008558902944691431,0.014267287915572524
343,0.25,0.001,0.009373931288719177,0.00728242963552475,11.720777130126953,0.008366007944416097,0.012303445371799171
344,0.25,0.001,0.009320238195359707,0.007260860353708268,11.540754470825195,0.008237512113365594,0.009925805847160518
345,0.25,0.001,0.009350718185305595,0.007252007089555264,11.761176643371583,0.008394844142306625,0.009657700778916478
346,0.25,0.001,0.009405266791582108,0.0072853734716773035,11.87988109588623,0.008479572516692527,0.01747982925735414
347,0.25,0.001,0.00941527407616377,0.0073485089838504795,11.582152786254882,0.008267061232159088,0.013077665818855166
348,0.25,0.001,0.00930249959230423,0.007238890901207924,11.564462585449219,0.008254434393611149,0.008316301857121289
349,0.25,0.001,0.009384054355323315,0.007368477582931518,11.295290985107421,0.008062306199220144,0.012946922332048416
350,0.25,0.001,0.00928278174251318,0.007291611731052399,11.158516235351563,0.007964679682620672,0.007633822620846331
351,0.25,0.001,0.009350999295711517,0.007270693257451058,11.658033065795898,0.00832122274503633,0.012335127568803728
352,0.25,0.001,0.0093661392852664,0.007214744687080383,12.056415710449219,0.008605578665559756,0.016290666884742677
353,0.25,0.001,0.009285462275147437,0.007217189110815525,11.590602798461914,0.008273092647010646,0.016198264784179628
354,0.25,0.001,0.009366990104317664,0.007324242889881134,11.447555694580078,0.008170989075360513,0.017260430147871375
355,0.25,0.001,0.009314863458275795,0.007194705493748188,11.881365089416503,0.008480631755472165,0.023161796387284994
356,0.25,0.001,0.009314003176987171,0.007255884725600481,11.533695831298829,0.008232473826765759,0.022142000263556838
357,0.25,0.001,0.009257979355752469,0.007174947280436755,11.673312797546387,0.008332129048926757,0.015140620060265064
358,0.25,0.001,0.009287095479667187,0.007152491025626659,11.962322158813476,0.008538416958467864,0.011230933014303446
359,0.25,0.001,0.00929076123982668,0.007189004868268967,11.778244247436524,0.008407026586321573,0.010659642401151359
360,0.25,0.001,0.009306097328662872,0.007235546614974737,11.603365783691407,0.008282202557952468,0.011225208756513894
361,0.25,0.001,0.009298326075077057,0.007205896265804768,11.72597755432129,0.008369719881742534,0.013359690783545375
362,0.25,0.001,0.009358260557055473,0.007284068837761879,11.62376953125,0.008296766260706637,0.010659189661964774
363,0.25,0.001,0.009226814471185207,0.007224693708121776,11.219886207580567,0.008008484088208827,0.01294011133722961
364,0.25,0.001,0.009222479797899722,0.007234066072851419,11.14306926727295,0.00795365400947391,0.01258026494178921
365,0.25,0.001,0.009254435077309608,0.007198979612439871,11.518772430419922,0.008221821863254762,0.007921703741885722
366,0.25,0.001,0.009292103461921214,0.007193302866071462,11.761678009033202,0.008395202005020131,0.01572288852185011
367,0.25,0.001,0.009194849021732808,0.007168864384293556,11.353617782592773,0.00810393846009477,0.009370189975015819
368,0.25,0.001,0.009288748931139708,0.007301940508186817,11.134074172973634,0.007947233528175328,0.01228576828725636
369,0.25,0.001,0.009203076884150506,0.007128080017864704,11.628282165527343,0.008299987270183686,0.012787003302946687
370,0.25,0.001,0.009302431419491768,0.007237134464085102,11.57392478942871,0.008261188286530129,0.010595113271847367
371,0.25,0.001,0.009184501394629478,0.007097900230437517,11.693312301635743,0.008346404212445212,0.01195828290656209
372,0.25,0.001,0.009220905415713788,0.007070245966315269,12.052296333312988,0.008602638353542462,0.01094020635355264
373,0.25,0.001,0.009335930868983268,0.0072180101461708545,11.868827285766601,0.008471682573709208,0.016768006142228842
374,0.25,0.001,0.00930540382862091,0.00722615372389555,11.652118301391601,0.008317000928901927,0.0174712217412889
375,0.25,0.001,0.009167913421988487,0.007056574709713459,11.831940727233887,0.008445353838139819,0.011300219572149217
376,0.25,0.001,0.009163477681577206,0.00700733283534646,12.083035469055176,0.008624579207034386,0.010730998707003891
377,0.25,0.001,0.009168241210281848,0.007048884350806475,11.876875,0.008477426837972877,0.011842256993986666
378,0.25,0.001,0.009137092828750611,0.0071018276363611224,11.40562484741211,0.008141059848259892,0.012691227486357093
379,0.25,0.001,0.009089353941380978,0.007136873845010996,10.941698493957519,0.00780992040967703,0.010739260585978627
380,0.25,0.001,0.009162046182900667,0.007222548667341471,10.868944320678711,0.007757990236030486,0.007615796755999327
381,0.25,0.001,0.009200629964470863,0.007191432379186153,11.259544181823731,0.0080367909934502,0.013402365846559405
382,0.25,0.001,0.009184728935360908,0.00709609180688858,11.704720916748046,0.00835454740667241,0.016243258258327842
383,0.25,0.001,0.009190886206924915,0.007089748978614807,11.774772453308106,0.00840454850343191,0.01543531590141356
384,0.25,0.001,0.009140503909438848,0.007052148934453726,11.703142433166503,0.008353420723173808,0.010219229618087411
385,0.25,0.001,0.009148077182471752,0.007107005417346954,11.438165397644044,0.00816428650795435,0.009308209526352584
386,0.25,0.001,0.009170494452118873,0.007144003342837095,11.356456909179688,0.008105964960156808,0.013996359892189503
387,0.25,0.001,0.009165215007960796,0.007092234939336777,11.61698184967041,0.008291921377352183,0.013811443466693163
388,0.25,0.001,0.009234982617199421,0.007102491408586502,11.950482177734376,0.00852996586562054,0.011182544752955437
389,0.25,0.001,0.009162746276706457,0.007079984880983829,11.671795501708985,0.008331046039763729,0.010491128079593182
390,0.25,0.001,0.009128133729100228,0.007089603208005429,11.42392463684082,0.008154121796460257,0.010941554210148752
391,0.25,0.001,0.009133492782711982,0.0070564341545104985,11.639836921691895,0.008308234776368233,0.012105713016353548
392,0.25,0.001,0.009119523651897908,0.006984662003815174,11.963765487670898,0.008539447171785081,0.014398689032532275
393,0.25,0.001,0.00915443167090416,0.0070995276793837546,11.51568099975586,0.00821961527462945,0.009087586542591453
394,0.25,0.001,0.009142706654965877,0.007136531565338373,11.242604751586914,0.008024700036821495,0.012933999300003052
395,0.25,0.001,0.009169178530573845,0.007109829075634479,11.540595932006836,0.008237398952181896,0.009802565909922123
396,0.25,0.001,0.00904868934303522,0.007043502200394869,11.23706813812256,0.008020748135704896,0.008876366773620248
397,0.25,0.001,0.009127812311053276,0.007192583885043859,10.845019035339355,0.007740912944567705,0.016547584673389792
398,0.25,0.001,0.009029220715165138,0.0070067870616912845,11.33371883392334,0.008089735070609094,0.021433083340525627
399,0.25,0.001,0.00910374328494072,0.00708851283416152,11.293352661132813,0.008060922670330345,0.01365526975132525
400,0.25,0.001,0.009152205549180508,0.0071971451491117475,10.956158027648925,0.007820241275980674,0.015558428945951164
401,0.25,0.001,0.009155202284455299,0.00710658909752965,11.480426940917969,0.008194451777957152,0.019176423083990812
402,0.25,0.001,0.009121978506445885,0.007002694122493267,11.876470413208008,0.008477138053681662,0.017758639063686132
403,0.25,0.001,0.009117012657225133,0.007046222127974034,11.604709854125977,0.008283161923002125,0.011615744675509632
404,0.25,0.001,0.00908558040857315,0.007097625192254781,11.140501556396485,0.00795182123939792,0.013675101334229112
405,0.25,0.001,0.009035205021500587,0.007077543400228024,10.970736808776856,0.007830647258227592,0.015641636331565678
406,0.25,0.001,0.009047615602612495,0.007050321996212005,11.19283260345459,0.007989173878268802,0.01600639708340168
407,0.25,0.001,0.009256445057690143,0.007273310124874115,11.11348762512207,0.007932539346982206,0.020324897952377796
408,0.25,0.001,0.009083170592784882,0.007074476908892393,11.256720314025879,0.008034775384743668,0.016609104350209236
409,0.25,0.001,0.00902968481183052,0.006964990440756083,11.570547180175781,0.00825877743053232,0.008701352286152542
410,0.25,0.001,0.0091637472063303,0.007106346152722836,11.529675369262696,0.008229604117960525,0.00987483817152679
411,0.25,0.001,0.009024278130382299,0.006952046994119883,11.612783317565919,0.008288924566428208,0.00890177779365331
412,0.25,0.001,0.00909079633653164,0.0070294800028204915,11.551616249084473,0.00824526498863988,0.01211083005182445
413,0.25,0.001,0.009046754315495491,0.007004067450761795,11.447217559814453,0.008170747722922521,0.016084322705864906
414,0.25,0.001,0.009039780125021935,0.006969494298100471,11.601882209777832,0.008281143618685104,0.00869086873717606
415,0.25,0.001,0.008969741016626358,0.006921975165605545,11.47567985534668,0.00819106342280277,0.016892598941922188
416,0.25,0.001,0.009032860919833184,0.007096285503357649,10.852569389343262,0.007746302205098688,0.017853318247944117
417,0.25,0.001,0.009073973819613456,0.007120555751025676,10.946954956054688,0.007813672345506558,0.012859820970334113
418,0.25,0.001,0.008984078764915466,0.0069848597049713135,11.20362434387207,0.00799687676222132,0.007868370623327792
419,0.25,0.001,0.009157994538545608,0.0071297742426395415,11.366147346496582,0.008112881760525754,0.011249486124143004
420,0.25,0.001,0.00907047137618065,0.0069894989579916,11.66177074432373,0.008323890609795668,0.008783668396063149
421,0.25,0.001,0.008967071771621704,0.0069164220988750455,11.491840133666992,0.008202598239591,0.01090548059437424
422,0.25,0.001,0.009010117165744305,0.006984885893762112,11.349396286010743,0.008100925257680759,0.00824280281085521
423,0.25,0.001,0.009074998125433921,0.007012572288513184,11.557834243774414,0.008249703243236555,0.01447575120255351
424,0.25,0.001,0.009163429103791714,0.007077828999608755,11.687703170776366,0.008342400550161574,0.018838658928871155
425,0.25,0.001,0.008957070782780647,0.006907582990825176,11.485330047607421,0.008197951497221571,0.014188461937010288
426,0.25,0.001,0.009057369492948055,0.006997459214180708,11.543737602233886,0.008239641400595207,0.009939663810655475
427,0.25,0.001,0.009081561416387558,0.007021989412605762,11.541842079162597,0.008238288421957599,0.010526067111641169
428,0.25,0.001,0.008987688533961773,0.006938686594367027,11.48260814666748,0.008196008669998202,0.011530313640832901
429,0.25,0.001,0.008968126811087131,0.006884443294256926,11.676962547302246,0.008334734152249997,0.007029799977317452
430,0.25,0.001,0.009104499015957118,0.006986621879041195,11.868583526611328,0.008471508584305017,0.011724396958015859
431,0.25,0.001,0.009073599651455879,0.0069865937158465384,11.695581817626953,0.008348024138206248,0.009210995631292462
432,0.25,0.001,0.009030558429658412,0.006961776502430439,11.593453483581543,0.008275127397274477,0.010320911649614573
433,0.25,0.001,0.009161307252943516,0.007103272806853056,11.533226318359375,0.00823213869975687,0.009205719223245978
434,0.25,0.001,0.009051085785031318,0.007031483240425586,11.317851333618163,0.008078409231704614,0.012878036475740373
435,0.25,0.001,0.00906572312116623,0.007062654830515385,11.225196151733398,0.008012274198239399,0.014534096233546734
436,0.25,0.001,0.009026220962405206,0.00697823666036129,11.476902122497558,0.008191935847607107,0.013833960983902216
437,0.25,0.001,0.009046629108488559,0.007043282687664032,11.2267529296875,0.008013385388784796,0.01906635845080018
438,0.25,0.001,0.009024127013981342,0.0071069996617734435,10.743581771850586,0.007668509473126757,0.02270115283317864
439,0.25,0.001,0.009039410315454006,0.007080073114484549,10.980127639770508,0.007837350206831198,0.01090757711790502
440,0.25,0.001,0.008992122560739517,0.0069147622957825665,11.6415283203125,0.008309442055897573,0.01029372273478657
441,0.25,0.001,0.008996757231652736,0.006935815364122391,11.549517822265624,0.008243767182202445,0.009505164925940335
442,0.25,0.001,0.008976862654089928,0.00696880079805851,11.253179397583008,0.008032247964013568,0.012316123815253377
443,0.25,0.001,0.008882972747087478,0.0068647642061114315,11.310040740966796,0.008072834219105493,0.009534406126476824
444,0.25,0.001,0.008960236385464669,0.006974208336323499,11.129700927734374,0.007944112011230816,0.011313573108054698
445,0.25,0.001,0.009084903821349143,0.007096355743706226,11.143822479248048,0.007954191634010026,0.010395989869721234
446,0.25,0.001,0.009023421593010426,0.007030033208429813,11.170947608947754,0.007973552897178982,0.0138473198749125
447,0.25,0.001,0.009014035798609257,0.006997106689959764,11.302869834899901,0.008067715799357531,0.016928324243053794
448,0.25,0.001,0.008960009515285493,0.0069495121017098425,11.26682777404785,0.008041989845858567,0.013981689931824803
449,0.25,0.001,0.009142402447760106,0.0071542799472808834,11.141438598632812,0.00795249007753948,0.01809118315577507
450,0.25,0.001,0.009026243798434735,0.0069221433624625205,11.791378326416016,0.008416401375029275,0.011056837975047529
451,0.25,0.001,0.009113524444401264,0.006904447078704834,12.379669342041016,0.00883630930909423,0.013314140494912863
452,0.25,0.001,0.009106622505933047,0.006954644676297903,12.059682579040528,0.008607910477544988,0.013500235974788666
453,0.25,0.001,0.00902767576277256,0.006925025321543217,11.783251991271973,0.008410600993056369,0.010185398976318538
454,0.25,0.001,0.009009539894759656,0.006962388008832932,11.472238502502442,0.008188607068167339,0.011119246482849121
455,0.25,0.001,0.008924013152718544,0.006893160399049521,11.380899047851562,0.00812341116905893,0.010368464747443795
456,0.25,0.001,0.008951874300837517,0.006936222780495882,11.29571029663086,0.008062605493669422,0.015434546861797571
457,0.25,0.001,0.008949545212090015,0.0069458337500691416,11.228799285888671,0.008014846028471571,0.010506396414712071
458,0.25,0.001,0.00894142696633935,0.006983133610337973,10.97427459716797,0.007833172446229815,0.009027493302710354
459,0.25,0.001,0.008977128993719816,0.0069722626730799675,11.235272064208985,0.008019466141476791,0.015062050195410848
460,0.25,0.001,0.008916664011776447,0.006857991293072701,11.5368021774292,0.008234691061691078,0.010837821988388896
461,0.25,0.001,0.008969077356159687,0.006959409415721893,11.262178649902344,0.008038671413206527,0.015392818721011281
462,0.25,0.001,0.009032403491437435,0.007066858131438493,11.014917602539063,0.007862182442925813,0.017642910592257977
463,0.25,0.001,0.008978192396461963,0.006944728847593069,11.395530662536622,0.008133854862624284,0.016854757210239768
464,0.25,0.001,0.008940618559718132,0.006913711670786142,11.358785400390625,0.00810762698100687,0.010395973920822144
465,0.25,0.001,0.008942929655313491,0.006952368710190057,11.15510196685791,0.007962242660141262,0.01051103975623846
466,0.25,0.001,0.00896738588809967,0.0069436606019735335,11.34095645904541,0.008094901112809,0.012523047043941915
467,0.25,0.001,0.008813721090555192,0.00679644126445055,11.304835586547851,0.008069118905458852,0.012253020075149834
468,0.25,0.001,0.008966356925666332,0.0069851607643067835,11.102624282836913,0.007924785355343978,0.01382880238816142
469,0.25,0.001,0.008894099034368991,0.006874545812606812,11.317576904296875,0.008078213350675855,0.010657522943802178
470,0.25,0.001,0.00892105896025896,0.006874308064579964,11.46999210357666,0.008187003642809892,0.011783184949308634
471,0.25,0.001,0.008973399884998798,0.006948489975184202,11.34759536743164,0.00809963980544728,0.014929663855582476
472,0.25,0.001,0.008880088403820992,0.006872289944440126,11.25170150756836,0.008031193081776132,0.01128477172460407
473,0.25,0.001,0.008971673548221587,0.006941287368535995,11.37828384399414,0.008121544499638929,0.019338154466822743
474,0.25,0.001,0.009054789580404758,0.007032967675477266,11.330291137695312,0.008087288463736839,0.025239295326173306
475,0.25,0.001,0.008874515295028687,0.006953763458877802,10.763893661499024,0.007683007609920788,0.015771444654092193
476,0.25,0.001,0.008912257179617881,0.0069884580187499525,10.780971221923828,0.007695197160545202,0.016888895886950195
477,0.25,0.001,0.00898105427622795,0.006980121396481991,11.213227882385254,0.008003731536320667,0.011224185582250357
478,0.25,0.001,0.008892159387469291,0.006865164954215288,11.359277954101563,0.008107978553962572,0.014932629885151982
479,0.25,0.001,0.009030631706118585,0.006974779237061739,11.520998649597168,0.008223410884794552,0.019277151324786246
480,0.25,0.001,0.00890189316123724,0.006839204989373684,11.559304237365723,0.008250752489197518,0.010530314408242702
481,0.25,0.001,0.008954839073121548,0.006910741217434406,11.455124473571777,0.008176391487203267,0.016604072181507945
482,0.25,0.001,0.009014268405735493,0.006982637513428927,11.38525848388672,0.008126522829326709,0.02053909981623292
483,0.25,0.001,0.008831133581697941,0.006850257981568575,11.100827713012695,0.00792350300714682,0.016011677449569106
484,0.25,0.001,0.00890491619706154,0.006928851120173931,11.073869018554687,0.007904260541438035,0.01744987815618515
485,0.25,0.001,0.008791938200592994,0.006808942034840584,11.11271110534668,0.007931985085900557,0.01312749832868576
486,0.25,0.001,0.00885236881673336,0.006970488019287586,10.5460595703125,0.007527522891015347,0.015852144453674555
487,0.25,0.001,0.008960782401263714,0.006993590034544468,11.024144973754883,0.00786876871788357,0.008641143795102835
488,0.25,0.001,0.00900245739147067,0.006873552482575178,11.930382118225097,0.008515618928069306,0.01588673423975706
489,0.25,0.001,0.008824011906981469,0.006766620669513941,11.529621391296386,0.008229565589790426,0.014557564514689147
490,0.25,0.001,0.00888471480458975,0.006924979574978352,10.982354698181153,0.00783893982739554,0.013000206905417144
491,0.25,0.001,0.0088813847117126,0.006904072761535644,11.080855407714843,0.007909247257469552,0.014583606040105224
492,0.25,0.001,0.008821943774819374,0.006834300607442856,11.138752746582032,0.007950572981143492,0.016789319226518273
493,0.25,0.001,0.00886521253734827,0.0068867050483822825,11.087554779052734,0.007914029107104021,0.009469394688494503
494,0.25,0.001,0.008917660042643548,0.0069371994957327845,11.09850196838379,0.00792184294674075,0.01185278338380158
495,0.25,0.001,0.00891188696026802,0.00691262174397707,11.20388271331787,0.007997061180098408,0.01571878930553794
496,0.25,0.001,0.008950444385409356,0.006839607451111078,11.82913143157959,0.008443348630677795,0.010927914059720933
497,0.25,0.001,0.008846855983138084,0.006811585891991854,11.40565444946289,0.008141080977489572,0.016079118940979242
498,0.25,0.001,0.008928624838590622,0.006901583559811115,11.35954002380371,0.008108165612993368,0.011388658196665347
499,0.25,0.001,0.00884047731757164,0.006764792017638683,11.632139434814453,0.008302740495941794,0.011289835209026933
500,0.25,0.001,0.008853045403957366,0.006836742907762527,11.299358940124511,0.008065209807369387,0.011377422139048576
