epoch,beta,learning_rate,train_loss,train_reconstruction_loss,train_kl_unnormalized,train_kl_normalized,mean_unclipped_gradient_norm
1,0.0,0.001,0.07751013934612275,0.07751013934612275,1.4391044998168945,0.0010271980726744429,0.09457673318684101
2,0.02,0.001,0.06967459470033646,0.0693055009841919,25.854909820556642,0.018454610864066127,0.12783710286021233
3,0.04,0.001,0.05710152506828308,0.05345798343420029,127.61507141113282,0.09108855917996632,0.13576452620327473
4,0.06,0.001,0.05088479653000832,0.04101623758673668,230.43087280273437,0.16447599771786892,0.12662456929683685
5,0.08,0.001,0.04560108542442322,0.03725743681192398,146.11816284179687,0.10429561944453739,0.09749607648700476
6,0.1,0.001,0.03955988943576813,0.035832429975271224,52.22169799804688,0.037274588149926395,0.06520988792181015
7,0.12,0.001,0.03814818397164345,0.036249035745859144,22.172553024291993,0.01582623342204996,0.13297021575272083
8,0.14,0.001,0.03297970063984394,0.030281384587287904,27.002423095703126,0.01927367815539124,0.06232769973576069
9,0.16,0.001,0.031967278867959976,0.028533515483140946,30.066890411376953,0.0214610209931313,0.08909689262509346
10,0.18,0.001,0.03094188205897808,0.02834350638091564,20.224026412963866,0.0144354221363054,0.04926859540864825
11,0.2,0.001,0.030349548757076263,0.027973858118057252,16.641719970703125,0.011878458223199946,0.05625694151967764
12,0.22,0.001,0.02923166587948799,0.02675083450973034,15.798381958007813,0.011276503895794298,0.049307935405522585
13,0.24,0.001,0.029016730114817618,0.02688438683748245,12.447555084228515,0.008884764514081739,0.04302347358316183
14,0.25,0.001,0.027598068416118622,0.02536572955548763,12.510025100708008,0.008929354104716637,0.049504566472023726
15,0.25,0.001,0.02698134392499924,0.02460128180682659,13.337869873046875,0.009520249730939954,0.03751390567049384
16,0.25,0.001,0.025464323684573173,0.022618586122989656,15.947510757446288,0.011382948435008058,0.031311578117311
17,0.25,0.001,0.024590806663036348,0.021446778997778894,17.61913200378418,0.01257611135173746,0.015670767286792397
18,0.25,0.001,0.024096543714404107,0.020857210606336593,18.153220977783203,0.012957331176147896,0.03689915919676423
19,0.25,0.001,0.023656791001558305,0.020409435480833054,18.19818115234375,0.012989422664056923,0.039580904645845294
20,0.25,0.001,0.022979788258671762,0.020050349086523055,16.416581115722657,0.011717759540130376,0.04245864553377032
21,0.25,0.001,0.022729381248354913,0.0198280618339777,16.25899429321289,0.01160527786810342,0.0642784156370908
22,0.25,0.001,0.02190989062190056,0.018983087688684463,16.401801986694338,0.01170721055438568,0.047847629990428686
23,0.25,0.001,0.021586562246084212,0.01864929772913456,16.460430679321288,0.011749058300728971,0.05068915733136237
24,0.25,0.001,0.021654234528541566,0.019017763882875443,14.774779815673828,0.010545881381637279,0.07281343080103397
25,0.25,0.001,0.02109780102968216,0.018368208929896355,15.296632690429687,0.010918367373611482,0.03302792785689235
26,0.0,0.001,0.01719834953546524,0.01719834953546524,17.133636779785157,0.012229576573722452,0.029577810782939196
27,0.02,0.001,0.016962189972400666,0.016621493771672248,23.86578483581543,0.01703482143884042,0.04823204316198826
28,0.04,0.001,0.01703378040343523,0.016119477935135365,32.02345626831055,0.02285757049843722,0.04073330946266651
29,0.06,0.001,0.01737072966992855,0.015673842877149582,39.62230163574219,0.02828144299481955,0.0715608187019825
30,0.08,0.001,0.017734306678175927,0.015291024036705493,42.78799468994141,0.03054103832258487,0.040348485577851534
31,0.1,0.001,0.01801682524383068,0.015158228613436221,40.04894012451172,0.02858596725518324,0.04622428584843874
32,0.12,0.001,0.018144782930612564,0.015072057992219924,35.87406021118164,0.025606038694633577,0.03579069604165852
33,0.14,0.001,0.018306838124990465,0.015322414711117744,29.865554580688478,0.021317312334538527,0.044359710067510605
34,0.16,0.001,0.018298129364848138,0.015470281727612018,24.76134063720703,0.017674047564030713,0.019761525793001056
35,0.18,0.001,0.018633927702903747,0.015893364548683165,21.3307165145874,0.01522535083125439,0.04335407051257789
36,0.2,0.001,0.018841799423098562,0.015819913446903228,21.168311843872072,0.0151094302954119,0.02762069716118276
37,0.22,0.001,0.019058955535292625,0.015790669843554497,20.81304214477539,0.014855847355300066,0.023387492401525378
38,0.24,0.001,0.01933759681880474,0.015952771678566933,19.75891860961914,0.014103439407294176,0.04188357712700963
39,0.25,0.001,0.019401175528764726,0.01606426704674959,18.70003707885742,0.013347635316814719,0.038189397659152746
40,0.25,0.001,0.019036376774311067,0.01580463446676731,18.11068359375,0.012926969017665954,0.030914725502952933
41,0.25,0.001,0.018940847665071488,0.015767846181988718,17.781499481201173,0.012692005339900909,0.037644146708771586
42,0.25,0.001,0.01880244679749012,0.01575313702225685,17.088329887390138,0.012197237606987965,0.057469563791528344
43,0.25,0.001,0.019259101152420043,0.016174034290015696,17.288712463378907,0.012340265855373952,0.08370932936668396
44,0.25,0.001,0.0188396455347538,0.01572758488357067,17.439986877441406,0.012448241882542045,0.053502365946769714
45,0.25,0.001,0.01879680298268795,0.015539157763123512,18.255843811035156,0.013030580878683196,0.047590228728950024
46,0.25,0.001,0.018706631362438202,0.015519886165857316,17.858519515991212,0.012746980382577596,0.021133421920239925
47,0.25,0.001,0.018425549790263177,0.015218874663114548,17.970206298828124,0.012826699713653194,0.046321587171405554
48,0.25,0.001,0.01859224610030651,0.01551253579556942,17.258696899414062,0.012318841469960073,0.07623093761503696
49,0.25,0.001,0.01870485261082649,0.015786425545811653,16.3548673248291,0.011673709725074305,0.04242184944450855
50,0.25,0.001,0.018632687032222747,0.01576286233961582,16.082499389648437,0.011479300063988892,0.06014356669038534
51,0.0,0.001,0.015173157826066017,0.015173157826066017,18.8640461730957,0.013464701051460172,0.053788917139172554
52,0.02,0.001,0.015272257812321187,0.01493732437491417,23.462075958251955,0.016746663781764422,0.0732126827351749
53,0.04,0.001,0.01517010860145092,0.014271689690649509,31.46713134765625,0.02246047919176035,0.058968741446733475
54,0.06,0.001,0.015517102628946304,0.013950408324599267,36.58231170654297,0.026111571525012825,0.04952540248632431
55,0.08,0.001,0.015968165174126626,0.01369572676718235,39.79607238769531,0.028405476365235768,0.045046035666018724
56,0.1,0.001,0.01619516532868147,0.01348331093788147,37.99307754516602,0.027118542145015002,0.034390672808513045
57,0.12,0.001,0.01643325876444578,0.013484425097703933,34.42764038085937,0.024573619115531315,0.02559239650145173
58,0.14,0.001,0.016457227356731892,0.013491134718060493,29.682115631103514,0.02118637803790401,0.03364222636446357
59,0.16,0.001,0.016389042288064957,0.013602171167731285,24.402542266845703,0.017417945943501573,0.017659222474321723
60,0.18,0.001,0.016649228632450105,0.013980045467615127,20.775145645141603,0.014828797748138188,0.016039161011576653
61,0.2,0.001,0.01676349975168705,0.014011676609516143,19.27652183532715,0.013759116227928015,0.02983280085027218
62,0.22,0.001,0.016753063723444938,0.013713446818292141,19.356832733154295,0.013816440209246463,0.04784482065588236
63,0.24,0.001,0.01715856097638607,0.01363466091454029,20.5707706451416,0.014682919803812705,0.09407582599669695
64,0.25,0.001,0.017415156736969948,0.013975931629538536,19.27341796875,0.013756900762847966,0.10768679436296225
65,0.25,0.001,0.01648430049419403,0.013259736821055412,18.070454406738282,0.012898254394531251,0.08389724139124155
66,0.25,0.001,0.015851171240210533,0.012935154736042023,16.34135597229004,0.01166406564760174,0.05111942486837506
67,0.25,0.001,0.015719191022217274,0.01260107323527336,17.473931579589845,0.012472470791998461,0.05134037043899298
68,0.25,0.001,0.015461111068725586,0.012199966609477997,18.27545150756836,0.01304457637942067,0.043043783865869045
69,0.25,0.001,0.01530771691352129,0.012278718017041683,16.97451171875,0.012115996944147039,0.04759218404069543
70,0.25,0.001,0.014787248149514199,0.0117590644210577,16.969944076538084,0.012112736671333394,0.0483857044018805
71,0.25,0.001,0.01505638960748911,0.01213117390871048,16.392907485961913,0.01170086187434826,0.04794198740273714
72,0.25,0.001,0.014629454724490643,0.011700137443840504,16.415895309448242,0.011717270028157204,0.020643470343202353
73,0.25,0.001,0.014363181367516518,0.011528946533799172,15.883054580688476,0.011336941171083852,0.02338568610139191
74,0.25,0.001,0.01464382816106081,0.011887658759951592,15.445572700500488,0.011024677159529256,0.0304311104118824
75,0.25,0.001,0.014392927810549737,0.011527105048298836,16.060069999694825,0.011463290506563044,0.02570455358363688
76,0.0,0.001,0.011346752420067788,0.011346752420067788,16.583129653930666,0.01183663786861575,0.0392047893255949
77,0.02,0.001,0.011070623360574246,0.010768300592899323,21.1777091217041,0.015116137845613206,0.028791109565645456
78,0.04,0.001,0.011218851841986179,0.010428360737860203,27.68694923400879,0.019762276398293213,0.036843932000920177
79,0.06,0.001,0.011335135772824287,0.00986101783812046,34.42065567016601,0.024568633597548902,0.026730994693934917
80,0.08,0.001,0.011830592229962349,0.00970582664012909,37.2099609375,0.026559572403640257,0.042467843275517225
81,0.1,0.001,0.01239430919289589,0.009774950332939625,36.697216796875,0.02619358800633476,0.04822111804969609
82,0.12,0.001,0.012558461613953114,0.009760518483817577,32.66598739624023,0.023316193716088673,0.021890123840421438
83,0.14,0.001,0.012860677167773248,0.010278585907071829,25.839359130859375,0.01844351115693032,0.050730731803923845
84,0.16,0.001,0.012795211039483547,0.010297531709074974,21.870305099487304,0.015610496145244328,0.03575574699789286
85,0.18,0.001,0.013320721536874771,0.010821510255336762,19.452193298339843,0.013884506280042714,0.05372045561671257
86,0.2,0.001,0.013474851697683334,0.010732106789946556,19.21292625427246,0.01371372323645429,0.049953659530729055
87,0.22,0.001,0.013811885640025138,0.010934787653386593,18.321883544921874,0.013077718447481708,0.04092281381599605
88,0.24,0.001,0.01384763903915882,0.010692212209105491,18.419803466796875,0.013147611325336813,0.04102161945775151
89,0.25,0.001,0.013906475566327571,0.01101971134543419,16.17742515563965,0.011547055785610029,0.02097552688792348
90,0.25,0.001,0.013885053806006908,0.01117122571915388,15.208292427062988,0.01085531222488436,0.024969885358586907
91,0.25,0.001,0.0140150885283947,0.01112714271992445,16.184048461914063,0.011551783341837304,0.029790892265737057
92,0.25,0.001,0.013875881992280483,0.01101644616574049,16.024279098510743,0.01143774382477569,0.03045055642724037
93,0.25,0.001,0.01396060012280941,0.011133562847971916,15.842716598510743,0.0113081488925844,0.04129388486035168
94,0.25,0.001,0.013534428030252456,0.010725466497242452,15.741421661376954,0.011235847010261923,0.02581258979626
95,0.25,0.001,0.013762746267020702,0.010955323949456214,15.732794494628907,0.011229689146772952,0.015617817174643278
96,0.25,0.001,0.013521349504590035,0.010685379542410374,15.892777214050293,0.011343880952212913,0.026057584211230278
97,0.25,0.001,0.013615559861063957,0.01082689207047224,15.62769401550293,0.01115467096038753,0.02646587695926428
98,0.25,0.001,0.013315863236784934,0.010535324402153491,15.582140045166016,0.011122155635379027,0.017939564306288958
99,0.25,0.001,0.013171161264181138,0.010523197017610073,14.839191360473633,0.010591856788346633,0.02100631920620799
100,0.25,0.001,0.013623415008187294,0.011005421057343484,14.67123924255371,0.010471976618525133,0.029919943073764443
101,0.25,0.001,0.01351924430578947,0.01063911035656929,16.14027053833008,0.011520535716152804,0.030384932179003954
102,0.25,0.001,0.013704512305557727,0.010735192857682705,16.640067138671874,0.011877278471571644,0.024485118221491575
103,0.25,0.001,0.013367131613194942,0.010482756160199643,16.16404155731201,0.011537502896011428,0.018763171741738915
104,0.25,0.001,0.013484818153083325,0.010819089263677598,14.938744316101074,0.01066291528629627,0.018917498411610723
105,0.25,0.001,0.013266314081847667,0.010657090209424496,14.622090911865234,0.010436895725813872,0.020484080188907683
106,0.25,0.001,0.013366751968860627,0.01061945129185915,15.395873107910155,0.010989202789371988,0.03163466206751764
107,0.25,0.001,0.013122648000717163,0.010315887592732907,15.729086570739746,0.01122704252015685,0.019405841594561934
108,0.25,0.001,0.013097690120339393,0.010314462333917617,15.597208709716798,0.01113291128459443,0.025556604145094752
109,0.25,0.001,0.013089836984872818,0.010393774174153804,15.108736038208008,0.010784251276379735,0.02438499464187771
110,0.25,0.001,0.013177144974470138,0.010647703409194947,14.174989700317383,0.010117765667606983,0.013965014833956957
111,0.25,0.001,0.013107698783278466,0.01051660168915987,14.520507392883301,0.010364387860730408,0.024046218022704124
112,0.25,0.001,0.01294362623244524,0.010327390059828759,14.661387100219727,0.010464944397016222,0.016436194302514195
113,0.25,0.001,0.012984298542141915,0.010464035980403423,14.123551940917968,0.010081050635915752,0.019720255164429545
114,0.25,0.001,0.013304329514503478,0.010796502195298673,14.053864555358887,0.01003130946135538,0.03043328458443284
115,0.25,0.001,0.013024555817246437,0.010348689667880535,14.995553894042969,0.010703464592464646,0.016835581394843757
116,0.25,0.001,0.012975380681455135,0.010224120616912842,15.418063316345215,0.011005041624800297,0.019509925739839673
117,0.25,0.001,0.013033220246434211,0.010296793170273304,15.33493782043457,0.010945708651273783,0.028898449963890016
118,0.25,0.001,0.012954073622822762,0.01039536215364933,14.339019050598145,0.01023484586052687,0.03186532389372587
119,0.25,0.001,0.013083331137895584,0.01062201514840126,13.79321533203125,0.009845264334069416,0.03461945243179798
120,0.25,0.001,0.012867391854524613,0.010294946022331714,14.415986671447754,0.010289783491397399,0.024563315324485302
121,0.25,0.001,0.012980339303612708,0.010401739999651908,14.45047061920166,0.010314397301357359,0.020108124474063516
122,0.25,0.001,0.012921122126281262,0.010351214744150638,14.401762084960938,0.01027963032474014,0.027804745128378272
123,0.25,0.001,0.012811606749892235,0.010244801677763461,14.384375610351562,0.010267220278623528,0.013206902891397476
124,0.25,0.001,0.012979744784533977,0.010413270965218544,14.382519645690918,0.010265895535825065,0.023600593209266663
125,0.25,0.001,0.012820712588727474,0.010211900398135186,14.619785690307618,0.010435250314280956,0.028063511941581964
126,0.25,0.001,0.012809216752648353,0.010308495834469794,14.01404010772705,0.010002883731425447,0.03239109134301543
127,0.25,0.001,0.012646293565630913,0.010229275412857532,13.544970016479493,0.00966807281690185,0.02257844479754567
128,0.25,0.001,0.01279063306748867,0.010200833156704902,14.51324005126953,0.010359200607615653,0.02483816770836711
129,0.25,0.001,0.012682013921439647,0.010133974850177765,14.27921142578125,0.010192156620828872,0.029373554745689034
130,0.25,0.001,0.012931060120463371,0.010552104525268079,13.331667823791504,0.009515822857809782,0.04432040709070861
131,0.25,0.001,0.012823356240987778,0.010340328104794025,13.914889068603516,0.009932112111779811,0.04434963781386614
132,0.25,0.001,0.012750451005995273,0.009995181299746036,15.440530967712402,0.011021078492300072,0.023737597977742553
133,0.25,0.001,0.012749397791922093,0.00996267169713974,15.616812744140624,0.011146904171406584,0.02326140971854329
134,0.25,0.001,0.012509542927145957,0.009943437241017818,14.380456199645996,0.010264422697820125,0.032631164183840156
135,0.25,0.001,0.012621720023453235,0.010096287466585635,14.15252212524414,0.010101728854563983,0.027770370710641146
136,0.25,0.001,0.01267411071807146,0.010042896457016469,14.74532585144043,0.010524857852562762,0.03176542464643717
137,0.25,0.001,0.012479930967092514,0.00983108213171363,14.844149856567382,0.010595396043231536,0.02465515350922942
138,0.25,0.001,0.012513408288359642,0.00998962737619877,14.14326675415039,0.010095122593968872,0.019278301391750574
139,0.25,0.001,0.0124378227815032,0.009985447153449059,13.74311408996582,0.009809503276206867,0.014449956943280995
140,0.25,0.001,0.012322287932038307,0.009861572422087192,13.789850044250489,0.009842862272841178,0.014061552472412586
141,0.25,0.001,0.012585439682006837,0.010126821286976338,13.778099212646485,0.00983447481273839,0.011101227137260139
142,0.25,0.001,0.012409756183624268,0.009998952485620976,13.51014434814453,0.009643215095035353,0.019911543233320117
143,0.25,0.001,0.012356812953948975,0.009893758781254291,13.80295383453369,0.009852215442208202,0.016040424001403153
144,0.25,0.001,0.012369632124900817,0.009796489141881465,14.419894180297852,0.010292572576943507,0.016410694923251867
145,0.25,0.001,0.01228930577635765,0.009791914708912372,13.995380172729492,0.009989564720006776,0.02451530529651791
146,0.25,0.001,0.012211349159479142,0.009843837320804596,13.2675350189209,0.009470046408937116,0.018047905759885907
147,0.25,0.001,0.012380567714571952,0.009989829212427139,13.39769920349121,0.009562954463591157,0.01621628482826054
148,0.25,0.001,0.012374012395739556,0.009972234591841697,13.45956298828125,0.009607111340671841,0.017454499378800392
149,0.25,0.001,0.012377229258418084,0.009931156784296036,13.707791519165038,0.00978429087734835,0.020451064221560955
150,0.25,0.001,0.012512601763010025,0.01000513430684805,14.051846351623535,0.01002986891621951,0.02248867228627205
151,0.25,0.001,0.012345457412302495,0.009817579314112663,14.166228485107421,0.010111512123559901,0.027728905901312828
152,0.25,0.001,0.012364311739802361,0.009901422783732414,13.802031211853027,0.009851556896397592,0.01570019847713411
153,0.25,0.001,0.012318884432315826,0.009994267802685499,13.027151947021485,0.009298466771607056,0.016569057945162058
154,0.25,0.001,0.012260878831148148,0.009980626218020917,12.778534202575683,0.009121009423680002,0.016725493129342794
155,0.25,0.001,0.01238807186484337,0.010085636973381043,12.902845115661622,0.009209739554362328,0.0164543972350657
156,0.25,0.001,0.012146216556429864,0.009703787863254548,13.687370491027831,0.009769714840134069,0.0226032598875463
157,0.25,0.001,0.012124054059386253,0.009696917906403542,13.601670989990234,0.00970854460384742,0.015409531304612756
158,0.25,0.001,0.012287313118577003,0.009871467500925064,13.538398475646973,0.009663382209598125,0.021379040786996484
159,0.25,0.001,0.012290970347821712,0.009821855761110783,13.83691909790039,0.00987645902776616,0.030197433196008205
160,0.25,0.001,0.012304543107748032,0.009849896058440208,13.755840797424316,0.009818587292950974,0.02671224344521761
161,0.25,0.001,0.012208543531596661,0.009814923629164696,13.413845672607422,0.009574479423702657,0.02437597932294011
162,0.25,0.001,0.012347706481814385,0.009944213218986989,13.469177322387695,0.009613973820405207,0.03024121979251504
163,0.25,0.001,0.012215762548148632,0.009805782251060009,13.505530471801757,0.009639921821414531,0.023303579073399305
164,0.25,0.001,0.012233354039490224,0.009914734028279781,12.993546600341796,0.00927448008589707,0.022624930599704385
165,0.25,0.001,0.012012781202793121,0.009602156914770604,13.509138107299805,0.009642496864596577,0.01962088979780674
166,0.25,0.001,0.01207979679107666,0.009670157134532929,13.503619995117187,0.009638558169248529,0.015580233419314027
167,0.25,0.001,0.01224836591631174,0.009917256869375706,13.0635347366333,0.009324435929074447,0.019241583300754428
168,0.25,0.001,0.012232570797204972,0.009831961318850517,13.453016777038574,0.009602438813018255,0.02489713323302567
169,0.25,0.001,0.012065788432955742,0.009560211598873138,14.04125389099121,0.010022308273369886,0.018069671699777246
170,0.25,0.001,0.011986855007708073,0.00954713962972164,13.672164840698242,0.00975886141377462,0.014990129740908742
171,0.25,0.001,0.011845296770334244,0.009535127356648444,12.946189422607421,0.009240677674951764,0.011349219363182783
172,0.25,0.001,0.011853209733963012,0.009613853059709071,12.549353713989257,0.008957425920049434,0.01691639074124396
173,0.25,0.001,0.011805691979825497,0.00955146998167038,12.6326611328125,0.009016888745761955,0.01622233376838267
174,0.25,0.001,0.01185454249382019,0.009575489275157452,12.771813583374023,0.009116212407832993,0.012427200563251972
175,0.25,0.001,0.011788502633571625,0.009459751844406127,13.050321083068848,0.009315004341947786,0.019723822828382254
176,0.25,0.001,0.012060169577598572,0.009719806723296642,13.115392723083495,0.009361450908696285,0.02798867761157453
177,0.25,0.001,0.012027454003691674,0.009671034887433053,13.205370559692383,0.009425674917696206,0.027743275742977858
178,0.25,0.001,0.011877711676061154,0.009510400965809821,13.266410293579101,0.009469243607122842,0.020362663315609097
179,0.25,0.001,0.012055920511484146,0.0097561776638031,12.887758865356446,0.009198971352859705,0.02984498837031424
180,0.25,0.001,0.012077509611845016,0.0098380159586668,12.55012191772461,0.008957974245342334,0.018769408110529184
181,0.25,0.001,0.011880699731409549,0.009589406959712506,12.840404815673828,0.009165171174642276,0.023595374426804483
182,0.25,0.001,0.011857864409685136,0.009548107981681824,12.943874282836914,0.009239025184037769,0.020622069481760263
183,0.25,0.001,0.011848913878202439,0.00950790911912918,13.118991584777833,0.009364019689348918,0.014995884499512613
184,0.25,0.001,0.011927465200424195,0.009517947658896447,13.502938232421876,0.009638071543484564,0.021932967472821474
185,0.25,0.001,0.011831128150224685,0.009491543620824813,13.111031494140626,0.009358337968694237,0.014625495881773531
186,0.25,0.001,0.011848339438438415,0.009639369696378708,12.379066848754883,0.008835879263922115,0.014862847048789263
187,0.25,0.001,0.011784949228167535,0.009518717974424362,12.69995994567871,0.009064925014759964,0.01669120858423412
188,0.25,0.001,0.011877107173204423,0.009439737014472484,13.659023361206055,0.009749481342759497,0.01791608496569097
189,0.25,0.001,0.011630133539438248,0.009253569804131985,13.318263664245606,0.00950625529210964,0.020249600522220135
190,0.25,0.001,0.011680657789111138,0.009432165138423442,12.600553245544434,0.008993970910452844,0.016838209936395288
191,0.25,0.001,0.01150441836565733,0.009284392781555652,12.441023330688477,0.008880102305987493,0.01841472741216421
192,0.25,0.001,0.011683953814208508,0.009473205804824828,12.389031982421875,0.00884299213591854,0.015966539969667792
193,0.25,0.001,0.011695524565875531,0.009531899765133857,12.12495475769043,0.008654500183933211,0.01887744863051921
194,0.25,0.001,0.011578980311751365,0.00936241278424859,12.42164608001709,0.008866271291946531,0.016515959054231644
195,0.25,0.001,0.01174922425299883,0.009461710453033447,12.8192280960083,0.00915005574304661,0.016152810072526336
196,0.25,0.001,0.011544194929301739,0.009271364957094193,12.736938400268555,0.009091319343517883,0.026130626793019474
197,0.25,0.001,0.011495592035353185,0.009264585934579373,12.502556533813477,0.008924023221851162,0.01796085643582046
198,0.25,0.001,0.011525298543274403,0.009337806887924672,12.258702697753906,0.008749966236797933,0.024223054060712457
199,0.25,0.001,0.011488342843949794,0.009295330978929997,12.289637603759765,0.008772046826380988,0.009532863972708583
200,0.25,0.001,0.011578120812773705,0.009305089190602302,12.73806884765625,0.00909212622959047,0.016593741136603057
201,0.25,0.001,0.011530322395265103,0.00918705802410841,13.131654510498047,0.009373058180227014,0.018266947008669376
202,0.25,0.001,0.01154362242668867,0.009260445460677147,12.794923934936524,0.009132708019226641,0.01709539140574634
203,0.25,0.001,0.011501948535442352,0.009281690381467343,12.442325859069824,0.008881032019321788,0.0193275292403996
204,0.25,0.001,0.011349128521978856,0.009120802730321884,12.48753692626953,0.008913302588343705,0.014165286091156304
205,0.25,0.001,0.011549926474690437,0.00925574116408825,12.85661434173584,0.0091767411432804,0.015384773258119822
206,0.25,0.001,0.011606185808777808,0.009253379628062249,13.185126342773437,0.009411225084063838,0.01185375265777111
207,0.25,0.001,0.011456452049314976,0.009180738031864167,12.753102722167968,0.009102857046515323,0.021458173636347055
208,0.25,0.001,0.011565786860883236,0.009384532868862152,12.22374755859375,0.008725016101779979,0.018228232162073255
209,0.25,0.001,0.011514883376657964,0.009362245872616769,12.063381500244141,0.008610550678261343,0.016779901925474405
210,0.25,0.001,0.011393284201622009,0.009182857424020767,12.387233467102051,0.008841708399073556,0.016926702577620745
211,0.25,0.001,0.011494966819882393,0.009247037582099438,12.597396163940429,0.00899171746177047,0.01934182527475059
212,0.25,0.001,0.011487219482660294,0.009322198145091533,12.13278034210205,0.008660085897289114,0.012962280539795756
213,0.25,0.001,0.011540579721331596,0.00929106280207634,12.60629337310791,0.00899806807502349,0.014102531014941633
214,0.25,0.001,0.011346407383680344,0.009075119197368621,12.728298950195313,0.009085152712487733,0.012898234650492668
215,0.25,0.001,0.011421450152993203,0.00925198858603835,12.15766258239746,0.008677846240112391,0.027261830866336823
216,0.25,0.001,0.011424431540071965,0.0092747737839818,12.046681785583496,0.00859863082482762,0.020379552617669106
217,0.25,0.001,0.011264945864677429,0.009070797152817249,12.29600887298584,0.008776594484643713,0.018135427264496684
218,0.25,0.001,0.011421728059649467,0.009284750688821078,11.975619430541991,0.008547908230222692,0.015546836890280247
219,0.25,0.001,0.011286432184278964,0.009177384972572327,11.819098434448243,0.008436187319377762,0.020524444873444736
220,0.25,0.001,0.011426924802362919,0.009292231835424901,11.962819366455077,0.008538771853286994,0.02395633584819734
221,0.25,0.001,0.011260359026491642,0.009072755910456181,12.259328842163086,0.008750413163571082,0.01841997413430363
222,0.25,0.001,0.011300454437732697,0.009140174482017755,12.106207962036132,0.008641119173473327,0.01894126634579152
223,0.25,0.001,0.01130743931978941,0.009161140993237496,12.027856063842773,0.008585193478831387,0.02287941100075841
224,0.25,0.001,0.011280741691589356,0.009171435087919235,11.820555496215821,0.008437227334914933,0.019021973246708512
225,0.25,0.001,0.011298030503094197,0.009177369698882103,11.88418357849121,0.008482643524975882,0.01792101957835257
226,0.25,0.001,0.011328708529472351,0.009115890264511109,12.400635528564454,0.008851274467212315,0.013860325561836362
227,0.25,0.001,0.011280954107642174,0.009044932313263416,12.530665092468261,0.008944086432882414,0.017076582415029407
228,0.25,0.001,0.011339632719755173,0.009134697765111922,12.356454620361328,0.008819739200828928,0.01585190964397043
229,0.25,0.001,0.01126203902065754,0.009093566946685314,12.152117767333984,0.008673888484892207,0.018461820553056896
230,0.25,0.001,0.011216596327722072,0.009083132147789002,11.955934143066406,0.008533857346942474,0.011567553272470832
231,0.25,0.001,0.011194290667772293,0.009093140438199043,11.774845123291016,0.008404600373512502,0.009466692106798291
232,0.25,0.001,0.011208772994577884,0.009153234027326106,11.519239120483398,0.008222154975362883,0.013798324624076486
233,0.25,0.001,0.011151721030473708,0.009058993346989154,11.727648315429688,0.008370912430713553,0.013106337049975991
234,0.25,0.001,0.011260728053748607,0.00912833957001567,11.949904098510743,0.008529553246617232,0.02036267868243158
235,0.25,0.001,0.011192276440560818,0.009063915871083737,11.927333145141601,0.008513442644640686,0.019922912353649735
236,0.25,0.001,0.011097951866686344,0.009002695977687835,11.741813888549805,0.008381023475053394,0.01628569304011762
237,0.25,0.001,0.01120323982089758,0.009032453298568726,12.165088157653809,0.008683146436583732,0.021882379427552223
238,0.25,0.001,0.01132510706782341,0.00909605085849762,12.491630020141601,0.008916224140001143,0.015486957505345345
239,0.25,0.001,0.011156259253621102,0.008937653079628944,12.433068771362304,0.008874424533449183,0.017729141283780336
240,0.25,0.001,0.011269817799329758,0.009113713577389717,12.08280891418457,0.008624417497633525,0.014145380817353725
241,0.25,0.001,0.011125084422528743,0.009028788954019547,11.747640991210938,0.00838518272035042,0.011843047919683158
242,0.25,0.001,0.010978723466396332,0.008897236548364162,11.664654083251953,0.008325948667560281,0.011696674395352602
243,0.25,0.001,0.011211032122373581,0.009080352298915385,11.940328979492188,0.008522718757667514,0.01998860330786556
244,0.25,0.001,0.011050192788243294,0.008849390223622322,12.33329833984375,0.00880321080645521,0.01643664506264031
245,0.25,0.001,0.011081469655036926,0.008917981311678886,12.124190139770509,0.008653954418108857,0.01402645418420434
246,0.25,0.001,0.011128810569643974,0.008988486230373382,11.994378204345702,0.008561297790396646,0.01866452256217599
247,0.25,0.001,0.011012340188026428,0.008856911435723305,12.079023017883301,0.008621715216190793,0.009399354690685868
248,0.25,0.001,0.011013434417545796,0.008905574344098569,11.812446517944336,0.008431439341858912,0.010018381755799055
249,0.25,0.001,0.011161814741790295,0.009091529864817857,11.60187599182129,0.008281139180457737,0.012937384191900492
250,0.25,0.001,0.011280236952006816,0.009167830571532249,11.837925567626954,0.008449625672824378,0.01849433919414878
251,0.25,0.001,0.011080565340816974,0.008848381824791432,12.50915901184082,0.008928735911378173,0.017286794492974877
252,0.25,0.001,0.011051581352949142,0.008857954815030098,12.293084526062012,0.00877450715636118,0.02173105673864484
253,0.25,0.001,0.011031631529331207,0.008958421535789967,11.61826904296875,0.008292840144874197,0.012401175685226917
254,0.25,0.001,0.011128055341541767,0.009024896528571844,11.786104202270508,0.008412636832455751,0.009365540696308017
255,0.25,0.001,0.010968085415661334,0.008790929075330496,12.200783424377441,0.008708624856800457,0.018623057403601706
256,0.25,0.001,0.010972106009721755,0.008888484947383403,11.676611976623535,0.00833448392335727,0.010333956452086568
257,0.25,0.001,0.01100950937718153,0.009010028839111329,11.205091018676757,0.007997923639312461,0.017529693664982915
258,0.25,0.001,0.01098578542470932,0.008952977545559406,11.391855583190917,0.008131231679650904,0.02268472989089787
259,0.25,0.001,0.011023869290947914,0.008844093009829522,12.215467796325683,0.008719106207227469,0.016584884142503142
260,0.25,0.001,0.01107221309095621,0.008817977979779243,12.632733688354492,0.00901694053415738,0.02252567047253251
261,0.25,0.001,0.01090492144227028,0.008765332102775573,11.99025764465332,0.0085583566342993,0.02535668946802616
262,0.25,0.001,0.011017210073769093,0.00900365088135004,11.283984603881835,0.008054235977074829,0.023128879722207785
263,0.25,0.001,0.010944774597883225,0.008903682976961137,11.438278961181641,0.008164367566867696,0.01794934249483049
264,0.25,0.001,0.010990116521716118,0.008882477916777133,11.811206283569335,0.008430554092483465,0.015622695325873792
265,0.25,0.001,0.010852824933826923,0.008811842277646064,11.437665519714356,0.008163929707148005,0.011285180458799005
266,0.25,0.001,0.010821984410285949,0.008844513613730669,11.081747703552246,0.007909884156711096,0.015122043434530497
267,0.25,0.001,0.01092504408210516,0.008892491068691015,11.39042709350586,0.008130212058176916,0.01177434646524489
268,0.25,0.001,0.01091216254979372,0.008800489194691181,11.833817901611328,0.008446693719922432,0.015183274052105844
269,0.25,0.001,0.010888199023902416,0.008833860382437705,11.512512702941894,0.008217353820800782,0.012642207904718816
270,0.25,0.001,0.010790729857981206,0.008750892803072929,11.431247291564942,0.008159348530738717,0.020212785806506872
271,0.25,0.001,0.010851895101368428,0.008760490790009498,11.720231704711914,0.008365618632913572,0.014557619695551693
272,0.25,0.001,0.010874965228140354,0.008735480085015297,11.989675903320313,0.008557941401370672,0.01482268434483558
273,0.25,0.001,0.010776928402483463,0.008706409446895123,11.60318977355957,0.008282076926166717,0.010353467660024762
274,0.25,0.001,0.01075833074748516,0.008802926912903786,10.958084793090821,0.00782161655466868,0.011054984526708722
275,0.25,0.001,0.010926422998309135,0.008912863023579121,11.283990783691406,0.008054240388073808,0.009595334297046065
276,0.25,0.001,0.010901594273746014,0.00882418006658554,11.641830215454101,0.00830965754136624,0.014353502774611115
277,0.25,0.001,0.01092681236565113,0.008916892260313034,11.263594169616699,0.008039681777028336,0.016884144861251116
278,0.25,0.001,0.010915260389447212,0.008791985735297204,11.898830146789551,0.00849309789206963,0.015534715843386948
279,0.25,0.001,0.01104648232460022,0.008767977878451348,12.768738937377929,0.009114017799698736,0.02494557178579271
280,0.25,0.001,0.010866480469703675,0.008662140779197216,12.353119201660157,0.008817358459429091,0.014893504558131099
281,0.25,0.001,0.010856918543577194,0.008831143006682396,11.352447204589843,0.008103102929757204,0.016447901027277112
282,0.25,0.001,0.01098085928708315,0.00900021743029356,11.099516944885254,0.007922567412480552,0.014038524241186678
283,0.25,0.001,0.010830513760447502,0.008792247734963893,11.422442283630371,0.008153063728501336,0.011646318016573787
284,0.25,0.001,0.01099524922668934,0.008914304301142692,11.66161521911621,0.008323779599654683,0.021382432780228555
285,0.25,0.001,0.01078912105411291,0.008655486851930618,11.956884269714356,0.008534535524421382,0.011626095045357943
286,0.25,0.001,0.010852330699563026,0.008696683757007122,12.080245552062989,0.008622587831593854,0.01375428936444223
287,0.25,0.001,0.010943134427070617,0.008709422834217549,12.51771873474121,0.00893484563507581,0.012359302723780274
288,0.25,0.001,0.010821043699979781,0.00870009522885084,11.885795783996581,0.008483794278370151,0.013612041715532541
289,0.25,0.001,0.01082213245332241,0.008823451548814774,11.200607566833495,0.007994723459552816,0.023045541485771537
290,0.25,0.001,0.010841317251324653,0.008808246683329343,11.393328170776368,0.008132282777142303,0.012301138252951205
291,0.25,0.001,0.010727154910564423,0.008625289015471936,11.778857650756835,0.008407464418812873,0.016386244911700487
292,0.25,0.001,0.010771922133862973,0.008668961971998214,11.784990730285644,0.008411842063016163,0.012417819583788514
293,0.25,0.001,0.010753298327326775,0.008603532500565052,12.047288208007812,0.008599063674523778,0.011111853178590536
294,0.25,0.001,0.010688663423061372,0.008570008538663387,11.872941360473632,0.008474619100980466,0.015392367262393236
295,0.25,0.001,0.01075835395604372,0.008756784722208977,11.216795845031738,0.0080062782619784,0.024786010617390275
296,0.25,0.001,0.010774909108877182,0.0088056505843997,11.035725326538087,0.007877034494316978,0.022997801657766104
297,0.25,0.001,0.01071555882692337,0.008678534366190434,11.415482940673828,0.00814809631739745,0.016849721083417535
298,0.25,0.001,0.010735211186110974,0.00860136441886425,11.958076858520508,0.008535386765539263,0.022942823357880116
299,0.25,0.001,0.010587162673473358,0.008531106002628804,11.52214385986328,0.008224228308253591,0.018383212853223085
300,0.25,0.001,0.010797053202986717,0.008774802163243294,11.33269432067871,0.0080890037977721,0.02484866976737976
301,0.25,0.001,0.010725396350026131,0.008540761657059193,12.242694549560547,0.008738540006824088,0.017274360870942473
302,0.25,0.001,0.010752478912472725,0.008487716540694237,12.69172706604004,0.009059048583897245,0.01699058571830392
303,0.25,0.001,0.010753510259091855,0.008645328246057033,11.814250793457031,0.0084327271901906,0.015961405588313937
304,0.25,0.001,0.010839561149477959,0.008804285787045956,11.40568374633789,0.008141101888892142,0.0105624427087605
305,0.25,0.001,0.01071053832769394,0.008633684068918228,11.638691596984863,0.008307417271224029,0.011980080977082253
306,0.25,0.001,0.010592780746519566,0.008518098741769791,11.626516723632813,0.008298727140351759,0.01315763359889388
307,0.25,0.001,0.0106437524035573,0.008540673404932022,11.785654106140136,0.008412315564696743,0.010667837341316044
308,0.25,0.001,0.01066065527498722,0.008536490984261036,11.903816299438477,0.008496656887536386,0.010217947070486844
309,0.25,0.001,0.010655088350176811,0.00857046663761139,11.682218475341797,0.008338485706882082,0.012699005077593029
310,0.25,0.001,0.01060514647513628,0.008534302394837141,11.6050101852417,0.008283376292106851,0.01774233707692474
311,0.25,0.001,0.010682121813297273,0.008681754395365716,11.210058479309081,0.008001469292868723,0.01658850652165711
312,0.25,0.001,0.01071089282631874,0.008636025693267584,11.627555847167969,0.008299468841661647,0.018002301920205355
313,0.25,0.001,0.010581481121480465,0.008397008068859577,12.241787796020509,0.008737892788023205,0.015715284273028374
314,0.25,0.001,0.010643407590687276,0.008568637147545815,11.627014389038086,0.008299082361911554,0.014621767681092024
315,0.25,0.001,0.010642541609704494,0.008608432225883008,11.399149551391602,0.008136437938181015,0.012659638654440641
316,0.25,0.001,0.010667214654386043,0.008655616976320744,11.272992706298828,0.008046390225766472,0.015327848261222243
317,0.25,0.001,0.010649798437952995,0.008513050880283117,11.97433334350586,0.008546990252323954,0.01110306684859097
318,0.25,0.001,0.010624929256737232,0.008426620066165924,12.319324188232422,0.00879323639417018,0.010061550885438919
319,0.25,0.001,0.010618364214897156,0.0084524866938591,12.137578125,0.008663510438972162,0.010098114609718323
320,0.25,0.001,0.010710826925933361,0.00864982608705759,11.549847717285155,0.008244002653308461,0.019366772030480206
321,0.25,0.001,0.010603918842971325,0.008536409102380276,11.586324119567871,0.008270038629241878,0.022276156581938267
322,0.25,0.001,0.010736950971186161,0.008617472872138023,11.87755516052246,0.00847791232014451,0.025996361626312137
323,0.25,0.001,0.010682125017046929,0.00856351900845766,11.87266944885254,0.008474425017025368,0.028039494180120528
324,0.25,0.001,0.010508946739137173,0.008448058627545834,11.54921600341797,0.008243551751190556,0.0195120214484632
325,0.25,0.001,0.010735259503126144,0.008729036711156369,11.242871742248536,0.008024890608314444,0.019676735159009695
326,0.25,0.001,0.010630948953330516,0.00852636318653822,11.794098587036133,0.00841834303143193,0.021955099422484636
327,0.25,0.001,0.010634980127215386,0.008475867472589016,12.099667510986329,0.008636450757306445,0.014375237049534917
328,0.25,0.001,0.010697694420814514,0.008667908757925034,11.374919204711913,0.0081191429012933,0.010589314624667168
329,0.25,0.001,0.010759839713573456,0.008726446479558945,11.395135345458984,0.008133572694831538,0.018504466861486435
330,0.25,0.001,0.010590137466788292,0.008501777537167072,11.7031681060791,0.008353439047879444,0.016203930135816336
331,0.25,0.001,0.010756476372480393,0.008636135086417198,11.882391891479493,0.008481364662012486,0.01536659593693912
332,0.25,0.001,0.010601205565035344,0.008485863506793976,11.85437671661377,0.008461368106076924,0.009672706597484648
333,0.25,0.001,0.010513244606554508,0.008408186361193656,11.796746788024903,0.00842023325340821,0.013608827255666256
334,0.25,0.001,0.010564373694360257,0.008568987101316452,11.18214656829834,0.007981546444181541,0.01868852903135121
335,0.25,0.001,0.010576770007610321,0.008570515252649784,11.243051986694336,0.008025019262451347,0.017771651269868016
336,0.25,0.001,0.010500816404819488,0.008471444956958294,11.372596168518067,0.008117484774102832,0.013075788039714098
337,0.25,0.001,0.010585926622152329,0.008535158913582563,11.492502593994141,0.00820307108779025,0.018253413843922317
338,0.25,0.001,0.010630990117788315,0.008475263454020023,12.080692749023438,0.008622907029995316,0.022729178424924612
339,0.25,0.001,0.010662985183298588,0.008451258912682533,12.39451400756836,0.00884690507321082,0.019853690406307578
340,0.25,0.001,0.010530064292252063,0.00841412866488099,11.857702102661133,0.008463741686410516,0.017664904822595417
341,0.25,0.001,0.010475354008376599,0.008445529490709305,11.375136413574218,0.008119297939738913,0.02565551339648664
342,0.25,0.001,0.010490603372454643,0.008423127867281437,11.586133804321289,0.008269902786810342,0.021738752024248242
343,0.25,0.001,0.010485344901680946,0.008339602500200272,12.024739837646484,0.00858296919175338,0.024711948819458485
344,0.25,0.001,0.010426700562238694,0.008400400578975677,11.355386085510254,0.008105200632055855,0.011705885175615549
345,0.25,0.001,0.01055378284305334,0.00860880371183157,10.8996630859375,0.0077799165495628115,0.015933946706354618
346,0.25,0.001,0.010509438887238503,0.008470189906656742,11.427951278686523,0.00815699591626447,0.02577722817659378
347,0.25,0.001,0.010450118705630302,0.00843288965523243,11.30455207824707,0.00806891654407357,0.02169679058715701
348,0.25,0.001,0.010602815262973308,0.008537239544093609,11.575485610961914,0.008262302363284735,0.021224375581368804
349,0.25,0.001,0.010423122011125087,0.008225222453474998,12.317029724121094,0.008791598661042893,0.01437998260371387
350,0.25,0.001,0.010432192534208297,0.00825832162052393,12.182373428344727,0.008695484245784958,0.013372488552704453
351,0.25,0.001,0.0105128950253129,0.008515560626983642,11.19306037902832,0.007989336458978102,0.020276207360439003
352,0.25,0.001,0.010508330538868904,0.008528496567159892,11.094990005493164,0.007919336192357719,0.024997216183692217
353,0.25,0.001,0.010410023406147956,0.008302919995039702,11.808208312988281,0.008428414213410621,0.022808762034401298
354,0.25,0.001,0.010476106405258178,0.008364130016416312,11.835516891479493,0.008447906417901137,0.012336663785390556
355,0.25,0.001,0.010388126187026501,0.008283678162842988,11.793325653076172,0.008417791329818824,0.012116777594201267
356,0.25,0.001,0.010541322305798531,0.00846279013901949,11.648095207214356,0.00831412934133787,0.01956391637213528
357,0.25,0.001,0.010295028612017632,0.008231985680758953,11.561293258666993,0.008252172204615984,0.012819626252166927
358,0.25,0.001,0.010355782993137837,0.00831153905019164,11.455943374633788,0.008176975999024831,0.009499259176664054
359,0.25,0.001,0.01032431397587061,0.008318480364978313,11.240691833496093,0.00802333464203861,0.013958605355583131
360,0.25,0.001,0.010412316732108594,0.008390645552426577,11.32944564819336,0.008086684973728308,0.017445517471060157
361,0.25,0.001,0.010517014563083649,0.008439303152263164,11.64349594116211,0.008310846496189944,0.0192221044562757
362,0.25,0.001,0.010307015255093574,0.00825539581477642,11.497275466918945,0.008206477849335436,0.01318821229506284
363,0.25,0.001,0.010356253013014793,0.008300100211054087,11.522679367065429,0.008224610540375038,0.011704247212037444
364,0.25,0.001,0.010449989959597587,0.008350465185940266,11.76573574066162,0.008398098315961186,0.013546757632866502
365,0.25,0.001,0.010400424934923649,0.008364728987216949,11.408038482666015,0.008142782642873672,0.017727465135976672
366,0.25,0.001,0.010426187962293625,0.008369703479111194,11.524540252685547,0.008225938795635651,0.016664189053699374
367,0.25,0.001,0.010445495694875717,0.008338062316179276,11.810057334899902,0.008429734000642328,0.015438125934451818
368,0.25,0.001,0.010574304461479188,0.008424539752304554,12.047282333374023,0.008599059481351907,0.014610351761803031
369,0.25,0.001,0.010435296557843685,0.008296716138720512,11.984605293273926,0.008554322122251197,0.009728170465677977
370,0.25,0.001,0.010421431362628937,0.008366438448429108,11.516181182861327,0.008219972293262903,0.01603078912012279
371,0.25,0.001,0.010478376969695091,0.008527200669050217,10.934391174316406,0.007804704621210854,0.017446924233809114
372,0.25,0.001,0.010392450392246247,0.008343915529549122,11.479990463256836,0.008194140230732932,0.011973234824836254
373,0.25,0.001,0.01042378019541502,0.008356082662940025,11.587377548217773,0.008270790541197554,0.015498150838539004
374,0.25,0.001,0.01048478152602911,0.008419890552759171,11.571649894714355,0.008259564521566277,0.016100099543109536
375,0.25,0.001,0.010378448776900768,0.008220501728355884,12.093135719299317,0.00863178852198381,0.012757447431795299
376,0.25,0.001,0.010325465947389603,0.008226639851927757,11.7618212890625,0.008395304274848322,0.011062634526751935
377,0.25,0.001,0.010420393347740173,0.008433791063725948,11.132919120788575,0.007946409079791987,0.014978779247030616
378,0.25,0.001,0.010368026718497276,0.00835412871092558,11.285884704589844,0.00805559222311909,0.012097697472199798
379,0.25,0.001,0.010315045341849327,0.00821890965104103,11.746745223999023,0.008384543343325498,0.0182119719684124
380,0.25,0.001,0.010355602651834488,0.00826682174578309,11.705528450012206,0.008355123804434123,0.018762159626930952
381,0.25,0.001,0.010406095795333385,0.008400450497865676,11.23963653564453,0.008022581395891884,0.021840681554749608
382,0.25,0.001,0.01045028105378151,0.008345050644129515,11.797710571289063,0.008420921178650294,0.01922351005487144
383,0.25,0.001,0.010425959974527358,0.008194702416658402,12.503970069885254,0.008925032169796754,0.01823455304838717
384,0.25,0.001,0.010312951877713203,0.00820321824401617,11.822945861816406,0.008438933520211567,0.01324657944496721
385,0.25,0.001,0.010417611077427865,0.00833723697811365,11.658416862487792,0.008321496689855669,0.014896534848958254
386,0.25,0.001,0.01036788161844015,0.008344028256833553,11.341675415039063,0.008095414286252009,0.014463148545473814
387,0.25,0.001,0.010291832387447358,0.008312141038477421,11.094192123413086,0.007918766683378362,0.01226394553668797
388,0.25,0.001,0.010335621796548367,0.008315800670534373,11.319077301025391,0.008079284297662663,0.019336809404194355
389,0.25,0.001,0.010307295545935631,0.008236172161996364,11.606576461791992,0.00828449426252105,0.013352411333471537
390,0.25,0.001,0.01043844796717167,0.008360002152621747,11.647611618041992,0.008313784167053528,0.022015253663994372
391,0.25,0.001,0.010347627997398377,0.008231279514729977,11.860016632080079,0.008465393741670291,0.01974154287017882
392,0.25,0.001,0.010455285310745238,0.00836102120578289,11.736256065368652,0.008377056434952642,0.020024257013574243
393,0.25,0.001,0.010390177071094513,0.00820286825299263,12.257678070068359,0.008749234882275773,0.014795304741710424
394,0.25,0.001,0.01038978211581707,0.008213709853589535,12.19470962524414,0.008704289525513305,0.015020633116364479
395,0.25,0.001,0.010308165177702904,0.00811733890324831,12.277392120361329,0.008763306295761119,0.009575071162544191
396,0.25,0.001,0.010316131114959716,0.008168707937002181,12.034158325195312,0.008589691880938837,0.011369347106665373
397,0.25,0.001,0.010325268618762493,0.008209100924432278,11.859003524780274,0.008464670610121537,0.013436690205708146
398,0.25,0.001,0.010214718841016292,0.008107594139873981,11.80832778930664,0.008428499492724225,0.01163569581694901
399,0.25,0.001,0.010234685689210892,0.00820570707321167,11.370395965576172,0.008115914322324178,0.013994570123031735
400,0.25,0.001,0.010335329174995422,0.008342372216284276,11.168529586791992,0.007971826971300494,0.015499794855713844
401,0.25,0.001,0.010338665209710598,0.008238053992390632,11.771825485229492,0.008402445028714841,0.008978701545856893
402,0.25,0.001,0.010279491879045963,0.008131730407476424,12.036055297851563,0.00859104589425522,0.012110969284549356
403,0.25,0.001,0.010249662436544895,0.00818390354514122,11.576512565612793,0.00826303537873861,0.012517424998804927
404,0.25,0.001,0.010231851004064083,0.008203897885978221,11.364648895263672,0.008111812202186775,0.012647256604395807
405,0.25,0.001,0.010251133553683758,0.008244962375611066,11.242584915161133,0.008024685878059339,0.014216198236681521
406,0.25,0.001,0.010307387635111808,0.008272143360227347,11.405508155822753,0.008140976556618667,0.01701459288597107
407,0.25,0.001,0.010307394787669183,0.008149188794195652,12.094586486816405,0.008632824044836835,0.012707192217931151
408,0.25,0.001,0.010267796367406845,0.008118599392473698,12.044099349975586,0.008596787544593566,0.018839685944840312
409,0.25,0.001,0.01023647427558899,0.008116879537701606,11.878208084106445,0.00847837836124657,0.019354671938344836
410,0.25,0.001,0.010196797251701355,0.008098617419600487,11.758200874328613,0.008392720110156042,0.01781828433740884
411,0.25,0.001,0.010178988799452782,0.008063718248158692,11.853975677490235,0.008461081854025863,0.017141618533059955
412,0.25,0.001,0.010215721279382705,0.008154495507478715,11.551109085083008,0.008244902987211283,0.024082526215352118
413,0.25,0.001,0.010208824872970581,0.008222279138863087,11.132602462768554,0.00794618305693687,0.015020652557723224
414,0.25,0.001,0.010205848813056946,0.008217594698071479,11.14217586517334,0.007953016320609093,0.009562964201904833
415,0.25,0.001,0.010286574587225913,0.008239990919828416,11.469056243896484,0.008186335648748383,0.012177532655186951
416,0.25,0.001,0.010187347419559956,0.008083191402256489,11.791690139770507,0.00841662393987902,0.015025348169729114
417,0.25,0.001,0.010166632421314716,0.008075544685125351,11.718455848693848,0.008364351069731511,0.009255676646716893
418,0.25,0.001,0.010234359353780746,0.0082070317491889,11.36114356994629,0.00810931018554339,0.016627823235467076
419,0.25,0.001,0.010258319564163685,0.008218711242079735,11.429963760375976,0.008158432377142024,0.016015458153560758
420,0.25,0.001,0.010192742422223091,0.00813995935022831,11.503797187805176,0.008211132896363438,0.019978108000941575
421,0.25,0.001,0.010316779129207134,0.008102177623659373,12.410624504089355,0.008858404356951717,0.030350252985954285
422,0.25,0.001,0.010437262654304504,0.008229115679860115,12.374454650878906,0.008832587188350397,0.020846232771873474
423,0.25,0.001,0.010228901281952857,0.008150236997753382,11.648835716247559,0.008314657898820528,0.01309409982059151
424,0.25,0.001,0.010369291305541992,0.00832625661045313,11.449165573120117,0.008172138167823067,0.018793873256072402
425,0.25,0.001,0.010113260298967362,0.008064440675079823,11.481585159301758,0.008195278486296758,0.019454350229352713
426,0.25,0.001,0.010259101614356041,0.008204991184175014,11.511234321594237,0.008216441343036573,0.014844418736174703
427,0.25,0.001,0.010173733793199063,0.008134322911500931,11.428859977722167,0.00815764452371318,0.016552776214666665
428,0.25,0.001,0.010189492478966713,0.008086264096200467,11.786491889953613,0.008412913554570745,0.011005688225850463
429,0.25,0.001,0.010192511603236198,0.008004138860851526,12.263641357421875,0.008753491332920681,0.015995049849152565
430,0.25,0.001,0.010278543010354042,0.008144868463277817,11.957113800048829,0.008534699357636566,0.014979266794398427
431,0.25,0.001,0.010134910196065904,0.008098049387335778,11.414569244384765,0.00814744414302981,0.014962563989683986
432,0.25,0.001,0.01028654083609581,0.008246026970446109,11.435038681030273,0.008162054733069432,0.020294034155085683
433,0.25,0.001,0.010049061104655265,0.008009537030011416,11.429491348266602,0.00815809518077559,0.016820205841213465
434,0.25,0.001,0.0101535165309906,0.008082368429750204,11.606712989807129,0.008284591712924432,0.010681975283659995
435,0.25,0.001,0.010155276209115983,0.008033410459756852,11.890936279296875,0.008487463439897841,0.01889330241829157
436,0.25,0.001,0.01021664172410965,0.008158612959086896,11.533193588256836,0.008232115337799311,0.010027017793618143
437,0.25,0.001,0.010303223878145218,0.008266891986131668,11.411604309082032,0.008145327843741636,0.016502561047673225
438,0.25,0.001,0.01023664940148592,0.008075090721249581,12.113375358581543,0.008646235088209523,0.013677125563845038
439,0.25,0.001,0.010077969320118427,0.007958925440907478,11.875120887756347,0.00847617479497241,0.010534446686506271
440,0.25,0.001,0.010277564749121665,0.00826555060222745,11.275328369140626,0.008048057365553623,0.020360117545351386
441,0.25,0.001,0.010016318932175637,0.00793825700879097,11.645459442138671,0.008312247995816325,0.009504858520813286
442,0.25,0.001,0.010250055082142353,0.00809095699340105,12.09958610534668,0.008636392651924825,0.013229249743744731
443,0.25,0.001,0.010130646862089634,0.008028835766017437,11.778548965454101,0.008407244086691008,0.012238269904628396
444,0.25,0.001,0.010006679520010948,0.007973301522433758,11.395049667358398,0.008133511539870377,0.009748505777679384
445,0.25,0.001,0.010151671357452869,0.008172605410218239,11.090686531066895,0.007916264476136256,0.016483336687088013
446,0.25,0.001,0.010076269656419754,0.008027505241334438,11.48127628326416,0.008195058018032948,0.0152166320476681
447,0.25,0.001,0.010114194974303246,0.008059930950403214,11.512094955444336,0.008217055642715444,0.01024349860381335
448,0.25,0.001,0.010047268867492676,0.0080112268589437,11.409979934692382,0.00814416840449135,0.01611207821406424
449,0.25,0.001,0.010188843496143818,0.008103798553347587,11.684590873718262,0.00834017906760761,0.017670708475634456
450,0.25,0.001,0.010148562118411064,0.00803073177114129,11.86832202911377,0.00847132193370005,0.012671657255850732
451,0.25,0.001,0.01011604219675064,0.00794502580538392,12.16637523651123,0.008684065122420578,0.01526275568176061
452,0.25,0.001,0.010175499618053436,0.00803055975586176,12.020243034362792,0.008579759482057667,0.010847169905900955
453,0.25,0.001,0.009926779232919215,0.00784505918622017,11.665959281921387,0.00832688028688179,0.01258793892338872
454,0.25,0.001,0.010046104826033115,0.007998608760535717,11.47416648864746,0.008189983218163784,0.01213604852091521
455,0.25,0.001,0.010181573182344437,0.008156332522630691,11.349448699951171,0.008100962669486917,0.014772326219826937
456,0.25,0.001,0.010131033807992936,0.008100393190979958,11.379711685180665,0.00812256365823031,0.012658915715292096
457,0.25,0.001,0.010154344886541367,0.00800417872145772,12.049530754089355,0.008600664349813958,0.010580744128674269
458,0.25,0.001,0.010085079483687878,0.007918486781418323,12.141586074829101,0.008666371216865882,0.011653464287519455
459,0.25,0.001,0.009951958879828453,0.007924159653484822,11.363787841796874,0.008111197602995628,0.00950659904628992
460,0.25,0.001,0.010109072625637055,0.008121854551136494,11.136371154785156,0.007948873058376271,0.017634032294154167
461,0.25,0.001,0.010069049336016178,0.008049363642930985,11.318320693969726,0.008078744249799947,0.01816266740206629
462,0.25,0.001,0.010081034637987613,0.008077509887516498,11.227754516601562,0.008014100297360145,0.017762540373951197
463,0.25,0.001,0.010106674507260322,0.008129583317786454,11.079620056152343,0.007908365493327869,0.018064410192891955
464,0.25,0.001,0.0101097771525383,0.008000487647950649,11.82045825958252,0.008437157929751977,0.013713506981730461
465,0.25,0.001,0.010066794604063034,0.007910731956362724,12.08257682800293,0.008624251840116295,0.014241254655644298
466,0.25,0.001,0.00993720419704914,0.007884707413613795,11.502190628051757,0.008209986172770705,0.010898543056100607
467,0.25,0.001,0.010034600086510182,0.00798861414194107,11.465704879760743,0.008183943525882044,0.013084740960039198
468,0.25,0.001,0.010056390836834907,0.007929321601986885,11.920095100402833,0.008508276302928502,0.014169170055538416
469,0.25,0.001,0.01008350633084774,0.007988350614905357,11.74125259399414,0.008380622836541143,0.017588504124432802
470,0.25,0.001,0.010023341998457908,0.00790785051882267,11.855213890075683,0.008461965660296705,0.022187549620866776
471,0.25,0.001,0.010004114657640457,0.007885474897921085,11.872858963012696,0.00847456028766074,0.01591143081896007
472,0.25,0.001,0.010073252730071544,0.007962482552975415,11.82875545501709,0.00844308026767815,0.01076495973393321
473,0.25,0.001,0.010060039944946766,0.007957595586776733,11.782098121643067,0.00840977738875308,0.014056499116122723
474,0.25,0.001,0.010193553157150745,0.008062646314501763,11.941601791381835,0.008523627260086963,0.017161026364192367
475,0.25,0.001,0.010154386609792709,0.00799224866554141,12.116619682312011,0.008648550808216996,0.01671508513391018
476,0.25,0.001,0.010158959850668907,0.00807645495980978,11.670355758666993,0.008330018385915055,0.019069681642577052
477,0.25,0.001,0.010229398906230926,0.008175262659788131,11.511380615234375,0.008216545763907476,0.018204871099442244
478,0.25,0.001,0.010172301605343818,0.008022518251091243,12.047385025024415,0.008599132780174457,0.013026260188780725
479,0.25,0.001,0.00999531589448452,0.0076948519051074984,12.891799774169922,0.009201855656081314,0.012509848922491074
480,0.25,0.001,0.010104222744703293,0.007852258197963237,12.620011138916016,0.009007859485307648,0.014888376696035266
481,0.25,0.001,0.01006008718162775,0.007926559560000896,11.956288909912109,0.008534110570957964,0.01727040426339954
482,0.25,0.001,0.009972182922065259,0.007945365123450756,11.358287048339843,0.008107271269336077,0.013703151606023312
483,0.25,0.001,0.009946977570652962,0.007920716684311628,11.355166549682616,0.008105043932678527,0.012871683342382312
484,0.25,0.001,0.009915841855108737,0.007864333391189575,11.496653442382813,0.008206033863228275,0.014244340010918677
485,0.25,0.001,0.010045117288827897,0.007982242219150067,11.560352249145508,0.008251500534721989,0.020297946408391
486,0.25,0.001,0.010034479200839996,0.007967391293495893,11.583961334228515,0.008268352130070319,0.015731977066025138
487,0.25,0.001,0.01003053069114685,0.007872323095798493,12.094594650268554,0.00863282987171203,0.011782013229094446
488,0.25,0.001,0.010023531578481197,0.007837460562586784,12.250742340087891,0.008744284325544534,0.019239960005506873
489,0.25,0.001,0.010017859898507595,0.007910555489361286,11.809335403442383,0.008429218703384998,0.010643854038789868
490,0.25,0.001,0.010006028302013874,0.007970290146768094,11.408277206420898,0.008142953038130549,0.013737807981669903
491,0.25,0.001,0.010110675543546676,0.008077504709362984,11.393889541625976,0.008132683470111332,0.013056080555543303
492,0.25,0.001,0.009968881979584693,0.007903077267110347,11.57677101135254,0.008263219851072477,0.012971022166311741
493,0.25,0.001,0.00991798099130392,0.007908377945423126,11.261813888549804,0.00803841105535318,0.008918572682887316
494,0.25,0.001,0.009948246516287326,0.00793209157884121,11.298532867431641,0.008064620176610736,0.010730660986155272
495,0.25,0.001,0.010045848786830902,0.007971776481717825,11.6231005859375,0.0082962887836813,0.01801594067364931
496,0.25,0.001,0.010068691372871398,0.007905320916324853,12.123528060913086,0.008653481842193495,0.014512468711473048
497,0.25,0.001,0.009955614171922207,0.007860602401196957,11.740446701049805,0.008380047609600146,0.011908552842214704
498,0.25,0.001,0.010023589916527272,0.007957581281661987,11.577911796569824,0.008264034116038418,0.019187844125553966
499,0.25,0.001,0.009972808361053466,0.007876884639263153,11.745556259155274,0.00838369468890455,0.009782494511455297
500,0.25,0.001,0.009931879565119744,0.0077562244422733784,12.192372741699218,0.008702621514417714,0.011599349440075457
