epoch,beta,learning_rate,train_loss,train_reconstruction_loss,train_kl_unnormalized,train_kl_normalized,mean_unclipped_gradient_norm
1,0.0,0.001,0.04846594586968422,0.04846594586968422,17.822837257385252,0.012721511247241437,0.03711650660261512
2,0.02,0.001,0.0425361742079258,0.040140299648046496,167.83102416992188,0.11979373602421262,0.028102688025683165
3,0.04,0.001,0.03590277053415775,0.032450160458683965,120.92765838623046,0.0863152451008069,0.048545146360993385
4,0.06,0.001,0.029512457326054575,0.026052652820944787,80.78644500732422,0.05766341542278674,0.0411830497905612
5,0.08,0.001,0.02690251238644123,0.021935157775878907,86.99080139160156,0.06209193532591118,0.04716168995946646
6,0.1,0.001,0.023609348982572557,0.018533772453665734,71.10883453369141,0.0507557705451045,0.03142214426770806
7,0.12,0.001,0.021670324578881264,0.017733854204416276,45.95829246520996,0.03280392038915771,0.03127635270357132
8,0.14,0.001,0.020296054035425184,0.016886179447174073,34.12310478210449,0.0243562489522516,0.024800512939691544
9,0.16,0.001,0.019187619760632515,0.016117758825421335,26.880471649169923,0.019186632155010652,0.028429314494132996
10,0.18,0.001,0.018360932916402818,0.015022780410945416,25.98195037841797,0.01854528934933474,0.03527563950046897
11,0.2,0.001,0.017599288485944272,0.014454037733376026,22.032482299804688,0.01572625431820463,0.027619112748652697
12,0.22,0.001,0.01684278257191181,0.013459513001143932,21.545275344848633,0.015378497747929074,0.020644906675443053
13,0.24,0.001,0.01606013499200344,0.012917057052254677,18.34772201538086,0.013096161324326096,0.02088928921148181
14,0.25,0.001,0.015464462861418725,0.011985430158674718,19.4964998626709,0.013916131236738686,0.02879258245229721
15,0.25,0.001,0.015019901469349861,0.01200601927936077,16.88979732513428,0.01205552985377179,0.04560835659503937
16,0.25,0.001,0.014748119078576564,0.011523277424275875,18.07201400756836,0.012899367599977415,0.03365101618692279
17,0.25,0.001,0.014047000855207444,0.01097742035984993,17.201930694580078,0.01227832312246972,0.023433982161805034
18,0.25,0.001,0.013727455884218216,0.010608105808496476,17.48083740234375,0.012477400001672911,0.02652260335162282
19,0.25,0.001,0.013391603641211986,0.010158015936613083,18.121026306152345,0.01293435139625435,0.020196069730445743
20,0.25,0.001,0.013130707442760467,0.009567631147801877,19.967479858398438,0.014252305395002454,0.0394505993463099
21,0.25,0.001,0.012841624543070793,0.009727276228368283,17.452809791564942,0.012457394569282614,0.031995885306969285
22,0.25,0.001,0.012296302989125252,0.008755545690655708,19.842403717041016,0.014163029062841554,0.033320826943963766
23,0.25,0.001,0.012216560803353786,0.008866764903068543,18.772256622314455,0.013399183884592759,0.018934336840175092
24,0.25,0.001,0.01212801579385996,0.00919609995558858,16.430457611083984,0.011727664247740174,0.03819523798301816
25,0.25,0.001,0.011696717850863934,0.00838011858984828,18.586222686767577,0.013266397349584281,0.03501730598509312
26,0.0,0.001,0.00802530512213707,0.00802530512213707,20.19003662109375,0.014411161042893469,0.04187395330518484
27,0.02,0.001,0.0077666381374001505,0.007390257865190506,26.36543670654297,0.01881901263850319,0.0346805676817894
28,0.04,0.001,0.0075913390889763835,0.006584652755409479,35.259185791015625,0.025167156167748485,0.029018239583820105
29,0.06,0.001,0.00814921285957098,0.006336984001100063,42.315543518066406,0.030203814074280088,0.036533504258841276
30,0.08,0.001,0.008940584808588028,0.006269710548222065,46.77368896484375,0.0333859307386465,0.06324455654248595
31,0.1,0.001,0.008843486383557319,0.0059766614437103275,40.1642138671875,0.028668246871654174,0.03941847663372755
32,0.12,0.001,0.008992084115743638,0.006045640297234058,34.39972900390625,0.02455369664804158,0.021943507716059685
33,0.14,0.001,0.009142555221915245,0.0062765001878142355,28.681023025512694,0.020471822288017624,0.02859413088299334
34,0.16,0.001,0.009380579330027103,0.006684204749763012,23.61013168334961,0.01685234238640229,0.0389654329046607
35,0.18,0.001,0.009500064626336098,0.006720198281109333,21.63662483215332,0.015443700808103726,0.025987351080402732
36,0.2,0.001,0.009835118502378464,0.006805624552071094,21.221606140136718,0.015147470478327422,0.028682495467364788
37,0.22,0.001,0.00996916625648737,0.0068815178610384465,19.66270477294922,0.014034764291898087,0.022653400199487805
38,0.24,0.001,0.010390858799219131,0.006932409089058638,20.188700561523437,0.01441020739580545,0.01954850018955767
39,0.25,0.001,0.010452396310865879,0.007041734475642443,19.113349418640137,0.013642647693533289,0.021423914935439825
40,0.25,0.001,0.01004754275083542,0.007012824006378651,17.006565322875975,0.01213887603345894,0.03502004919573665
41,0.25,0.001,0.010136410631239413,0.007100292202085257,17.01440864562988,0.012144474408015618,0.032030228758230805
42,0.25,0.001,0.009998854398727417,0.00708903931081295,16.306603240966798,0.01163925998641456,0.032749836798757315
43,0.25,0.001,0.009893797934055329,0.0069215177744627,16.65665771484375,0.011889120424585117,0.03419783432036638
44,0.25,0.001,0.009850931242108346,0.006691054422408343,17.707950515747072,0.012639507862774499,0.03100789408199489
45,0.25,0.001,0.009803398177027703,0.006992339547723532,15.753170776367188,0.011244233245087215,0.03704333817586303
46,0.25,0.001,0.009762174673378468,0.0068483811244368555,16.328899574279784,0.011655174571220403,0.027256795670837164
47,0.25,0.001,0.009805269837379456,0.00674130380153656,17.170465698242186,0.012255864167196422,0.0304923877120018
48,0.25,0.001,0.009794094935059547,0.006723196990787983,17.20931182861328,0.012283591597868153,0.027697750367224216
49,0.25,0.001,0.009514049626886845,0.006525347419083119,16.748687744140625,0.011954809239215292,0.032207082491368055
50,0.25,0.001,0.00961950957775116,0.006652986798435449,16.6243936920166,0.011866091143480799,0.030798391671851277
51,0.0,0.001,0.006370874661952257,0.006370874661952257,16.92079559326172,0.012077655669708578,0.032096640672534704
52,0.02,0.001,0.006153316646814347,0.005826544165611267,22.890411987304688,0.0163386238310526,0.02855138387531042
53,0.04,0.001,0.006093988176435233,0.005253426693379879,29.44066650390625,0.021014037476021593,0.018459650920704007
54,0.06,0.001,0.00653903903439641,0.005021029356867075,35.44552307128906,0.025300159222904395,0.0212080217897892
55,0.08,0.001,0.0070936563983559605,0.00473111841827631,41.37394805908203,0.02953172595223557,0.023161777528002858
56,0.1,0.001,0.007355184331536293,0.004682549759745597,37.4436068725586,0.026726343235230977,0.021504885982722044
57,0.12,0.001,0.007587932012975216,0.004929799064993859,31.03370330810547,0.022151108713851154,0.020154281053692102
58,0.14,0.001,0.007801438681781292,0.005205299723893404,25.979934692382812,0.01854385060127253,0.033653121907263994
59,0.16,0.001,0.008034981116652488,0.005572485290467739,21.56223068237305,0.015390600058795894,0.022278344491496682
60,0.18,0.001,0.008240930214524269,0.005710726268589496,19.693422164916992,0.014056689625208417,0.017906293272972107
61,0.2,0.001,0.008512928672134877,0.005837321449071169,18.742630081176756,0.013378037174287477,0.02328859339468181
62,0.22,0.001,0.008799725472927093,0.006231750957667827,16.353330993652342,0.011672613128945283,0.031024994794279337
63,0.24,0.001,0.008991922587156295,0.006013728249818087,17.385210342407227,0.012409143713352767,0.03362096194177866
64,0.25,0.001,0.00887554071843624,0.005699115321040154,17.800687561035158,0.012705701328361997,0.02698331419378519
65,0.25,0.001,0.009109742566943168,0.006148629728704691,16.594075469970704,0.01184445072803048,0.03915067156776786
66,0.25,0.001,0.008912526965141297,0.006093382034450769,15.798487701416015,0.011276579372887948,0.019556001876480877
67,0.25,0.001,0.008908540159463883,0.0059705164283514025,16.464685287475586,0.011752095137384429,0.02306387946009636
68,0.25,0.001,0.008949029482901097,0.005863360613584518,17.29208740234375,0.012342674805384547,0.032930616987869143
69,0.25,0.001,0.009122012443840503,0.006269353330135345,15.986299934387207,0.011410635213695366,0.033083267975598574
70,0.25,0.001,0.009027120620012284,0.00635685658082366,14.964160079956054,0.010681056445364778,0.02455302677117288
71,0.25,0.001,0.009105027168989182,0.006042305212467909,17.163494644165038,0.012250888396977187,0.03597732214257121
72,0.25,0.001,0.008781668357551098,0.006038594879209995,15.372184677124023,0.010972294558975035,0.02363018225878477
73,0.25,0.001,0.009037413671612739,0.006519407071173191,14.110909042358399,0.010072026439941754,0.03788546426221728
74,0.25,0.001,0.008767767436802387,0.005752585120499134,16.897080383300782,0.012060728324982714,0.03828490525484085
75,0.25,0.001,0.008519313111901284,0.005683136247098446,15.893935470581054,0.01134470768778091,0.027329812292009592
76,0.0,0.001,0.005851011425256729,0.005851011425256729,15.394777526855469,0.01098842079004673,0.04620594345033169
77,0.02,0.001,0.0056236573122441765,0.005309812277555465,21.98483810424805,0.015692247040862275,0.026591196656227112
78,0.04,0.001,0.005627982318401337,0.004839886389672757,27.60305694580078,0.019702396106924182,0.02147527039051056
79,0.06,0.001,0.006034795194864273,0.0046295225247740745,32.813118896484376,0.023421212631323608,0.0233073600102216
80,0.08,0.001,0.0064234545826911925,0.004251999650150538,38.02760528564453,0.027143187213165262,0.018375559709966183
81,0.1,0.001,0.006806400828063488,0.004229544550180435,36.1017562866211,0.02576856265997223,0.027153002098202705
82,0.12,0.001,0.007089420519769192,0.004559873938560486,29.532457275390627,0.02107955551419745,0.019890579860657454
83,0.14,0.001,0.007152043990790844,0.004605092853307724,25.48770233154297,0.018192507017518178,0.02306998032145202
84,0.16,0.001,0.007357838898897171,0.004960458911955357,20.992058410644532,0.014983624846998238,0.02442991780117154
85,0.18,0.001,0.0075392572209239,0.005187425538897514,18.30508987426758,0.013065731530526467,0.018718058243393898
86,0.2,0.001,0.007979299500584602,0.005385166481137276,18.17190185546875,0.012970665135951999,0.01789523207116872
87,0.22,0.001,0.008135551437735557,0.00546933863312006,16.97892837524414,0.01211914944699796,0.02208639052696526
88,0.24,0.001,0.00834908127784729,0.005625692177563906,15.897784957885742,0.01134745535894771,0.03131544170901179
89,0.25,0.001,0.00840724729001522,0.005459425151348114,16.519596557617188,0.011791289477242818,0.017276850529015064
90,0.25,0.001,0.00833721000701189,0.005408603772521019,16.41191116333008,0.011714426240778071,0.017692273249849677
91,0.25,0.001,0.00822921358048916,0.0055307064950466155,15.122433280944824,0.010794028037790738,0.020356398075819016
92,0.25,0.001,0.008186054956167936,0.005726518575102091,13.783240737915039,0.009838144709432575,0.023498271591961384
93,0.25,0.001,0.008231973126530647,0.005690732374787331,14.241111907958985,0.010164962104182001,0.029321399051696062
94,0.25,0.001,0.008357274793088437,0.00573953365907073,14.669819984436035,0.010470963586321224,0.03953406400978565
95,0.25,0.001,0.008239964954555035,0.005715563576668501,14.146745262145997,0.010097605469054959,0.022391103208065033
96,0.25,0.001,0.007952069118618964,0.005502700302749872,13.72626319885254,0.009797475516668479,0.01707333675585687
97,0.25,0.001,0.008210815526545047,0.005663922782987356,14.272787170410156,0.01018757114233416,0.020734365098178387
98,0.25,0.001,0.008023268580436706,0.005313018132001162,15.188242530822754,0.01084100109266435,0.02229624451138079
99,0.25,0.001,0.007917822524905204,0.005435188487172127,13.91268123626709,0.009930536214323405,0.03139808471314609
100,0.25,0.001,0.00787918023765087,0.005370996333658696,14.055863265991212,0.010032736092784591,0.028711325488984585
101,0.25,0.001,0.007982832938432693,0.005377234723418951,14.601773452758788,0.010422393613675082,0.03705134242773056
102,0.25,0.001,0.008104336615651846,0.00565977692604065,13.699313583374023,0.00977823953131622,0.029592209728434682
103,0.25,0.001,0.008026372715830803,0.005404794067144394,14.691327514648437,0.010486315142504237,0.04227142920717597
104,0.25,0.001,0.008258067034184934,0.006043189968913794,12.412169609069824,0.008859507215610154,0.03686595102772117
105,0.25,0.001,0.008069290816783904,0.005607294980436563,13.79702335357666,0.00984798240797763,0.03262392058968544
106,0.25,0.001,0.00782105877995491,0.005047224853187799,15.544566421508788,0.011095336489299635,0.03272589575499296
107,0.25,0.001,0.007778846807777882,0.005531871635466814,12.592047576904298,0.008987899769382083,0.04069847031496465
108,0.25,0.001,0.008085399083793163,0.0056866854429244995,13.442392120361328,0.009594855189408514,0.030775845982134342
109,0.25,0.001,0.008238184992223977,0.005515049453824758,15.26045181274414,0.01089254233600581,0.049677333794534206
110,0.25,0.001,0.008159364871680737,0.006006063465029001,12.06710147857666,0.008613205909048294,0.04159201495349407
111,0.25,0.001,0.00800560463219881,0.005834326483309269,12.167841606140136,0.008685111781684608,0.03217610530555248
112,0.25,0.001,0.007845611721277236,0.0053810222819447515,13.81155906677246,0.009858357649373633,0.03126663318835199
113,0.25,0.001,0.007682967558503151,0.005444939788430929,12.541908531188964,0.00895211172818627,0.020581014454364777
114,0.25,0.001,0.007941234186291694,0.005627386551350355,12.966802215576172,0.009255390589276354,0.024681472685188055
115,0.25,0.001,0.007775138039141894,0.005068801175802946,15.166311492919922,0.010825347246909294,0.026824634987860918
116,0.25,0.001,0.007486634440720081,0.004953515250235796,14.19560073852539,0.010132477329425689,0.021723033394664526
117,0.25,0.001,0.007739702463150025,0.005464063044637441,12.75268196105957,0.009102556717387274,0.029356771614402533
118,0.25,0.001,0.007491118535399437,0.0051616661064326766,13.05425266265869,0.009317810608607202,0.022014706628397107
119,0.25,0.001,0.0076034339889884,0.005287869870662689,12.976422080993652,0.00926225701712609,0.017273883102461696
120,0.25,0.001,0.007462482750415802,0.005247763060033321,12.411288223266602,0.008858878103687797,0.02992641064338386
121,0.25,0.001,0.007449802365154028,0.005084458515048027,13.255387802124023,0.009461376018646698,0.020885452860966325
122,0.25,0.001,0.007511504087597131,0.005135867651551962,13.313066024780273,0.009502545342455584,0.02410698961466551
123,0.25,0.001,0.007447512932121754,0.005110087245702744,13.098934020996094,0.009349703084222765,0.017924973974004388
124,0.25,0.001,0.007115963771939278,0.0048306573182344435,12.806857681274414,0.009141226039453543,0.011622293619439006
125,0.25,0.001,0.007184812687337398,0.00503115776926279,12.069082450866699,0.00861461987927673,0.01484893704764545
126,0.25,0.001,0.007378846928477287,0.005195416379719973,12.235945129394532,0.008733722433543563,0.02010325889568776
127,0.25,0.001,0.007392974048852921,0.0050921768695116046,12.893666610717773,0.009203188158970574,0.02358598110731691
128,0.25,0.001,0.007241868600249291,0.0048504708521068095,13.401393814086914,0.009565591587499582,0.024213315453380346
129,0.25,0.001,0.007411785274744034,0.005104929115623236,12.927622184753417,0.009227424828517785,0.04128405242227018
130,0.25,0.001,0.007425929754972458,0.004915246721357108,14.069868621826172,0.010042732777891628,0.04056318011134863
131,0.25,0.001,0.00726473405957222,0.004902032278478146,13.240581359863281,0.009450807537375646,0.03349374677054584
132,0.25,0.001,0.007359151840209961,0.005213074758648873,12.026615524291993,0.00858430801162883,0.02590144658461213
133,0.25,0.001,0.0072705836966633795,0.004965276028960943,12.918944244384766,0.009221230724043374,0.026626086328178644
134,0.25,0.001,0.007268487066030502,0.005009397957473993,12.65993522644043,0.009036356335789029,0.023058585822582245
135,0.25,0.001,0.007246700413525105,0.0050199047662317755,12.478962020874024,0.00890718202774734,0.017813487211242318
136,0.25,0.001,0.007118718065321446,0.004795743636786937,13.017948608398438,0.009291897650534217,0.023649780778214335
137,0.25,0.001,0.007162792943418026,0.004904396403580904,12.656053962707519,0.009033585983374389,0.01762674725614488
138,0.25,0.001,0.007031172066926956,0.004949965067207813,11.66308448791504,0.00832482832827626,0.014937321306206286
139,0.25,0.001,0.007091231159865857,0.004922138154506683,12.15559715270996,0.008676371986231236,0.021343573345802724
140,0.25,0.001,0.006991328112781048,0.0048859214410185816,11.798698883056641,0.008421626611746353,0.018807594431564212
141,0.25,0.001,0.006914556883275509,0.004752399697899819,12.116729736328125,0.008648629362118576,0.02003341563977301
142,0.25,0.001,0.007067289315164089,0.004890072755515575,12.201121559143067,0.008708866209238449,0.02825132035650313
143,0.25,0.001,0.006870039775967598,0.004865998569875955,11.230646362304688,0.008016164427055451,0.02123511815443635
144,0.25,0.001,0.006965936161577702,0.0048638170771300795,11.780276184082032,0.008408476933677396,0.028613426256924868
145,0.25,0.001,0.00683629360049963,0.004692358430474997,12.014612236022948,0.008575740354049214,0.02509787038434297
146,0.25,0.001,0.006976202074438334,0.004915785621851683,11.546573715209961,0.008241665749614532,0.03151035821065307
147,0.25,0.001,0.006966440752148628,0.004797973968088627,12.152088851928712,0.008673867845773528,0.025916062528267503
148,0.25,0.001,0.007084268368780613,0.005106212217360735,11.085026168823243,0.007912224246126512,0.027630250435322523
149,0.25,0.001,0.007044773921370507,0.005033193919807673,11.272894859313965,0.008046320384949297,0.029298154171556234
150,0.25,0.001,0.00674538791179657,0.004591434057801962,12.070757141113281,0.008615815232771792,0.013795883976854384
151,0.25,0.001,0.006883412189781665,0.0046568336524069305,12.477746124267577,0.008906314150083925,0.027751906076446176
152,0.25,0.001,0.006828876938670874,0.004676842987537384,12.059997787475586,0.008608135465721332,0.019737666007131338
153,0.25,0.001,0.006635961327701807,0.0045892315171658996,11.469874649047851,0.008186919806600893,0.013857904588803649
154,0.25,0.001,0.006823598071932792,0.0048484477400779725,11.06874267578125,0.007900601481642577,0.017255422193557024
155,0.25,0.001,0.006747456677258015,0.004636017996817827,11.832501907348632,0.008445754394966904,0.014207316329702735
156,0.25,0.001,0.006708162296563387,0.004561681766062975,12.028876914978028,0.008585922137743061,0.0158888828009367
157,0.25,0.001,0.006661613266915083,0.00458055229857564,11.662266082763672,0.00832424417042375,0.0181532958522439
158,0.25,0.001,0.006709742397069931,0.00464662542566657,11.561708068847656,0.008252468286115386,0.014998627360910177
159,0.25,0.001,0.006783400513231754,0.004703069813549518,11.658173332214355,0.00832132286382181,0.02459245710633695
160,0.25,0.001,0.006733392886817455,0.004561427813023329,12.171691780090333,0.008687859942962407,0.021334180841222405
161,0.25,0.001,0.006541360467672348,0.004415635541081428,11.912561645507813,0.008502899104573742,0.020067123463377357
162,0.25,0.001,0.006763711944222451,0.004784271046519279,11.092788009643554,0.007917764460844792,0.02235381817445159
163,0.25,0.001,0.006666156947612762,0.004701352920383215,11.010762100219727,0.00785921634562436,0.021448264364153147
164,0.25,0.001,0.0065809586644172665,0.004561839196830988,11.315146217346191,0.008076478384972299,0.022761359810829163
165,0.25,0.001,0.006554822307080031,0.0045586079731583596,11.186785163879394,0.007984857361798282,0.014118292951025069
166,0.25,0.001,0.006563803553581238,0.004600091241300106,11.004643936157226,0.007854849347721075,0.020739099476486444
167,0.25,0.001,0.006663344576954841,0.0047091196104884145,10.951476974487305,0.007816900053167241,0.02256909105926752
168,0.25,0.001,0.006503785103559494,0.004468628913164139,11.405015182495116,0.00814062468415069,0.016303620534017682
169,0.25,0.001,0.006637937761843205,0.004512661062180996,11.910050582885741,0.008501106768655061,0.01333495625294745
170,0.25,0.001,0.006547611728310585,0.004454432073980569,11.730180282592773,0.008372719687789274,0.023021201137453318
171,0.25,0.001,0.006478241086006165,0.004436402153223753,11.442465782165527,0.008167356018676322,0.01878743967972696
172,0.25,0.001,0.006599196717143058,0.004663829393684864,10.845798721313477,0.007741469465605623,0.016628535697236657
173,0.25,0.001,0.006527549177408218,0.004548228718340397,11.092112197875977,0.007917282082709478,0.017697773873806
174,0.25,0.001,0.006595377009361982,0.004512533592060208,11.672254333496094,0.008331373542823765,0.024400583934038877
175,0.25,0.001,0.006552228834480047,0.004662751201540232,10.588632583618164,0.007557910480812394,0.026515907375141978
176,0.25,0.001,0.006450617704540491,0.004496151078492403,10.952831192016601,0.00781786666096831,0.02212268440052867
177,0.25,0.001,0.0063644410297274585,0.004293691664934159,11.604479789733887,0.008282997708589498,0.020825198385864496
178,0.25,0.001,0.006625223234295845,0.004696700237691403,10.807443237304687,0.007714092246470155,0.023913292214274406
179,0.25,0.001,0.00632695784792304,0.004290194306522607,11.414023246765137,0.008147054423101454,0.022358280140906572
180,0.25,0.001,0.006385646052658558,0.004329552799463272,11.522345924377442,0.008224372537028866,0.02039099601097405
181,0.25,0.001,0.0062858273833990095,0.004447636399418115,10.301222152709961,0.007352763849186268,0.02195386216044426
182,0.25,0.001,0.0063951857015490535,0.0045308730937540535,10.447608413696289,0.007457250830618336,0.025841683614999056
183,0.25,0.001,0.006385143212974072,0.004482978023588657,10.659733772277832,0.007608660793917082,0.016732992371544242
184,0.25,0.001,0.006267524249851704,0.004393093213438988,10.50431137084961,0.007497724033440121,0.01712931296788156
185,0.25,0.001,0.0062396363541483875,0.004260709937661886,11.08990322113037,0.007915705368401407,0.019915615441277623
186,0.25,0.001,0.006388833113014698,0.004483621716499329,10.67680419921875,0.007620845252832798,0.024937639478594065
187,0.25,0.001,0.00627105025574565,0.0043984860926866536,10.493849945068359,0.007490256920105895,0.01719711278565228
188,0.25,0.001,0.00627759400755167,0.004267299976199865,11.265687942504883,0.008041176261602343,0.02346289111301303
189,0.25,0.001,0.006296987533569336,0.004383536204695702,10.722982521057128,0.007653806224880177,0.018840917386114597
190,0.25,0.001,0.006373151820152998,0.004529498238116503,10.331835174560547,0.007374614685624945,0.020400837529450655
191,0.25,0.001,0.006220209822058678,0.004299179743975401,10.765451965332032,0.007684119889601736,0.015818073181435466
192,0.25,0.001,0.0061248172447085384,0.004202392045408487,10.77327075958252,0.007689700756304439,0.016590215265750885
193,0.25,0.001,0.0062357809208333495,0.004359408896416426,10.515188369750977,0.007505487772841525,0.01988458912819624
194,0.25,0.001,0.0062057309225201605,0.00438029682263732,10.229732894897461,0.007301736541682699,0.023130540270358324
195,0.25,0.001,0.006219304613769055,0.004418118838220835,10.093845329284669,0.007204743275720678,0.020092538557946682
196,0.25,0.001,0.0062672488391399385,0.004370990227907896,10.626632919311524,0.007585034203648483,0.019828349584713578
197,0.25,0.001,0.006204572431743145,0.004272575303912163,10.82691261291504,0.0077279890170699785,0.01252552354708314
198,0.25,0.001,0.00634593017399311,0.004354318967089057,11.160989761352539,0.00796644522580481,0.021342262625694275
199,0.25,0.001,0.006167128272354602,0.004131415374577046,11.408134841918946,0.008142851421783687,0.022958673536777496
200,0.25,0.001,0.006193506196141243,0.0043706633150577545,10.215212097167969,0.007291371946586702,0.025342009030282497
201,0.25,0.001,0.0062934870645403864,0.004497007410973311,10.067471618652343,0.007185918357353564,0.023831950966268778
202,0.25,0.001,0.00632058747112751,0.0043511221930384635,11.03688289642334,0.007877860739773975,0.026144064497202635
203,0.25,0.001,0.006225465424358844,0.0043130222335457805,10.717331924438476,0.007649772965337955,0.016726566944271326
204,0.25,0.001,0.006189113035798072,0.004245740938931704,10.89065788269043,0.007773488852741206,0.0215569322463125
205,0.25,0.001,0.006401091720908881,0.004306545369327068,11.737837600708009,0.008378185296722348,0.029938453808426857
206,0.25,0.001,0.006181984506547451,0.0041625011339783665,11.31718463897705,0.008077933361154211,0.017107938416302204
207,0.25,0.001,0.006264181490987539,0.004301172364503145,11.000703353881836,0.00785203665516191,0.015029003145173192
208,0.25,0.001,0.006106858104467392,0.00413436976261437,11.053823738098144,0.007889952703853065,0.01266594440676272
209,0.25,0.001,0.006178492978215218,0.00433350651524961,10.339304428100586,0.007379946058601418,0.011696009198203683
210,0.25,0.001,0.006134292297065258,0.004375825058668852,9.854451065063477,0.0070338694254557296,0.019584087887778878
211,0.25,0.001,0.00615492608398199,0.004295272808521986,10.421498184204102,0.007438613978732407,0.016837009927257895
212,0.25,0.001,0.006103131715208292,0.004193846229463815,10.699636077880859,0.007637142096988479,0.011880976846441627
213,0.25,0.001,0.006020028442144394,0.0041628100350499155,10.40785228729248,0.007428873866732677,0.012492562527768314
214,0.25,0.001,0.006015151105821133,0.004200353864580393,10.170123825073242,0.00725918902574821,0.018871410517022014
215,0.25,0.001,0.005972374863922596,0.0041681952029466625,10.110622634887696,0.007216718511697142,0.013243073830381036
216,0.25,0.001,0.006086127422749996,0.004309261739253997,9.957555694580078,0.007107463022541098,0.016185368411242962
217,0.25,0.001,0.005984200313687325,0.004076722525060177,10.689504776000977,0.007629910618130604,0.019611716270446777
218,0.25,0.001,0.006051072850823402,0.00416224218904972,10.585006713867188,0.007555322422460519,0.01713052368722856
219,0.25,0.001,0.005956060569733381,0.004142012791708112,10.165923309326171,0.007256190798948016,0.013363804202526808
220,0.25,0.001,0.006006676759570837,0.004224643297493458,9.986515121459961,0.007128133562783698,0.012112482567317784
221,0.25,0.001,0.0060320599749684334,0.0042637556884437796,9.909577674865723,0.007073217469568681,0.012260779971256852
222,0.25,0.001,0.005879695992916822,0.004069152604788542,10.146284790039063,0.007242173297672422,0.019706497434526682
223,0.25,0.001,0.005925034750252962,0.004116420373320579,10.135475616455079,0.007234457970346237,0.01868990482762456
224,0.25,0.001,0.005958992727100849,0.004188793282955885,9.92019775390625,0.007080797825771769,0.02479258691892028
225,0.25,0.001,0.005977336801588535,0.004111604690551758,10.455562591552734,0.007462928330872759,0.015774932922795415
226,0.25,0.001,0.005883535165339709,0.003993188729509711,10.593502044677734,0.007561386184637926,0.012563938274979591
227,0.25,0.001,0.005980944912880659,0.00418745081871748,10.050741806030274,0.0071739770207211095,0.020221982384100556
228,0.25,0.001,0.005993259456008673,0.004091004990041256,10.660234298706055,0.007609018057606035,0.019112626323476434
229,0.25,0.001,0.0058885330334305765,0.004006284726783633,10.548120498657227,0.007528993931946629,0.014190537855029106
230,0.25,0.001,0.005983182471245527,0.004185200985521078,10.075888595581056,0.007191926192420453,0.015572425676509738
231,0.25,0.001,0.005916229505091905,0.004104128442704678,10.155014457702636,0.007248404323841996,0.012465176172554493
232,0.25,0.001,0.005896324962377548,0.004087370093911886,10.137382011413575,0.0072358187090746425,0.009248744114302099
233,0.25,0.001,0.005910084377974272,0.004106819536536932,10.105495948791503,0.007213059206846183,0.012963661458343267
234,0.25,0.001,0.005942188799381256,0.0040856127068400385,10.404252395629882,0.007426304350913549,0.017552302917465568
235,0.25,0.001,0.00589196402579546,0.004020387288182974,10.48831630706787,0.00748630714280362,0.013729892205446959
236,0.25,0.001,0.005832473821938038,0.003999962285161018,10.269394645690918,0.0073300461425345595,0.009746218449436128
237,0.25,0.001,0.005904280636459589,0.0040807189047336575,10.219239883422851,0.007294246883242578,0.01424880581907928
238,0.25,0.001,0.005965265538543462,0.004158193860203028,10.126830673217773,0.007228287418428104,0.01807990251109004
239,0.25,0.001,0.005892616286873817,0.004071297645568847,10.206669921875,0.007285274747947894,0.01990489079616964
240,0.25,0.001,0.005877434350550175,0.00410960853099823,9.90689682006836,0.00707130394009162,0.01875226851552725
241,0.25,0.001,0.005820030812174082,0.004015390807762742,10.113202667236328,0.007218560076542703,0.013220213586464524
242,0.25,0.001,0.005892016589641571,0.0041177644580602645,9.942908706665039,0.007097008355935074,0.016532956389710307
243,0.25,0.001,0.0059790053404867646,0.0042564114741981025,9.653417053222656,0.006890376197874843,0.017870342708192766
244,0.25,0.001,0.005728780906647444,0.003912885375320911,10.176278457641601,0.00726358205399115,0.015182231087237597
245,0.25,0.001,0.0059131022728979585,0.004082104247063398,10.260913009643554,0.007323992155348718,0.023817552253603935
246,0.25,0.001,0.005907881259918213,0.0041640749573707584,9.772290802001953,0.006975225411850073,0.021974764065817
247,0.25,0.001,0.005903879161924124,0.004098191056400537,10.119075965881347,0.00722275229541852,0.015150448540225625
248,0.25,0.001,0.005827671997249127,0.004011509176343679,10.177776107788086,0.0072646510405339655,0.015966577688232064
249,0.25,0.001,0.005949714630842209,0.004233919437974691,9.615316848754883,0.006863181191116976,0.029268378857523203
250,0.25,0.001,0.00584124032407999,0.004123692791908979,9.625136795043945,0.0068701904318657706,0.02212246274575591
251,0.25,0.001,0.00584618728607893,0.0041273336112499235,9.632456512451173,0.006875415069558296,0.01931658759713173
252,0.25,0.001,0.005902565345168114,0.004133960446342826,9.911261825561523,0.007074419575704156,0.018677082611247897
253,0.25,0.001,0.005861873738467693,0.003976857969537378,10.563628921508789,0.0075400634700276865,0.016094883205369115
254,0.25,0.001,0.005830167308449746,0.004030673485249281,10.084363784790039,0.007197975578008593,0.014663984766229987
255,0.25,0.001,0.0057229877822101115,0.00393061543814838,10.044454727172852,0.007169489455512385,0.01078054413665086
256,0.25,0.001,0.005807279162108898,0.004044173322618008,9.880445404052734,0.007052423557496599,0.012571895495057106
257,0.25,0.001,0.005962419956922531,0.00423186894506216,9.69800765991211,0.00692220389715354,0.011844939785078168
258,0.25,0.001,0.005841656997799874,0.004059705473482608,9.98605655670166,0.007127806250322384,0.013799337320961058
259,0.25,0.001,0.005872810520231724,0.004074104931205511,10.079946136474609,0.007194822367219564,0.013390741078183055
260,0.25,0.001,0.005806237570941448,0.0040803422592580315,9.671918182373046,0.006903581857511097,0.014149828813970089
261,0.25,0.001,0.005777756255120039,0.003982122186571359,10.062733688354491,0.007182536537012485,0.013855602592229843
262,0.25,0.001,0.00576835248619318,0.003945847619324923,10.213316879272462,0.007290019185776204,0.01982504385523498
263,0.25,0.001,0.005922993682324886,0.004185641705989837,9.736119918823242,0.006949407508082257,0.024037893395870924
264,0.25,0.001,0.00573749965056777,0.003993001952767372,9.776165008544922,0.006977990727012792,0.014202639227733016
265,0.25,0.001,0.005781631655991077,0.004041244788095355,9.753128051757812,0.006961547503039124,0.018937099492177367
266,0.25,0.001,0.005932129956781864,0.004248568136245012,9.434681091308594,0.0067342477454022795,0.025393304880708456
267,0.25,0.001,0.0058566519059240815,0.004064507950097322,10.04317569732666,0.007168576514865567,0.02061245241202414
268,0.25,0.001,0.005752767920494079,0.003917503841221332,10.284819602966309,0.007341056104901006,0.01870652544312179
269,0.25,0.001,0.005783926025032997,0.004088521962985397,9.501044387817382,0.006781616265394277,0.017604155465960503
270,0.25,0.001,0.005873905550688505,0.004167109038680792,9.564888229370117,0.006827186459222068,0.02228618459776044
271,0.25,0.001,0.005815041027963161,0.0040265248529613015,10.022844848632813,0.007154064845562322,0.016221808968111873
272,0.25,0.001,0.005801597684621811,0.004052266236394644,9.803253517150878,0.0069973258509285355,0.018095740117132664
273,0.25,0.001,0.005798059031367302,0.004051876962184906,9.785605087280274,0.006984728827466292,0.024003174854442477
274,0.25,0.001,0.005758947469294071,0.004006354045122862,9.821533126831055,0.007010373395311245,0.027244988828897476
275,0.25,0.001,0.005724708437919617,0.0041147649474442,9.022123317718506,0.006439773959827627,0.02123021800071001
276,0.25,0.001,0.005673213861882687,0.003992458190768957,9.41895420074463,0.006723022270338779,0.013782801805064082
277,0.25,0.001,0.005628163702785969,0.0038480502739548683,9.975755920410156,0.007120453904646793,0.014596104621887207
278,0.25,0.001,0.005830323491245508,0.004089596327394247,9.755035705566407,0.006962909140304359,0.02164949057623744
279,0.25,0.001,0.005649466216564179,0.0037993223313242197,10.368207550048828,0.0074005764097422036,0.0177093738457188
280,0.25,0.001,0.0056312866695225235,0.003860438745468855,9.923831176757812,0.007083391275344619,0.015003005042672157
281,0.25,0.001,0.005670334286987782,0.0039678911305963994,9.540491256713867,0.006809772488732239,0.01995562226511538
282,0.25,0.001,0.005868040546774864,0.004143923092633486,9.661954154968262,0.006896469775137946,0.02231716038659215
283,0.25,0.001,0.0056836060620844365,0.0038934517838060856,10.032024383544922,0.007160616976120572,0.011926741222850978
284,0.25,0.001,0.005745628569275141,0.0038829598017036913,10.438395614624023,0.007450674956905084,0.013578201178461313
285,0.25,0.001,0.0057517229393124585,0.003916679061949253,10.283585357666016,0.007340175130382595,0.013641356257721782
286,0.25,0.001,0.005726310592144727,0.003964154087007046,9.87512451171875,0.007048625632918451,0.010930616641417146
287,0.25,0.001,0.0056487246789038185,0.0038554545678198336,10.049486122131349,0.007173080743848215,0.014361191308125854
288,0.25,0.001,0.0057966186851263046,0.004020526576787233,9.953219985961914,0.00710436829833113,0.01599920983426273
289,0.25,0.001,0.005694996733218431,0.0038830707035958766,10.154034118652344,0.007247704581479189,0.00970182940363884
290,0.25,0.001,0.005704387333244085,0.00388778131455183,10.180260200500488,0.00726642412598179,0.01460748550016433
291,0.25,0.001,0.005635977275669574,0.003870740570127964,9.89238681793213,0.0070609470506296425,0.007551079615950584
292,0.25,0.001,0.005637417547404766,0.003903413638472557,9.7173583984375,0.006936015987464312,0.011450847960077226
293,0.25,0.001,0.005639499500393868,0.003923318088054657,9.617481155395508,0.006864726020981805,0.01609005476348102
294,0.25,0.001,0.00572776971384883,0.003974189609289169,9.827063217163087,0.007014320640373366,0.02081619738601148
295,0.25,0.001,0.005706255473196507,0.003897850513458252,10.13430191040039,0.007233620207280793,0.01200133585371077
296,0.25,0.001,0.005726767536252737,0.003913648780435324,10.160716934204101,0.007252474613992935,0.014214059570804238
297,0.25,0.001,0.00557711960747838,0.0038374231290072202,9.749259719848633,0.006958786381048274,0.01421540486626327
298,0.25,0.001,0.005636053625494242,0.003919463632628322,9.6197700881958,0.0068663598059927194,0.015092156594619155
299,0.25,0.001,0.005637900419533253,0.003920208681374788,9.625944938659668,0.0068707672652817044,0.015439309761859477
300,0.25,0.001,0.005628959815949202,0.003957338854670525,9.367763977050782,0.006686483923662228,0.014484848827123642
301,0.25,0.001,0.005656245481222868,0.00401420658454299,9.201986618041992,0.006568156044284078,0.016364368610084057
302,0.25,0.001,0.005658080782741309,0.0039031625539064406,9.834562530517578,0.007019673469320184,0.01130769937299192
303,0.25,0.001,0.005590295493602753,0.003765986282378435,10.223429183959961,0.007297237104896475,0.010399879305623472
304,0.25,0.001,0.0056331030651927,0.0038342860247939825,10.080571479797364,0.007195268722196548,0.011004558997228742
305,0.25,0.001,0.0056064286641776566,0.0038655701745301486,9.755770874023437,0.006963433885812589,0.01317765167914331
306,0.25,0.001,0.0055421430617570875,0.0038109153136610986,9.70180061340332,0.006924911215848194,0.009822948020882905
307,0.25,0.001,0.005642835926264525,0.0038435471523553134,10.083214569091798,0.007197155295568735,0.0127976443618536
308,0.25,0.001,0.005567284729331732,0.003780176267027855,10.014955673217774,0.007148433742482351,0.01190281193703413
309,0.25,0.001,0.005617623198777438,0.003912385441362858,9.556152267456055,0.0068209509403683475,0.01128190360032022
310,0.25,0.001,0.005628411434590816,0.003912700433284044,9.61484519958496,0.0068628445393183165,0.011320304009132087
311,0.25,0.001,0.005626098662614823,0.0038924639206379653,9.71528907775879,0.006934538956287502,0.010996043449267745
312,0.25,0.001,0.005557293333113194,0.0037862695939838886,9.924816856384277,0.007084094829681854,0.01098786131478846
313,0.25,0.001,0.005612614788115025,0.003830452896654606,9.987235794067383,0.007128647961504199,0.011651223292574286
314,0.25,0.001,0.005512372516095638,0.003778874296694994,9.714523620605469,0.006933992591438593,0.009254219010472298
315,0.25,0.001,0.005572914611548185,0.0038288364000618456,9.773814163208009,0.006976312750326915,0.01303712697699666
316,0.25,0.001,0.005618155747652054,0.0038743370957672594,9.772359848022461,0.0069752746952337335,0.015067576430737972
317,0.25,0.001,0.005551611389964819,0.003749138154089451,10.101059951782226,0.00720989289920216,0.013890496222302318
318,0.25,0.001,0.005472741201519966,0.003723248951137066,9.804155235290528,0.006997969475582105,0.013405827572569251
319,0.25,0.001,0.005610332824289799,0.003937930129468441,9.372145195007324,0.006689611131339988,0.018216144992038608
320,0.25,0.001,0.005517958328127861,0.0037116079404950143,10.122787322998047,0.007225401372589612,0.01443082862533629
321,0.25,0.001,0.0055991350673139095,0.003777712360024452,10.20725212097168,0.007285690307617187,0.011157871806062758
322,0.25,0.001,0.005536677893251181,0.0038349362183362247,9.536560974121095,0.00680696714783804,0.012855421751737595
323,0.25,0.001,0.005548363998532296,0.003875825181603432,9.372908020019532,0.006690155617430073,0.013361794408410788
324,0.25,0.001,0.005621356703341007,0.003906219769269228,9.611627960205078,0.006860548151466865,0.014896294102072716
325,0.25,0.001,0.005502548739314079,0.003757696449756622,9.778152618408203,0.006979409434980873,0.016054902458563447
326,0.25,0.001,0.005545766688883304,0.0038329797610640527,9.59845790863037,0.006851147686388559,0.012348587391898036
327,0.25,0.001,0.005541016384959221,0.003819314632564783,9.648417282104493,0.0068868074818733,0.011709384387359023
328,0.25,0.001,0.005549489799886942,0.0038061975035816433,9.76940933227539,0.0069731686882765105,0.01228879822883755
329,0.25,0.001,0.005578513331711292,0.003883079327642918,9.501211967468262,0.0067817358797061114,0.008687559864483774
330,0.25,0.001,0.005600177887827158,0.00394908444955945,9.252727966308594,0.00660437399451006,0.013241337379440665
331,0.25,0.001,0.005484126023948193,0.0037691785767674448,9.610565681457519,0.0068597899225249954,0.013926974032074213
332,0.25,0.001,0.0054300853982567785,0.003648516982793808,9.983909530639648,0.007126273754917665,0.01058428327087313
333,0.25,0.001,0.00551048468798399,0.0037723818607628347,9.740328598022462,0.006952411561757646,0.014722711290232837
334,0.25,0.001,0.005529596488922834,0.0038696453906595708,9.302366561889649,0.006639804826473697,0.016584048280492425
335,0.25,0.001,0.005489965174347162,0.0037819259613752366,9.571850624084473,0.006832156048597054,0.01620336447376758
336,0.25,0.001,0.005548548214137554,0.0038216519355773926,9.677526550292969,0.006907584975226959,0.018182358355261385
337,0.25,0.001,0.005546765737235546,0.0038265561312437056,9.640054473876953,0.006880838311118453,0.018840211909264326
338,0.25,0.001,0.005672368090599776,0.003957596719264984,9.609579010009766,0.0068590856602496544,0.018095818115398288
339,0.25,0.001,0.005492173414677381,0.003702276945114136,10.030580101013184,0.007159586082093636,0.012991219060495496
340,0.25,0.001,0.005560618005692959,0.0038080252055078746,9.821529846191407,0.007010371053669812,0.019503265619277954
341,0.25,0.001,0.00553579542785883,0.0038166494108736516,9.634094734191894,0.0068765843927137,0.012851200997829437
342,0.25,0.001,0.005561454873532057,0.0038324902113527058,9.689117736816407,0.006915858484522774,0.010150862275622785
343,0.25,0.001,0.0055442903935909275,0.0038557087816298006,9.462812118530273,0.006754326993954513,0.01074234931729734
344,0.25,0.001,0.005526309795677662,0.0038137541897594928,9.59716121673584,0.006850222138997744,0.010754907154478133
345,0.25,0.001,0.005481509603559971,0.003680369695648551,10.09358757019043,0.007204559293497809,0.009100713999941945
346,0.25,0.001,0.0055550806596875195,0.00377908730879426,9.952666854858398,0.007103973486694074,0.011880789184942842
347,0.25,0.001,0.005555725563317538,0.0038531175069510936,9.541415710449218,0.00681043234150551,0.011640037642791867
348,0.25,0.001,0.005512861236929893,0.003793908301740885,9.633012313842773,0.006875811787182565,0.016633646097034216
349,0.25,0.001,0.005528313610702753,0.003824617052450776,9.547515411376953,0.0068147861608686315,0.015257570426911116
350,0.25,0.001,0.0055648542195558546,0.0037596047669649123,10.116618194580077,0.0072209979975589415,0.01426989445462823
351,0.25,0.001,0.005508426483720541,0.00368709534406662,10.206738967895507,0.007285324031331554,0.016308855963870883
352,0.25,0.001,0.005579244941473007,0.003899116786196828,9.415438537597657,0.0067205128748020395,0.014572600135579705
353,0.25,0.001,0.005542747061699629,0.003813607022166252,9.690100631713868,0.006916560051187629,0.018877597292885184
354,0.25,0.001,0.005555754546076059,0.003835811819881201,9.638559341430664,0.006879771121649296,0.017719761934131384
355,0.25,0.001,0.005509780999273062,0.0037868932820856573,9.655062789916991,0.006891550885022834,0.01040208456106484
356,0.25,0.001,0.005466765761375427,0.0037600244395434856,9.564579010009766,0.006826965745902759,0.014902837574481964
357,0.25,0.001,0.00549668999388814,0.003808427657932043,9.461021614074706,0.006753048975071168,0.017936927964910865
358,0.25,0.001,0.005530160944908857,0.003781735301017761,9.798177185058593,0.006993702487550745,0.014881901792250574
359,0.25,0.001,0.005522553380578756,0.003799548540264368,9.655719108581543,0.006892019349451494,0.01540216221474111
360,0.25,0.001,0.005432198848575353,0.0037236090656369925,9.574937286376953,0.00683435923367377,0.01640880899503827
361,0.25,0.001,0.00544962514191866,0.0038201984390616416,9.131307106018067,0.00651770671378877,0.02004320384003222
362,0.25,0.001,0.005540428701788187,0.003919777497649193,9.082130279541015,0.006482605481471103,0.028684369288384914
363,0.25,0.001,0.005467501189559698,0.0037350278347730637,9.70878101348877,0.006929893657022676,0.022514738142490387
364,0.25,0.001,0.005426214188337326,0.0037693493533879517,9.285069885253906,0.00662745887598423,0.015278920065611601
365,0.25,0.001,0.005384633801877498,0.003719209283590317,9.333038673400878,0.006661697839686565,0.014208127977326512
366,0.25,0.001,0.0055215033702552315,0.0037714428920298817,9.807338333129882,0.007000241494025612,0.01579000917263329
367,0.25,0.001,0.005546658169478178,0.003768848776817322,9.962844352722168,0.007111237939130741,0.009198349434882402
368,0.25,0.001,0.005467350780963898,0.0037341461330652236,9.712879333496094,0.006932818938969375,0.0109357739565894
369,0.25,0.001,0.005309362225234509,0.0036085519753396513,9.531340484619141,0.006803240888379116,0.011828748683910817
370,0.25,0.001,0.005456553306430578,0.0037960013933479786,9.305732536315919,0.006642207377812933,0.014013864332810044
371,0.25,0.001,0.005440119057893753,0.003786391895264387,9.267487640380859,0.006614909093776487,0.010317187057808042
372,0.25,0.001,0.005444151610136032,0.0037535148113965987,9.474328498840332,0.006762547108379966,0.014822303899563849
373,0.25,0.001,0.005493197552859783,0.0037763072177767754,9.621453475952148,0.00686756136756042,0.012179605662822723
374,0.25,0.001,0.005450629144906998,0.00366403941065073,10.012049102783203,0.007146359102628981,0.014096582774072886
375,0.25,0.001,0.0054783690348267555,0.0037248477060347796,9.826733551025391,0.007014085332637681,0.012958530918695033
376,0.25,0.001,0.005385378785431385,0.0037594533897936343,9.11168586730957,0.006503701546973283,0.01226770575158298
377,0.25,0.001,0.005416463706642389,0.0037995122000575067,9.061396484375,0.006467806198697359,0.017255893326364458
378,0.25,0.001,0.005436208415776491,0.0036884548887610434,9.794410171508789,0.006991013684160449,0.015872792806476355
379,0.25,0.001,0.005575200170278549,0.003796652927994728,9.966978988647462,0.007114189142503542,0.013982845237478614
380,0.25,0.001,0.005513051450252533,0.0037377176620066164,9.948971099853516,0.007101335545933987,0.00899876980111003
381,0.25,0.001,0.005563337150961161,0.0038131454400718214,9.808075523376464,0.007000767682638447,0.013805922819301486
382,0.25,0.001,0.005434568151831627,0.003773094927892089,9.31089515686035,0.006645892331806103,0.01215047191362828
383,0.25,0.001,0.005358598511666059,0.0036651600524783136,9.490028686523438,0.006773753523571333,0.012225031852722168
384,0.25,0.001,0.00544014248996973,0.003716177809983492,9.661097564697265,0.006895858361668283,0.016403705114498734
385,0.25,0.001,0.005483294986188412,0.00384287403896451,9.192919235229493,0.006561683965188789,0.014862538548186421
386,0.25,0.001,0.005502517968416214,0.0038241320848464966,9.405675315856934,0.006713544122667333,0.01196405931841582
387,0.25,0.001,0.005571698565036059,0.003756728656589985,10.171091499328613,0.0072598797282859475,0.013765831477940083
388,0.25,0.001,0.0055482819676399234,0.0036958710849285125,10.380910491943359,0.007409643463200113,0.010361090302467346
389,0.25,0.001,0.005437104478478432,0.003694765083491802,9.76407096862793,0.0069693582930963095,0.012876482913270593
390,0.25,0.001,0.005537074115127325,0.003882640665397048,9.271444931030274,0.006617733712369931,0.01739368517883122
391,0.25,0.001,0.005504949577152729,0.0037714096158742907,9.714758377075196,0.0069341601549430375,0.016568610910326242
392,0.25,0.001,0.0055181383155286316,0.003763263709843159,9.834317398071288,0.007019498499693996,0.017195731168612838
393,0.25,0.001,0.005422578323632478,0.0037000087555497884,9.653280487060547,0.006890278720243074,0.011215825681574643
394,0.25,0.001,0.005421135686337948,0.0037214492447674276,9.525042648315429,0.00679874564476476,0.013207855285145342
395,0.25,0.001,0.005388884749263525,0.0036928574834018944,9.50453727722168,0.006784109405582926,0.013020775746554136
396,0.25,0.001,0.005409336611628532,0.0036828227527439593,9.675384254455567,0.006906055856142446,0.011728322017006576
397,0.25,0.001,0.005434974953532219,0.003761779051274061,9.376589431762696,0.006692783320315985,0.010919478721916676
398,0.25,0.001,0.0053804564476013185,0.0037037207931280135,9.396426162719727,0.006706942300299591,0.012002600356936455
399,0.25,0.001,0.005394767038524151,0.003645144701004028,9.804883155822754,0.006998489047696469,0.010286455159075558
400,0.25,0.001,0.005390266701579094,0.003623291263356805,9.902130432128907,0.0070679018073725244,0.01217542658559978
401,0.25,0.001,0.00547179626300931,0.0037859592773020266,9.447430877685546,0.006743348235321589,0.011262111365795135
402,0.25,0.001,0.0054243715107440945,0.003732504406943917,9.481223220825195,0.0067674683945932864,0.01223823253531009
403,0.25,0.001,0.005405134931206704,0.0036976849287748336,9.568550300598144,0.006829800357314878,0.01208021235652268
404,0.25,0.001,0.005416307933628559,0.0037319291569292545,9.439259185791016,0.0067375154787944445,0.013258454389870167
405,0.25,0.001,0.0054132573306560515,0.003658039793372154,9.836239738464355,0.007020870619888904,0.014837812865152955
406,0.25,0.001,0.005400497578084469,0.0036873612739145756,9.600415573120117,0.006852545020071461,0.013354873051866889
407,0.25,0.001,0.0054643284156918525,0.0038610043935477733,8.985027503967284,0.00641329586293168,0.016962613677605987
408,0.25,0.001,0.005445826146751642,0.0037882324680686,9.289154510498047,0.006630374382939363,0.015094188624061644
409,0.25,0.001,0.005415133144706488,0.003691299669444561,9.66036247253418,0.006895333670616831,0.013601875747554004
410,0.25,0.001,0.005422525629401207,0.003702779468148947,9.637457618713379,0.006878984738553447,0.013038211036473513
411,0.25,0.001,0.005480315275490284,0.0036986920982599258,9.984216270446778,0.007126492698391705,0.01448862673714757
412,0.25,0.001,0.0054826846346259115,0.0036793494131416083,10.105891189575196,0.007213341320182153,0.012822902761399746
413,0.25,0.001,0.005481546521186828,0.003591534737497568,10.591626586914062,0.007560047528132807,0.015522506553679705
414,0.25,0.001,0.005432596020400524,0.0036584633123129605,9.94223991394043,0.00709653098782329,0.01455080765299499
415,0.25,0.001,0.005473406054079533,0.00372418743558228,9.80262134552002,0.006996874622069964,0.015127655118703842
416,0.25,0.001,0.005522264707833529,0.0037915110401809215,9.699143562316895,0.006923014676885721,0.015390727203339338
417,0.25,0.001,0.005546778626739979,0.0038105769641697406,9.729674530029296,0.0069448069450601686,0.015111051267012954
418,0.25,0.001,0.005541784837841988,0.003787471018731594,9.831175270080566,0.007017255724540018,0.01726700598374009
419,0.25,0.001,0.00549262635409832,0.0037644375022500755,9.684771194458008,0.006912756027450399,0.018196328193880618
420,0.25,0.001,0.005545913092792034,0.003802880011498928,9.767957267761231,0.006972132239658266,0.01539163920097053
421,0.25,0.001,0.0053443068638443945,0.003608197495341301,9.729156608581542,0.0069444372652259405,0.015477304812520742
422,0.25,0.001,0.00543077114969492,0.0037251637876033784,9.558223724365234,0.0068224294963349285,0.015265306225046515
423,0.25,0.001,0.005539070907980203,0.0037628853134810923,9.953743782043457,0.007104742171337228,0.024163507856428623
424,0.25,0.001,0.005448744557797909,0.0036360337026417255,10.15843204498291,0.007250843715191227,0.012193746166303754
425,0.25,0.001,0.005397464297711849,0.0036688853055238725,9.686956024169922,0.006914315506188381,0.014667967334389687
426,0.25,0.001,0.005465827137231827,0.0037256090622395277,9.752182769775391,0.00696087278356559,0.012201273464597762
427,0.25,0.001,0.00545791020616889,0.0036839177552610634,9.941454238891602,0.007095970191928338,0.013146719429641962
428,0.25,0.001,0.005507452376186848,0.003781484626233578,9.672323532104492,0.0069038711863700876,0.013651779387146235
429,0.25,0.001,0.005455142594873905,0.003695732969790697,9.859731712341308,0.0070376386240837314,0.015026111504994333
430,0.25,0.001,0.005539321508258581,0.003753954749554396,10.005196533203126,0.007141467903785243,0.017500830348581076
431,0.25,0.001,0.0055588092468678955,0.003864160217344761,9.496813735961915,0.006778596528166963,0.017219443805515766
432,0.25,0.001,0.005515379030257463,0.0037800344079732895,9.72487117767334,0.006941378428032362,0.019755345303565264
433,0.25,0.001,0.005519144721329212,0.0038132940791547297,9.55958755493164,0.006823402965689965,0.017167455283924937
434,0.25,0.001,0.00549958435818553,0.003806117884814739,9.490186004638671,0.006773865813446589,0.014830526080913842
435,0.25,0.001,0.0054796869494020935,0.0036974932439625264,9.987413711547852,0.007128774954709387,0.022096031345427036
436,0.25,0.001,0.005586414691060781,0.003885633759200573,9.531176948547364,0.006803124160276491,0.024185286834836006
437,0.25,0.001,0.005615786574780941,0.003873036066070199,9.76637321472168,0.006971001580814904,0.014442307874560356
438,0.25,0.001,0.005547519400715828,0.0037682787794619797,9.970865135192872,0.007116962980151943,0.022466215770691633
439,0.25,0.001,0.005400943700224161,0.0037605988048017027,9.192493019104004,0.006561379742401145,0.01689296099357307
440,0.25,0.001,0.005411700047552585,0.0037639911379665136,9.233760795593263,0.006590835685648296,0.01458622608333826
441,0.25,0.001,0.0053838036209344865,0.003658602423965931,9.66802734375,0.006900804670770877,0.009635114460252225
442,0.25,0.001,0.0053998159989714625,0.003666979344561696,9.710817031860351,0.006931346917816096,0.016003592172637582
443,0.25,0.001,0.005427723843604326,0.0036674881540238857,9.864361000061034,0.007040942897973615,0.01555493101477623
444,0.25,0.001,0.005415465272963047,0.0036651426553726196,9.808807983398438,0.0070012904949310764,0.011760624940507114
445,0.25,0.001,0.005424972679466009,0.0037192210741341116,9.559031562805176,0.006823006111923752,0.019734089262783527
446,0.25,0.001,0.005448545180261135,0.0037139754742383955,9.720528182983399,0.006938278503200142,0.014704884262755513
447,0.25,0.001,0.005508993044495583,0.003797069489955902,9.59361972808838,0.0068476943098418125,0.017545916605740786
448,0.25,0.001,0.005366221405565739,0.0036605038214474915,9.558841781616211,0.006822870650689658,0.00848195399157703
449,0.25,0.001,0.00542157657444477,0.0036623376049101353,9.858775329589843,0.0070369559811490675,0.01134410547092557
450,0.25,0.001,0.0054055871441960335,0.0036784565635025503,9.678840293884278,0.00690852269370755,0.010738036828115582
451,0.25,0.001,0.005364212282001972,0.003685071486979723,9.409905014038086,0.00671656317918493,0.011826559784822166
452,0.25,0.001,0.0054565930552780625,0.0038157629687339068,9.195211639404297,0.006563320227983081,0.01384471682831645
453,0.25,0.001,0.005358706098049879,0.003626525234431028,9.707142028808594,0.006928723789299496,0.01458130101673305
454,0.25,0.001,0.005342481546103954,0.003598329424858093,9.774228439331054,0.006976608450628875,0.014078173786401749
455,0.25,0.001,0.005372091941535473,0.003694757129997015,9.399783935546875,0.006709338997535242,0.016015818808227777
456,0.25,0.001,0.0054164026863873,0.003735621366649866,9.419098739624024,0.006723125438703801,0.01792046707123518
457,0.25,0.001,0.00537256808951497,0.0037270335294306276,9.221576118469239,0.006582138557080113,0.019544607494026423
458,0.25,0.001,0.0054463443905115125,0.0038165966421365737,9.133106575012206,0.0065189911313434734,0.021307933377102017
459,0.25,0.001,0.005471070129424334,0.0037355030328035353,9.726118431091308,0.006942268687431341,0.019568136427551508
460,0.25,0.001,0.0054830174520611764,0.0037124884687364103,9.922043914794921,0.007082115570874319,0.01543701346963644
461,0.25,0.001,0.005587623063474894,0.0039056060276925564,9.426022796630859,0.006728067663548079,0.021485056495293975
462,0.25,0.001,0.005570943411439658,0.003932663081213832,9.1809228515625,0.006553121235947537,0.019887478556483984
463,0.25,0.001,0.005383718442171812,0.003691582940518856,9.482727127075195,0.006768541846591859,0.010915174847468734
464,0.25,0.001,0.005428986363112926,0.0036789219826459884,9.807360153198243,0.007000257068663984,0.010407692287117243
465,0.25,0.001,0.005420737899839878,0.0036754262447357177,9.78072681427002,0.006981246833882955,0.0087657441617921
466,0.25,0.001,0.00539087200537324,0.0037209364958107473,9.358318901062011,0.006679742256289801,0.010817915317602456
467,0.25,0.001,0.005454007871448994,0.0037444729637354612,9.580234680175781,0.006838140385564441,0.012985172332264483
468,0.25,0.001,0.00537121606990695,0.0036040740739554165,9.903063888549804,0.007068568086045542,0.011463274946436286
469,0.25,0.001,0.00542484637349844,0.0037055236008018255,9.635084381103516,0.006877290778803366,0.01653800206258893
470,0.25,0.001,0.005347249209880829,0.0036346347630023955,9.597491340637207,0.0068504577734740954,0.016419458552263677
471,0.25,0.001,0.005438948180526495,0.0037607742752879857,9.404487152099609,0.006712696040042547,0.023180765565484762
472,0.25,0.001,0.005487232580780983,0.0037813475634902714,9.559779663085937,0.0068235400878557725,0.019566670525819063
473,0.25,0.001,0.005497954189777375,0.0037287867628037928,9.914414863586426,0.0070766701381773205,0.015267845243215561
474,0.25,0.001,0.005317991822957993,0.00358253026381135,9.725526695251466,0.006941846320664857,0.01075703906826675
475,0.25,0.001,0.005476038157939911,0.003751246351748705,9.665732955932617,0.006899166992100369,0.013840885367244482
476,0.25,0.001,0.005381176918745041,0.0037223307229578497,9.29617446899414,0.006635385059952991,0.010901931906118989
477,0.25,0.001,0.005460040345788002,0.003828403502702713,9.143693542480468,0.006526547853305116,0.012169395107775927
478,0.25,0.001,0.005413134172558784,0.0037434964627027514,9.356649856567383,0.006678550932596276,0.011189131299033761
479,0.25,0.001,0.005286189708858729,0.0035793589893728496,9.565079689025879,0.006827323118505267,0.00969558663200587
480,0.25,0.001,0.005318820364773273,0.003602135218679905,9.620303497314453,0.006866740540552785,0.011801065178588033
481,0.25,0.001,0.005381707660853862,0.003696148581802845,9.445873222351075,0.006742236418523251,0.013105070334859192
482,0.25,0.001,0.005408549197018147,0.003656676197424531,9.817496643066406,0.0070074922505827305,0.01507186028175056
483,0.25,0.001,0.0053349055722355845,0.0035463099833577872,10.023289260864258,0.007154382056291405,0.010295595042407513
484,0.25,0.001,0.005489102732390165,0.0038127211295068265,9.39444351196289,0.006705527132022049,0.011892454465851188
485,0.25,0.001,0.005363568756729364,0.003694407753646374,9.35397850036621,0.006676644182988016,0.013943379279226065
486,0.25,0.001,0.00541180282831192,0.003693967452272773,9.626749534606933,0.006871341566457483,0.012216686038300395
487,0.25,0.001,0.005304686482995749,0.003582066344097257,9.6535636138916,0.006890480809344469,0.010643986868672073
488,0.25,0.001,0.005387925747781992,0.0036986586451530456,9.466653366088867,0.006757068783789341,0.009993547457270324
489,0.25,0.001,0.005412217415869236,0.0036999486759305,9.595553512573241,0.0068490745985533485,0.01739613013342023
490,0.25,0.001,0.005354898162186146,0.0036019733734428882,9.823390655517578,0.007011699254473646,0.00919785676524043
491,0.25,0.001,0.005274159815162421,0.003541365535929799,9.710579261779785,0.00693117720326894,0.012190495152026415
492,0.25,0.001,0.005292170196771622,0.0036474739015102385,9.216877593994141,0.006578784863664626,0.015491804806515574
493,0.25,0.001,0.00535030348226428,0.003702710820361972,9.2331095123291,0.006590370815366953,0.010544370743446052
494,0.25,0.001,0.005440771263092756,0.0037808034010231497,9.30245979309082,0.006639871372655832,0.016848467057570815
495,0.25,0.001,0.005343773849308491,0.003596925400197506,9.78933925628662,0.006987394187213862,0.01471112435683608
496,0.25,0.001,0.005373534224927426,0.003594822771847248,9.967897644042969,0.0071148448565617195,0.01687236875295639
497,0.25,0.001,0.005334134884178638,0.0035956431552767753,9.742507781982422,0.006953967010694092,0.01234239712357521
498,0.25,0.001,0.005406707730144262,0.0036844461876899006,9.651553497314453,0.0068890460366270185,0.009559481753967702
499,0.25,0.001,0.005412934236228466,0.0036762932036072016,9.732136688232423,0.006946564374184456,0.012660528533160686
500,0.25,0.001,0.00538770167157054,0.0036105267982929944,9.959287567138672,0.007108699191390915,0.01881214533932507
