epoch,beta,learning_rate,train_loss,train_reconstruction_loss,train_kl_unnormalized,train_kl_normalized,mean_unclipped_gradient_norm
1,0.0,0.001,0.08066757351160049,0.08066757351160049,18.92914276546902,0.0135111654286003,0.12654216960072517
2,0.02,0.001,0.06353772325648202,0.05974315078722106,265.8099395073785,0.1897287219895635,0.1558564454317093
3,0.04,0.001,0.05474536533157031,0.04171050402853224,456.5460362413194,0.3258715462107919,0.09597133658826351
4,0.06,0.001,0.04645042477382554,0.037055636925829784,219.36832153320313,0.15657981551263606,0.07585902791470289
5,0.08,0.001,0.04204118465383848,0.037944565299484465,71.7420574951172,0.0512077498180708,0.08978652581572533
6,0.1,0.001,0.03843780299027761,0.03443604835205608,56.0645826043023,0.0400175464698803,0.0536713358014822
7,0.12,0.001,0.03617697379655308,0.032441321925984486,43.61373597039117,0.031130432527045802,0.050976486410945654
8,0.14,0.001,0.03418246948056751,0.03183079744378726,23.533513327704537,0.01679765405260852,0.0656734025105834
9,0.16,0.001,0.03318648190961944,0.0306597943438424,22.124313744439018,0.01579180138789366,0.04421687126159668
10,0.18,0.001,0.03283652010891173,0.030851700769530404,15.448510958353678,0.011026774417097557,0.030776653438806534
11,0.2,0.001,0.032809537251790366,0.03059715466366874,15.497734209696452,0.011061908786364347,0.0432767765596509
12,0.22,0.001,0.03204209690292676,0.030199817419052123,11.731973932054307,0.008373999951502004,0.0311508096056059
13,0.24,0.001,0.03175851043727663,0.02972511479424106,11.869948955112033,0.008472483194227004,0.03889250149950385
14,0.25,0.001,0.03112254256175624,0.029112487244937153,11.264349229600695,0.008040220720628618,0.04415364982560277
15,0.25,0.001,0.030225753974583415,0.027975015060769187,12.613139720492892,0.009002954832614485,0.05896472278982401
16,0.25,0.001,0.0288272400200367,0.026318242342935668,14.060423469543457,0.010035991056062425,0.05493129324167967
17,0.25,0.001,0.0276809793131219,0.024967929878168635,15.203928849962022,0.010852197608823713,0.07444012211635709
18,0.25,0.001,0.02640862269534005,0.02364640872511599,15.479445775349935,0.011048854943147706,0.07339712511748075
19,0.25,0.001,0.02583761995865239,0.022592673955692186,18.184674140082464,0.012979781684569924,0.07571484334766865
20,0.25,0.001,0.024989232445756595,0.021835303298301165,17.674619623819986,0.01261571707624553,0.06741419620811939
21,0.25,0.001,0.023945945625503857,0.020866694557997917,17.256121656629773,0.012317003323789988,0.05558847123757005
22,0.25,0.001,0.023288734522130754,0.02003087381521861,18.257051552666557,0.013031442935522167,0.04894904955290258
23,0.25,0.001,0.022537688546710545,0.01926403407421377,18.34556065029568,0.013094618594072578,0.057693992741405964
24,0.25,0.001,0.022050132834249073,0.01867207806971338,18.930619388156465,0.013512219406250154,0.03815414011478424
25,0.25,0.001,0.021400583692722852,0.017981327573458352,19.161509755452474,0.013677023380051731,0.03242070064879954
26,0.0,0.001,0.017314759749505255,0.017314759749505255,22.19655443827311,0.01584336505230058,0.051295964512974024
27,0.02,0.001,0.016761991274025705,0.016309721246361732,31.681525387234156,0.022613508484820955,0.04857155727222562
28,0.04,0.001,0.01649929051597913,0.01523004722677999,44.455258466932506,0.0317310909828212,0.03156922315247357
29,0.06,0.001,0.016992004331615237,0.014740606935487854,52.570132887098524,0.03752329256752215,0.03453223337419331
30,0.08,0.001,0.017445817846390935,0.014426888086729579,52.869010281032985,0.037736624040708766,0.04288185480982065
31,0.1,0.001,0.017729754944642385,0.014438698490460714,46.10769454956055,0.03291055999254857,0.03192228730767965
32,0.12,0.001,0.017757631126377318,0.014575877139965693,37.14697633531358,0.026514615514142456,0.03913930244743824
33,0.14,0.001,0.01814262626071771,0.015142783166633712,30.019853897094727,0.02142744746402193,0.05463600601069629
34,0.16,0.001,0.018129500589436954,0.015142113202148014,26.158310072157118,0.018671170643937987,0.040764087811112404
35,0.18,0.001,0.018249892426861657,0.015256672998269398,23.29722446017795,0.016628996759584548,0.034362941049039364
36,0.2,0.001,0.018165263541870647,0.014972803273962604,22.363182568020292,0.015962300191306417,0.010758946649730206
37,0.22,0.001,0.018404748580522007,0.015017826250857777,21.568536326090495,0.015395100875153816,0.028681408381089568
38,0.24,0.001,0.01857790949443976,0.015102535436550777,20.287497668796114,0.014480726387434771,0.02647541929036379
39,0.25,0.001,0.01860053877863619,0.015043718496130572,19.932420018513998,0.014227280527133474,0.05481275264173746
40,0.25,0.001,0.018854872617456647,0.01549810901698139,18.811306398179795,0.013427056672505207,0.06783187994733453
41,0.25,0.001,0.018356848251488474,0.015010780079497231,18.751366305881078,0.013384272880714546,0.0404339749366045
42,0.25,0.001,0.018141356706619264,0.014578785722454388,19.964646759033204,0.014250283197025843,0.03553379978984594
43,0.25,0.001,0.01791468740337425,0.014504543675316705,19.11044884575738,0.013640577334587707,0.03277957416139543
44,0.25,0.001,0.017569011747837066,0.014255747232172225,18.567537604437934,0.013253060388606663,0.03428829973563552
45,0.25,0.001,0.017374363525046243,0.014093793324298328,18.38431652492947,0.013122281602376495,0.019697152078151703
46,0.25,0.001,0.016914977828661602,0.013563642543223169,18.780883060031467,0.013405341227716965,0.02386977174319327
47,0.25,0.001,0.016955094991458787,0.013534652060932583,19.168163596259223,0.013681772731091522,0.03768372558988631
48,0.25,0.001,0.016599654137260385,0.013230304254425897,18.881833657158747,0.013477397328450212,0.03856174414977431
49,0.25,0.001,0.01634211864736345,0.012845371427635352,19.595774002075196,0.013986990722394857,0.02993985963985324
50,0.25,0.001,0.01604976590308878,0.01267143697788318,18.932155117458766,0.013513315572775707,0.032618979923427105
51,0.0,0.001,0.012130138795408937,0.012130138795408937,20.46620214674208,0.01460828133243546,0.03901866776868701
52,0.02,0.001,0.011689925806389915,0.011315057716435857,26.259525553385416,0.018743415812552046,0.04306272277608514
53,0.04,0.001,0.011478823957343896,0.010434179562661383,36.58867882622613,0.026116116221431927,0.0299164189491421
54,0.06,0.001,0.012032273395193948,0.01013526115152571,44.29524152967665,0.03161687475351652,0.0517156021669507
55,0.08,0.001,0.012403767597344186,0.009716681001914872,47.057611050075955,0.03358858747328762,0.03345727757550776
56,0.1,0.001,0.012953696797291438,0.009765735761158996,44.663333604600695,0.031879609996146106,0.048964581452310085
57,0.12,0.001,0.013143419677184688,0.010022005115946133,36.44251959906684,0.026011791291268266,0.03338318644091487
58,0.14,0.001,0.013106905147433281,0.01010684399969048,30.02203968471951,0.02142900762649501,0.031142682768404484
59,0.16,0.001,0.013616591232518354,0.010725796437925763,25.312523430718315,0.018067468544409934,0.016850706888362765
60,0.18,0.001,0.01363811886145009,0.010765938969949882,22.35513397216797,0.015956555297764432,0.027860387228429317
61,0.2,0.001,0.013760076541867521,0.010603383982347118,22.112631157769098,0.01578346263937837,0.019674976356327534
62,0.22,0.001,0.014003730855054325,0.010717600174248219,20.926677135891385,0.01493695727044353,0.017864074558019638
63,0.24,0.001,0.014372761630349689,0.010944779386950864,20.010848151312935,0.01428326063619767,0.00851057842373848
64,0.25,0.001,0.014302356570131248,0.01079333598828978,19.6645514594184,0.014036082412147325,0.014812445500865579
65,0.25,0.001,0.014448124344150225,0.01099352897455295,19.359551713731555,0.013818380951985407,0.014023417374119163
66,0.25,0.001,0.01435940625766913,0.010966760632064608,19.012387457953558,0.013570583481765566,0.009726837859489024
67,0.25,0.001,0.014127830602228641,0.01072166486746735,19.088153432210287,0.013624663406288571,0.020562502089887857
68,0.25,0.001,0.014124012250039312,0.010810599563022454,18.568364791870117,0.01325365081503934,0.018855418544262648
69,0.25,0.001,0.013788787122401926,0.010634191835092174,17.678353856404623,0.012618382481373749,0.024208211805671453
70,0.25,0.001,0.013856561303966576,0.010739133978883425,17.470062696668837,0.012469709276708664,0.019352064933627844
71,0.25,0.001,0.013845545624693235,0.010830450078679455,16.89659506479899,0.012060381916344747,0.0118533696513623
72,0.25,0.001,0.013797891015807787,0.010781184579763148,16.905622160169813,0.012066825239236125,0.011608913075178862
73,0.25,0.001,0.013997866859038671,0.010884323285685645,17.44829815334744,0.012454174270769051,0.016924503026530147
74,0.25,0.001,0.013796732798218726,0.01044669055276447,18.773638475206162,0.013400170217848796,0.026109359227120876
75,0.25,0.001,0.013707657216323747,0.010583128357927005,17.509860153198243,0.01249811574104086,0.024939224822446704
76,0.0,0.001,0.010685973345405525,0.010685973345405525,17.865128699408636,0.012751697858250276,0.0423052366822958
77,0.02,0.001,0.010264685158100393,0.009923313417368466,23.91309495713976,0.017068590262055504,0.03424469102174044
78,0.04,0.001,0.010143390633165836,0.009181426246133115,33.69280749850803,0.02404911313241116,0.025288879871368408
79,0.06,0.001,0.01052742674946785,0.008845946970913145,39.26255645751953,0.028024665565681322,0.02277958346530795
80,0.08,0.001,0.011223267217477163,0.008795835458570057,42.51039825439453,0.030342896684078895,0.029863272793591022
81,0.1,0.001,0.01157180144555039,0.008753740729557143,39.48103218926324,0.0281806082721365,0.02643309673294425
82,0.12,0.001,0.01198361159612735,0.009075310346153047,33.95441859775119,0.024235844823519766,0.03356416383758187
83,0.14,0.001,0.011819437253806325,0.009119025770988729,27.023403871324327,0.019288653726855336,0.01644770533312112
84,0.16,0.001,0.012143191869060198,0.0095052952816089,23.098083292643228,0.016486854598603305,0.02409385424107313
85,0.18,0.001,0.01251002905269464,0.009956936997671922,19.871565390692815,0.014183843961950618,0.025201620068401098
86,0.2,0.001,0.012701380463937918,0.0098575474611587,19.92105050828722,0.014219165245030136,0.025585188530385494
87,0.22,0.001,0.012772418525483872,0.00967982498721944,19.694198803371854,0.01405724397100061,0.014358023880049586
88,0.24,0.001,0.013293106427623167,0.009985595664216413,19.30759324815538,0.013781294252787566,0.019873512908816338
89,0.25,0.001,0.01325573960526122,0.009973779424197145,18.39210500929091,0.01312784083461164,0.017403942067176104
90,0.25,0.001,0.013143854240576427,0.010104031757348114,17.03516552395291,0.012159290166989942,0.022394244791939855
91,0.25,0.001,0.013018481023609639,0.009995193034410477,16.942507595486113,0.012093153173080738,0.019852354656904936
92,0.25,0.001,0.013237339994973606,0.010359420788784822,16.12785736931695,0.011511675495586687,0.030496018938720226
93,0.25,0.001,0.013132345486018392,0.010123543950418631,16.861324852837456,0.012035206889962496,0.025017828214913607
94,0.25,0.001,0.013246070146560669,0.010230656874676546,16.898375871446397,0.012061653013166593,0.02129369182512164
95,0.25,0.001,0.013023406631416745,0.010040502246055337,16.716196797688802,0.011931617985502357,0.01495142129715532
96,0.25,0.001,0.013065293886595303,0.010068031632237965,16.796657502916123,0.011989048895728853,0.01485837297514081
97,0.25,0.001,0.012869006358087062,0.009884787156350083,16.723564020792644,0.01193687653161502,0.019651469541713595
98,0.25,0.001,0.012811652989023262,0.009802970166007677,16.860657306247287,0.01203473041131141,0.010394013370387256
99,0.25,0.001,0.013002039972278806,0.010086962232987086,16.33609480963813,0.011660310356629643,0.01569102145731449
100,0.25,0.001,0.012766809749106565,0.009998729055126509,15.512324888441297,0.01107232326084318,0.013250118121504784
101,0.25,0.001,0.012662991198400657,0.009849131450884872,15.768870832655164,0.011255439566491908,0.015327316941693425
102,0.25,0.001,0.012558368883199162,0.00965103403147724,16.292704849243165,0.011629339649709611,0.017747250734828413
103,0.25,0.001,0.012813436078528563,0.009918297347095277,16.224357426961262,0.011580554908609039,0.02368702576495707
104,0.25,0.001,0.012702411574621996,0.009847626503970888,15.998216383192274,0.011419140887360651,0.021749755134806037
105,0.25,0.001,0.012604944929480553,0.009702854288948907,16.263316781785754,0.011608363156163993,0.014846437727101147
106,0.25,0.001,0.012610211769739787,0.009764909570415814,15.945073449876574,0.011381208743666363,0.017266776645556092
107,0.25,0.001,0.012721373546454641,0.009912129491567612,15.743003455268012,0.011236976056579594,0.01878894353285432
108,0.25,0.001,0.012564727585348818,0.009682569710744751,16.15161307864719,0.01152863174778529,0.0139946099370718
109,0.25,0.001,0.012518007821506924,0.009685332406726149,15.874314541286893,0.01133070274181791,0.017970044864341617
110,0.25,0.001,0.012677206844091415,0.009817040264606476,16.028374998304578,0.01144066737923239,0.02507285587489605
111,0.25,0.001,0.012537228026323849,0.009748838084439437,15.626137305365669,0.011153559818248157,0.030627723783254623
112,0.25,0.001,0.012468562010261747,0.009679739868475331,15.628560727437337,0.011155289598456344,0.013535672333091497
113,0.25,0.001,0.012312591949270832,0.009491564801169767,15.809037501017253,0.011284109565322806,0.012527956860139966
114,0.25,0.001,0.01230498587919606,0.009560893529819118,15.377894270155165,0.010976369928733166,0.012881971662864089
115,0.25,0.001,0.012417925612794029,0.009770467893944847,14.83635442521837,0.010589831852404261,0.013356470968574286
116,0.25,0.001,0.012483650727404488,0.009687577415671613,15.669195425245498,0.011184293665414345,0.013540587853640318
117,0.25,0.001,0.012364437936080826,0.009446548571189244,16.351852849324544,0.011671558065185257,0.014320726273581386
118,0.25,0.001,0.012300195855398972,0.009439257577889496,16.03269940270318,0.011443754034763155,0.016872831154614687
119,0.25,0.001,0.012325800595184167,0.009603812152312862,15.254023581610786,0.010887954019707912,0.017256220802664757
120,0.25,0.001,0.01221316431545549,0.009478112786180444,15.327228698730469,0.01094020606618877,0.011780448257923126
121,0.25,0.001,0.012104209272397888,0.009426259882748127,15.007228749593098,0.010711797822693147,0.013938011601567268
122,0.25,0.001,0.012128850267165236,0.00951520650751061,14.646860372755263,0.010454575569418461,0.01001787162385881
123,0.25,0.001,0.012281517883141836,0.009583195158176952,15.121400383843316,0.010793290780758968,0.015069176442921162
124,0.25,0.001,0.012107356439034144,0.009202088084485796,16.281122784084744,0.011621072651024085,0.02400814718566835
125,0.25,0.001,0.012272134646773339,0.009514625089036093,15.453082817925347,0.011030037700160847,0.02509452379308641
126,0.25,0.001,0.012098295336796178,0.0093787080132299,15.240566075642903,0.010878348376618774,0.017792902188375592
127,0.25,0.001,0.012195724720756213,0.009568028214077155,14.725610978868273,0.010510785852154371,0.018794792820699513
128,0.25,0.001,0.012075408771634101,0.009484826533330812,14.517624956766765,0.010362330447370996,0.013881854014471173
129,0.25,0.001,0.012092275271813075,0.009355046306219366,15.339431495666505,0.010948916128241616,0.01588727254420519
130,0.25,0.001,0.01199756751043929,0.009158814752267467,15.908371170891655,0.01135501154239233,0.012675292789936066
131,0.25,0.001,0.011972491269310315,0.009354568980634213,14.670836580064561,0.010471689207754861,0.012412871816195548
132,0.25,0.001,0.012050074289242426,0.009572359807789326,13.885111537509495,0.009910857628486435,0.018878375412896276
133,0.25,0.001,0.011842363625764846,0.009215523252884546,14.720813823276096,0.010507361758227049,0.008943038643337786
134,0.25,0.001,0.011912840807603466,0.009280363548960951,14.752401152716743,0.010529908031917732,0.010272199986502528
135,0.25,0.001,0.011758744273748662,0.009178709247046047,14.458515362209743,0.01032013944483208,0.012141854269430041
136,0.25,0.001,0.01177646230906248,0.009225137080583307,14.297627326117622,0.010205301446193877,0.014223840087652206
137,0.25,0.001,0.011823595629798041,0.009248345659838782,14.431700524224174,0.010300999660402694,0.011880381498485804
138,0.25,0.001,0.011799529194831848,0.009120844134853945,15.01135156419542,0.010714740588290807,0.009693039814010262
139,0.25,0.001,0.011720785717997286,0.009074964105255073,14.827184927198623,0.010583286885937631,0.011489364318549633
140,0.25,0.001,0.011760004137953122,0.009156378855307897,14.590717290242512,0.010414501991607789,0.012559724622406065
141,0.25,0.001,0.011816935021844175,0.00934953700337145,13.827299325731065,0.009869592666474707,0.01176172390114516
142,0.25,0.001,0.011803512569102975,0.009232354913320806,14.408767458597818,0.010284630591433133,0.010709349298849702
143,0.25,0.001,0.011759596938888232,0.009064440532690949,15.103655865987141,0.010780625172010807,0.011907520005479455
144,0.25,0.001,0.011609982947508495,0.00901387563182248,14.548587354024251,0.010384430659546218,0.010690269293263555
145,0.25,0.001,0.011695300307538774,0.009146836027503014,14.281594259474012,0.010193857430031416,0.011941097909584641
146,0.25,0.001,0.01172248894555701,0.00913090390049749,14.523242696126301,0.010366340254194362,0.01740296371281147
147,0.25,0.001,0.01160326852152745,0.009000532813370227,14.585730862087674,0.01041094279949156,0.019206272321753204
148,0.25,0.001,0.01168888098663754,0.00924018176065551,13.722511728074815,0.009794797807333916,0.02036161662545055
149,0.25,0.001,0.011484770096010632,0.008956540189683438,14.168200993008083,0.010112920052111408,0.016019894974306226
150,0.25,0.001,0.011625928684241242,0.009149399060342046,13.87847275627984,0.00990611902660945,0.010428798734210432
151,0.25,0.001,0.011662944104108546,0.009113545426064067,14.286831359863282,0.010197595545940958,0.01649617636576295
152,0.25,0.001,0.011632121255000433,0.00904317669156525,14.508446587456596,0.010355779148791289,0.011935595772229135
153,0.25,0.001,0.011388787867294418,0.008866487625572416,14.134971822102864,0.010089201871593765,0.013023023726418614
154,0.25,0.001,0.01140692693905698,0.008960470979412397,13.709939282735188,0.009785823899168586,0.013002837309613824
155,0.25,0.001,0.011332609533435768,0.008891034651961591,13.682585271199544,0.009766299265667055,0.013880523853003979
156,0.25,0.001,0.011386992149055005,0.008940539649791187,13.709919832017686,0.009785810015715693,0.012661498505622149
157,0.25,0.001,0.01135051268256373,0.008932744715776708,13.5491716893514,0.009671071869629837,0.011206228518858552
158,0.25,0.001,0.011342740154100788,0.008921591999630133,13.56811543782552,0.009684593460260899,0.011743795941583812
159,0.25,0.001,0.011344119550453292,0.008917926781707339,13.596385705735948,0.009704772095457493,0.011740251444280148
160,0.25,0.001,0.011291849265495936,0.008826784837163157,13.814220335218641,0.009860257198585754,0.010791590437293053
161,0.25,0.001,0.011248544620143042,0.008852205222679509,13.429084565904406,0.009585356578090225,0.012154402444139123
162,0.25,0.001,0.011145946234464646,0.008761939071118831,13.359977027045355,0.009536029284115172,0.011252026190049946
163,0.25,0.001,0.011208904600805706,0.008867169084648291,13.123084636264377,0.00936694121075259,0.01089323009364307
164,0.25,0.001,0.01126755496693982,0.008900869803296196,13.26290286593967,0.009466740089892699,0.016875049099326134
165,0.25,0.001,0.011234690070980125,0.008748457874688836,13.932845645480686,0.009944929083141103,0.018966811941936612
166,0.25,0.001,0.011277574371132585,0.008780366683171855,13.994352989196777,0.009988831541182568,0.018413714366033673
167,0.25,0.001,0.011271026722258992,0.008896653366585572,13.305987820095487,0.009497493090717691,0.013705529388971627
168,0.25,0.001,0.011089660897850991,0.008652952905330392,13.655313606262206,0.009746833409180733,0.008666208013892174
169,0.25,0.001,0.01108459269007047,0.008649536300864485,13.646055162217882,0.00974022495518764,0.006906977854669094
170,0.25,0.001,0.010979147934251362,0.00861673570341534,13.238958566453721,0.009449649226590808,0.01280688913539052
171,0.25,0.001,0.011102163936528894,0.008756287842988968,13.146291016472711,0.009383505365076882,0.016705823130905628
172,0.25,0.001,0.011109461991323365,0.00875754937943485,13.180117772420248,0.00940765008738062,0.007956658722832799
173,0.25,0.001,0.011131848278972838,0.008829778747426138,12.900799882676866,0.009208279716400333,0.01120899769011885
174,0.25,0.001,0.011079144072201516,0.008647603036628829,13.626356230841743,0.009726164333220374,0.013313192641362548
175,0.25,0.001,0.011134119203521146,0.008710286880118979,13.583156929016113,0.009695329713787375,0.008890628232620656
176,0.25,0.001,0.01096879108912415,0.008647990574439367,13.00576772901747,0.009283203232703404,0.013530801050364971
177,0.25,0.001,0.010974294518431028,0.008650712337758807,13.02135529836019,0.009294329263640393,0.008166364394128323
178,0.25,0.001,0.010996939626832803,0.00866825905525022,13.049926232231988,0.009314722506946458,0.007297373493202031
179,0.25,0.001,0.01111705017172628,0.00873635602908002,13.341410077412924,0.009522776643406798,0.011503826128318906
180,0.25,0.001,0.011030976594322258,0.008571380190551281,13.783578202989366,0.009838385583861076,0.015455045737326145
181,0.25,0.001,0.01093793414119217,0.008503865719669395,13.640520286560058,0.009736274294475416,0.012197013245895505
182,0.25,0.001,0.0109818663696448,0.00864324100729492,13.105655949910481,0.009354501034911122,0.01025316584855318
183,0.25,0.001,0.010855618152353499,0.008554098419845104,12.897716738382975,0.009206079042386135,0.009770411881618202
184,0.25,0.001,0.010847786044081053,0.008557607506712278,12.834160452948677,0.009160714099178213,0.013805120252072811
185,0.25,0.001,0.010828711067636807,0.008512336516545878,12.9809652794732,0.00926549984259329,0.009908554842695594
186,0.25,0.001,0.010799578647646638,0.008500411986476846,12.884529698689779,0.0091966664515987,0.0066190705401822925
187,0.25,0.001,0.01084203807844056,0.00856308828211493,12.77123407151964,0.009115798766252419,0.012538318056613207
188,0.25,0.001,0.010795054907600085,0.008514276618758837,12.781481535169814,0.009123113158579454,0.010144605534151196
189,0.25,0.001,0.010769755422241158,0.008434310257434845,13.087836384243435,0.009341781858846135,0.011231094831600785
190,0.25,0.001,0.010859418449302514,0.008588670968181557,12.725267278883193,0.009082988778646104,0.011992320301942527
191,0.25,0.001,0.010870190838144885,0.008553528909881909,12.98257440355089,0.009266648396538823,0.011098686140030622
192,0.25,0.001,0.010701393228438166,0.008386548914843136,12.9723878648546,0.009259377490974018,0.01181874517351389
193,0.25,0.001,0.010763210583892133,0.008448808561596605,12.969908811781142,0.009257608002698888,0.024170747492462397
194,0.25,0.001,0.010881363368696637,0.008644188336200185,12.537128732469347,0.008948700023175837,0.0248940815217793
195,0.25,0.001,0.010853157329062621,0.00855817738506529,12.861068272060818,0.009179920251292517,0.02550421468913555
196,0.25,0.001,0.01095655031916168,0.008761864027215375,12.299022178649903,0.00877874530952884,0.017492325277999043
197,0.25,0.001,0.010800274693303639,0.008465574189192719,13.083660625881619,0.009338801303270248,0.011296301148831844
198,0.25,0.001,0.010812434115343625,0.008422004799875949,13.395966334872776,0.009561717583777857,0.0107139804167673
199,0.25,0.001,0.010700892379714383,0.008401688858866692,12.884735777113173,0.009196813545405549,0.018988838884979486
200,0.25,0.001,0.010614817610217465,0.008335219244990083,12.774869588216147,0.009118393710361276,0.009773525409400463
201,0.25,0.001,0.010799895400802294,0.008539153507186308,12.66919743431939,0.009042967476316482,0.011918722419068217
202,0.25,0.001,0.010702134929597379,0.008435238521132205,12.703688413831923,0.009067586305376105,0.011389216058887541
203,0.25,0.001,0.010709558895064725,0.008400480407807562,12.940076382954915,0.009236314334728705,0.008920171181671321
204,0.25,0.001,0.01070175671329101,0.008396567329764366,12.91828199174669,0.009220758024087573,0.0086117556784302
205,0.25,0.001,0.010620584918393029,0.008342586764030987,12.76590177324083,0.009111992700386031,0.006718562450259924
206,0.25,0.001,0.010681071587734752,0.008446167583266894,12.524401092529297,0.008939615340848892,0.012743586557917297
207,0.25,0.001,0.010662188799017005,0.008380196206271649,12.788285577562121,0.00912796971988731,0.014501716126687825
208,0.25,0.001,0.010632928034497632,0.008328219033363792,12.915588539971246,0.009218835503191468,0.010857951827347279
209,0.25,0.001,0.010606736424896452,0.008337954547670152,12.714253035651312,0.009075127077552685,0.010870687547139823
210,0.25,0.001,0.01060140188369486,0.008391169479323758,12.386143480936687,0.008840930393245315,0.00811365491244942
211,0.25,0.001,0.01065848028494252,0.0084275700400273,12.502020335727268,0.00892364049659334,0.009024243918247521
212,0.25,0.001,0.010579641138513883,0.00830351648438308,12.755401903788249,0.009104498146886688,0.008218699018470943
213,0.25,0.001,0.01040857023662991,0.008176015356762541,12.51123786078559,0.00893021974360142,0.007847329252399504
214,0.25,0.001,0.010594379438294305,0.008378124555779827,12.419892925686307,0.008865019932681161,0.012299989815801382
215,0.25,0.001,0.01042503644194868,0.008224542790816889,12.331566301981608,0.008801974519615709,0.008654719451442361
216,0.25,0.001,0.010466053709387779,0.008285530114339457,12.219653146531847,0.00872209360923044,0.012025332427583635
217,0.25,0.001,0.01062121268775728,0.008421780607766575,12.325617747836644,0.008797728585179618,0.014420760795474052
218,0.25,0.001,0.010522323242492146,0.008249054857426219,12.739397816128202,0.009093074815223557,0.011550913914106786
219,0.25,0.001,0.010497801154851914,0.008181248290671243,12.981962712605794,0.009266211786299638,0.009987101424485445
220,0.25,0.001,0.010526883519358106,0.00833530452930265,12.28160873413086,0.00876631601294137,0.014028612757101655
221,0.25,0.001,0.010527258242170016,0.008387244041595195,11.992638854980468,0.008560056284782633,0.015944085782393813
222,0.25,0.001,0.010563838001754549,0.008374686133530405,12.268007799784343,0.008756607994135862,0.017202914226800203
223,0.25,0.001,0.010468054215113322,0.008237764806383186,12.498541675143771,0.008921157512593699,0.023520233342424035
224,0.25,0.001,0.010500610226558314,0.008288221052951282,12.398229420979817,0.00884955704566725,0.014971910510212183
225,0.25,0.001,0.010454405728313658,0.008224443304869863,12.49671004401313,0.008919850138481891,0.024780468549579382
226,0.25,0.001,0.010363298960857921,0.008218337434033553,12.020364176432292,0.008579845950344249,0.016336650354787707
227,0.25,0.001,0.010462314987348186,0.008264048219554954,12.319086638556586,0.008793066836942602,0.00942726677749306
228,0.25,0.001,0.010449668446348773,0.008233423336512512,12.419837693108454,0.00886498050899961,0.013016205048188567
229,0.25,0.001,0.010538423715366257,0.008352010895808538,12.252658157348632,0.008745651789684962,0.009623300516977906
230,0.25,0.001,0.010372801795601844,0.008103668971194161,12.716218181186251,0.009076529751025162,0.008856150787323713
231,0.25,0.001,0.01037684624393781,0.008179595602883232,12.313390973409017,0.008789001408571747,0.012100815074518323
232,0.25,0.001,0.01033659964799881,0.008173140115622018,12.124027960035535,0.00865383865812672,0.01309244311414659
233,0.25,0.001,0.010381085239350796,0.008213872603244252,12.145059144761827,0.008668850210393882,0.010112648364156485
234,0.25,0.001,0.010382066327664587,0.008224964508165915,12.088398971557616,0.00862840754572278,0.015677417861297727
235,0.25,0.001,0.010462537478241656,0.008255151059064601,12.370193714565701,0.008829545834807781,0.01944828894920647
236,0.25,0.001,0.010458910225166216,0.008165285372071797,12.853474417792427,0.009174499941322217,0.013631622539833188
237,0.25,0.001,0.010318664080566831,0.008074578535225656,12.57585674709744,0.008976343145679829,0.011510411277413368
238,0.25,0.001,0.010376152607301872,0.008189627329508464,12.253286662631565,0.008746100401592837,0.008841534378007054
239,0.25,0.001,0.010449424352910783,0.008311513844463561,11.98085060119629,0.008551642113630471,0.008537366171367466
240,0.25,0.001,0.010264181304309103,0.008033298328518868,12.501867650349935,0.008923531513454628,0.011557335499674082
241,0.25,0.001,0.010384200004239877,0.008174032494425774,12.385777532789442,0.00884066918828654,0.012420805636793375
242,0.25,0.001,0.010292251639895968,0.00809400897473097,12.318952178955078,0.008792970862922968,0.008404028019867837
243,0.25,0.001,0.010389668577247196,0.008150338414642546,12.549204262627496,0.008957319245273017,0.009615945629775524
244,0.25,0.001,0.010392367016110154,0.00814267069929176,12.607298579745823,0.008998785567270394,0.01357191544957459
245,0.25,0.001,0.010291056699222988,0.008103664972715908,12.258142984178331,0.008749566726751128,0.01093798188958317
246,0.25,0.001,0.010263875615265634,0.008087448411517673,12.196697582668728,0.008705708481562262,0.007709646713919938
247,0.25,0.001,0.010331798555950324,0.008134907310207684,12.311378695170085,0.008787565092912265,0.00793175701983273
248,0.25,0.001,0.010356779326167371,0.008160072817570634,12.31034316168891,0.008786825954096297,0.007960636517964303
249,0.25,0.001,0.010207254915601677,0.008001710449655851,12.359871682061089,0.00882217821703147,0.011383858975023031
250,0.25,0.001,0.010372193190786574,0.008183579784300593,12.264990963406033,0.008754454649112087,0.01585599477402866
251,0.25,0.001,0.010249642940859,0.008049038785199324,12.332185592651367,0.008802416554355008,0.021388757275417447
252,0.25,0.001,0.010240645367238257,0.008155298019862837,11.68628658718533,0.008341389426970257,0.01665216824039817
253,0.25,0.001,0.01024179398185677,0.00810611734787623,11.968333723280164,0.008542707868151438,0.01734999311156571
254,0.25,0.001,0.010320518041650455,0.008114888895716932,12.360345429314508,0.008822516366391512,0.01711913011968136
255,0.25,0.001,0.010199513009024991,0.007990068358679613,12.381728676689995,0.008837779212483937,0.01359515031799674
256,0.25,0.001,0.010220966521236632,0.008087142784562375,11.957948481241862,0.008535295132934948,0.012825829908251762
257,0.25,0.001,0.010314072320858637,0.008157998075087864,12.082639032999674,0.008624296240542237,0.015218818560242653
258,0.25,0.001,0.01024530027475622,0.008117377339965768,11.924879553053113,0.008511691329802364,0.012757985154166818
259,0.25,0.001,0.010282724267906614,0.008104336706714498,12.207684160868327,0.008713550436023074,0.00971433985978365
260,0.25,0.001,0.010260876905586984,0.00808083380262057,12.2169613732232,0.00872017228638344,0.012969186762347817
261,0.25,0.001,0.010240989103913307,0.008093318856424756,12.035543751186795,0.008590680764587291,0.01267425762489438
262,0.25,0.001,0.01015952309800519,0.007994250760724146,12.134185952080621,0.0086610891877806,0.017792520113289356
263,0.25,0.001,0.010235301322407193,0.008047077610260911,12.262806604173448,0.008752895506190898,0.014429168310016394
264,0.25,0.001,0.010130056606398688,0.0080522781651881,11.643870154486763,0.00831111360063295,0.015461623086594045
265,0.25,0.001,0.010181902862257428,0.008020423932207955,12.112929505242242,0.00864591684885242,0.014880433678627014
266,0.25,0.001,0.010190686277217335,0.008038785714242193,12.059251670837403,0.008607602905665528,0.015846743481233716
267,0.25,0.001,0.010244809260798826,0.008104717193378342,11.99307433658176,0.008560367121043369,0.017329650465399027
268,0.25,0.001,0.010106038865115907,0.007937614532808463,12.151851026746963,0.008673698091896475,0.015339750098064542
269,0.25,0.001,0.010199008931716283,0.008055853065517213,12.010244513617621,0.008572622779170322,0.012476981501094997
270,0.25,0.001,0.01019045266840193,0.008039388304783238,12.054564624362522,0.00860425740496968,0.008939759223721921
271,0.25,0.001,0.010106070596310827,0.007880986581246058,12.469370350307889,0.008900335724702276,0.008527111145667732
272,0.25,0.001,0.010128369054032697,0.007960226651695039,12.15026966518826,0.00867256935416721,0.009197140578180552
273,0.25,0.001,0.010102158399919669,0.008011080405364433,11.718400853474934,0.008364311815471046,0.009061767719686031
274,0.25,0.001,0.010072696639431847,0.008018947982539734,11.509208017985026,0.008214995016406157,0.012788562336936593
275,0.25,0.001,0.010106843664414352,0.008017549285044273,11.70840624915229,0.008357177908031614,0.010875555453822017
276,0.25,0.001,0.01011985874424378,0.00799203204198016,11.924342223273383,0.00851130779676901,0.00904332660138607
277,0.25,0.001,0.010102339569065305,0.007943120449781418,12.100264477199978,0.008636876857387565,0.010101707885041833
278,0.25,0.001,0.0100955138521062,0.00795914440933201,11.972214800516765,0.008545478087449512,0.013061897130683064
279,0.25,0.001,0.010041041440433926,0.007950888677603669,11.713217544555665,0.008360612094615036,0.0068549931747838855
280,0.25,0.001,0.010015470335880915,0.007944116412351529,11.607868101331922,0.008285416203663042,0.011069241678342223
281,0.25,0.001,0.010046285254259905,0.007920184499687618,11.91466938442654,0.008504403557763413,0.008901372202672064
282,0.25,0.001,0.010069176273213493,0.007892241200639142,12.199543974134658,0.00870774016711967,0.009273997857235372
283,0.25,0.001,0.010132709191077286,0.007989506189607911,12.010510368347168,0.00857281253986236,0.008654175093397498
284,0.25,0.001,0.009970679407318434,0.007823580377217795,12.03234346601698,0.008588396478241956,0.00740397279150784
285,0.25,0.001,0.010041060811943479,0.007969519226915307,11.608917367723253,0.008286165144698966,0.009070772910490632
286,0.25,0.001,0.01003360640257597,0.007994709813760386,11.425976197984484,0.00815558615130941,0.01237648748792708
287,0.25,0.001,0.01002922311011288,0.00791220135986805,11.863790715535481,0.008468087591388637,0.012034665560349822
288,0.25,0.001,0.010047023014889822,0.007933835002283255,11.842304649353027,0.008452751355712367,0.011875088093802333
289,0.25,0.001,0.010020849510199494,0.007907210650543372,11.844832077026368,0.008454555372609827,0.014003516640514135
290,0.25,0.001,0.01009454421285126,0.007990379155510001,11.79174151526557,0.00841666061046793,0.018111948389559984
291,0.25,0.001,0.010031962208449841,0.007896050959825516,11.969646059672037,0.008543644582207022,0.01456422545015812
292,0.25,0.001,0.009996109447545476,0.007822051673299737,12.183420041402181,0.008696231292935177,0.01518230908550322
293,0.25,0.001,0.009994346400101979,0.007912556533184317,11.666349851820204,0.008327159066252822,0.009188866475597024
294,0.25,0.001,0.010007364278038344,0.007919423998230033,11.700817616780599,0.008351761325325195,0.010977610829286277
295,0.25,0.001,0.010018312724100219,0.00789037812087271,11.92494541168213,0.008511738338102877,0.015066289808601141
296,0.25,0.001,0.010007990449666977,0.007902685225837761,11.798131811353896,0.008421221849645893,0.011533987242728472
297,0.25,0.001,0.009907731045451429,0.0077884234322441945,11.87659917195638,0.008477229958569865,0.008530136896297336
298,0.25,0.001,0.010014046554764112,0.007876029780341519,11.981444761488174,0.00855206621091233,0.010857948334887624
299,0.25,0.001,0.009984845014082061,0.007831519958045747,12.06723322974311,0.008613299949852327,0.009238168713636696
300,0.25,0.001,0.010010127251346906,0.00788502677033345,11.909063305324977,0.008500402073750876,0.01031256013084203
301,0.25,0.001,0.010003585484292771,0.007848901276787123,12.074851565890842,0.00861873773439746,0.01110158592928201
302,0.25,0.001,0.009984569487472375,0.007872730704645316,11.834743351406521,0.008447354283659187,0.008532205829396844
303,0.25,0.001,0.010028483677241537,0.007916041612625123,11.838127021789552,0.008449769465945433,0.010656054830178618
304,0.25,0.001,0.010012879019810093,0.007861003501133786,12.05911099327935,0.008607502493418523,0.014742713188752532
305,0.25,0.001,0.009946977806588014,0.007741591185331345,12.3589879099528,0.008821547401822127,0.013620608020573854
306,0.25,0.001,0.009964517371522055,0.007829217637578646,11.966219215393066,0.00854119858343545,0.0071738563710823655
307,0.25,0.001,0.010015661045908928,0.007895452516774336,11.881647987365723,0.008480833681203228,0.012268797610886395
308,0.25,0.001,0.009915152299735282,0.007716394965019491,12.32183600531684,0.008795029268605882,0.00968625454697758
309,0.25,0.001,0.009862095734311474,0.00766337794976102,12.321615197923448,0.008794871661615595,0.00923901004716754
310,0.25,0.001,0.009976732507348061,0.007848667570700248,11.92567769792345,0.008512261026355068,0.011143739218823612
311,0.25,0.001,0.009960075761708948,0.007840426973998546,11.878511132134332,0.008478594669617652,0.017788035795092583
312,0.25,0.001,0.009954834733572272,0.007863406621747547,11.7203636847602,0.008365712837087936,0.015437703230418265
313,0.25,0.001,0.010029598996043205,0.007883762708968586,12.025266460842557,0.008583345082685623,0.01213246863335371
314,0.25,0.001,0.009898987255162663,0.007694031753473812,12.356571756998697,0.008819822810134688,0.007895339280366898
315,0.25,0.001,0.00984651878890064,0.007713503551979859,11.953417112562391,0.008532060751293641,0.00824162270873785
316,0.25,0.001,0.009915664266380998,0.007868831492960453,11.470451435512967,0.008187331502864359,0.00963545253034681
317,0.25,0.001,0.009918083084954156,0.007837460815078683,11.659806946648493,0.008322488898392929,0.013665318256244063
318,0.25,0.001,0.009928964616523848,0.007803448773920536,11.911390427483452,0.00850206311740432,0.014442831627093256
319,0.25,0.001,0.009891116664641434,0.007730662955178155,12.107181536356608,0.008641814087335194,0.013646464794874191
320,0.25,0.001,0.009778019227087497,0.0076712995395064355,11.806058637830946,0.00842687982714557,0.008946406887844205
321,0.25,0.001,0.009869582425389024,0.007805168160961734,11.568976715935602,0.00825765647104611,0.009410822065547109
322,0.25,0.001,0.009888199961019887,0.007718514795932505,12.158915744357639,0.008678740716886253,0.00933146255556494
323,0.25,0.001,0.009866829696628783,0.007698703830440839,12.150175980461968,0.008672502484269784,0.008374436059966683
324,0.25,0.001,0.009892483655777242,0.007799624688923359,11.728381152682834,0.008371435512264692,0.011795246042311192
325,0.25,0.001,0.009863745230767463,0.007774923114726941,11.705759607950846,0.008355288799393894,0.007801886647939682
326,0.25,0.001,0.009853873058325715,0.007713919604818026,11.992297418382433,0.008559812575576326,0.007367591140791774
327,0.25,0.001,0.009876820142898295,0.007734167023251454,12.007428940667046,0.008570613091125657,0.008691950119100511
328,0.25,0.001,0.00982142810192373,0.0077670361950165695,11.512812923855252,0.008217568111245719,0.00803917192388326
329,0.25,0.001,0.00987992524686787,0.00783540370563666,11.457498690287272,0.008178086145815326,0.008212746703065932
330,0.25,0.001,0.00985757652670145,0.007723083626478911,11.96169854482015,0.008537971837844504,0.008800299721769989
331,0.25,0.001,0.009887552857398986,0.007690591464440028,12.311771015591091,0.008787845121763805,0.009018499287776649
332,0.25,0.001,0.009859584785170026,0.0076881929611166315,12.168478855556913,0.008685566634944263,0.008169195731170475
333,0.25,0.001,0.00979388177394867,0.007710993587970734,11.672504810757108,0.008331552327449756,0.007879057549871504
334,0.25,0.001,0.009835373047325346,0.007735366821289062,11.768435931735569,0.008400025647205973,0.011573781841434538
335,0.25,0.001,0.009859954044222831,0.007730269655585289,11.934752667744954,0.008518738520874343,0.013851862750016153
336,0.25,0.001,0.00972086219324006,0.007644635529981719,11.635172559950087,0.00830490546748757,0.012631523655727506
337,0.25,0.001,0.009853595284124215,0.007775808138151963,11.643919385274252,0.008311148740381337,0.011263863882049918
338,0.25,0.001,0.009864499585496055,0.00772820565642582,11.971791898939344,0.008545176230506312,0.009319851989857852
339,0.25,0.001,0.009825836962295904,0.007632782788326343,12.289876658121745,0.008772217457617235,0.012423477601259947
340,0.25,0.001,0.009839182582994302,0.007663422454562452,12.192959183586968,0.008703040102488914,0.012977521400898695
341,0.25,0.001,0.009833094084428416,0.0076795544475317,12.068436423407661,0.008614158760462285,0.014749158872291446
342,0.25,0.001,0.00985288114183479,0.007787262176473936,11.57572917090522,0.008262476210496231,0.014452304923906922
343,0.25,0.001,0.009834017753601074,0.007741950853831238,11.723942108154297,0.008368267029374944,0.01535030291415751
344,0.25,0.001,0.009892754687203301,0.007795645511812634,11.752199834187826,0.008388436712482388,0.017471196595579386
345,0.25,0.001,0.00991466144306792,0.007848929237160417,11.576363805135092,0.008262929197098567,0.017050249967724085
346,0.25,0.001,0.009864407442510128,0.007720810853772693,12.01271580166287,0.008574386724955653,0.012338367523625493
347,0.25,0.001,0.009859414009584322,0.007696123499837186,12.123079783121744,0.008653161872321017,0.012835621368139982
348,0.25,0.001,0.009707729795740711,0.0076461529193653,11.553077439202204,0.008246307950893792,0.010806322447024286
349,0.25,0.001,0.00976245159904162,0.007762131428139077,11.20979386223687,0.00800128041558663,0.01032372796908021
350,0.25,0.001,0.009832769942780336,0.007763461507856846,11.59640515645345,0.008277234230159494,0.014935411978513002
351,0.25,0.001,0.009968678988516331,0.007860282556050353,11.81545307583279,0.008433585350344604,0.01007723854854703
352,0.25,0.001,0.009700867086648942,0.007503311160124011,12.315103416442872,0.008790223709095555,0.008847486693412066
353,0.25,0.001,0.009797034168408977,0.007609252716518111,12.26032750023736,0.008751125981611249,0.012365577043965459
354,0.25,0.001,0.009735132849050893,0.0076471012375421,11.701330451965331,0.008352127374707589,0.0127729217056185
355,0.25,0.001,0.00981625245263179,0.007799379461341434,11.302555164761014,0.008067491195404007,0.011937870178371668
356,0.25,0.001,0.00978283145154516,0.007621820856713586,12.110302823384602,0.008644041986712777,0.014721463900059462
357,0.25,0.001,0.00982986833486292,0.007690590460681253,11.98851377275255,0.00855711190060853,0.008995719952508807
358,0.25,0.001,0.009912264562315412,0.007792784368826283,11.877566736009387,0.008477920582447814,0.009998292196542025
359,0.25,0.001,0.009839640176958509,0.007648585492538081,12.278671124776205,0.008764219218255678,0.013796762330457568
360,0.25,0.001,0.009864514507353307,0.007691799418793784,12.17589530520969,0.008690860317779936,0.015409394400194287
361,0.25,0.001,0.009753069823814763,0.007570156386742989,12.233047960069445,0.008731654503975336,0.016129899537190795
362,0.25,0.001,0.009812144231465128,0.007746963670684232,11.573271772596572,0.008260722178869787,0.01723100757226348
363,0.25,0.001,0.009756582354505857,0.007697070810116,11.541502469380697,0.008238046016688578,0.012066894327290356
364,0.25,0.001,0.009692505788471964,0.007610255806810326,11.668928841484918,0.008328999886855759,0.011620630975812674
365,0.25,0.001,0.009695912570589119,0.007600402724411753,11.74323740641276,0.008382039547760714,0.010249054175801575
366,0.25,0.001,0.009700813624593947,0.007618502825498581,11.669269303215875,0.008329242900225464,0.011380935204215348
367,0.25,0.001,0.009817542429599497,0.0076777939394944246,11.991149088541667,0.008558992925440162,0.012488546781241894
368,0.25,0.001,0.009805094939139154,0.00762096531689167,12.239863671196831,0.008736519394144776,0.013299511512741446
369,0.25,0.001,0.009750971487826771,0.007628339820851883,11.895227576361762,0.008490526464212535,0.012220685835927725
370,0.25,0.001,0.009667678789960013,0.007540066707879305,11.923139131334093,0.00851044905876809,0.010119322803802788
371,0.25,0.001,0.009770423277384706,0.007674464945577913,11.745750584072537,0.008383833393342283,0.008804882527329028
372,0.25,0.001,0.009675400952498118,0.007581610694113705,11.733600311279297,0.008375160821755387,0.011938219657167792
373,0.25,0.001,0.009681906567679512,0.00759620836418536,11.688252334594727,0.008342792530046201,0.008715158910490572
374,0.25,0.001,0.009724721068309412,0.0076030857943826255,11.88964469909668,0.00848654154111112,0.01067618140950799
375,0.25,0.001,0.009783087534209093,0.0076766161868969595,11.804664967854817,0.00842588505913977,0.00804097403306514
376,0.25,0.001,0.009728158190846443,0.007629986508852906,11.758154356214735,0.008392686906648633,0.007619605748914182
377,0.25,0.001,0.009615838022695647,0.00748358741402626,11.949131325615777,0.008529001659968435,0.007660372415557504
378,0.25,0.001,0.009714077669713233,0.007573300595912669,11.996914621988932,0.008563108224117724,0.007241710205562413
379,0.25,0.001,0.009617272838950157,0.0075345267893539535,11.671709365844727,0.008330984558061904,0.007910856627859175
380,0.25,0.001,0.009687365409400728,0.007633696521321932,11.508759757147894,0.008214675058635185,0.008288924116641283
381,0.25,0.001,0.009738583949704964,0.0076032063054541745,11.966656663682725,0.008541510823470896,0.010439403471536934
382,0.25,0.001,0.009682662242816555,0.007531666428678566,12.054180959065755,0.008603983553937013,0.010323315858840942
383,0.25,0.001,0.009727709922525618,0.007583530512120989,12.0159820344713,0.008576718083134404,0.011037982068955898
384,0.25,0.001,0.009635396670136187,0.007557877101418045,11.642419730292426,0.008310078322835422,0.010354632278904319
385,0.25,0.001,0.00967148362348477,0.007595728257050117,11.63253121693929,0.008303020140570513,0.010172367212362587
386,0.25,0.001,0.009631640534434053,0.0074869896761245195,12.018623847961425,0.008578603745868255,0.009935298818163574
387,0.25,0.001,0.009612775821652677,0.007543552360600896,11.595928048027886,0.008276893681675864,0.007764144218526781
388,0.25,0.001,0.009624895672831271,0.007602903532485167,11.331242213779026,0.00808796731890009,0.015211417456157506
389,0.25,0.001,0.009627089293466675,0.007544520420746671,11.670715993245443,0.008330275512666269,0.01469709281809628
390,0.25,0.001,0.00969881009724405,0.007607819123400582,11.71791254679362,0.008363963273942628,0.011521706474013627
391,0.25,0.001,0.009639737519125143,0.007483416818496254,12.084022386338976,0.008625283644781568,0.011988600715994835
392,0.25,0.001,0.009578708782792092,0.0074369824222392505,12.0022338019477,0.008566904926443753,0.008939685416407883
393,0.25,0.001,0.009621837308837308,0.0075538674866159755,11.588902829488118,0.008271879250169962,0.013580227154307067
394,0.25,0.001,0.009604641418490144,0.007518443684611056,11.691052585177951,0.008344791281354713,0.011775762308388948
395,0.25,0.001,0.009628135023845567,0.007593662991291947,11.401181894938151,0.008137888575972984,0.010072722216136754
396,0.25,0.001,0.009616026754180591,0.007554973260396057,11.55014520433214,0.008244214992385538,0.012486683670431376
397,0.25,0.001,0.009599183061056667,0.0075468936603930266,11.501027937995064,0.008209156272658861,0.009077672846615314
398,0.25,0.001,0.009597704493337208,0.007496091057029035,11.77744150797526,0.008406453610260713,0.007735477527603507
399,0.25,0.001,0.0096702062835296,0.007542694865001573,11.922575251261394,0.008510046574776156,0.010109747527167201
400,0.25,0.001,0.00959107710255517,0.007481771144602034,11.820552355448404,0.008437225093110923,0.009876440395601094
401,0.25,0.001,0.00964046017991172,0.00754550038319495,11.740156067742241,0.008379840162556917,0.01572539214976132
402,0.25,0.001,0.009534119210309453,0.007486122496840027,11.476974652608236,0.008191987617850276,0.01089558401145041
403,0.25,0.001,0.00970350099934472,0.007567826501197285,11.968319346110025,0.00854269760607425,0.013920573517680168
404,0.25,0.001,0.00968802913195557,0.007519163948794206,12.154319712320964,0.008675460180100616,0.012178212404251099
405,0.25,0.001,0.009631150166193644,0.00748446862730715,12.030003034803602,0.008586725934906211,0.015190391335636377
406,0.25,0.001,0.009572051204741002,0.007474741339683533,11.753324746025934,0.008389239647413229,0.01151708303950727
407,0.25,0.001,0.009600790407922532,0.007528408260809051,11.613627734714084,0.008289527291016478,0.012255312642082572
408,0.25,0.001,0.009516237560245725,0.00745939542642898,11.526543256971571,0.008227368491771286,0.012302953633479774
409,0.25,0.001,0.00951588451448414,0.007450220880823003,11.575978690253363,0.008262654311387126,0.011587584856897593
410,0.25,0.001,0.009610802998973263,0.007553407491909133,11.529645114474826,0.008229582522822859,0.014165510656312108
411,0.25,0.001,0.00957284574293428,0.007507823962304328,11.572381824917263,0.00826008695568684,0.014925143215805292
412,0.25,0.001,0.009565627127885818,0.007455915227118466,11.822825342814127,0.008438847496655338,0.010647769551724195
413,0.25,0.001,0.009483536001708773,0.0073543425111307036,11.932000647650824,0.008516774195325356,0.01184818719048053
414,0.25,0.001,0.00956048490272628,0.007523266664809651,11.416570680406359,0.00814887271977613,0.014588990365155041
415,0.25,0.001,0.009555657050675816,0.0074450948296321765,11.82759095509847,0.008442249075730528,0.016156406491063535
416,0.25,0.001,0.009557486515906122,0.007476196162816551,11.663551597595214,0.008325161739896655,0.01053925126325339
417,0.25,0.001,0.009500433579087258,0.007483734596106741,11.301583396063911,0.008066797570352542,0.011177541804499924
418,0.25,0.001,0.009624098709060086,0.007520669930511051,11.78761506398519,0.008413715249097209,0.010115310782566667
419,0.25,0.001,0.009481009037958251,0.007309836397568385,12.16725163353814,0.00868469067347476,0.010821444215252995
420,0.25,0.001,0.009522076373298964,0.007453281188176738,11.593527632819281,0.008275180323211478,0.009768438758328557
421,0.25,0.001,0.009537223325007492,0.00744528166949749,11.723241216871473,0.008367766750086705,0.00886904785875231
422,0.25,0.001,0.009460500420795546,0.007342213578522205,11.87087882147895,0.008473146910406102,0.01135647133924067
423,0.25,0.001,0.009484126480917137,0.007360620175798734,11.900131068759494,0.008494026458786219,0.008273064973764122
424,0.25,0.001,0.009556079299913513,0.007454820231844982,11.77545684814453,0.008405037007954697,0.010503052268177271
425,0.25,0.001,0.009625727434953053,0.007490289132628176,11.966996311611599,0.008541753255968308,0.010039176791906357
426,0.25,0.001,0.009437654941446251,0.0073435293717516795,11.735477578904893,0.008376500770096284,0.007638036040589213
427,0.25,0.001,0.009603126301533645,0.007486219977339109,11.863143230014376,0.008467625431844665,0.012739460449665785
428,0.25,0.001,0.009518315096696218,0.007391328968935543,11.919631606207954,0.008507945471954286,0.00850260746665299
429,0.25,0.001,0.009607556516097652,0.007515013876060645,11.726609280904134,0.008370170792936569,0.008312318939715624
430,0.25,0.001,0.009601970062487655,0.007445938649276893,12.082399453057183,0.008624125234159303,0.01002693420741707
431,0.25,0.001,0.009580679171615177,0.0074168252117104,12.12623806423611,0.008655416177184946,0.008609786280430853
432,0.25,0.001,0.009446296203467581,0.007312118421412176,11.959931788974338,0.008536710770145851,0.010823597549460828
433,0.25,0.001,0.009426189731392596,0.007401933949440717,11.343928260803223,0.008097022313207154,0.008611091645434499
434,0.25,0.001,0.00949807015972005,0.00746548595941729,11.39060203552246,0.008130336927567781,0.009891562163829803
435,0.25,0.001,0.009463828487528695,0.007321793962683942,12.003961974249945,0.00856813845413986,0.011523837922140956
436,0.25,0.001,0.009482340854075219,0.007396759715759092,11.687596041361491,0.008342324083769802,0.011520181666128337
437,0.25,0.001,0.00951093370301856,0.007397319802807437,11.844690924750434,0.008454454621520653,0.012397610116750002
438,0.25,0.001,0.009540857250491778,0.007475248782171143,11.575669996473524,0.008262433973214507,0.014528646017424762
439,0.25,0.001,0.009541738534139262,0.007515177507367399,11.356849598354763,0.008106245252216105,0.00975301384460181
440,0.25,0.001,0.009487081840634346,0.00732083395951324,12.139653693305121,0.008664991929553976,0.010628630174323916
441,0.25,0.001,0.009562864655421839,0.007432148905677928,11.940529840257433,0.008522862127235855,0.011519904481247067
442,0.25,0.001,0.00953042131745153,0.007330896500498056,12.326135847303602,0.00879809839207966,0.01214673276990652
443,0.25,0.001,0.00945879087679916,0.007296497989445924,12.11748934427897,0.008649171551947873,0.011098071467131376
444,0.25,0.001,0.009491665967636639,0.007426465346167485,11.573386234707302,0.008260803879162957,0.01026274322066456
445,0.25,0.001,0.009486800585356024,0.007340604186885887,12.027284562852648,0.008584785555212453,0.012587302131578326
446,0.25,0.001,0.009438470419910219,0.007378069659074148,11.546487087673611,0.00824160391696903,0.013876268407329917
447,0.25,0.001,0.009546393147773212,0.007521120996938811,11.349623773362902,0.008101087632664455,0.01406478090211749
448,0.25,0.001,0.00951539873662922,0.00734273041288058,12.175633176167805,0.008690673216393866,0.012273517320863903
449,0.25,0.001,0.009449239998228021,0.007271389274133577,12.20467510647244,0.008711402645590607,0.00904535735026002
450,0.25,0.001,0.009463998774687449,0.00732357376979457,11.994942673577203,0.008561700694915918,0.009717116132378578
451,0.25,0.001,0.009498154889378283,0.0074364345893263815,11.553881615532768,0.008246881952557293,0.01763651706278324
452,0.25,0.001,0.00956488156484233,0.007525674522750907,11.427716301812065,0.008156828195440446,0.02222652197815478
453,0.25,0.001,0.009545450276798673,0.0073536263116531905,12.28298074086507,0.008767295318247732,0.017905924003571272
454,0.25,0.001,0.009409278718133768,0.007247899050513903,12.112372529771593,0.008645519293198853,0.010260198381729424
455,0.25,0.001,0.009417639511326948,0.0073078503376907775,11.823259268866645,0.008439157222602887,0.009120249771513045
456,0.25,0.001,0.009401769671175215,0.007311157021257612,11.715792473687065,0.008362450016907256,0.011727683944627643
457,0.25,0.001,0.009508482143282891,0.007438834359248479,11.59830647362603,0.008278591344486816,0.010724100284278393
458,0.25,0.001,0.009412024550967747,0.0073020788840949535,11.824135199652778,0.008439782440865651,0.01106948172673583
459,0.25,0.001,0.009404622933102978,0.007280200976464484,11.905261480543349,0.008497688422943147,0.011546786990948021
460,0.25,0.001,0.009507427087260618,0.0073708332454164825,11.973471162584094,0.008546374848382651,0.011419706279411912
461,0.25,0.001,0.009536462020542886,0.007406662359005875,11.935398614671495,0.008519199582206635,0.014471290400251746
462,0.25,0.001,0.009413489964273242,0.007255859888262219,12.091358502705893,0.008630519987655884,0.013174846302717924
463,0.25,0.001,0.009440163829260403,0.007374093619485696,11.578257921006944,0.008264281171311167,0.01593624707311392
464,0.25,0.001,0.009396579207645523,0.007311585433781147,11.684305318196614,0.008339975244965464,0.012330304831266403
465,0.25,0.001,0.009440307033558687,0.007287756287389331,12.062893753051759,0.008610202536082625,0.008590615005232394
466,0.25,0.001,0.009496130115456051,0.007378910527461105,11.864899385240342,0.008468878933076619,0.01044027938041836
467,0.25,0.001,0.009472408667206764,0.0073390232895811395,11.955491591559516,0.008533541464353688,0.011994170024991035
468,0.25,0.001,0.009406011063191626,0.007214631997048855,12.28048661549886,0.008765515071733662,0.009456073748879135
469,0.25,0.001,0.009457910719017188,0.00736150799319148,11.74824217054579,0.00838561182765581,0.012675806414335966
470,0.25,0.001,0.009382399552398257,0.007223475852774249,12.098608508639865,0.008635694866980632,0.017583610489964485
471,0.25,0.001,0.009490734736124674,0.0074240794674389895,11.581535839504665,0.008266620870453009,0.019523422699421644
472,0.25,0.001,0.009404439226620728,0.007291651403324472,11.840062815348308,0.008451151188685445,0.015491295838728547
473,0.25,0.001,0.009483921950062117,0.007340451122985946,12.012010349697537,0.008573883190362267,0.014835324720479548
474,0.25,0.001,0.009405635785725381,0.007267238100369771,11.983579631381565,0.008553590029537162,0.010583011899143457
475,0.25,0.001,0.009441973740855853,0.007299297398163213,12.007559466891818,0.008570706257595873,0.015183721436187625
476,0.25,0.001,0.009355121842688984,0.007208242983453804,12.031109809875488,0.008587515924250885,0.009505251422524452
477,0.25,0.001,0.009426136074794663,0.00730569489300251,11.882953448825413,0.008481765488098082,0.012370995478704572
478,0.25,0.001,0.009383844700124528,0.007251070886850357,11.95206548055013,0.008531095988972255,0.010145996231585741
479,0.25,0.001,0.00938662167224619,0.007317785579297278,11.593757637871636,0.008275344495268833,0.008498415700159967
480,0.25,0.001,0.009394778220189942,0.007293521623230643,11.775443267822265,0.008405027314648298,0.009796140482649207
481,0.25,0.001,0.00938553287751145,0.007205823734402657,12.215088823106553,0.008718835705286618,0.009755508974194527
482,0.25,0.001,0.009381869017250008,0.007234145009683238,12.035845286051432,0.008590895992898952,0.010929098934866488
483,0.25,0.001,0.009342593513429165,0.007232293743226263,11.826120868259006,0.008441199763211282,0.01054713292978704
484,0.25,0.001,0.009450443387031555,0.007388585727247927,11.554650175306532,0.008247430531981821,0.009754994069226086
485,0.25,0.001,0.009379438194963667,0.007300700183129973,11.649247436523437,0.00831495177482044,0.012236326234415174
486,0.25,0.001,0.009410747898121675,0.00723947600978944,12.167808159722222,0.008685087908438418,0.014543374185450375
487,0.25,0.001,0.009369565608600776,0.007265269830822945,11.79247311062283,0.008417182805583746,0.011195887811481953
488,0.25,0.001,0.00941609194709195,0.007256591866413752,12.101837327745226,0.00863799952016076,0.012135252822190523
489,0.25,0.001,0.009419206616779169,0.007252283630271752,12.143436970180936,0.008667692341314016,0.010710283648222685
490,0.25,0.001,0.009397207622726758,0.007289829038911395,11.809749149746365,0.008429514025514893,0.01375361462123692
491,0.25,0.001,0.009378640614449978,0.007251750998612907,11.919090338812934,0.008507559128346134,0.014934413833543658
492,0.25,0.001,0.009399387488762538,0.007226633578538894,12.176111640930175,0.008691014732997984,0.00909173977561295
493,0.25,0.001,0.009360745801693863,0.007179188666244348,12.225447633531358,0.008726229574255074,0.008109065471217036
494,0.25,0.001,0.009355698256856865,0.007200471851974726,12.077887713114421,0.008620904863036703,0.008066980866715312
495,0.25,0.001,0.009356807813876204,0.007241872739460733,11.852095964219835,0.008459740160042709,0.010785836027935147
496,0.25,0.001,0.009365284703671933,0.007220365417500337,12.020126660664877,0.008579676417319684,0.008720564539544284
497,0.25,0.001,0.009380333266324467,0.00720189969572756,12.207940381368001,0.008713733320034263,0.008761458564549685
498,0.25,0.001,0.009357557677560382,0.007172535347441832,12.244866337246364,0.00874009017647849,0.007554304087534547
499,0.25,0.001,0.009403358226021131,0.007172897155914041,12.499505250718858,0.008921845289592332,0.010671128984540701
500,0.25,0.001,0.009304590349396069,0.007246193840271897,11.535252350701226,0.008233584832763189,0.008806121768429875
