epoch,beta,learning_rate,train_loss,train_reconstruction_loss,train_kl_unnormalized,train_kl_normalized,mean_unclipped_gradient_norm
1,0.0,0.001,0.10224061042070388,0.10224061042070388,4.990740518569947,0.0035622701774232312,0.13217139802873135
2,0.02,0.001,0.09268018454313279,0.09168046861886978,70.03015380859375,0.04998583426737598,0.14420132339000702
3,0.04,0.001,0.0779518362879753,0.06922136813402176,305.784677734375,0.21826172572046754,0.26476844772696495
4,0.06,0.001,0.06872250095009803,0.0442237351834774,572.0462255859375,0.4083127948507762,0.21374757960438728
5,0.08,0.001,0.054431920498609544,0.03954924985766411,260.6327728271484,0.18603338531559488,0.14457135647535324
6,0.1,0.001,0.046044079065322874,0.04059483721852303,76.34389251708984,0.05449242863461088,0.1798604540526867
7,0.12,0.001,0.039672787338495254,0.0343861048668623,61.722031097412106,0.0440556967147838,0.1051146350800991
8,0.14,0.001,0.034930999130010604,0.029822904467582702,51.117434387207034,0.0364863914255582,0.08930518571287394
9,0.16,0.001,0.033752949982881544,0.03018134757876396,31.273841247558593,0.022322513381555026,0.12946827709674835
10,0.18,0.001,0.03309978157281876,0.028148237615823746,38.5395149230957,0.02750857596223819,0.09223267156630754
11,0.2,0.001,0.03200498566031456,0.028805112168192863,22.415108642578126,0.01599936377057682,0.12244712375104427
12,0.22,0.001,0.03177276261150837,0.02787634402513504,24.81309555053711,0.017710988972546117,0.11480934359133244
13,0.24,0.001,0.030748367384076117,0.028303491920232772,14.27196434020996,0.010186983825988552,0.06738221691921353
14,0.25,0.001,0.030411044806241988,0.027768634781241416,14.808065338134766,0.010569639784535878,0.05290222354233265
15,0.25,0.001,0.03025859236717224,0.02719817005097866,17.15060516357422,0.01224168819669823,0.09235983435064554
16,0.25,0.001,0.029284882098436354,0.02688477225601673,13.450212097167968,0.00960043690019127,0.07505859015509486
17,0.25,0.001,0.028446581810712815,0.025345701798796652,17.37733154296875,0.01240352001639454,0.0844292500987649
18,0.25,0.001,0.026722050532698632,0.02392732337117195,15.661648826599121,0.011178907085366967,0.052985239773988724
19,0.25,0.001,0.025828051418066024,0.02248910441994667,18.711457672119142,0.01335578706075599,0.07547713443636894
20,0.25,0.001,0.02469568982720375,0.02144132919609547,18.237435607910157,0.013017441547401969,0.050065457820892334
21,0.25,0.001,0.023962106481194498,0.020614202693104745,18.761653900146484,0.013391615917306556,0.07138002850115299
22,0.25,0.001,0.023201782032847406,0.01964640974998474,19.924307403564452,0.014221489938304391,0.02859988948330283
23,0.25,0.001,0.02279334291815758,0.019107476100325583,20.655597076416015,0.01474346686396575,0.04522224189713597
24,0.25,0.001,0.022118114307522772,0.018560081869363785,19.939214172363283,0.01423213003023789,0.027761857956647873
25,0.25,0.001,0.021668982580304145,0.018382528424263002,18.417288970947265,0.013145816538863144,0.07745848409831524
26,0.0,0.001,0.017772594466805458,0.017772594466805458,19.6658154296875,0.014036984603631333,0.03503437666222453
27,0.02,0.001,0.017033476755023,0.016667145527899264,25.661522521972657,0.018316575675926237,0.04435735521838069
28,0.04,0.001,0.016948008686304094,0.01594213388860226,35.23075454711914,0.02514686263177669,0.049669426400214434
29,0.06,0.001,0.017068726867437364,0.01515837773680687,44.60666305541992,0.031839159925353265,0.06382449343800545
30,0.08,0.001,0.017480561323463917,0.01470003679394722,48.69393569946289,0.03475655653066587,0.053912363247945905
31,0.1,0.001,0.01810311421751976,0.01480618953704834,46.189920043945314,0.03296925056669901,0.05254887277260423
32,0.12,0.001,0.018114633783698084,0.014691857844591141,39.96091156005859,0.028523134589620695,0.029861000832170248
33,0.14,0.001,0.018433412313461305,0.01503446601331234,34.01374420166016,0.02427819000832274,0.026753110345453024
34,0.16,0.001,0.018440732806921004,0.015268557071685791,27.776362686157228,0.01982609756328139,0.10896541737020016
35,0.18,0.001,0.018962704241275788,0.015974847413599492,23.255486907958986,0.016599205501755164,0.09772160463035107
36,0.2,0.001,0.01988941729068756,0.016356771737337114,24.746178665161132,0.017663225314176398,0.13603014592081308
37,0.22,0.001,0.019561220183968542,0.01615398019552231,21.697925567626953,0.015487455794166277,0.117979142582044
38,0.24,0.001,0.019550006240606307,0.015600563511252403,23.054871368408204,0.016456010969599002,0.07407818245701492
39,0.25,0.001,0.01925020679831505,0.015548220872879027,20.745927658081055,0.014807942653876556,0.06752762757241726
40,0.25,0.001,0.018963168263435363,0.015339609049260617,20.306426010131837,0.014494236980822153,0.056381214410066605
41,0.25,0.001,0.019043588042259217,0.015609214343130588,19.246232528686523,0.013737496451596377,0.0624742740765214
42,0.25,0.001,0.01915686160326004,0.015481318905949592,20.597740173339844,0.0147021700023839,0.0812676278874278
43,0.25,0.001,0.018842164650559424,0.01551742859184742,18.631822967529295,0.013298945729856742,0.11011582612991333
44,0.25,0.001,0.019083585292100906,0.015475905016064644,20.21743843078613,0.014430719793566119,0.06009542848914862
45,0.25,0.001,0.018576197251677515,0.015088535211980343,19.54485824584961,0.013950648283975454,0.09299149736762047
46,0.25,0.001,0.01853082574903965,0.014937876276671886,20.134885559082033,0.014371795545383322,0.051138002425432205
47,0.25,0.001,0.01784748151898384,0.014257738925516605,20.116914978027342,0.014358968578177974,0.06548325903713703
48,0.25,0.001,0.017804010286927224,0.014176288768649101,20.329752044677733,0.014510886541525861,0.04919489333406091
49,0.25,0.001,0.017180685475468634,0.01353613130748272,20.424078979492187,0.014578214831900204,0.046213509514927864
50,0.25,0.001,0.01690692126750946,0.013342331238090992,19.975961837768555,0.014258359627243793,0.036355142248794436
51,0.0,0.001,0.012976136989891529,0.012976136989891529,21.077706756591798,0.01504475857001556,0.047638398129493
52,0.02,0.001,0.012654897309839725,0.012299662381410599,24.884223022460937,0.017761758046010663,0.05812413617968559
53,0.04,0.001,0.012422570921480657,0.01145589143037796,33.85795074462891,0.024166988397308287,0.0892905117943883
54,0.06,0.001,0.013108502402901649,0.011324504129588605,41.656358032226564,0.029733303377749154,0.0652279001660645
55,0.08,0.001,0.013433325514197349,0.010630724914371968,49.08054473876953,0.035032508735738425,0.05758815794251859
56,0.1,0.001,0.013964511156082153,0.01059890829026699,47.15209854125977,0.033656030364924885,0.06900823209434748
57,0.12,0.001,0.014243951588869095,0.010514449141919614,43.54194122314453,0.031079187168554272,0.06298382114619017
58,0.14,0.001,0.01444376915693283,0.010685271136462688,37.61182708740235,0.026846414766168697,0.0521438242867589
59,0.16,0.001,0.01440291479229927,0.01094844751060009,30.248179092407227,0.021590420479948056,0.034961909521371126
60,0.18,0.001,0.014468575045466423,0.011213499270379543,25.33533950805664,0.018083754109961915,0.02363704494200647
61,0.2,0.001,0.014783986434340477,0.011496294662356377,23.030281982421876,0.016438459659116257,0.03447452513501048
62,0.22,0.001,0.015340867564082145,0.012028469368815423,21.093953247070313,0.015056354922962393,0.055393504444509745
63,0.24,0.001,0.015989648327231407,0.012706731595098972,19.164026947021483,0.013678820090664871,0.08779763663187623
64,0.25,0.001,0.015862530320882796,0.011924760974943638,22.067257766723632,0.015751076207511514,0.07366557139903307
65,0.25,0.001,0.01559434562921524,0.012013685144484042,20.066019973754884,0.014322640952002058,0.09276569075882435
66,0.25,0.001,0.015798985175788403,0.011883655600249766,21.941506729125976,0.01566131815069663,0.09159836824983358
67,0.25,0.001,0.015435559526085853,0.011936002783477307,19.611516494750976,0.013998227333869361,0.052997978404164314
68,0.25,0.001,0.015366140529513359,0.01177836250513792,20.10590621948242,0.014351110791921785,0.03068995289504528
69,0.25,0.001,0.01545877069234848,0.011931807287037372,19.765102081298828,0.014107853020199021,0.060443305876106024
70,0.25,0.001,0.015079294294118882,0.011554948277771473,19.750434265136718,0.014097383486892733,0.06282170256599784
71,0.25,0.001,0.015363105461001397,0.012040232606232167,18.621381072998048,0.013291492557457565,0.1094674332998693
72,0.25,0.001,0.015865189582109453,0.012162588611245155,20.749375610351564,0.014810403719023243,0.10359417367726564
73,0.25,0.001,0.015262224674224854,0.01194854062050581,18.56988540649414,0.013254736193072192,0.06694173673167825
74,0.25,0.001,0.015149845853447913,0.011659849360585213,19.557940368652343,0.01395998598761766,0.05491176154464483
75,0.25,0.001,0.01538001324981451,0.011880180202424526,19.613064422607422,0.013999332207428567,0.07820737501606345
76,0.0,0.001,0.01209183394908905,0.01209183394908905,19.145233001708984,0.013665405425916478,0.05294359941035509
77,0.02,0.001,0.01166192963719368,0.01133985586464405,22.561261825561523,0.01610368438655355,0.0395135167054832
78,0.04,0.001,0.01119276311248541,0.010385132804512977,28.28725082397461,0.020190757190560037,0.016692663775756955
79,0.06,0.001,0.011476014778017997,0.00994690876454115,35.70463073730469,0.025485104023772083,0.024744718801230192
80,0.08,0.001,0.012007777839899062,0.009760482273995875,39.355767517089845,0.028091197371227585,0.030838164500892162
81,0.1,0.001,0.012644075863063335,0.009652900509536266,41.9063623046875,0.029911750395922553,0.04019447648897767
82,0.12,0.001,0.013048073127865791,0.009759161807596683,38.39804214477539,0.027407596106192283,0.03414381667971611
83,0.14,0.001,0.01336750540882349,0.009883934259414673,34.86059417724609,0.024882651090111414,0.02367476373910904
84,0.16,0.001,0.013608185797929764,0.010151220932602883,30.27005126953125,0.02160603231229925,0.03057825635187328
85,0.18,0.001,0.013788863644003868,0.0105423603951931,25.26861587524414,0.018036128390609665,0.024208585964515805
86,0.2,0.001,0.014129552245140075,0.01094117432832718,22.334586639404296,0.01594188910735496,0.02964385785162449
87,0.22,0.001,0.014276376590132714,0.010893022492527962,21.54581359863281,0.015378881940494513,0.04431401006877422
88,0.24,0.001,0.014613040238618851,0.011278307586908341,19.46650405883789,0.013894720955630187,0.04043671162799001
89,0.25,0.001,0.014428885914385318,0.011028613001108169,19.05512840270996,0.013601090936980701,0.033204051898792386
90,0.25,0.001,0.014546768367290496,0.010945782400667667,20.179925231933595,0.014403943777254529,0.054239865159615874
91,0.25,0.001,0.014322753399610519,0.01095327951014042,18.882531890869142,0.013477895710827368,0.04368900274857879
92,0.25,0.001,0.014887599647045136,0.011639402322471142,18.202898330688477,0.012992789672154515,0.07019446673803031
93,0.25,0.001,0.014850128293037414,0.011370278336107731,19.501078491210937,0.013919399351328292,0.07747171353548765
94,0.25,0.001,0.01468709722161293,0.011599492132663727,17.302938842773436,0.01235042030176548,0.07864022790454328
95,0.25,0.001,0.01433171335607767,0.010996392257511615,18.691140441894532,0.013341285111987532,0.039613102562725544
96,0.25,0.001,0.014055348969995975,0.010871722400188445,17.84104232788086,0.012734505587352505,0.020647785160690546
97,0.25,0.001,0.014471222534775735,0.011484706662595273,16.736436309814454,0.011946064460966776,0.0386938638985157
98,0.25,0.001,0.014470812603831292,0.011341275237500668,17.537927322387695,0.012518149409270303,0.05632948596030474
99,0.25,0.001,0.014102059416472912,0.01111404325813055,16.74484375,0.011952065488936474,0.04345052316784859
100,0.25,0.001,0.01399907112121582,0.010847310535609722,17.662467041015624,0.012607042855828426,0.02788898185826838
101,0.25,0.001,0.013948202505707741,0.01075435295701027,17.898333282470702,0.012775398488558673,0.037456472869962454
102,0.25,0.001,0.01400615319609642,0.011053268387913704,16.547966346740722,0.011811539148280316,0.0465566017664969
103,0.25,0.001,0.014276880994439125,0.011198293082416058,17.252407150268553,0.012314351998764135,0.05264915432780981
104,0.25,0.001,0.014091374352574348,0.011076552122831344,16.89506332397461,0.01205928859669851,0.05981511157006025
105,0.25,0.001,0.01398850180208683,0.01080671913921833,17.830709533691405,0.012727130288145184,0.059462646720930934
106,0.25,0.001,0.014106022715568543,0.01097850278019905,17.526621284484865,0.012510079432180488,0.050315388827584684
107,0.25,0.001,0.014009025208652019,0.011119151003658772,16.194852905273436,0.01155949529284328,0.03792207036167383
108,0.25,0.001,0.014007615484297275,0.010967831909656525,17.034947280883788,0.012159134390352454,0.028365727979689837
109,0.25,0.001,0.013726890236139298,0.010690397955477238,17.016502799987794,0.012145969164873515,0.016087232972495258
110,0.25,0.001,0.01385706290602684,0.01087979193776846,16.684626007080077,0.01190908351683089,0.04664372559636831
111,0.25,0.001,0.013603891506791114,0.010563722662627697,17.037107391357424,0.012160676225094522,0.0470295874401927
112,0.25,0.001,0.013699018359184266,0.010857761353254319,15.922403564453125,0.01136502752637625,0.04732077568769455
113,0.25,0.001,0.013902334831655025,0.010995812080800534,16.288153076171874,0.011626090703905691,0.03557472676038742
114,0.25,0.001,0.0137701028957963,0.01058510147035122,17.8487491607666,0.01274000653873419,0.048928629606962204
115,0.25,0.001,0.013685534968972205,0.010652934648096562,16.9946923828125,0.012130401415283725,0.03040389157831669
116,0.25,0.001,0.013670841492712497,0.010695737712085247,16.672481994628907,0.01190041541372513,0.026987891644239426
117,0.25,0.001,0.013661837354302406,0.01069186620414257,16.643719100952147,0.011879885154141432,0.0495361820794642
118,0.25,0.001,0.013363679647445679,0.010463010929524898,16.255346298217773,0.011602674017286062,0.03008121927268803
119,0.25,0.001,0.013566086143255234,0.010686266496777534,16.138510437011718,0.011519279398295302,0.04356644535437226
120,0.25,0.001,0.013555389270186425,0.010479241199791432,17.238734893798828,0.012304593071947771,0.035073691979050636
121,0.25,0.001,0.013490528911352157,0.010343781113624573,17.634375076293946,0.012586991489146285,0.0245012731757015
122,0.25,0.001,0.013548396080732345,0.010580747723579406,16.630702133178712,0.011870593956587232,0.03997511672787368
123,0.25,0.001,0.01347677517682314,0.010516689158976078,16.588322525024413,0.011840344414721208,0.033908115699887276
124,0.25,0.001,0.013314601480960846,0.0105338878557086,15.583120727539063,0.011122855622797332,0.02014836366288364
125,0.25,0.001,0.01333724197000265,0.010570292584598065,15.505985794067383,0.011067798568213693,0.019921799539588392
126,0.25,0.001,0.013431450799107552,0.01052454836666584,16.290281143188476,0.011627609666801196,0.03201002907007933
127,0.25,0.001,0.013312206342816353,0.01049886118620634,15.765986404418946,0.011253380731205529,0.048841861076653004
128,0.25,0.001,0.01337325941771269,0.010470919869840145,16.26471115112305,0.011609358423356923,0.02442317921668291
129,0.25,0.001,0.013276371285319328,0.01032657790929079,16.530643005371093,0.011799174165147105,0.048967679031193256
130,0.25,0.001,0.01294234823435545,0.01008607029914856,16.006581497192382,0.01142511170392033,0.022642838302999735
131,0.25,0.001,0.01330473080277443,0.010394344367086887,16.30980453491211,0.011641544992799508,0.03243915783241391
132,0.25,0.001,0.013199273347854614,0.010348496921360494,15.975751953125,0.011403106319147038,0.020747457398101687
133,0.25,0.001,0.013143328204751014,0.010283225141465664,16.028019256591797,0.011440413459380298,0.034017801750451326
134,0.25,0.001,0.01317589718848467,0.010343917459249497,15.870414123535156,0.011327918717726735,0.041542642982676625
135,0.25,0.001,0.013207338824868202,0.010301203727722167,16.28598129272461,0.011624540537276667,0.042331459699198604
136,0.25,0.001,0.013349420428276061,0.010570343397557736,15.573947677612304,0.01111630812106517,0.03725514910183847
137,0.25,0.001,0.013091564439237117,0.010270243100821972,15.81068588256836,0.011285286140305752,0.027029564138501883
138,0.25,0.001,0.013251893371343613,0.010474428273737431,15.564914970397949,0.011109860792575267,0.03402919229120016
139,0.25,0.001,0.01295672420412302,0.010137624982744455,15.798231048583984,0.011276396180288355,0.04209645092487335
140,0.25,0.001,0.012872399874031543,0.010091551505029201,15.583874778747559,0.011123393846358,0.012568446341902018
141,0.25,0.001,0.013008228950202465,0.010320282764732838,15.063250732421874,0.010751784962471003,0.025842605158686638
142,0.25,0.001,0.012922447510063648,0.010180760361254215,15.364414138793945,0.010966748136184114,0.02106220182031393
143,0.25,0.001,0.012824720405042171,0.010003004148602486,15.81289836883545,0.011286865359625588,0.052857003174722195
144,0.25,0.001,0.013085447698831559,0.010419865846633911,14.937920379638673,0.01066232718032739,0.04710036236792803
145,0.25,0.001,0.012871176600456238,0.010149810947477817,15.250532722473144,0.01088546232867462,0.04284328455105424
146,0.25,0.001,0.012833856754004955,0.010220972932875156,14.64260040283203,0.010451534905661692,0.018376071471720934
147,0.25,0.001,0.012976739406585693,0.010450943429023028,14.15456039428711,0.01010318372183234,0.05817030090838671
148,0.25,0.001,0.012836464047431946,0.010195880346000195,14.79783275604248,0.010562336014305838,0.03877690900117159
149,0.25,0.001,0.012762348651885986,0.010040694512426854,15.252150421142579,0.010886617002956872,0.03526690416038036
150,0.25,0.001,0.012812578678131103,0.01013588696718216,15.000179748535157,0.01070676641579954,0.03907858789898455
151,0.25,0.001,0.012591894343495369,0.009927046224474908,14.93380859375,0.010659392286759457,0.024238162790425122
152,0.25,0.001,0.012645816914737224,0.009947001151740551,15.124164276123047,0.010795263580387614,0.026198937091976404
153,0.25,0.001,0.012621719539165497,0.009943905398249625,15.006469116210937,0.01071125561471159,0.025336966151371598
154,0.25,0.001,0.012668723352253436,0.009931785091757774,15.337802581787109,0.01094775344881307,0.02139789890497923
155,0.25,0.001,0.012709379382431506,0.010006644502282143,15.14612678527832,0.010810939889563397,0.022001830162480474
156,0.25,0.001,0.012571024410426616,0.009856618605554104,15.211529273986816,0.010857622608127634,0.03220459073781967
157,0.25,0.001,0.012488630190491677,0.009933572262525558,14.318545761108398,0.010220232520419984,0.02900106436572969
158,0.25,0.001,0.01252214603126049,0.010002789162099361,14.11847442626953,0.010077426428457908,0.02969945129007101
159,0.25,0.001,0.012477382868528366,0.009940527416765689,14.216539840698243,0.010147423155387754,0.02462307969108224
160,0.25,0.001,0.012350763231515884,0.00976409561932087,14.495687103271484,0.01034667173681048,0.028757267631590366
161,0.25,0.001,0.012346647754311562,0.009863946083933116,13.913059425354003,0.009930806156569596,0.030517988838255405
162,0.25,0.001,0.012470304071903228,0.010016187019646168,13.752870025634765,0.009816466827719318,0.03255065018311143
163,0.25,0.001,0.012482168450951577,0.009999484419822693,13.912960815429688,0.009930735771184645,0.011932075023651123
164,0.25,0.001,0.012245111726224422,0.009720179960131645,14.149716186523438,0.01009972604320017,0.012813760316930711
165,0.25,0.001,0.012384719625115394,0.009801217913627624,14.477944602966309,0.010334007568141549,0.02477694395929575
166,0.25,0.001,0.012377513349056244,0.009816111400723457,14.354096412658691,0.010245607717814912,0.030262984917499125
167,0.25,0.001,0.012418122813105583,0.00991498440504074,14.027588272094727,0.010012554084293168,0.015859215520322323
168,0.25,0.001,0.012383659034967423,0.009777376018464566,14.60560947418213,0.010425131673220648,0.03353701299056411
169,0.25,0.001,0.012583992779254913,0.009973750524222851,14.627799263000488,0.01044097020913668,0.03714986122213304
170,0.25,0.001,0.012394884675741196,0.009736122824251651,14.89970199584961,0.010635047820021134,0.027412137249484658
171,0.25,0.001,0.01239501617848873,0.009741895645856858,14.86808811187744,0.010612482592346496,0.02664725366048515
172,0.25,0.001,0.012357342913746834,0.009857690520584583,14.00805305480957,0.00999861031749434,0.03352830046787858
173,0.25,0.001,0.012403792664408685,0.009911452569067478,13.967074546813965,0.009969360847119175,0.032533285208046436
174,0.25,0.001,0.012362214140594005,0.009962425157427788,13.448417930603027,0.009599156267382603,0.029878213070333004
175,0.25,0.001,0.012193254157900811,0.0097209108248353,13.855010414123536,0.009889372172821938,0.02470853552222252
176,0.25,0.001,0.012027807906270028,0.009495220705866813,14.192617568969727,0.010130348014967684,0.021964538376778364
177,0.25,0.001,0.01231965932995081,0.009857815131545067,13.796173858642579,0.00984737605898828,0.022302432684227824
178,0.25,0.001,0.012063647881150245,0.009542636461555959,14.127750053405762,0.010084047147327453,0.030938976677134633
179,0.25,0.001,0.012058499045670032,0.009600865542888642,13.772576637268067,0.009830532931668856,0.02735474961809814
180,0.25,0.001,0.012086352445185184,0.009629974812269211,13.765539588928222,0.00982551005633706,0.02142416895367205
181,0.25,0.001,0.01241665579378605,0.009964848794043064,13.739926872253418,0.009807228317097372,0.03172495774924755
182,0.25,0.001,0.012021678201854229,0.009541188962757588,13.900661163330078,0.009921956576252732,0.01987187215127051
183,0.25,0.001,0.011969555020332336,0.009429627284407615,14.23375587463379,0.010159711545063376,0.02015233365818858
184,0.25,0.001,0.012275916039943695,0.009764924347400665,14.07159912109375,0.01004396796651945,0.031200601952150464
185,0.25,0.001,0.012154946625232697,0.009718664437532425,13.652925109863281,0.009745128558075147,0.03563801804557443
186,0.25,0.001,0.012156923972070218,0.009660914428532124,13.987637329101563,0.009984038065026098,0.026150565594434738
187,0.25,0.001,0.012141264416277409,0.009522735439240933,14.674236755371094,0.010474116170857311,0.03224950050935149
188,0.25,0.001,0.012062883526086808,0.009527623429894447,14.207599716186524,0.010141041910197376,0.030220455257222056
189,0.25,0.001,0.012091913856565953,0.00954269215464592,14.285838432312012,0.010196886818209858,0.05504369409754872
190,0.25,0.001,0.012227272614836693,0.009806790947914123,13.564378700256349,0.009681926267135153,0.056025853380560875
191,0.25,0.001,0.012353247068822383,0.009932626821100712,13.56515754699707,0.009682482189148515,0.06247066240757704
192,0.25,0.001,0.012186672315001488,0.009710955377668142,13.873918762207031,0.00990286849550823,0.035455440636724234
193,0.25,0.001,0.012086515203118325,0.009607641287147998,13.891610107421876,0.009915496150907834,0.011262844898737967
194,0.25,0.001,0.011936416327953338,0.00946469809859991,13.85150733947754,0.00988687176265349,0.011426077107898891
195,0.25,0.001,0.011996068581938744,0.00956146515905857,13.643518524169922,0.009738414364146982,0.02443371107801795
196,0.25,0.001,0.01224492710083723,0.009791003912687302,13.751785278320312,0.00981569256125647,0.022196841426193714
197,0.25,0.001,0.012021697200834751,0.009489406831562519,14.190955505371093,0.010129161674069303,0.01839334226679057
198,0.25,0.001,0.011886123083531857,0.009349511377513409,14.21517059326172,0.010146445819601512,0.021481205942109227
199,0.25,0.001,0.0118748077750206,0.009419569559395314,13.759155654907227,0.009820953358249269,0.019323894288390875
200,0.25,0.001,0.011818325519561768,0.009454950913786888,13.244351844787598,0.00945349881854932,0.02248688251711428
201,0.25,0.001,0.012000582441687583,0.009736421890556813,12.688355178833008,0.00905664181215775,0.033076624386012554
202,0.25,0.001,0.011919402852654457,0.009645613767206669,12.742314376831054,0.009095156585889403,0.021263965871185064
203,0.25,0.001,0.011922675892710686,0.00951939906924963,13.467961463928223,0.00961310596997018,0.020709374453872442
204,0.25,0.001,0.011927151307463645,0.00944590087980032,13.904928207397461,0.009925002289362926,0.0229500662535429
205,0.25,0.001,0.011817857660353183,0.009360394477844237,13.771622543334962,0.009829851922437518,0.01468695467337966
206,0.25,0.001,0.011799221225082875,0.009355744533240794,13.693243637084962,0.009773906950096332,0.021531244972720742
207,0.25,0.001,0.01180791385471821,0.00935282364487648,13.75832607269287,0.009820361222478851,0.02362849283963442
208,0.25,0.001,0.011831707656383514,0.009466570615768433,13.254227294921876,0.009460547676603766,0.02334350487217307
209,0.25,0.001,0.01178801864385605,0.009382685534656049,13.479486618041992,0.009621332346925048,0.02108612796291709
210,0.25,0.001,0.01179866962134838,0.009378255065530538,13.564001731872558,0.0096816571961974,0.016598826041445136
211,0.25,0.001,0.011763018630445004,0.009434757232666015,13.047577590942383,0.009313046103456377,0.029073380399495363
212,0.25,0.001,0.011733234450221062,0.009447600767016411,12.808692474365234,0.00914253567049624,0.021238644723780453
213,0.25,0.001,0.011763107553124428,0.009414801970124245,13.159903564453124,0.009393221673414078,0.02379158162511885
214,0.25,0.001,0.011835814341902734,0.009358038995414972,13.885452690124511,0.009911101134992514,0.024870994733646512
215,0.25,0.001,0.011856137178838252,0.009345809705555439,14.067874488830567,0.01004130941386907,0.032470505218952894
216,0.25,0.001,0.011705062836408615,0.009222024120390415,13.914948997497559,0.009932154887578558,0.03483970183879137
217,0.25,0.001,0.01177127256989479,0.009442472718656064,13.050596542358399,0.00931520095814304,0.02777114394120872
218,0.25,0.001,0.01162650689482689,0.009341396298259497,12.805760078430175,0.009140442597023679,0.0213989382609725
219,0.25,0.001,0.011496763117611409,0.009197716936469078,12.883855819702148,0.00919618545303508,0.016583208576776087
220,0.25,0.001,0.01166756335645914,0.009381677024066448,12.81010684967041,0.009143545217466388,0.027970884926617146
221,0.25,0.001,0.011768569834530354,0.009393117800354957,13.312033805847168,0.00950180856948406,0.03282748523633927
222,0.25,0.001,0.01174181193113327,0.009358274415135384,13.35734447479248,0.009534150231829037,0.03377937595359981
223,0.25,0.001,0.01144931823015213,0.009046195708215236,13.467099609375,0.009612490798982869,0.02468200004659593
224,0.25,0.001,0.011602056995034218,0.009330831281840802,12.727948417663574,0.009084902510823393,0.03222756972536445
225,0.25,0.001,0.01170703537762165,0.009462231323122978,12.579882850646973,0.008979216881261222,0.01838541403412819
226,0.25,0.001,0.011439327374100685,0.00908810954540968,13.176226081848144,0.009404872292539718,0.01679853571113199
227,0.25,0.001,0.011657187081873417,0.009308477640151977,13.162168807983399,0.009394838549595573,0.01290025538764894
228,0.25,0.001,0.011555783413350583,0.00920519234612584,13.17271312713623,0.00940236483021858,0.016052466817200184
229,0.25,0.001,0.011531103625893593,0.009175007417798042,13.203562393188477,0.009424384292068863,0.025824490934610367
230,0.25,0.001,0.011457199491560459,0.009184483848512172,12.736299133300781,0.009090863050179001,0.02022645273245871
231,0.25,0.001,0.011571220010519028,0.009299819208681583,12.728931427001953,0.009085604159173415,0.035490165231749415
232,0.25,0.001,0.011450137048959731,0.009125545844435692,13.027008628845214,0.009298364474550474,0.02374575799331069
233,0.25,0.001,0.01154888141900301,0.009169590286910534,13.333548049926758,0.009517164917863497,0.027509383857250214
234,0.25,0.001,0.011445642448961735,0.009144203923642635,12.897261810302734,0.009205754325697882,0.015149418846704066
235,0.25,0.001,0.011596594154834747,0.00938250869512558,12.40773422241211,0.00885634134362035,0.024288603104650974
236,0.25,0.001,0.01155592303723097,0.009259260892868042,12.870493927001952,0.009186648056389687,0.022667879704385996
237,0.25,0.001,0.011375072561204434,0.00902397520840168,13.175549087524415,0.00940438907032435,0.0335175619693473
238,0.25,0.001,0.011533563658595085,0.009138931557536124,13.419519004821778,0.00957852891136458,0.03696895856410265
239,0.25,0.001,0.011494431607425214,0.009190608710050584,12.910623359680176,0.009215291477287777,0.02598274382762611
240,0.25,0.001,0.011558998636901378,0.00934045396745205,12.432723999023438,0.008874178443271548,0.03193427948281169
241,0.25,0.001,0.011619822569191456,0.009353676550090314,12.699482727050782,0.009064584387616547,0.043768547009676695
242,0.25,0.001,0.011461811698973179,0.009187774173915387,12.743708572387696,0.009096151729041897,0.03256996534764767
243,0.25,0.001,0.011497135832905769,0.00915484070777893,13.126221580505371,0.009369180285871071,0.02806787542067468
244,0.25,0.001,0.011506268233060836,0.009191099368035794,12.974206008911132,0.00926067523833771,0.018976785708218813
245,0.25,0.001,0.011484297402203083,0.009156790040433406,13.043350257873534,0.009310028735098883,0.03428754163905978
246,0.25,0.001,0.011469417586922645,0.009129962474107743,13.110305557250976,0.009357819812456087,0.02979576587677002
247,0.25,0.001,0.01148229707032442,0.00921308234333992,12.716677474975587,0.009076857583851239,0.022182410350069404
248,0.25,0.001,0.011371261514723301,0.00904376357793808,13.043298835754394,0.00930999203123083,0.035738412756472826
249,0.25,0.001,0.011438667662441731,0.009190295226871967,12.599879608154296,0.008993490084335686,0.023508836282417178
250,0.25,0.001,0.011240758970379829,0.00907219722867012,12.152621459960937,0.008674248008537428,0.020945853553712368
251,0.25,0.001,0.011347189359366894,0.009200404807925224,12.030579681396484,0.00858713753133225,0.010015560896135867
252,0.25,0.001,0.01141069620847702,0.009259508773684502,12.055254249572753,0.008604749642807104,0.01453438657335937
253,0.25,0.001,0.011348971761763096,0.009175497442483901,12.18015022277832,0.00869389737528788,0.018358815694227815
254,0.25,0.001,0.011216263622045516,0.009018341936171055,12.317152099609375,0.008791686009714044,0.020689520984888077
255,0.25,0.001,0.011288378946483135,0.00909259732812643,12.305161285400391,0.008783127255817553,0.028810680378228426
256,0.25,0.001,0.011220020726323127,0.009017630778253079,12.34219223022461,0.008809559050838408,0.019779169000685215
257,0.25,0.001,0.01127087328583002,0.009078325480222702,12.287037506103516,0.008770190939402938,0.017292674398049712
258,0.25,0.001,0.01119445040822029,0.008991347923874855,12.346185073852538,0.008812409046290177,0.02927344385534525
259,0.25,0.001,0.01119531225413084,0.008924614414572716,12.724990997314453,0.009082791575527804,0.027918409556150436
260,0.25,0.001,0.011263271272182464,0.009024746045470237,12.544695053100586,0.008954100680300205,0.028553978889249265
261,0.25,0.001,0.011255907826125622,0.00907197840511799,12.238742752075195,0.008735719309118626,0.010173066635616124
262,0.25,0.001,0.011297866329550743,0.009138784669339657,12.099493408203125,0.008636326486940132,0.012386123184114695
263,0.25,0.001,0.011202561035752297,0.009007957130670548,12.298560104370118,0.008778415492055758,0.018128964118659496
264,0.25,0.001,0.01123341042548418,0.008975523002445697,12.65320125579834,0.009031549790005953,0.02422740845941007
265,0.25,0.001,0.011286814138293267,0.009092529378831387,12.296772766113282,0.00877713973312868,0.013240478234365582
266,0.25,0.001,0.011204411648213864,0.00903702326118946,12.146045036315918,0.00866955391599994,0.029356321319937706
267,0.25,0.001,0.011220311895012856,0.009051287136971951,12.155214653015136,0.008676098967177113,0.022931075654923916
268,0.25,0.001,0.01112769365310669,0.008951610028743744,12.194773368835449,0.008704335024150927,0.025001629954203963
269,0.25,0.001,0.01121480192989111,0.009085850119590759,11.930645561218261,0.0085158069673221,0.016340342117473483
270,0.25,0.001,0.011276294067502022,0.009163948632776737,11.837583465576172,0.008449381488633955,0.023753859801217914
271,0.25,0.001,0.011035420261323451,0.00885761260986328,12.204434585571288,0.008711230967574082,0.012700960505753756
272,0.25,0.001,0.011073383577167988,0.008863581158220769,12.383732452392579,0.0088392094592381,0.008905189111828804
273,0.25,0.001,0.011190200522542,0.008962856382131576,12.482036819458008,0.008909376744795153,0.01309192692860961
274,0.25,0.001,0.010983373895287514,0.00876366948708892,12.439223670959473,0.008878817752290845,0.014500418561510742
275,0.25,0.001,0.01110396921634674,0.008889961577951909,12.40729850769043,0.008856030340963904,0.017269363859668374
276,0.25,0.001,0.011139275580644608,0.008942923545837402,12.308357467651367,0.008785408613598406,0.012450360460206866
277,0.25,0.001,0.01123383328318596,0.009018058963119984,12.417199478149413,0.008863097414810431,0.018164983368478715
278,0.25,0.001,0.011241013184189796,0.009010362587869167,12.500566329956055,0.008922602662352645,0.034723611548542976
279,0.25,0.001,0.011294640637934207,0.009069922417402267,12.46732032775879,0.008898872468064804,0.03355732187628746
280,0.25,0.001,0.011441272869706153,0.00908853180706501,13.184761772155762,0.009410964862352435,0.025995878968387842
281,0.25,0.001,0.011248913295567035,0.008942618016153574,12.92447868347168,0.009225181073141813,0.024804004468023777
282,0.25,0.001,0.011239249184727669,0.009056630283594132,12.231396369934082,0.008730475638782357,0.026378848124295473
283,0.25,0.001,0.011118887476623058,0.008977137580513954,12.002365341186524,0.00856699881597896,0.01684732036665082
284,0.25,0.001,0.011164653226733207,0.008965322338044644,12.325049285888673,0.008797322830755655,0.01846090122126043
285,0.25,0.001,0.011138241961598397,0.00889398790895939,12.576799087524414,0.008977015765542051,0.02578381821513176
286,0.25,0.001,0.011088200397789478,0.00893636330962181,12.058895568847657,0.00860734872865643,0.019524430856108665
287,0.25,0.001,0.011084607988595962,0.00894206814467907,12.0067928314209,0.00857015905169229,0.015937964082695544
288,0.25,0.001,0.011083479821681976,0.008913551159203052,12.160280265808105,0.008679714679377662,0.03603656101040542
289,0.25,0.001,0.011118874587118625,0.008901770673692227,12.424650115966797,0.008868415500333189,0.026842557592317462
290,0.25,0.001,0.011155460104346275,0.00891260676085949,12.568950233459473,0.008971413442869003,0.02068972704000771
291,0.25,0.001,0.011072480604052543,0.008804719001054763,12.708536758422852,0.009071046936775769,0.014067836105823517
292,0.25,0.001,0.011035225130617618,0.008758084699511528,12.76109447479248,0.009108561366732677,0.02559521934017539
293,0.25,0.001,0.010974461436271668,0.008727381825447083,12.592634773254394,0.008988318895970304,0.013435274362564087
294,0.25,0.001,0.01111871924251318,0.008907789289951324,12.390052528381348,0.008843720577003104,0.01875614933669567
295,0.25,0.001,0.010966836996376515,0.008781087715178729,12.248940048217774,0.00874299789308906,0.02016076585277915
296,0.25,0.001,0.010964629128575326,0.008851778805255889,11.840413589477539,0.008451401562796244,0.025922338478267193
297,0.25,0.001,0.01096973441541195,0.008861522115767002,11.814420623779297,0.008432848410977372,0.035458775237202644
298,0.25,0.001,0.011035645678639412,0.008965781629085541,11.599518051147461,0.00827945613929155,0.03371600108221173
299,0.25,0.001,0.011170368529856206,0.009065266437828541,11.796994018554688,0.00842040972059578,0.04648007359355688
300,0.25,0.001,0.010961465314030647,0.008852532058954239,11.818462753295899,0.008435733585507423,0.031558112474158406
301,0.25,0.001,0.011027351021766663,0.008892022408545017,11.96638153076172,0.008541314440229635,0.028145865071564913
302,0.25,0.001,0.010950110480189323,0.008720112256705761,12.496910667419433,0.008919993338629147,0.017380782053805888
303,0.25,0.001,0.0110802111774683,0.008783891573548317,12.86857650756836,0.00918527944865693,0.017282311688177288
304,0.25,0.001,0.011015562154352666,0.00875855378806591,12.648274574279785,0.009028033243597277,0.024832258000969887
305,0.25,0.001,0.01099191788583994,0.008829596750438214,12.117647857666016,0.008649284694979312,0.022711510304361582
306,0.25,0.001,0.011014788597822189,0.008880260959267616,11.96189395904541,0.008538111319804004,0.015907546039670706
307,0.25,0.001,0.01096067737787962,0.008810618333518505,12.048930282592773,0.008600235747746448,0.018989562056958675
308,0.25,0.001,0.010924368277192115,0.008805342689156533,11.875019149780274,0.008476102176859582,0.012627054937183857
309,0.25,0.001,0.011025286316871642,0.00891034722328186,11.852117919921875,0.00845975583149313,0.01854920433834195
310,0.25,0.001,0.010899081118404865,0.008716773875057697,12.229650268554687,0.008729229313743531,0.01249797036871314
311,0.25,0.001,0.010913593545556068,0.008726702593266964,12.255337448120118,0.008747564202798085,0.021892257500439882
312,0.25,0.001,0.010958167873322964,0.008830589726567268,11.922948608398437,0.008510313068093103,0.020593904424458742
313,0.25,0.001,0.010839004293084145,0.00874081090092659,11.758276062011719,0.008392773777310292,0.013439073925837874
314,0.25,0.001,0.010866189114749432,0.008767031617462635,11.76368049621582,0.00839663133205983,0.01406419207341969
315,0.25,0.001,0.010848664529621601,0.008721991330385209,11.917875938415527,0.008506692318640633,0.014533353736624122
316,0.25,0.001,0.010838199146091939,0.00869528140872717,12.0089102935791,0.008571670445095717,0.022649628575891256
317,0.25,0.001,0.010862179324030876,0.008724566139280797,11.979184684753418,0.008550453022664824,0.026287176413461566
318,0.25,0.001,0.010787425749003886,0.008578076027333736,12.381195487976074,0.00883739863524345,0.02319277497008443
319,0.25,0.001,0.010838245898485184,0.00868098396807909,12.08929615020752,0.008629047930198088,0.016504907049238682
320,0.25,0.001,0.010951386466622352,0.00880152091383934,12.047846946716309,0.008599462488733983,0.020913750980980694
321,0.25,0.001,0.010759534388780594,0.008534717708826065,12.467872314453125,0.008899266462850197,0.015907475259155035
322,0.25,0.001,0.010957089439034461,0.008802171126008033,12.076162185668945,0.00861967322317555,0.025274824583902955
323,0.25,0.001,0.010890803411602973,0.00874735925346613,12.011859741210937,0.008573775689658057,0.024056585039943457
324,0.25,0.001,0.010809856168925762,0.008653941415250301,12.081746673583984,0.008623659295920046,0.021526565542444587
325,0.25,0.001,0.010901279225945472,0.008752410747110844,12.042258338928223,0.008595473475323499,0.017817080253735185
326,0.25,0.001,0.010880148559808732,0.008763478249311446,11.861821670532226,0.008466682134569754,0.030038306023925543
327,0.25,0.001,0.010866373628377914,0.008828096501529216,11.422504844665527,0.008153108383058905,0.03477218886837363
328,0.25,0.001,0.010930779799818992,0.008843083977699279,11.699447288513184,0.008350783218067941,0.026378853246569633
329,0.25,0.001,0.010896625444293023,0.00870843391865492,12.262625465393066,0.008752766213699548,0.017509789555333555
330,0.25,0.001,0.010866711847484112,0.008655800260603428,12.389948196411133,0.008843646107359838,0.023474183166399598
331,0.25,0.001,0.010797663629055022,0.008622053414583206,12.192120208740235,0.008702441262484107,0.02130483090877533
332,0.25,0.001,0.010922352708876133,0.008816149756312371,11.803161239624023,0.008424811734207012,0.02297270786948502
333,0.25,0.001,0.010780091360211373,0.008672623001039027,11.81025421142578,0.008429874526356731,0.020555409020744264
334,0.25,0.001,0.010838462561368943,0.008719096221029758,11.876926803588868,0.008477463814124815,0.021196634508669376
335,0.25,0.001,0.010749120935797692,0.008642954677343368,11.802955818176269,0.008424665109333524,0.011459355824626982
336,0.25,0.001,0.010878387056291104,0.00879506979137659,11.674909896850586,0.008333269019879077,0.02392300544306636
337,0.25,0.001,0.010832408517599106,0.008700183853507041,11.948985595703125,0.008528897641472608,0.01617410290054977
338,0.25,0.001,0.010771251246333123,0.008573441207408905,12.31652687072754,0.008791239736422226,0.017847509356215596
339,0.25,0.001,0.010785050094127654,0.008597618862986565,12.258364143371582,0.008749724584847667,0.015887030167505145
340,0.25,0.001,0.010770136974751949,0.00860026303678751,12.15997299194336,0.00867949535470618,0.015159829054027796
341,0.25,0.001,0.010814161933958531,0.00870906513184309,11.796962051391601,0.008420386903205996,0.01748763001523912
342,0.25,0.001,0.01080675631761551,0.008724705278873444,11.667814559936524,0.008328204539569253,0.012265138560906053
343,0.25,0.001,0.010733123160898686,0.008578275293111802,12.075767440795898,0.008619391463808636,0.012479412602260709
344,0.25,0.001,0.010721292719244957,0.008540656566619873,12.220284576416015,0.00872254430864812,0.011527557973749936
345,0.25,0.001,0.010792044065892696,0.008623195234686137,12.154228706359863,0.008675395222241158,0.017922684317454696
346,0.25,0.001,0.010642785653471947,0.008442342318594455,12.331285629272461,0.008801774182207324,0.018135318532586098
347,0.25,0.001,0.010752701237797736,0.008616305254399777,11.972361526489259,0.008545582816908821,0.01026041037403047
348,0.25,0.001,0.010751569792628288,0.00868957981467247,11.55539176940918,0.00824795986396087,0.025941473548300564
349,0.25,0.001,0.01082824531942606,0.00869960904121399,11.92887939453125,0.008514546320150786,0.02879178593866527
350,0.25,0.001,0.010779983885586262,0.008609428256750106,12.163793411254883,0.008682222277840745,0.025319543667137623
351,0.25,0.001,0.010644918419420718,0.008530360609292985,11.849982528686523,0.008458231640746983,0.010849943151697516
352,0.25,0.001,0.01073842879384756,0.008638969659805297,11.765369606018066,0.008397836977885842,0.017027027904987335
353,0.25,0.001,0.010704844668507576,0.008565374445170163,11.989590301513672,0.00855788030086629,0.018084715120494366
354,0.25,0.001,0.010781980939209462,0.008622558303177357,12.101405639648437,0.008637691391612018,0.016124875284731388
355,0.25,0.001,0.010685392692685126,0.008601260539144277,11.679475021362304,0.008336527495619061,0.010952548356726766
356,0.25,0.001,0.010587068647146225,0.008506456054747105,11.659751815795898,0.008322449547320412,0.01829947961959988
357,0.25,0.001,0.010724162757396698,0.008574497438967228,12.046724472045899,0.008598661293394646,0.028180374298244715
358,0.25,0.001,0.010817580968141555,0.008637924045324326,12.214798583984376,0.008718628539603408,0.019545169081538916
359,0.25,0.001,0.010743378922343253,0.008587490692734718,12.081597328186035,0.008623552696778041,0.013538232538849115
360,0.25,0.001,0.010812141373753548,0.00872020199894905,11.723229141235352,0.008367758130788975,0.021678457502275705
361,0.25,0.001,0.010671983025968074,0.008549066130071878,11.896825561523437,0.00849166706746855,0.021255850326269865
362,0.25,0.001,0.010574661269783974,0.008459486346691848,11.853440017700196,0.00846069951299086,0.023306216346099973
363,0.25,0.001,0.0106129414960742,0.008537057470530272,11.633254470825195,0.008303536381745321,0.019247280899435282
364,0.25,0.001,0.010633241757750512,0.008554021269083023,11.651951942443848,0.008316882185898536,0.013034156756475568
365,0.25,0.001,0.010630957558751106,0.008519551381468773,11.83232063293457,0.008445625005663504,0.022507608169689775
366,0.25,0.001,0.010617659986019134,0.008475090414285659,12.00696018218994,0.008570278502633791,0.027023540809750557
367,0.25,0.001,0.01071590967476368,0.008627342805266381,11.7043306350708,0.00835426883302698,0.026494962512515485
368,0.25,0.001,0.010610314831137658,0.008505296446382999,11.796522369384766,0.008420073068797121,0.026240356732159853
369,0.25,0.001,0.010659367069602013,0.008503180108964442,12.083272171020507,0.008624748159186657,0.020649333600886166
370,0.25,0.001,0.01067987024784088,0.008546724319458007,11.954149589538574,0.008532583575687775,0.010951967677101493
371,0.25,0.001,0.010653826221823693,0.008576150573790074,11.643294219970704,0.008310702512470167,0.01747487811371684
372,0.25,0.001,0.010772725492715836,0.008606572728604078,12.139118576049805,0.00866460997576717,0.02258867141790688
373,0.25,0.001,0.01059921819716692,0.008419537544250488,12.214930496215821,0.00871872269537175,0.01781131117604673
374,0.25,0.001,0.010698336660861969,0.008612769711762667,11.687517623901368,0.008342268111278636,0.016121017513796687
375,0.25,0.001,0.010666768550872802,0.008571363240480422,11.742653198242188,0.008381622554062947,0.014826428610831499
376,0.25,0.001,0.010624941699206828,0.008486185558140277,11.985590782165527,0.008555025540446487,0.012912812060676515
377,0.25,0.001,0.01064617358148098,0.008473734781146049,12.174347229003907,0.008689755338332553,0.013694211025722325
378,0.25,0.001,0.010680948458611965,0.008511209860444069,12.159213790893554,0.00867895345531303,0.010964665096253157
379,0.25,0.001,0.01069325789809227,0.00857089675962925,11.89371238708496,0.008489444958661642,0.021108469925820827
380,0.25,0.001,0.010601466484367848,0.008542666640132666,11.537514877319335,0.008235199769678327,0.011655165813863277
381,0.25,0.001,0.010689329765737056,0.00862720301374793,11.556158714294433,0.00824850729071694,0.016796994721516967
382,0.25,0.001,0.010529018118977546,0.008385515287518502,12.01219009399414,0.008574011487504741,0.023098359815776348
383,0.25,0.001,0.010624989159405232,0.00851349014788866,11.832841262817382,0.008445996618713335,0.018927362514659762
384,0.25,0.001,0.01071260891854763,0.008627735078334808,11.683631973266602,0.008339494627599288,0.025783380027860403
385,0.25,0.001,0.010609140768647194,0.008463297691196203,12.025304794311523,0.008583372444190952,0.02225346292834729
386,0.25,0.001,0.010680217817425728,0.008481033407151698,12.324228286743164,0.008796736821372709,0.020917381858453155
387,0.25,0.001,0.01061089925467968,0.008471215926110744,11.990784759521484,0.00855873287617522,0.02084601460956037
388,0.25,0.001,0.010730981528759002,0.008707537464797497,11.33938144683838,0.008093776907093776,0.034880940802395344
389,0.25,0.001,0.010695289485156537,0.008584450799971818,11.82913932800293,0.008443354266954268,0.020651106256991625
390,0.25,0.001,0.010634216219186783,0.008413654193282128,12.444029960632324,0.008882248365904585,0.017978856689296663
391,0.25,0.001,0.010596533343195914,0.008385732993483544,12.389325218200684,0.008843201440542958,0.018344428157433867
392,0.25,0.001,0.010480553284287453,0.008346554897725582,11.958927726745605,0.00853599409475061,0.013457086635753512
393,0.25,0.001,0.010489703379571438,0.008428037390112877,11.553576507568359,0.008246664173853217,0.018317543901503086
394,0.25,0.001,0.010481740646064282,0.00838272113353014,11.762904968261719,0.008396077778916287,0.01900621736422181
395,0.25,0.001,0.010587536171078682,0.008493906110525131,11.732704582214355,0.008374521471958855,0.02292001061141491
396,0.25,0.001,0.010488624423742295,0.008426831290125846,11.554287338256836,0.00824717154764942,0.02034106873907149
397,0.25,0.001,0.010484434962272644,0.008448137529194355,11.411410713195801,0.008145189659668666,0.015824583126232028
398,0.25,0.001,0.010663810335099697,0.008620126955211162,11.452801132202149,0.008174733142185689,0.024107077391818166
399,0.25,0.001,0.010592721104621887,0.008433671928942203,12.099313011169434,0.008636197723889674,0.025171424262225628
400,0.25,0.001,0.010514002665877343,0.008336689863353968,12.201660537719727,0.008709250919143274,0.014931881800293922
401,0.25,0.001,0.010528499297797679,0.008434003852307796,11.737553176879883,0.008377982281855734,0.023461925564333797
402,0.25,0.001,0.010568570494651795,0.008494812566787004,11.621339225769043,0.008295031567286969,0.022333832923322916
403,0.25,0.001,0.010614003688097,0.008500131517648698,11.846140441894532,0.008455489251887603,0.016255479771643877
404,0.25,0.001,0.010484656989574433,0.008391406610608101,11.73057746887207,0.00837300318977307,0.024551899870857596
405,0.25,0.001,0.010517580024898053,0.008413265533745289,11.792578201293946,0.008417257816769412,0.010030917008407414
406,0.25,0.001,0.010601435154676438,0.008478204905986785,11.898582992553711,0.008492921479338838,0.013956190785393119
407,0.25,0.001,0.010586515553295612,0.008472602479159833,11.846369743347168,0.008455652921732454,0.014510665903799236
408,0.25,0.001,0.010570329464972019,0.008444959856569767,11.910572204589844,0.008501479089643,0.013432334526441991
409,0.25,0.001,0.010523622445762158,0.008374209012836219,12.045313339233399,0.008597654060837543,0.015226041083224118
410,0.25,0.001,0.0105408251658082,0.008440507799386978,11.770177612304687,0.008401268816777078,0.015053399605676532
411,0.25,0.001,0.010587467402219773,0.008551124930381775,11.411664428710937,0.008145370755682325,0.018914762185886502
412,0.25,0.001,0.010630557164549827,0.008605895061045886,11.346206970214844,0.008098648801009882,0.025006385054439306
413,0.25,0.001,0.010631854198873043,0.008503223601728678,11.928846664428711,0.008514522958193228,0.018487970461137593
414,0.25,0.001,0.01058778665959835,0.008422370217740536,12.134993820190429,0.008661665824547058,0.01799507741816342
415,0.25,0.001,0.01048939898610115,0.00834012495353818,12.044530792236328,0.00859709549767047,0.038572290912270546
416,0.25,0.001,0.010530081056058406,0.008411845825612545,11.87058967590332,0.008472940525270036,0.03476642235182226
417,0.25,0.001,0.010492408610880376,0.00838650021702051,11.801509552001953,0.008423632799430373,0.017350116977468133
418,0.25,0.001,0.01056876264512539,0.00845450583845377,11.848295059204101,0.008457027165741685,0.03312922711484134
419,0.25,0.001,0.010472079478204251,0.008430273756384849,11.442279014587402,0.008167222708484941,0.021944865584373474
420,0.25,0.001,0.010551133379340171,0.008548648916184903,11.221924591064454,0.00800993903716235,0.026101736584678292
421,0.25,0.001,0.010487027168273926,0.008433545492589473,11.507712783813476,0.008213927754327962,0.02150869509205222
422,0.25,0.001,0.010399269424378872,0.008274446111172437,11.907509651184082,0.008499293112907981,0.01259452267549932
423,0.25,0.001,0.010458188168704509,0.008358880542218686,11.764519882202148,0.008397230465526158,0.017967691645026207
424,0.25,0.001,0.010513102300465108,0.008446979075670243,11.578556365966797,0.008264494194123338,0.016026023658923805
425,0.25,0.001,0.01054228313267231,0.008420128114521504,11.892557144165039,0.00848862037413636,0.013959500938653946
426,0.25,0.001,0.010452877134084701,0.008310679495334625,12.004875564575196,0.008568790552873087,0.01106041087768972
427,0.25,0.001,0.010412635058164596,0.00833377191796899,11.64994873046875,0.00831545234151945,0.007988589932210743
428,0.25,0.001,0.01046356551349163,0.008435528986155986,11.365115089416504,0.008112144960325841,0.012826226186007261
429,0.25,0.001,0.010576894246041775,0.008513525817543268,11.563116455078125,0.008253473558228497,0.013271686038933694
430,0.25,0.001,0.01045054841786623,0.008362315017729998,11.702461776733399,0.008352934887033118,0.015329381683841348
431,0.25,0.001,0.01042731761932373,0.008342404402792453,11.683853569030761,0.008339652797309608,0.010811846004799008
432,0.25,0.001,0.01041666466742754,0.008342168610543012,11.625474319458007,0.008297983097400433,0.008888477110303938
433,0.25,0.001,0.010454756319522857,0.008375418782234191,11.652607040405274,0.008317349779018754,0.012804438825696707
434,0.25,0.001,0.01044662121683359,0.008363700322806835,11.672688217163087,0.008331683238517549,0.010953983990475535
435,0.25,0.001,0.010447362661361695,0.008283340781927108,12.127180061340333,0.008656088551991672,0.014171558897942305
436,0.25,0.001,0.01038973044604063,0.008226507753133773,12.12269992828369,0.00865289074110185,0.01674442272633314
437,0.25,0.001,0.010461460947990418,0.008400470241904259,11.54979248046875,0.008243963226601534,0.01287539373151958
438,0.25,0.001,0.010489081852138043,0.008456757068634033,11.389149780273437,0.008129300342807592,0.013641527853906155
439,0.25,0.001,0.010455671437084675,0.008379237316548825,11.636337509155274,0.008305736980125105,0.022968524135649204
440,0.25,0.001,0.010474142283201218,0.008351806364953519,11.893570518493652,0.008489343696283834,0.03208903269842267
441,0.25,0.001,0.010544790327548981,0.008405079878866673,11.990937232971191,0.008558841708045105,0.030403914395719767
442,0.25,0.001,0.01035424068570137,0.008193392381072044,12.109392967224121,0.008643392553336274,0.011197687243111432
443,0.25,0.001,0.010522008091211319,0.00837855014950037,12.01193748474121,0.008573831181114355,0.028186585288494825
444,0.25,0.001,0.01054469533264637,0.008421381153166294,11.899051933288574,0.008493256197921894,0.037491791881620884
445,0.25,0.001,0.01041168563067913,0.008376820720732212,11.403381958007813,0.008139458927914213,0.027623088099062443
446,0.25,0.001,0.010433742590248585,0.008459381833672524,11.064318199157714,0.00789744339697196,0.022484426852315664
447,0.25,0.001,0.01057355035096407,0.008565932959318161,11.2506876373291,0.008030469405659602,0.027116506826132536
448,0.25,0.001,0.010550640784204006,0.008446123953908681,11.79371368408203,0.008418068296989316,0.02473891736008227
449,0.25,0.001,0.01053165204823017,0.008368341848254204,12.123189849853516,0.008653240435298727,0.024709386751055717
450,0.25,0.001,0.010526980049908161,0.008403599783778191,11.899424285888673,0.008493521974224606,0.022652314975857735
451,0.25,0.001,0.010504187867045402,0.008382672294974327,11.888973922729493,0.008486062757123122,0.01321804360486567
452,0.25,0.001,0.010477734468877316,0.008320269417017698,12.09043472290039,0.00862986061591748,0.017059603706002235
453,0.25,0.001,0.010469052232801914,0.00824600800871849,12.457939414978027,0.008892176598842274,0.01945594500284642
454,0.25,0.001,0.010324991643428802,0.008160657174885273,12.128930969238281,0.008657338307807481,0.010871038073673844
455,0.25,0.001,0.010481911711394787,0.008475087843835353,11.246240844726563,0.008027295392381558,0.014330898178741336
456,0.25,0.001,0.010460724569857121,0.008439066372811794,11.329374542236328,0.008086634220011655,0.0219890009611845
457,0.25,0.001,0.010357452407479286,0.00816023550927639,12.313203430175781,0.00878886754473646,0.01914107520133257
458,0.25,0.001,0.010425871051847935,0.008212411925196648,12.404226684570313,0.008853837747730416,0.011420205002650619
459,0.25,0.001,0.010507633462548256,0.008397638667374849,11.82441062927246,0.008439979035883269,0.022163834422826767
460,0.25,0.001,0.010481782481074333,0.008329506516456604,12.061354675292968,0.008609103979509612,0.026359253330156207
461,0.25,0.001,0.010444508083164692,0.008299834355711936,12.01875301361084,0.008578695941192606,0.02167039946652949
462,0.25,0.001,0.010461243689060212,0.008393963500857353,11.585038070678712,0.008269120678571528,0.016899169888347387
463,0.25,0.001,0.010457161962985993,0.008416533954441547,11.435679397583009,0.008162512061087087,0.021556526655331254
464,0.25,0.001,0.010374136604368686,0.008411223404109477,11.000165328979492,0.007851652625966803,0.0272929307539016
465,0.25,0.001,0.010377350077033044,0.008311091475188732,11.579312553405762,0.008265033942473778,0.024694205727428198
466,0.25,0.001,0.010342686958611012,0.008170905541628599,12.170664138793946,0.008687126437397535,0.016241939505562186
467,0.25,0.001,0.010527745336294175,0.008384578377008439,12.01030818939209,0.00857266822940192,0.01832466130144894
468,0.25,0.001,0.010392468385398389,0.008188707903027535,12.349874038696289,0.008815042140397066,0.020830932771787047
469,0.25,0.001,0.010411619730293751,0.008264097757637501,12.034711456298828,0.008590086692575894,0.018521578516811132
470,0.25,0.001,0.010370796881616115,0.008301546387374402,11.596079177856446,0.008277001554501388,0.01788959000259638
471,0.25,0.001,0.010491626337170601,0.008420975729823112,11.60392734527588,0.00828260338706344,0.013807625859044492
472,0.25,0.001,0.010310062505304814,0.008229676373302937,11.658483276367187,0.008321544094480505,0.015443343669176102
473,0.25,0.001,0.010455372035503388,0.00837871115654707,11.637608757019043,0.008306644366180616,0.01789385045412928
474,0.25,0.001,0.010430357456207275,0.008297754749655724,11.951106643676757,0.00853041159434458,0.02444308716803789
475,0.25,0.001,0.01048145592212677,0.008268597349524499,12.400858764648438,0.008851433807743354,0.031374459620565176
476,0.25,0.001,0.01053628072142601,0.008376965336501598,12.100804290771485,0.008637262163291567,0.03063963004387915
477,0.25,0.001,0.010474091731011867,0.00833765733987093,11.972578086853026,0.008545737392471825,0.020230628550052643
478,0.25,0.001,0.010520613938570022,0.008422817047685384,11.756053924560547,0.008391187669208098,0.01674192165955901
479,0.25,0.001,0.010365283638238907,0.00826864955946803,11.749537200927735,0.008386536189099026,0.024035474518314004
480,0.25,0.001,0.010417018607258797,0.008278269693255425,11.985547332763671,0.008554994527311685,0.016265320125967264
481,0.25,0.001,0.0103250427916646,0.008149838112294673,12.189847564697265,0.008700819103995193,0.016959011321887374
482,0.25,0.001,0.01036227833479643,0.008229004330933093,11.954867515563965,0.008533096013964287,0.011463451199233532
483,0.25,0.001,0.01033866822719574,0.008232707418501376,11.801804885864257,0.008423843601616172,0.010777651565149426
484,0.25,0.001,0.010330849103629589,0.008221118822693824,11.82292823791504,0.00843892094069596,0.011768855387344956
485,0.25,0.001,0.010227004811167718,0.00809304902330041,11.958687744140626,0.008535822800956907,0.01569108199328184
486,0.25,0.001,0.010373805314302445,0.008254521265625954,11.876467895507812,0.008477136256608002,0.019713934045284986
487,0.25,0.001,0.010220995806157589,0.008080386407673359,11.995974578857421,0.008562437244009579,0.013747104676440358
488,0.25,0.001,0.01035303197801113,0.008248201347887516,11.795469360351563,0.008419321456353721,0.015905919019132853
489,0.25,0.001,0.010354889035224914,0.008229882419109345,11.908538208007812,0.008500027271954183,0.012713268166407943
490,0.25,0.001,0.010296988524496556,0.008159401807934046,11.97903533935547,0.00855034642352282,0.008299361914396286
491,0.25,0.001,0.010339529737830162,0.00824166551232338,11.7564310836792,0.008391456876287794,0.014638532768003643
492,0.25,0.001,0.010306309908628464,0.008240631110966205,11.576064910888672,0.008262715853596482,0.010694316821172833
493,0.25,0.001,0.010371891260147094,0.008265017699450254,11.806918296813965,0.00842749343098784,0.012472218018956482
494,0.25,0.001,0.01031006697565317,0.008134836778044701,12.189990577697754,0.008700921183224665,0.016789724584668875
495,0.25,0.001,0.01037290520966053,0.008218771684914828,12.071764373779297,0.008616534171148677,0.024749964592047036
496,0.25,0.001,0.010392632223665715,0.008315075039863586,11.642631950378417,0.00831022980041286,0.02280278317630291
497,0.25,0.001,0.01037795964628458,0.008278857618570327,11.763369827270507,0.008396409584061747,0.024362941039726138
498,0.25,0.001,0.010360726341605186,0.008264653980731965,11.746387901306152,0.00838428829500796,0.01680213026702404
499,0.25,0.001,0.010390289835631847,0.00831634819507599,11.62236972808838,0.008295767114981,0.03763401787728071
500,0.25,0.001,0.010428493320941925,0.008393617682158946,11.40344253540039,0.008139502166595569,0.02320359367877245
