178.677	524.444
181.278	510.889
183.879	531.333
186.48	520.222
189.078	526.222
191.677	533.333
194.275	521.111
196.871	541.333
199.467	528.667
202.061	550.889
204.656	538.222
207.248	534.444
209.841	543.778
212.431	541.556
215.022	543.333
217.613	549.556
220.201	541.778
222.789	549.333
225.375	542.222
227.962	548.222
230.547	550.445
233.13	560
235.714	554.444
238.296	568.222
240.879	563.333
243.459	561.555
246.04	561.778
248.618	567.556
251.196	553.556
253.774	569.111
256.35	573.333
258.927	569.111
261.501	567.333
264.074	561.333
266.648	561.778
269.22	556.222
271.791	558.667
274.362	562.445
276.931	544.222
279.5	557.778
282.069	555.333
284.635	564.222
287.201	557.111
289.766	551.111
292.331	561.556
294.894	566
297.457	563.556
300.018	578.889
302.58	570.667
305.14	569.556
307.699	558
310.257	563.333
312.814	566.889
315.372	571.111
317.928	568.444
320.482	578.444
323.036	585.111
325.589	585.556
328.142	599.556
330.693	596.222
333.243	586.667
335.795	588.444
338.343	585.778
340.891	590.222
343.439	592.444
345.985	594.667
348.53	605.111
351.075	609.333
353.619	601.333
356.162	608.444
358.704	603.778
361.245	609.333
363.786	598.667
366.325	592.889
368.864	611.556
371.402	609.111
373.939	607.333
376.475	625.111
379.011	644.889
381.545	634.444
384.079	635.333
386.612	617.333
389.144	606.444
391.674	590.889
394.204	593.111
396.734	593.111
399.263	605.111
401.791	586.667
404.318	597.556
406.844	600.667
409.368	604.222
411.893	599.333
414.417	594.444
416.94	608
419.462	602
421.982	611.111
424.502	608.444
427.022	603.556
429.541	632.889
432.057	617.778
434.574	628.667
437.091	640.444
439.606	630.444
442.12	630
444.634	620.889
447.147	616.889
449.657	626
452.169	612.889
454.68	615.556
457.188	632.667
459.697	632
462.205	634
464.711	610.667
467.217	608.222
469.722	611.111
472.227	616.667
474.731	610.222
477.232	615.333
479.735	618.222
482.235	616.222
484.736	626.889
487.234	623.778
489.734	625.333
492.23	618.222
494.728	615.778
497.223	620.667
499.719	619.778
502.213	620.222
504.707	625.111
507.199	617.111
509.692	616.889
512.182	617.111
514.673	630.889
517.162	628.889
519.65	636
522.139	625.556
524.625	635.333
527.112	616.222
529.597	614.222
532.081	619.333
534.565	616.444
537.047	616.222
539.529	613.111
542.011	620.889
544.491	620.445
546.97	618.889
549.45	626.667
551.927	629.333
554.404	612.667
556.88	611.778
559.356	628.889
561.831	626.222
564.304	630
566.777	629.111
569.25	635.333
571.721	622.667
574.191	619.778
576.661	622.667
579.129	629.111
581.599	613.556
584.066	614
586.532	624.444
588.997	630
591.462	620.222
593.926	611.333
596.389	624.444
598.851	623.556
601.314	624.667
603.775	624.445
606.235	622.889
608.694	623.556
611.152	626.222
613.609	623.556
616.066	621.333
618.522	625.111
620.977	629.556
623.431	627.333
625.885	624
628.338	644.222
630.79	633.778
633.241	632.222
635.691	622.889
638.141	635.333
640.589	620
643.036	632
645.483	627.556
647.929	631.778
650.375	631.111
652.82	623.111
655.264	634
657.707	634.889
660.149	619.333
662.59	628.667
665.031	628.889
667.471	618.889
669.91	621.111
672.349	621.111
674.786	636
677.222	608.667
679.658	620.667
682.093	626.889
684.528	620.222
686.96	617.778
689.393	624.667
691.826	620.667
694.256	633.111
696.686	625.333
699.116	621.556
701.545	627.778
703.972	617.556
706.4	624.222
708.826	620.889
711.251	633.333
713.676	629.111
716.099	634.222
718.523	623.778
720.946	618.222
723.366	629.556
725.788	626.667
728.207	629.333
730.627	623.778
733.044	635.778
735.462	627.556
737.88	621.111
740.295	625.778
742.711	619.778
745.125	618.889
747.539	607.556
749.951	629.111
752.363	625.556
754.775	619.111
757.185	617.111
759.595	621.778
762.003	614.889
764.412	622.444
766.819	623.778
769.225	624.889
771.632	613.333
774.036	616
776.441	628.222
778.844	618.444
781.246	618.889
783.649	616.222
786.05	625.111
788.449	621.333
790.85	618.444
793.248	626.444
795.646	618.667
798.042	639.778
800.44	629.556
802.835	626.444
805.23	628
807.623	615.333
810.018	619.556
812.41	616.222
814.801	619.333
817.192	622.889
819.582	622.222
821.972	626
824.361	616.889
826.748	616.667
829.135	614.889
831.521	620.889
833.907	618.222
836.291	612.889
838.675	624.445
841.059	630.222
843.442	618.667
845.823	619.778
848.204	614
850.584	622.445
852.963	607.111
855.342	631.111
857.72	626.444
860.097	622
862.473	625.333
864.848	623.333
867.223	621.556
869.597	627.111
871.97	611.778
874.343	623.556
876.714	619.778
879.084	622.222
881.454	618.667
883.824	626.444
886.192	626
888.56	616.444
890.927	633.333
893.294	624.667
895.66	625.333
898.023	629.333
900.387	616
902.751	619.778
905.114	636.444
907.476	611.333
909.835	616.222
912.196	612.444
914.555	617.333
916.914	626.667
919.271	617.556
921.629	614.222
923.985	616.444
926.341	610.889
928.695	616.222
931.05	607.556
933.404	600.444
935.755	614.667
938.107	618.222
940.459	609.333
942.808	620.222
945.158	609.111
947.508	602.444
949.855	615.556
952.202	611.111
954.548	614
956.894	607.778
959.239	605.333
961.583	613.111
963.928	618.889
966.27	614.444
968.612	609.556
970.953	616.444
973.294	614.222
975.633	611.778
977.972	624.889
980.31	609.556
982.647	608.222
984.984	621.778
987.32	607.333
989.656	615.111
991.989	614.444
994.324	629.333
996.656	617.333
998.988	612
1001.32	631.111
1003.65	617.333
1005.98	605.333
1008.31	594.222
1010.64	614.444
1012.97	602
1015.29	618.667
1017.62	616.667
1019.94	612.222
1022.27	617.111
1024.59	613.333
1026.92	616.222
1029.24	616
1031.56	617.556
1033.88	605.111
1036.2	620.889
1038.52	620.889
1040.84	626.222
1043.16	612.667
1045.48	618.444
1047.79	620.667
1050.11	623.556
1052.42	618
1054.74	636.444
1057.05	636
1059.36	630.667
1061.67	640.667
1063.99	637.111
1066.3	626.889
1068.61	634.222
1070.92	623.333
1073.22	640.444
1075.53	628
1077.84	640.444
1080.15	648.222
1082.45	646.222
1084.76	660.222
1087.06	671.556
1089.36	670.667
1091.66	685.778
1093.97	708.444
1096.27	748.889
1098.57	726
1100.87	694
1103.17	679.778
1105.46	674.444
1107.76	663.778
1110.06	666.667
1112.35	662.889
1114.65	666.222
1116.94	677.556
1119.24	683.778
1121.53	686.444
1123.82	684.222
1126.11	677.333
1128.4	668.444
1130.7	650
1132.98	650.889
1135.27	646.667
1137.56	627.333
1139.85	636
1142.13	623.778
1144.42	620.889
1146.71	624.222
1148.99	639.111
1151.27	634
1153.56	634.445
1155.84	617.333
1158.12	618.667
1160.4	612.222
1162.68	623.778
1164.96	613.333
1167.24	618
1169.51	617.333
1171.79	597.111
1174.07	605.778
1176.34	604
1178.62	612.222
1180.89	598.667
1183.17	610.222
1185.44	595.111
1187.71	592.222
1189.98	591.111
1192.25	586.889
1194.52	598.444
1196.79	600.222
1199.06	589.333
1201.33	602
1203.59	591.333
1205.86	582.889
1208.12	596.667
1210.39	589.778
1212.65	591.556
1214.92	592.889
1217.18	594.667
1219.44	587.111
1221.7	582
1223.96	575.333
1226.22	587.556
1228.48	595.778
1230.74	591.333
1233	601.778
1235.25	592.667
1237.51	593.111
1239.77	596.889
1242.02	614
1244.27	593.778
1246.53	600.889
1248.78	617.556
1251.03	608.444
1253.28	612.444
1255.53	607.556
1257.78	596.444
1260.03	610.444
1262.28	599.778
1264.53	604.667
1266.78	614.667
1269.02	604.444
1271.27	596.444
1273.51	599.778
1275.76	595.556
1278	603.111
1280.24	593.333
1282.48	595.333
1284.72	603.556
1286.97	594.667
1289.21	606.889
1291.44	602.889
1293.68	619.778
1295.92	604
1298.16	596.667
1300.39	600.444
1302.63	594.222
1304.86	603.778
1307.1	601.556
1309.33	591.556
1311.56	601.556
1313.8	608
1316.03	611.111
1318.26	610.222
1320.49	604.444
1322.72	608.444
1324.95	616.444
1327.17	618.889
1329.4	622.222
1331.63	624.222
1333.85	611.555
1336.08	623.333
1338.3	627.556
1340.53	625.778
1342.75	625.333
1344.97	609.111
1347.19	606.444
1349.41	601.333
1351.63	597.556
1353.85	596.889
1356.07	593.111
1358.29	598.667
1360.51	600.667
1362.72	602.667
1364.94	603.111
1367.16	609.556
1369.37	598.889
1371.58	615.556
1373.8	598.444
1376.01	609.556
1378.22	611.778
1380.43	629.111
1382.64	617.111
1384.85	620.667
1387.06	616
1389.27	604.889
1391.48	600.667
1393.68	597.111
1395.89	595.556
1398.1	594.222
1400.3	587.333
1402.51	594.222
1404.71	587.556
1406.91	593.556
1409.11	590
1411.32	593.111
1413.52	582.444
1415.72	588.889
1417.92	588.444
1420.11	590.222
1422.31	586.222
1424.51	580
1426.71	570.444
1428.9	581.111
1431.1	578.222
1433.29	581.111
1435.49	565.778
1437.68	577.333
1439.87	584.222
1442.06	578.667
1444.25	566.222
1446.45	579.333
1448.64	579.111
1450.82	577.555
1453.01	576.222
1455.2	564
1457.39	578.889
1459.57	584.667
1461.76	583.556
1463.94	580.444
1466.13	580.222
1468.31	580.222
1470.5	557.333
1472.68	565.778
1474.86	573.111
1477.04	572.444
1479.22	581.556
1481.4	576.667
1483.58	567.556
1485.76	567.111
1487.94	563.111
1490.11	555.556
1492.29	564.222
1494.46	567.778
1496.64	556.667
1498.81	558.667
1500.99	548
1503.16	553.778
1505.33	555.111
1507.5	544
1509.67	556.222
1511.84	557.778
1514.01	557.778
1516.18	554
1518.35	551.778
1520.52	556.222
1522.68	549.111
1524.85	559.111
1527.02	546
1529.18	551.333
1531.35	558
1533.51	562
1535.67	550.444
1537.83	560.222
1539.99	553.333
1542.16	550.222
1544.31	555.111
1546.47	550.889
1548.63	547.111
1550.79	564
1552.95	554.444
1555.11	547.333
1557.26	553.778
1559.42	554.667
1561.57	547.778
1563.73	551.111
1565.88	554.667
1568.03	562.667
1570.18	555.556
1572.34	551.556
1574.49	552.667
1576.64	555.778
1578.79	550
1580.93	557.556
1583.08	557.333
1585.23	563.556
1587.38	561.333
1589.52	565.556
1591.67	552.667
1593.81	545.778
1595.96	549.111
1598.1	557.111
1600.24	554.444
1602.38	550.667
1604.53	545.333
1606.67	541.778
1608.81	550.889
1610.95	549.333
1613.09	550.667
1615.22	542
1617.36	546.445
1619.5	547.556
1621.63	551.111
1623.77	534.222
1625.9	540
1628.04	522.445
1630.17	532
1632.3	525.556
1634.44	528.889
1636.57	534.889
1638.7	529.556
1640.83	525.111
1642.96	527.778
1645.09	533.556
1647.22	527.111
1649.34	532.222
1651.47	526
1653.6	528.889
1655.72	516
1657.85	527.111
1659.97	520.667
1662.1	524.445
1664.22	536
1666.34	514.222
1668.46	521.556
1670.58	525.111
1672.7	527.778
1674.82	521.778
1676.94	522.444
1679.06	521.778
1681.18	517.111
1683.3	520
1685.41	518
1687.53	516.667
1689.64	519.556
1691.76	511.111
1693.87	518
1695.99	526.444
1698.1	527.556
1700.21	527.778
1702.32	511.111
1704.43	532.667
1706.54	514.222
1708.65	519.778
1710.76	527.111
1712.87	518.222
1714.98	519.111
1717.08	517.778
1719.19	515.556
1721.29	514.444
1723.4	520.889
1725.5	518
1727.61	512.444
1729.71	515.111
1731.81	517.555
1733.91	516.444
1736.02	519.333
1738.12	514
1740.22	515.556
1742.31	508.667
1744.41	498.444
1746.51	499.333
1748.61	509.111
1750.7	514.444
1752.8	507.778
1754.9	497.556
1756.99	500.889
1759.08	507.556
1761.18	496.667
1763.27	491.778
1765.36	505.778
1767.45	484.889
1769.54	498.222
1771.63	491.556
1773.72	494.222
1775.81	494.667
1777.9	496.667
1779.99	498.889
1782.08	494.889
1784.16	486
1786.25	490.222
1788.33	509.111
1790.42	498
1792.5	497.778
1794.58	496.667
1796.67	491.778
1798.75	492.222
1800.83	506.667
1802.91	493.333
1804.99	500.222
1807.07	499.111
1809.15	492.444
1811.23	502.222
1813.3	490
1815.38	485.556
1817.46	488.444
1819.53	488.444
1821.61	481.556
1823.68	496.444
1825.75	487.778
1827.83	490
1829.9	473.333
1831.97	480.667
1834.04	485.556
1836.11	488
1838.18	473.556
1840.25	481.333
1842.32	484
1844.39	489.111
1846.46	494.667
1848.52	471.111
1850.59	474
1852.65	479.111
1854.72	488.444
1856.78	458.667
1858.85	479.556
1860.91	465.111
1862.97	477.556
1865.03	475.111
1867.09	471.333
1869.16	468.889
1871.22	472.222
1873.27	468.222
1875.33	478
1877.39	466.667
1879.45	467.556
1881.51	481.778
1883.56	471.778
1885.62	468.889
1887.67	463.333
1889.73	467.556
1891.78	476.889
1893.83	472
1895.89	464.889
1897.94	464.444
1899.99	466
1902.04	467.778
1904.09	469.111
1906.14	478.889
1908.19	469.333
1910.23	454.222
1912.28	473.778
1914.33	460.889
1916.37	464.444
1918.42	458.444
1920.46	463.556
1922.51	465.556
1924.55	466.667
1926.6	458.444
1928.64	468.667
1930.68	469.111
1932.72	457.111
1934.76	460.444
1936.8	459.111
1938.84	452
1940.88	450.222
1942.92	461.556
1944.96	459.778
1946.99	457.556
1949.03	451.556
1951.06	445.333
1953.1	454.444
1955.13	447.778
1957.17	455.778
1959.2	448.667
1961.23	456.667
1963.27	453.111
1965.3	447.778
1967.33	449.111
1969.36	444
1971.39	440.667
1973.42	438.444
1975.44	443.333
1977.47	441.556
1979.5	446.222
1981.53	441.333
1983.55	428.889
1985.58	447.333
1987.6	436.222
1989.63	442
1991.65	445.556
1993.67	431.556
1995.69	440.222
1997.72	433.111
1999.74	445.556
2001.76	434.889
2003.78	435.111
2005.8	437.778
2007.82	443.556
2009.83	449.111
2011.85	438
2013.87	433.556
2015.88	430.222
2017.9	436.444
2019.91	443.111
2021.93	434
2023.94	440.222
2025.96	438.667
2027.97	433.556
2029.98	429.778
2031.99	438.667
2034	434.444
2036.01	425.333
2038.02	426.889
2040.03	433.333
2042.04	432.444
2044.05	436.667
2046.05	426.889
2048.06	447.778
2050.07	433.111
2052.07	428.222
2054.08	429.333
2056.08	419.556
2058.08	424.667
2060.09	417.778
2062.09	425.111
2064.09	428.889
2066.09	417.333
2068.09	420.222
2070.09	425.778
2072.09	432.889
2074.09	428.667
2076.09	426.667
2078.09	425.111
2080.08	419.778
2082.08	415.778
2084.08	426.667
2086.07	420.667
2088.07	418.667
2090.06	426.444
2092.05	419.333
2094.05	421.556
2096.04	419.778
2098.03	420.667
2100.02	410.222
2102.01	419.333
2104	415.778
2105.99	419.556
2107.98	418.889
2109.97	411.778
2111.95	411.333
2113.94	415.778
2115.93	416.222
2117.91	406
2119.9	420.444
2121.88	412.889
2123.87	416.667
2125.85	408.222
2127.83	406.667
2129.81	404
2131.8	399.556
2133.78	414
2135.76	412
2137.74	407.111
2139.72	406.889
2141.69	403.333
2143.67	401.333
2145.65	391.778
2147.63	397.111
2149.6	398
2151.58	397.333
2153.55	398.889
2155.53	401.333
2157.5	398.667
2159.48	392.444
2161.45	392.889
2163.42	394.444
2165.39	401.556
2167.36	392.444
2169.33	392.222
2171.3	395.333
2173.27	387.333
2175.24	395.778
2177.21	381.778
2179.18	391.111
2181.14	390
2183.11	394
2185.07	390.667
2187.04	384
2189	382
2190.97	381.111
2192.93	387.111
2194.89	379.333
2196.86	387.778
2198.82	380.444
2200.78	382
2202.74	386.889
2204.7	380
2206.66	375.333
2208.62	377.778
2210.57	377.556
2212.53	377.778
2214.49	375.333
2216.45	373.111
2218.4	386.667
2220.36	375.778
2222.31	379.333
2224.27	370.889
2226.22	380.889
2228.17	379.778
2230.12	376.222
2232.08	373.778
2234.03	374.222
2235.98	370.667
2237.93	372.444
2239.88	378.667
2241.83	370.222
2243.78	369.778
2245.72	372.667
2247.67	372.667
2249.62	373.556
2251.56	370
2253.51	374
2255.45	376.222
2257.4	367.111
2259.34	369.556
2261.28	359.111
2263.23	364.889
2265.17	368.222
2267.11	366.222
2269.05	362.222
2270.99	360.889
2272.93	362.889
2274.87	371.778
2276.81	357.111
2278.75	361.556
2280.68	361.111
2282.62	358.889
2284.56	357.778
2286.49	357.111
2288.43	362.222
2290.36	352.222
2292.3	350
2294.23	356.667
2296.16	351.111
2298.09	365.111
2300.03	350.222
2301.96	346.667
2303.89	354.889
2305.82	350.889
2307.75	356.444
2309.68	349.556
2311.6	348.222
2313.53	349.111
2315.46	340.667
2317.39	352.667
2319.31	356.222
2321.24	348.444
2323.16	344.444
2325.09	348.667
2327.01	350.222
2328.93	346.889
2330.86	346.889
2332.78	347.111
2334.7	346.667
2336.62	342.889
2338.54	346.444
2340.46	337.333
2342.38	346.889
2344.3	336.667
2346.22	341.333
2348.14	349.333
2350.05	339.111
2351.97	331.778
2353.89	332.889
2355.8	337.778
2357.71	341.556
2359.63	342.889
2361.54	336.444
2363.46	339.111
2365.37	338.444
2367.28	344
2369.19	326.222
2371.1	323.778
2373.01	330.444
2374.92	338
2376.83	326.667
2378.74	331.778
2380.65	336.667
2382.56	320.222
2384.46	338
2386.37	331.333
2388.27	327.111
2390.18	327.556
2392.08	320.444
2393.99	330
2395.89	330.889
2397.8	326.667
2399.7	327.778
2401.6	329.556
2403.5	321.556
2405.4	329.778
2407.3	312.444
2409.2	315.111
2411.1	324.444
2413	326.222
2414.9	322.667
2416.8	316.444
2418.69	319.556
2420.59	317.333
2422.48	320.667
2424.38	322.667
2426.28	320.889
2428.17	319.556
2430.06	319.111
2431.96	316.222
2433.85	319.333
2435.74	316.889
2437.63	315.556
2439.52	320.222
2441.41	315.778
2443.3	319.111
2445.19	318.667
2447.08	314.222
