178.677	471.333
181.278	456.222
183.879	461.111
186.48	465.556
189.078	467.556
191.677	469.333
194.275	468.444
196.871	466.444
199.467	480.222
202.061	475.333
204.656	481.111
207.248	480.444
209.841	476.667
212.431	485.556
215.022	488.667
217.613	493.778
220.201	495.778
222.789	498.667
225.375	492
227.962	493.111
230.547	502.222
233.13	495.556
235.714	498.889
238.296	499.111
240.879	497.333
243.459	494.444
246.04	499.778
248.618	498.444
251.196	491.778
253.774	499.111
256.35	483.111
258.927	492.444
261.501	495.556
264.074	496.667
266.648	482.444
269.22	485.556
271.791	467.556
274.362	476
276.931	470.667
279.5	471.333
282.069	466.889
284.635	462.667
287.201	462
289.766	458.667
292.331	468.222
294.894	459.778
297.457	457.556
300.018	452.444
302.58	456.222
305.14	465.556
307.699	465.111
310.257	451.111
312.814	460.222
315.372	462
317.928	451.556
320.482	461.778
323.036	456.667
325.589	449.333
328.142	459.778
330.693	466
333.243	460
335.795	454.889
338.343	462
340.891	453.778
343.439	456.667
345.985	465.333
348.53	456.222
351.075	460
353.619	451.333
356.162	439.333
358.704	459.111
361.245	458.444
363.786	463.333
366.325	458.222
368.864	462.889
371.402	474.667
373.939	460.222
376.475	476.222
379.011	489.556
381.545	489.333
384.079	489.111
386.612	480
389.144	475.111
391.674	460.222
394.204	447.556
396.734	439.778
399.263	448.889
401.791	449.111
404.318	452
406.844	459.333
409.368	459.556
411.893	457.778
414.417	454
416.94	456.889
419.462	453.111
421.982	457.778
424.502	448.667
427.022	455.778
429.541	466.222
432.057	467.333
434.574	467.556
437.091	474.889
439.606	479.333
442.12	475.111
444.634	468.889
447.147	458
449.657	462.667
452.169	476.889
454.68	472.889
457.188	489.778
459.697	494.444
462.205	483.111
464.711	467.778
467.217	460.222
469.722	464.667
472.227	465.333
474.731	459.333
477.232	465.333
479.735	466.889
482.235	475.333
484.736	469.333
487.234	472
489.734	460
492.23	468
494.728	468.444
497.223	476.889
499.719	463.111
502.213	458
504.707	458.889
507.199	466
509.692	456.889
512.182	468.667
514.673	461.333
517.162	472
519.65	471.333
522.139	470.444
524.625	472.444
527.112	459.111
529.597	455.111
532.081	451.556
534.565	459.556
537.047	463.778
539.529	458.444
542.011	461.333
544.491	464
546.97	464
549.45	466
551.927	463.111
554.404	465.333
556.88	461.778
559.356	466.222
561.831	449.778
564.304	465.111
566.777	464
569.25	473.333
571.721	465.778
574.191	469.111
576.661	476.667
579.129	477.333
581.599	463.556
584.066	473.778
586.532	467.333
588.997	466.444
591.462	471.778
593.926	467.556
596.389	460.667
598.851	481.111
601.314	471.333
603.775	473.111
606.235	474.444
608.694	470.444
611.152	473.333
613.609	473.333
616.066	473.778
618.522	468.222
620.977	471.556
623.431	462
625.885	475.111
628.338	474.444
630.79	482.222
633.241	488.667
635.691	470.444
638.141	480.444
640.589	477.111
643.036	471.111
645.483	471.556
647.929	470
650.375	476
652.82	478
655.264	472.222
657.707	474.222
660.149	466.444
662.59	455.111
665.031	467.111
667.471	476.222
669.91	467.333
672.349	477.111
674.786	478.889
677.222	463.111
679.658	466.889
682.093	480.889
684.528	473.778
686.96	483.778
689.393	461.111
691.826	474.222
694.256	476.222
696.686	472.667
699.116	479.778
701.545	471.778
703.972	475.556
706.4	483.333
708.826	470.667
711.251	475.111
713.676	479.333
716.099	475.333
718.523	472
720.946	477.778
723.366	478.222
725.788	469.556
728.207	475.778
730.627	472.667
733.044	477.556
735.462	467.778
737.88	461.556
740.295	471.333
742.711	479.333
745.125	472.667
747.539	475.556
749.951	475.778
752.363	462.667
754.775	461.778
757.185	462.667
759.595	460.222
762.003	470.667
764.412	467.778
766.819	461.556
769.225	457.111
771.632	467.111
774.036	467.778
776.441	463.111
778.844	474.889
781.246	471.111
783.649	471.333
786.05	478.222
788.449	480
790.85	471.556
793.248	480
795.646	482.667
798.042	484.222
800.44	489.333
802.835	492.222
805.23	491.778
807.623	508.444
810.018	506
812.41	528.889
814.801	520
817.192	528.667
819.582	536.667
821.972	530
824.361	525.778
826.748	524.444
829.135	521.778
831.521	506.667
833.907	517.333
836.291	507.111
838.675	522.222
841.059	517.778
843.442	506.889
845.823	502.667
848.204	492.667
850.584	497.556
852.963	497.333
855.342	504.444
857.72	504.667
860.097	490.444
862.473	494.667
864.848	491.778
867.223	485.333
869.597	476.667
871.97	482.889
874.343	488.889
876.714	480
879.084	477.556
881.454	476.667
883.824	488.444
886.192	482.889
888.56	480
890.927	473.778
893.294	483.556
895.66	486.667
898.023	484
900.387	484.889
902.751	490.444
905.114	486.222
907.476	474
909.835	477.556
912.196	477.111
914.555	485.556
916.914	478.889
919.271	474.667
921.629	489.333
923.985	482.222
926.341	481.778
928.695	483.333
931.05	489.556
933.404	484.222
935.755	488.222
938.107	474.444
940.459	479.333
942.808	474.889
945.158	467.556
947.508	472.889
949.855	472.222
952.202	488.667
954.548	478.889
956.894	483.333
959.239	481.556
961.583	478.667
963.928	489.111
966.27	494.444
968.612	487.333
970.953	488.444
973.294	476
975.633	484.667
977.972	489.111
980.31	472.667
982.647	486.444
984.984	477.333
987.32	473.556
989.656	464.889
991.989	487.333
994.324	470.667
996.656	483.778
998.988	486
1001.32	483.333
1003.65	477.556
1005.98	476.667
1008.31	472.667
1010.64	480.889
1012.97	475.111
1015.29	465.111
1017.62	469.778
1019.94	474.667
1022.27	465.778
1024.59	478.667
1026.92	484.667
1029.24	477.111
1031.56	476.444
1033.88	474.667
1036.2	477.111
1038.52	486.667
1040.84	476.444
1043.16	469.111
1045.48	478.444
1047.79	489.778
1050.11	485.556
1052.42	491.111
1054.74	492.667
1057.05	484.222
1059.36	490
1061.67	493.111
1063.99	498
1066.3	493.333
1068.61	496.444
1070.92	495.556
1073.22	500.444
1075.53	488.889
1077.84	498.889
1080.15	500.444
1082.45	504.889
1084.76	508.667
1087.06	505.333
1089.36	521.556
1091.66	523.556
1093.97	525.778
1096.27	557.333
1098.57	556.444
1100.87	550.889
1103.17	531.111
1105.46	511.111
1107.76	524.222
1110.06	528.667
1112.35	530
1114.65	526.444
1116.94	552.889
1119.24	556.444
1121.53	543.778
1123.82	551.778
1126.11	549.111
1128.4	544.222
1130.7	533.111
1132.98	541.778
1135.27	525.333
1137.56	524.667
1139.85	522
1142.13	518.889
1144.42	531.778
1146.71	528.889
1148.99	536.445
1151.27	534.889
1153.56	536.222
1155.84	540.222
1158.12	530.222
1160.4	521.111
1162.68	522.444
1164.96	511.556
1167.24	515.556
1169.51	516
1171.79	516
1174.07	498.667
1176.34	502.889
1178.62	493.778
1180.89	479.556
1183.17	492.222
1185.44	497.333
1187.71	483.333
1189.98	482.889
1192.25	495.111
1194.52	490
1196.79	480.222
1199.06	476.444
1201.33	468
1203.59	474.889
1205.86	478.444
1208.12	465.111
1210.39	473.778
1212.65	483.778
1214.92	476
1217.18	466
1219.44	460.444
1221.7	474.889
1223.96	466.667
1226.22	454.222
1228.48	459.778
1230.74	455.778
1233	459.333
1235.25	472.667
1237.51	471.111
1239.77	462.222
1242.02	461.778
1244.27	462.667
1246.53	479.333
1248.78	476.889
1251.03	476.667
1253.28	479.556
1255.53	485.778
1257.78	480
1260.03	484
1262.28	484.889
1264.53	481.778
1266.78	484.444
1269.02	484.667
1271.27	503.778
1273.51	507.111
1275.76	507.333
1278	509.333
1280.24	509.556
1282.48	513.778
1284.72	514
1286.97	521.333
1289.21	508
1291.44	513.333
1293.68	505.333
1295.92	500.889
1298.16	502.889
1300.39	486.889
1302.63	489.333
1304.86	478.444
1307.1	465.778
1309.33	468.889
1311.56	472.889
1313.8	488.222
1316.03	474.889
1318.26	496
1320.49	480
1322.72	489.111
1324.95	477.333
1327.17	494.667
1329.4	494
1331.63	497.111
1333.85	499.111
1336.08	508.222
1338.3	496.444
1340.53	494.889
1342.75	495.333
1344.97	481.556
1347.19	479.111
1349.41	476.444
1351.63	474.889
1353.85	482.667
1356.07	475.111
1358.29	480.444
1360.51	470
1362.72	467.333
1364.94	470.667
1367.16	478.222
1369.37	474.444
1371.58	492
1373.8	486.889
1376.01	477.111
1378.22	478.889
1380.43	484.667
1382.64	484.667
1384.85	490.444
1387.06	464.667
1389.27	470.667
1391.48	470.667
1393.68	466.667
1395.89	466.667
1398.1	468.222
1400.3	468.444
1402.51	460.222
1404.71	470.444
1406.91	471.778
1409.11	471.111
1411.32	483.333
1413.52	476.444
1415.72	488.889
1417.92	496.667
1420.11	473.556
1422.31	489.778
1424.51	486.222
1426.71	490
1428.9	494.667
1431.1	485.778
1433.29	497.778
1435.49	497.778
1437.68	485.111
1439.87	479.778
1442.06	472
1444.25	478.667
1446.45	467.111
1448.64	474.222
1450.82	474.667
1453.01	466.222
1455.2	479.333
1457.39	480.889
1459.57	468
1461.76	471.556
1463.94	481.556
1466.13	492
1468.31	486.889
1470.5	491.333
1472.68	492
1474.86	493.111
1477.04	496.889
1479.22	491.556
1481.4	491.778
1483.58	481.333
1485.76	485.778
1487.94	493.556
1490.11	483.556
1492.29	487.111
1494.46	470.667
1496.64	479.333
1498.81	477.333
1500.99	477.778
1503.16	474.222
1505.33	474.444
1507.5	473.556
1509.67	480.667
1511.84	471.333
1514.01	472
1516.18	494.444
1518.35	484.222
1520.52	476.222
1522.68	489.778
1524.85	486.444
1527.02	481.778
1529.18	490.222
1531.35	501.778
1533.51	516.444
1535.67	534.889
1537.83	533.333
1539.99	545.556
1542.16	548.222
1544.31	528.222
1546.47	540
1548.63	514
1550.79	512
1552.95	496.222
1555.11	504.222
1557.26	499.778
1559.42	500.667
1561.57	503.111
1563.73	492.444
1565.88	490.444
1568.03	477.778
1570.18	492.889
1572.34	479.556
1574.49	482.444
1576.64	486.667
1578.79	489.556
1580.93	497.556
1583.08	500.222
1585.23	497.556
1587.38	492.667
1589.52	497.778
1591.67	505.111
1593.81	491.111
1595.96	491.778
1598.1	493.111
1600.24	476.222
1602.38	480.667
1604.53	471.111
1606.67	477.556
1608.81	476.444
1610.95	469.778
1613.09	457.778
1615.22	462.444
1617.36	452.889
1619.5	452.444
1621.63	451.556
1623.77	445.111
1625.9	436.667
1628.04	439.778
1630.17	430.222
1632.3	421.333
1634.44	418.667
1636.57	421.333
1638.7	412.889
1640.83	416.889
1642.96	412.667
1645.09	416.444
1647.22	418
1649.34	405.111
1651.47	413.556
1653.6	395.778
1655.72	406.667
1657.85	408.889
1659.97	405.556
1662.1	407.778
1664.22	396.444
1666.34	393.111
1668.46	401.556
1670.58	390
1672.7	398.444
1674.82	392.667
1676.94	391.778
1679.06	388.667
1681.18	396
1683.3	390
1685.41	398.667
1687.53	388.667
1689.64	395.111
1691.76	389.111
1693.87	381.556
1695.99	399.556
1698.1	395.778
1700.21	399.111
1702.32	389.333
1704.43	390.222
1706.54	388.667
1708.65	379.778
1710.76	395.111
1712.87	391.556
1714.98	388.667
1717.08	388.667
1719.19	389.778
1721.29	387.556
1723.4	376
1725.5	390.667
1727.61	384
1729.71	389.778
1731.81	384.667
1733.91	387.333
1736.02	383.111
1738.12	377.556
1740.22	381.556
1742.31	373.333
1744.41	378.222
1746.51	369.556
1748.61	380
1750.7	372.444
1752.8	370.222
1754.9	366.889
1756.99	372.667
1759.08	371.556
1761.18	369.778
1763.27	373.111
1765.36	370.444
1767.45	367.556
1769.54	370.889
1771.63	368
1773.72	366.667
1775.81	372.444
1777.9	368.222
1779.99	359.333
1782.08	358.889
1784.16	366.444
1786.25	370.667
1788.33	369.556
1790.42	364.444
1792.5	367.778
1794.58	374.889
1796.67	364
1798.75	365.111
1800.83	364.444
1802.91	369.778
1804.99	366.444
1807.07	366.444
1809.15	363.556
1811.23	367.556
1813.3	356.667
1815.38	360.444
1817.46	364.444
1819.53	357.556
1821.61	367.333
1823.68	368.222
1825.75	357.778
1827.83	355.778
1829.9	358.222
1831.97	364.667
1834.04	360.444
1836.11	355.778
1838.18	355.111
1840.25	355.111
1842.32	354
1844.39	364
1846.46	355.556
1848.52	354
1850.59	349.111
1852.65	348.444
1854.72	352
1856.78	356.889
1858.85	355.111
1860.91	352
1862.97	355.556
1865.03	346
1867.09	356.444
1869.16	341.778
1871.22	350.444
1873.27	353.556
1875.33	343.111
1877.39	347.778
1879.45	344.222
1881.51	354.889
1883.56	349.333
1885.62	348.667
1887.67	344.667
1889.73	346.667
1891.78	351.333
1893.83	348.444
1895.89	341.556
1897.94	346.444
1899.99	348.667
1902.04	355.778
1904.09	348.222
1906.14	349.111
1908.19	348.889
1910.23	348.444
1912.28	344.444
1914.33	346.889
1916.37	352
1918.42	339.333
1920.46	349.111
1922.51	344.222
1924.55	335.111
1926.6	338.444
1928.64	348.222
1930.68	338
1932.72	341.778
1934.76	334.889
1936.8	337.333
1938.84	336.667
1940.88	337.556
1942.92	329.556
1944.96	338
1946.99	338.667
1949.03	329.778
1951.06	332.889
1953.1	323.333
1955.13	332
1957.17	341.111
1959.2	338.444
1961.23	330.444
1963.27	325.333
1965.3	326.667
1967.33	326
1969.36	326
1971.39	331.111
1973.42	324
1975.44	332.667
1977.47	329.778
1979.5	327.111
1981.53	326
1983.55	328.444
1985.58	329.556
1987.6	334.889
1989.63	318.889
1991.65	337.778
1993.67	321.778
1995.69	328.667
1997.72	323.556
1999.74	335.111
2001.76	321.333
2003.78	328
2005.8	327.556
2007.82	328.889
2009.83	321.556
2011.85	324.222
2013.87	321.778
2015.88	324.667
2017.9	321.333
2019.91	318.667
2021.93	320.444
2023.94	322.444
2025.96	318.444
2027.97	329.111
2029.98	322.222
2031.99	328.667
2034	317.556
2036.01	322.667
2038.02	317.778
2040.03	322.222
2042.04	319.333
2044.05	326.889
2046.05	321.556
2048.06	323.111
2050.07	316.667
2052.07	320
2054.08	314.444
2056.08	317.111
2058.08	312.444
2060.09	314.444
2062.09	316
2064.09	313.778
2066.09	309.333
2068.09	314.667
2070.09	325.333
2072.09	318
2074.09	306
2076.09	313.333
2078.09	315.111
2080.08	314.667
2082.08	316.222
2084.08	316.444
2086.07	313.111
2088.07	312.889
2090.06	311.111
2092.05	311.333
2094.05	312
2096.04	313.111
2098.03	307.556
2100.02	312.222
2102.01	316.222
2104	314.667
2105.99	309.778
2107.98	320.444
2109.97	312.444
2111.95	316.889
2113.94	314.444
2115.93	309.333
2117.91	312.667
2119.9	303.556
2121.88	311.333
2123.87	315.333
2125.85	307.111
2127.83	315.556
2129.81	302.889
2131.8	303.111
2133.78	311.778
2135.76	299.111
2137.74	307.556
2139.72	304
2141.69	307.333
2143.67	298.444
2145.65	303.111
2147.63	298.444
2149.6	305.778
2151.58	309.111
2153.55	300
2155.53	302.667
2157.5	292.444
2159.48	294.889
2161.45	306.444
2163.42	296.889
2165.39	296
2167.36	300.667
2169.33	301.778
2171.3	295.333
2173.27	288.444
2175.24	290.889
2177.21	287.111
2179.18	294.222
2181.14	290.222
2183.11	296.667
2185.07	288
2187.04	290.889
2189	288
2190.97	284.667
2192.93	288.222
2194.89	280
2196.86	284.889
2198.82	281.333
2200.78	290.222
2202.74	292
2204.7	287.111
2206.66	283.111
2208.62	291.778
2210.57	286
2212.53	287.778
2214.49	283.333
2216.45	282.889
2218.4	289.111
2220.36	282.444
2222.31	289.556
2224.27	284.222
2226.22	288.444
2228.17	285.111
2230.12	286.889
2232.08	284.667
2234.03	289.111
2235.98	280.889
2237.93	279.111
2239.88	284.444
2241.83	280.222
2243.78	281.333
2245.72	282.222
2247.67	278.444
2249.62	280.889
2251.56	276.667
2253.51	272
2255.45	274.222
2257.4	276
2259.34	279.111
2261.28	277.778
2263.23	274.222
2265.17	274.667
2267.11	268.889
2269.05	276.889
2270.99	278.667
2272.93	273.111
2274.87	277.111
2276.81	273.778
2278.75	280
2280.68	282.444
2282.62	271.778
2284.56	273.556
2286.49	272
2288.43	269.556
2290.36	271.111
2292.3	262.222
2294.23	276.222
2296.16	265.333
2298.09	272.222
2300.03	269.333
2301.96	261.333
2303.89	265.556
2305.82	268.667
2307.75	270.667
2309.68	272.444
2311.6	268
2313.53	265.556
2315.46	271.111
2317.39	262.889
2319.31	263.111
2321.24	269.778
2323.16	269.556
2325.09	266.222
2327.01	265.111
2328.93	263.333
2330.86	264.889
2332.78	254
2334.7	262.222
2336.62	263.111
2338.54	257.111
2340.46	255.333
2342.38	253.111
2344.3	258
2346.22	262.444
2348.14	260
2350.05	255.778
2351.97	256.222
2353.89	259.333
2355.8	257.333
2357.71	255.778
2359.63	254.222
2361.54	252.444
2363.46	255.556
2365.37	258.667
2367.28	264
2369.19	252.667
2371.1	252.667
2373.01	263.778
2374.92	252.889
2376.83	260.222
2378.74	253.333
2380.65	252.222
2382.56	244
2384.46	246.667
2386.37	251.111
2388.27	252.889
2390.18	243.333
2392.08	250
2393.99	251.556
2395.89	247.556
2397.8	254
2399.7	246.444
2401.6	240.667
2403.5	246
2405.4	255.111
2407.3	246.444
2409.2	247.778
2411.1	249.333
2413	247.333
2414.9	240
2416.8	250.667
2418.69	250
2420.59	250.889
2422.48	239.111
2424.38	250.667
2426.28	255.111
2428.17	249.111
2430.06	249.778
2431.96	242.889
2433.85	250
2435.74	247.556
2437.63	238
2439.52	240
2441.41	236
2443.3	248.222
2445.19	248.444
2447.08	237.111
