178.677	654.889
181.278	650
183.879	650.444
186.48	651.111
189.078	667.333
191.677	652.889
194.275	658.667
196.871	683.111
199.467	668.667
202.061	663.111
204.656	688.889
207.248	666.667
209.841	674.222
212.431	681.333
215.022	684.667
217.613	682
220.201	680.222
222.789	689.333
225.375	688.444
227.962	695.333
230.547	685.556
233.13	709.111
235.714	698.889
238.296	692
240.879	688.222
243.459	692.444
246.04	684.889
248.618	692.222
251.196	662
253.774	651.333
256.35	655.556
258.927	650.667
261.501	626.667
264.074	625.333
266.648	622.222
269.22	606.444
271.791	611.778
274.362	618.667
276.931	599.778
279.5	595.556
282.069	588.889
284.635	583.778
287.201	580
289.766	573.556
292.331	555.556
294.894	554.444
297.457	554.667
300.018	542.667
302.58	548.667
305.14	544.889
307.699	561.556
310.257	540.667
312.814	548.889
315.372	549.778
317.928	545.778
320.482	530.667
323.036	538.667
325.589	545.333
328.142	542
330.693	537.778
333.243	546.222
335.795	556.222
338.343	540
340.891	542.444
343.439	551.111
345.985	556
348.53	548.667
351.075	558.667
353.619	557.111
356.162	551.556
358.704	555.333
361.245	555.556
363.786	545.333
366.325	567.778
368.864	566
371.402	565.111
373.939	578.444
376.475	591.778
379.011	626.889
381.545	638
384.079	640.445
386.612	616.445
389.144	582.667
391.674	566.889
394.204	543.333
396.734	574.222
399.263	565.556
401.791	572.445
404.318	590.667
406.844	612.222
409.368	645.778
411.893	690.889
414.417	740.444
416.94	741.778
419.462	697.333
421.982	672.889
424.502	643.778
427.022	621.333
429.541	607.778
432.057	608.889
434.574	603.111
437.091	608.667
439.606	629.556
442.12	644.222
444.634	696.444
447.147	781.556
449.657	853.556
452.169	874.667
454.68	845.111
457.188	759.111
459.697	682.222
462.205	633.111
464.711	608.667
467.217	579.778
469.722	568.222
472.227	568.222
474.731	567.333
477.232	568.222
479.735	561.778
482.235	565.111
484.736	555.556
487.234	570.667
489.734	553.333
492.23	567.333
494.728	566.444
497.223	563.333
499.719	558.444
502.213	555.111
504.707	555.778
507.199	555.333
509.692	555.778
512.182	559.778
514.673	552.889
517.162	552.444
519.65	539.556
522.139	538.444
524.625	561.778
527.112	558.444
529.597	566.444
532.081	577.778
534.565	563.333
537.047	555.333
539.529	537.556
542.011	538.444
544.491	548
546.97	552.444
549.45	555.778
551.927	544.667
554.404	544.222
556.88	555.333
559.356	544.222
561.831	547.556
564.304	547.111
566.777	556.444
569.25	568.222
571.721	558.889
574.191	559.333
576.661	569.111
579.129	562.444
581.599	562.667
584.066	577.556
586.532	616.222
588.997	605.111
591.462	604.222
593.926	582.889
596.389	565.111
598.851	576.222
601.314	573.778
603.775	573.111
606.235	565.556
608.694	582.222
611.152	581.111
613.609	571.556
616.066	576.444
618.522	574
620.977	559.333
623.431	556.222
625.885	568.889
628.338	548
630.79	566.667
633.241	564
635.691	568.667
638.141	575.111
640.589	571.778
643.036	582.222
645.483	593.556
647.929	582.222
650.375	580.667
652.82	583.556
655.264	574.444
657.707	564.444
660.149	568.444
662.59	564.444
665.031	574.667
667.471	569.556
669.91	559.556
672.349	565.556
674.786	581.778
677.222	562.444
679.658	572.667
682.093	562.222
684.528	568
686.96	578.222
689.393	574.889
691.826	576.222
694.256	578.444
696.686	571.778
699.116	573.556
701.545	562.667
703.972	574.889
706.4	560.444
708.826	565.111
711.251	563.333
713.676	561.333
716.099	560
718.523	550.222
720.946	553.111
723.366	551.333
725.788	556.667
728.207	558.444
730.627	553.778
733.044	573.333
735.462	558
737.88	563.556
740.295	568.444
742.711	574
745.125	576.667
747.539	579.556
749.951	585.333
752.363	606.222
754.775	616
757.185	656.667
759.595	675.333
762.003	687.333
764.412	676.222
766.819	618.222
769.225	604.889
771.632	569.111
774.036	582.889
776.441	564.889
778.844	560.889
781.246	562.222
783.649	562.667
786.05	548.444
788.449	558.667
790.85	558.889
793.248	560.667
795.646	575.778
798.042	583.111
800.44	580.667
802.835	579.111
805.23	591.111
807.623	598
810.018	604.222
812.41	595.333
814.801	593.111
817.192	578.889
819.582	598
821.972	590
824.361	580.444
826.748	608
829.135	606
831.521	610.444
833.907	651.333
836.291	641.111
838.675	687.556
841.059	728.667
843.442	786
845.823	851.111
848.204	902.222
850.584	897.556
852.963	828
855.342	751.111
857.72	677.778
860.097	646
862.473	618.222
864.848	598
867.223	603.778
869.597	593.778
871.97	597.333
874.343	586.889
876.714	598.444
879.084	593.556
881.454	596.444
883.824	594.444
886.192	601.111
888.56	585.333
890.927	597.778
893.294	613.333
895.66	624.889
898.023	650.222
900.387	651.333
902.751	657.555
905.114	683.111
907.476	669.111
909.835	687.333
912.196	658.667
914.555	648.222
916.914	612.222
919.271	598.889
921.629	613.556
923.985	585.111
926.341	589.333
928.695	590
931.05	589.111
933.404	580.667
935.755	579.556
938.107	586
940.459	588.444
942.808	587.111
945.158	599.556
947.508	587.556
949.855	604.444
952.202	605.333
954.548	601.556
956.894	606.222
959.239	595.778
961.583	604.889
963.928	610.222
966.27	626
968.612	619.778
970.953	624.889
973.294	638.444
975.633	633.556
977.972	640.222
980.31	625.111
982.647	634.444
984.984	639.333
987.32	625.556
989.656	628.444
991.989	633.555
994.324	634.444
996.656	628.889
998.988	632
1001.32	614.667
1003.65	591.778
1005.98	589.556
1008.31	574.222
1010.64	586.444
1012.97	592.667
1015.29	607.111
1017.62	605.556
1019.94	638.667
1022.27	643.333
1024.59	655.778
1026.92	670.667
1029.24	703.111
1031.56	728
1033.88	720.222
1036.2	714.444
1038.52	710.889
1040.84	714.222
1043.16	682.222
1045.48	646.667
1047.79	618.444
1050.11	596.667
1052.42	591.111
1054.74	596.222
1057.05	587.333
1059.36	592.889
1061.67	594.889
1063.99	579.333
1066.3	576
1068.61	593.333
1070.92	600.444
1073.22	601.111
1075.53	594.667
1077.84	601.778
1080.15	585.778
1082.45	596.444
1084.76	609.556
1087.06	586.889
1089.36	617.333
1091.66	605.778
1093.97	603.556
1096.27	646.222
1098.57	636.222
1100.87	613.778
1103.17	621.778
1105.46	616.667
1107.76	626.889
1110.06	614.222
1112.35	617.333
1114.65	622
1116.94	620
1119.24	626.667
1121.53	646.889
1123.82	650
1126.11	678
1128.4	671.778
1130.7	674.444
1132.98	665.778
1135.27	663.111
1137.56	662.889
1139.85	660.444
1142.13	676
1144.42	677.556
1146.71	683.333
1148.99	697.556
1151.27	716.889
1153.56	686.222
1155.84	685.111
1158.12	677.778
1160.4	676.889
1162.68	667.111
1164.96	670.889
1167.24	672
1169.51	644.889
1171.79	651.333
1174.07	640.889
1176.34	653.333
1178.62	644.889
1180.89	641.556
1183.17	622.222
1185.44	629.778
1187.71	635.556
1189.98	625.556
1192.25	630
1194.52	640
1196.79	648.667
1199.06	633.556
1201.33	642.667
1203.59	642
1205.86	641.778
1208.12	631.778
1210.39	636
1212.65	634
1214.92	624.444
1217.18	639.556
1219.44	657.556
1221.7	685.556
1223.96	692.444
1226.22	703.111
1228.48	711.778
1230.74	722
1233	728.222
1235.25	732
1237.51	734.667
1239.77	738.445
1242.02	754
1244.27	748.889
1246.53	737.333
1248.78	726.889
1251.03	725.111
1253.28	718.222
1255.53	711.333
1257.78	692.222
1260.03	681.778
1262.28	672.667
1264.53	659.778
1266.78	659.333
1269.02	654.222
1271.27	653.556
1273.51	657.778
1275.76	664.667
1278	653.778
1280.24	657.111
1282.48	648.444
1284.72	660.444
1286.97	656
1289.21	671.111
1291.44	686
1293.68	693.333
1295.92	682.667
1298.16	706.667
1300.39	677.111
1302.63	683.778
1304.86	665.778
1307.1	665.333
1309.33	683.111
1311.56	674.667
1313.8	692.667
1316.03	699.111
1318.26	723.333
1320.49	746.889
1322.72	776
1324.95	803.111
1327.17	824
1329.4	851.778
1331.63	906.444
1333.85	934
1336.08	963.111
1338.3	973.111
1340.53	978
1342.75	942.889
1344.97	904.889
1347.19	856.889
1349.41	813.333
1351.63	757.778
1353.85	744
1356.07	708.889
1358.29	698
1360.51	665.778
1362.72	658.444
1364.94	652.444
1367.16	661.111
1369.37	646.444
1371.58	646.222
1373.8	647.333
1376.01	630.222
1378.22	658.445
1380.43	646.889
1382.64	658.444
1384.85	653.111
1387.06	662
1389.27	677.111
1391.48	697.556
1393.68	691.111
1395.89	703.556
1398.1	705.778
1400.3	700.222
1402.51	680.667
1404.71	657.111
1406.91	655.778
1409.11	645.111
1411.32	663.333
1413.52	671.333
1415.72	661.111
1417.92	691.111
1420.11	695.333
1422.31	708.667
1424.51	726.445
1426.71	731.556
1428.9	754.444
1431.1	753.778
1433.29	761.778
1435.49	755.111
1437.68	758.222
1439.87	776.889
1442.06	772.222
1444.25	754.222
1446.45	741.333
1448.64	738.222
1450.82	736
1453.01	755.111
1455.2	773.556
1457.39	783.778
1459.57	814.889
1461.76	839.333
1463.94	852.889
1466.13	900.889
1468.31	944.222
1470.5	981.778
1472.68	1019.78
1474.86	1011.56
1477.04	974.889
1479.22	920.889
1481.4	912.889
1483.58	882.444
1485.76	849.556
1487.94	828.889
1490.11	828.667
1492.29	808.222
1494.46	814.889
1496.64	830.444
1498.81	824.667
1500.99	819.556
1503.16	839.111
1505.33	840.444
1507.5	862.444
1509.67	883.333
1511.84	894.444
1514.01	920
1516.18	921.778
1518.35	917.333
1520.52	951.333
1522.68	945.111
1524.85	955.778
1527.02	953.778
1529.18	942.222
1531.35	913.778
1533.51	882.889
1535.67	876.222
1537.83	862.222
1539.99	852.222
1542.16	844.444
1544.31	833.333
1546.47	826.667
1548.63	804.889
1550.79	791.555
1552.95	780.667
1555.11	773.778
1557.26	766.222
1559.42	762.222
1561.57	747.556
1563.73	730.222
1565.88	726
1568.03	732.222
1570.18	740.889
1572.34	731.778
1574.49	727.778
1576.64	727.556
1578.79	721.556
1580.93	713.111
1583.08	726.889
1585.23	727.333
1587.38	722.444
1589.52	724.667
1591.67	730.444
1593.81	725.556
1595.96	718
1598.1	717.556
1600.24	703.778
1602.38	702.444
1604.53	696.444
1606.67	694
1608.81	675.778
1610.95	684
1613.09	653.556
1615.22	648.444
1617.36	636.444
1619.5	604.444
1621.63	592
1623.77	595.333
1625.9	589.556
1628.04	565.556
1630.17	561.333
1632.3	559.778
1634.44	560.444
1636.57	541.556
1638.7	531.111
1640.83	541.556
1642.96	518.444
1645.09	521.111
1647.22	519.556
1649.34	520.889
1651.47	520
1653.6	512.889
1655.72	500
1657.85	497.111
1659.97	496.222
1662.1	485.333
1664.22	496.444
1666.34	489.778
1668.46	483.778
1670.58	479.778
1672.7	474.222
1674.82	485.111
1676.94	484.222
1679.06	475.778
1681.18	471.556
1683.3	475.556
1685.41	470.444
1687.53	478.444
1689.64	472
1691.76	483.778
1693.87	469.333
1695.99	467.111
1698.1	468.889
1700.21	461.778
1702.32	452.444
1704.43	464.667
1706.54	466.444
1708.65	455.778
1710.76	464
1712.87	454.889
1714.98	447.556
1717.08	465.778
1719.19	462.222
1721.29	442.222
1723.4	453.556
1725.5	453.556
1727.61	454.889
1729.71	434.444
1731.81	430.667
1733.91	440
1736.02	435.333
1738.12	431.111
1740.22	420.667
1742.31	426.222
1744.41	429.333
1746.51	430.222
1748.61	418.444
1750.7	428.667
1752.8	425.556
1754.9	418.222
1756.99	426.889
1759.08	418.667
1761.18	418.667
1763.27	424.444
1765.36	413.111
1767.45	425.111
1769.54	420.222
1771.63	408.444
1773.72	403.556
1775.81	410.222
1777.9	408.667
1779.99	405.778
1782.08	414
1784.16	423.778
1786.25	414
1788.33	415.556
1790.42	413.778
1792.5	410.889
1794.58	413.333
1796.67	402.667
1798.75	421.778
1800.83	416.222
1802.91	414
1804.99	414.889
1807.07	399.333
1809.15	412.667
1811.23	407.111
1813.3	413.556
1815.38	411.111
1817.46	405.111
1819.53	403.111
1821.61	403.778
1823.68	401.778
1825.75	402.444
1827.83	392.222
1829.9	406.444
1831.97	396.444
1834.04	393.556
1836.11	398.444
1838.18	397.333
1840.25	397.111
1842.32	403.333
1844.39	401.778
1846.46	388.889
1848.52	405.333
1850.59	396.667
1852.65	394
1854.72	397.333
1856.78	390.889
1858.85	388
1860.91	390
1862.97	392.889
1865.03	383.556
1867.09	390
1869.16	388.667
1871.22	388.889
1873.27	389.778
1875.33	386.222
1877.39	386.889
1879.45	385.333
1881.51	388.222
1883.56	386
1885.62	398.222
1887.67	390.444
1889.73	385.778
1891.78	384
1893.83	387.778
1895.89	384.667
1897.94	381.556
1899.99	386.667
1902.04	381.333
1904.09	374.444
1906.14	376.667
1908.19	377.333
1910.23	375.778
1912.28	372.444
1914.33	374.889
1916.37	381.333
1918.42	377.333
1920.46	384.444
1922.51	374.222
1924.55	374.222
1926.6	379.556
1928.64	380.222
1930.68	377.778
1932.72	375.333
1934.76	364.444
1936.8	380
1938.84	370.889
1940.88	370.222
1942.92	364.444
1944.96	366.889
1946.99	372.444
1949.03	373.556
1951.06	360
1953.1	364.889
1955.13	365.111
1957.17	357.556
1959.2	368.444
1961.23	369.111
1963.27	350.889
1965.3	360.889
1967.33	360
1969.36	369.333
1971.39	364.222
1973.42	361.333
1975.44	348.222
1977.47	356.889
1979.5	365.111
1981.53	360.889
1983.55	360.667
1985.58	348.667
1987.6	353.556
1989.63	358.667
1991.65	347.778
1993.67	354
1995.69	357.111
1997.72	344.444
1999.74	354.222
2001.76	352.667
2003.78	348.222
2005.8	354.667
2007.82	352.667
2009.83	352.444
2011.85	344.444
2013.87	352.889
2015.88	350.444
2017.9	353.778
2019.91	349.556
2021.93	356.222
2023.94	349.333
2025.96	351.556
2027.97	348.667
2029.98	350.222
2031.99	354.889
2034	342
2036.01	355.778
2038.02	344.222
2040.03	353.556
2042.04	339.111
2044.05	347.556
2046.05	342.222
2048.06	349.556
2050.07	342.889
2052.07	344.222
2054.08	337.111
2056.08	349.556
2058.08	337.111
2060.09	340.889
2062.09	334.889
2064.09	349.111
2066.09	337.556
2068.09	344
2070.09	347.333
2072.09	332
2074.09	336.444
2076.09	335.333
2078.09	338.444
2080.08	335.556
2082.08	334
2084.08	336
2086.07	328.222
2088.07	338.444
2090.06	346.667
2092.05	340.667
2094.05	327.111
2096.04	330.889
2098.03	333.556
2100.02	334.667
2102.01	336.444
2104	333.556
2105.99	329.333
2107.98	326.444
2109.97	338
2111.95	334.889
2113.94	324.444
2115.93	319.778
2117.91	324.222
2119.9	334.222
2121.88	334.444
2123.87	328
2125.85	322.667
2127.83	326.444
2129.81	334
2131.8	336
2133.78	330.444
2135.76	324.222
2137.74	325.333
2139.72	325.333
2141.69	325.111
2143.67	326.444
2145.65	324
2147.63	313.111
2149.6	329.333
2151.58	319.111
2153.55	323.333
2155.53	325.556
2157.5	327.778
2159.48	328
2161.45	319.556
2163.42	317.333
2165.39	324
2167.36	315.556
2169.33	320.222
2171.3	311.556
2173.27	317.111
2175.24	308.667
2177.21	316
2179.18	317.778
2181.14	312
2183.11	314
2185.07	309.111
2187.04	305.778
2189	317.333
2190.97	313.778
2192.93	315.333
2194.89	313.778
2196.86	316.889
2198.82	302.222
2200.78	313.111
2202.74	310.889
2204.7	313.111
2206.66	314
2208.62	306.444
2210.57	317.111
2212.53	305.556
2214.49	314
2216.45	297.333
2218.4	305.556
2220.36	305.333
2222.31	308.222
2224.27	304.222
2226.22	307.778
2228.17	311.111
2230.12	298.222
2232.08	300.889
2234.03	302.444
2235.98	298.444
2237.93	303.556
2239.88	299.556
2241.83	295.556
2243.78	302.222
2245.72	298.667
2247.67	300.444
2249.62	298.667
2251.56	300.444
2253.51	302.667
2255.45	292.889
2257.4	287.333
2259.34	298.222
2261.28	297.778
2263.23	287.556
2265.17	296
2267.11	297.556
2269.05	293.778
2270.99	293.556
2272.93	290.889
2274.87	296.222
2276.81	291.778
2278.75	284.667
2280.68	294.444
2282.62	290.889
2284.56	288.889
2286.49	287.333
2288.43	292.667
2290.36	293.333
2292.3	284.444
2294.23	292
2296.16	291.111
2298.09	287.556
2300.03	284.667
2301.96	288.889
2303.89	289.333
2305.82	284.222
2307.75	284.222
2309.68	286.667
2311.6	283.111
2313.53	278.889
2315.46	280.889
2317.39	289.111
2319.31	276.444
2321.24	282.889
2323.16	282.889
2325.09	284.444
2327.01	270.667
2328.93	279.778
2330.86	282.889
2332.78	284
2334.7	281.111
2336.62	279.333
2338.54	277.333
2340.46	272.667
2342.38	284.222
2344.3	279.111
2346.22	272.667
2348.14	284.222
2350.05	278.444
2351.97	278.222
2353.89	274.222
2355.8	273.556
2357.71	262.667
2359.63	271.111
2361.54	277.333
2363.46	272.222
2365.37	273.556
2367.28	271.111
2369.19	264.222
2371.1	270.889
2373.01	273.111
2374.92	267.556
2376.83	274.667
2378.74	268.667
2380.65	274.889
2382.56	260
2384.46	265.556
2386.37	269.778
2388.27	265.333
2390.18	269.111
2392.08	257.556
2393.99	264.444
2395.89	268.222
2397.8	259.556
2399.7	263.778
2401.6	266.889
2403.5	262.444
2405.4	262.222
2407.3	253.556
2409.2	254.667
2411.1	266.667
2413	260.889
2414.9	259.333
2416.8	266.444
2418.69	265.333
2420.59	266.444
2422.48	264
2424.38	264
2426.28	260
2428.17	255.556
2430.06	264.222
2431.96	260.444
2433.85	265.778
2435.74	272.667
2437.63	263.556
2439.52	263.778
2441.41	253.111
2443.3	259.111
2445.19	254.889
2447.08	268.889
