178.677	623.111
181.278	632.444
183.879	634.889
186.48	646.222
189.078	639.778
191.677	646.889
194.275	656.444
196.871	657.333
199.467	639.333
202.061	671.333
204.656	658.889
207.248	647.778
209.841	659.333
212.431	665.111
215.022	682.222
217.613	664.667
220.201	669.111
222.789	676.667
225.375	685.778
227.962	680.889
230.547	673.778
233.13	686
235.714	684
238.296	680
240.879	692
243.459	681.778
246.04	686
248.618	673.556
251.196	686.889
253.774	690.889
256.35	683.333
258.927	686.222
261.501	664.889
264.074	661.111
266.648	664.222
269.22	667.778
271.791	660.667
274.362	660
276.931	658.222
279.5	660.667
282.069	650.889
284.635	643.333
287.201	655.333
289.766	650
292.331	645.333
294.894	641.778
297.457	643.556
300.018	634.889
302.58	640.889
305.14	647.778
307.699	655.778
310.257	654.222
312.814	651.333
315.372	652.444
317.928	644.889
320.482	653.556
323.036	645.111
325.589	647.778
328.142	660.889
330.693	665.778
333.243	666.667
335.795	652
338.343	641.333
340.891	640.222
343.439	652.889
345.985	650
348.53	658.889
351.075	658
353.619	659.556
356.162	648
358.704	656
361.245	657.556
363.786	662.444
366.325	659.111
368.864	664.667
371.402	651.556
373.939	665.333
376.475	680
379.011	686.222
381.545	684
384.079	686.222
386.612	676
389.144	666.667
391.674	653.333
394.204	654.444
396.734	650.222
399.263	656
401.791	646.667
404.318	643.333
406.844	658.222
409.368	663.111
411.893	658.445
414.417	666.667
416.94	671.778
419.462	666.222
421.982	665.778
424.502	666
427.022	670
429.541	675.778
432.057	677.556
434.574	683.556
437.091	695.111
439.606	685.556
442.12	683.556
444.634	682.667
447.147	670.222
449.657	686.444
452.169	671.556
454.68	676.889
457.188	680.889
459.697	687.333
462.205	668.667
464.711	681.778
467.217	669.778
469.722	680.889
472.227	670.222
474.731	669.778
477.232	664.445
479.735	675.333
482.235	686.444
484.736	674.889
487.234	677.333
489.734	684
492.23	679.556
494.728	686.222
497.223	680.889
499.719	691.556
502.213	676
504.707	674.444
507.199	676.667
509.692	674.889
512.182	676
514.673	680.667
517.162	683.111
519.65	679.111
522.139	674
524.625	684.222
527.112	680.444
529.597	670
532.081	677.111
534.565	675.778
537.047	677.778
539.529	673.778
542.011	679.778
544.491	663.778
546.97	683.111
549.45	679.111
551.927	684.889
554.404	680.667
556.88	690.889
559.356	679.333
561.831	683.556
564.304	681.111
566.777	666.667
569.25	692
571.721	680.222
574.191	671.778
576.661	684
579.129	683.778
581.599	670.889
584.066	664.667
586.532	671.111
588.997	676
591.462	671.111
593.926	669.778
596.389	665.778
598.851	666.667
601.314	668.222
603.775	672.889
606.235	666.444
608.694	684.667
611.152	670.444
613.609	670.667
616.066	683.778
618.522	680.444
620.977	680.667
623.431	672.444
625.885	688.889
628.338	677.778
630.79	680.889
633.241	688
635.691	680.222
638.141	690
640.589	687.333
643.036	690.222
645.483	686.667
647.929	677.111
650.375	687.333
652.82	678.222
655.264	686
657.707	664.222
660.149	675.111
662.59	669.111
665.031	686.889
667.471	667.111
669.91	691.556
672.349	664
674.786	672.444
677.222	665.111
679.658	677.111
682.093	680.444
684.528	669.333
686.96	683.778
689.393	683.333
691.826	682
694.256	679.556
696.686	676.444
699.116	692.889
701.545	682.222
703.972	687.556
706.4	687.333
708.826	679.778
711.251	683.778
713.676	678
716.099	680.444
718.523	679.111
720.946	671.556
723.366	676.889
725.788	670.889
728.207	668.444
730.627	676.889
733.044	670.444
735.462	679.333
737.88	676.222
740.295	668.444
742.711	674
745.125	652.222
747.539	662
749.951	667.778
752.363	666.889
754.775	672
757.185	664.667
759.595	670.667
762.003	664.222
764.412	676
766.819	672.889
769.225	678
771.632	669.111
774.036	668
776.441	672.667
778.844	672.444
781.246	684.889
783.649	682
786.05	675.333
788.449	677.556
790.85	674.889
793.248	670.444
795.646	682
798.042	668
800.44	668.444
802.835	667.778
805.23	672.222
807.623	680.889
810.018	675.556
812.41	668
814.801	681.556
817.192	672.444
819.582	682.222
821.972	673.333
824.361	662
826.748	665.778
829.135	670
831.521	658.444
833.907	675.556
836.291	658.889
838.675	657.111
841.059	675.778
843.442	654.889
845.823	666.667
848.204	669.111
850.584	659.778
852.963	672.222
855.342	668.667
857.72	677.111
860.097	652.444
862.473	662.444
864.848	670.222
867.223	660.889
869.597	672
871.97	672
874.343	666
876.714	671.111
879.084	656.444
881.454	678.222
883.824	677.556
886.192	666.889
888.56	669.778
890.927	668.667
893.294	670.889
895.66	673.556
898.023	671.333
900.387	673.333
902.751	667.111
905.114	659.778
907.476	669.111
909.835	665.778
912.196	659.333
914.555	661.778
916.914	666
919.271	658.667
921.629	661.778
923.985	662.889
926.341	676.444
928.695	650.222
931.05	663.778
933.404	666.444
935.755	668.889
938.107	657.333
940.459	660.667
942.808	671.111
945.158	654.667
947.508	655.333
949.855	679.333
952.202	651.778
954.548	646.444
956.894	653.333
959.239	666.667
961.583	666.889
963.928	671.333
966.27	675.778
968.612	688.444
970.953	679.333
973.294	673.778
975.633	658.667
977.972	653.778
980.31	660.667
982.647	651.556
984.984	656.667
987.32	658.222
989.656	659.111
991.989	663.111
994.324	664.667
996.656	672.222
998.988	683.556
1001.32	678
1003.65	683.333
1005.98	708.667
1008.31	716.444
1010.64	726.444
1012.97	721.556
1015.29	700.444
1017.62	689.333
1019.94	682.222
1022.27	676.444
1024.59	680
1026.92	669.556
1029.24	673.778
1031.56	651.778
1033.88	694.222
1036.2	703.333
1038.52	698.889
1040.84	690.444
1043.16	669.333
1045.48	676.444
1047.79	671.333
1050.11	653.778
1052.42	664
1054.74	664
1057.05	682.222
1059.36	673.333
1061.67	666
1063.99	672.445
1066.3	671.555
1068.61	675.556
1070.92	686.222
1073.22	658.222
1075.53	674.889
1077.84	670.222
1080.15	667.556
1082.45	671.556
1084.76	685.556
1087.06	697.556
1089.36	693.333
1091.66	715.333
1093.97	734.444
1096.27	749.111
1098.57	746.889
1100.87	720.667
1103.17	709.555
1105.46	698.889
1107.76	684.444
1110.06	694.444
1112.35	688.222
1114.65	700.889
1116.94	691.778
1119.24	709.556
1121.53	696.889
1123.82	711.111
1126.11	712.444
1128.4	688.667
1130.7	703.111
1132.98	675.778
1135.27	676
1137.56	662.444
1139.85	669.778
1142.13	662.667
1144.42	661.556
1146.71	667.333
1148.99	670.667
1151.27	673.333
1153.56	668
1155.84	678.889
1158.12	666.889
1160.4	660.667
1162.68	669.111
1164.96	670.444
1167.24	658.667
1169.51	655.555
1171.79	648.222
1174.07	656
1176.34	650.222
1178.62	645.333
1180.89	653.111
1183.17	645.778
1185.44	628.444
1187.71	648.667
1189.98	638.222
1192.25	638.667
1194.52	657.556
1196.79	631.556
1199.06	640.889
1201.33	644.667
1203.59	643.556
1205.86	636.667
1208.12	648.889
1210.39	644.444
1212.65	640
1214.92	638.889
1217.18	638.889
1219.44	644
1221.7	640
1223.96	642.444
1226.22	642
1228.48	649.778
1230.74	640.222
1233	650.444
1235.25	644.222
1237.51	644.222
1239.77	642
1242.02	639.333
1244.27	640.889
1246.53	641.111
1248.78	647.556
1251.03	640.444
1253.28	649.111
1255.53	658.667
1257.78	646.444
1260.03	650.222
1262.28	653.556
1264.53	646.667
1266.78	656.667
1269.02	644.667
1271.27	642.444
1273.51	648.444
1275.76	651.556
1278	653.333
1280.24	654
1282.48	657.778
1284.72	649.556
1286.97	660.667
1289.21	667.333
1291.44	648.222
1293.68	643.111
1295.92	649.778
1298.16	648
1300.39	650.444
1302.63	646.444
1304.86	637.111
1307.1	644.222
1309.33	639.778
1311.56	647.333
1313.8	628.222
1316.03	643.333
1318.26	653.778
1320.49	651.111
1322.72	656
1324.95	652.889
1327.17	660.444
1329.4	653.778
1331.63	652.222
1333.85	659.778
1336.08	655.111
1338.3	660.889
1340.53	664.667
1342.75	661.778
1344.97	656.667
1347.19	649.778
1349.41	654
1351.63	632.667
1353.85	653.111
1356.07	650.667
1358.29	645.333
1360.51	644
1362.72	646.889
1364.94	658.889
1367.16	643.556
1369.37	661.333
1371.58	655.333
1373.8	665.555
1376.01	658.667
1378.22	658.222
1380.43	674.222
1382.64	657.333
1384.85	660
1387.06	645.111
1389.27	651.111
1391.48	642.444
1393.68	642.444
1395.89	653.556
1398.1	641.111
1400.3	638
1402.51	644.667
1404.71	640.222
1406.91	637.556
1409.11	630.222
1411.32	623.556
1413.52	638.889
1415.72	638.444
1417.92	631.111
1420.11	634
1422.31	618.222
1424.51	635.778
1426.71	629.333
1428.9	626.222
1431.1	627.111
1433.29	635.111
1435.49	631.111
1437.68	632.444
1439.87	626.222
1442.06	624.889
1444.25	614.444
1446.45	622.222
1448.64	630
1450.82	614.889
1453.01	626.444
1455.2	627.333
1457.39	614
1459.57	624.889
1461.76	621.778
1463.94	631.111
1466.13	635.556
1468.31	620.889
1470.5	614.889
1472.68	626
1474.86	619.778
1477.04	627.111
1479.22	613.111
1481.4	627.333
1483.58	617.111
1485.76	611.111
1487.94	623.111
1490.11	618.444
1492.29	631.778
1494.46	610.444
1496.64	616
1498.81	615.111
1500.99	611.111
1503.16	605.556
1505.33	595.111
1507.5	617.111
1509.67	616.889
1511.84	595.778
1514.01	597.111
1516.18	598
1518.35	615.333
1520.52	605.111
1522.68	598.667
1524.85	600
1527.02	605.778
1529.18	601.333
1531.35	591.333
1533.51	596.889
1535.67	603.778
1537.83	612.222
1539.99	597.778
1542.16	597.778
1544.31	588.444
1546.47	599.333
1548.63	605.778
1550.79	602.444
1552.95	611.556
1555.11	601.556
1557.26	606.222
1559.42	600.222
1561.57	601.778
1563.73	605.111
1565.88	609.556
1568.03	598.444
1570.18	603.778
1572.34	608.889
1574.49	606.444
1576.64	613.333
1578.79	611.333
1580.93	603.333
1583.08	602.889
1585.23	599.333
1587.38	607.778
1589.52	599.333
1591.67	604
1593.81	605.111
1595.96	600.667
1598.1	606.444
1600.24	608.222
1602.38	608.222
1604.53	592.667
1606.67	609.333
1608.81	600.889
1610.95	604.444
1613.09	594
1615.22	595.111
1617.36	602
1619.5	600.444
1621.63	582.445
1623.77	591.778
1625.9	595.556
1628.04	586.889
1630.17	583.778
1632.3	586.889
1634.44	588.444
1636.57	578
1638.7	584
1640.83	566.667
1642.96	580.889
1645.09	583.111
1647.22	568.889
1649.34	570
1651.47	568.222
1653.6	572.889
1655.72	568
1657.85	564.444
1659.97	570.889
1662.1	562.667
1664.22	554.445
1666.34	568.667
1668.46	563.778
1670.58	572.222
1672.7	573.333
1674.82	565.111
1676.94	554.667
1679.06	551.556
1681.18	558.444
1683.3	568.222
1685.41	549.111
1687.53	567.556
1689.64	552.667
1691.76	556.889
1693.87	565.111
1695.99	568.222
1698.1	564
1700.21	559.111
1702.32	552.889
1704.43	564.889
1706.54	557.556
1708.65	553.556
1710.76	553.556
1712.87	552.889
1714.98	558.889
1717.08	554
1719.19	556
1721.29	546.889
1723.4	548
1725.5	548.222
1727.61	545.333
1729.71	532.889
1731.81	547.556
1733.91	544.667
1736.02	552.889
1738.12	538
1740.22	546.889
1742.31	541.778
1744.41	540.222
1746.51	545.556
1748.61	545.556
1750.7	532.444
1752.8	547.111
1754.9	543.111
1756.99	551.111
1759.08	542.889
1761.18	534.444
1763.27	544
1765.36	536.889
1767.45	527.111
1769.54	536.889
1771.63	542.889
1773.72	524.667
1775.81	528.889
1777.9	532.667
1779.99	539.778
1782.08	533.333
1784.16	533.556
1786.25	540.444
1788.33	530.667
1790.42	531.333
1792.5	547.333
1794.58	524.667
1796.67	529.111
1798.75	532.222
1800.83	529.111
1802.91	532.222
1804.99	527.111
1807.07	534.889
1809.15	524.667
1811.23	534.222
1813.3	529.111
1815.38	522.667
1817.46	519.556
1819.53	533.333
1821.61	526.889
1823.68	527.556
1825.75	524.444
1827.83	522.667
1829.9	520.222
1831.97	525.111
1834.04	522
1836.11	510.667
1838.18	514.222
1840.25	520.222
1842.32	509.556
1844.39	515.778
1846.46	517.778
1848.52	507.111
1850.59	514.889
1852.65	516.222
1854.72	509.556
1856.78	507.556
1858.85	508.889
1860.91	518.889
1862.97	502.889
1865.03	499.778
1867.09	510
1869.16	513.111
1871.22	507.333
1873.27	498.444
1875.33	503.333
1877.39	509.778
1879.45	502.222
1881.51	509.333
1883.56	492.667
1885.62	496.667
1887.67	517.556
1889.73	495.111
1891.78	502.444
1893.83	495.556
1895.89	507.111
1897.94	509.556
1899.99	487.778
1902.04	499.556
1904.09	502.444
1906.14	501.556
1908.19	489.333
1910.23	499.111
1912.28	489.111
1914.33	497.111
1916.37	499.556
1918.42	488.889
1920.46	494
1922.51	492.667
1924.55	490.667
1926.6	496.667
1928.64	500.889
1930.68	488
1932.72	496.444
1934.76	494.889
1936.8	484.889
1938.84	482.222
1940.88	486.444
1942.92	477.556
1944.96	483.778
1946.99	491.333
1949.03	483.778
1951.06	482.444
1953.1	488.444
1955.13	481.778
1957.17	480.667
1959.2	478.667
1961.23	482.444
1963.27	477.778
1965.3	477.333
1967.33	478.222
1969.36	474
1971.39	477.778
1973.42	469.111
1975.44	473.778
1977.47	474.889
1979.5	470.889
1981.53	472.667
1983.55	464.889
1985.58	473.556
1987.6	475.333
1989.63	472
1991.65	473.333
1993.67	463.111
1995.69	470.889
1997.72	456.667
1999.74	467.778
2001.76	468.222
2003.78	465.778
2005.8	459.778
2007.82	467.778
2009.83	471.778
2011.85	471.333
2013.87	470.667
2015.88	465.778
2017.9	464.444
2019.91	471.556
2021.93	469.778
2023.94	462.889
2025.96	470
2027.97	462.667
2029.98	448.667
2031.99	463.333
2034	465.556
2036.01	463.333
2038.02	462.222
2040.03	453.778
2042.04	454.667
2044.05	462.222
2046.05	466.444
2048.06	459.111
2050.07	464.444
2052.07	459.333
2054.08	454.444
2056.08	455.333
2058.08	459.111
2060.09	454
2062.09	453.556
2064.09	459.556
2066.09	448.667
2068.09	453.333
2070.09	450
2072.09	452.889
2074.09	450.222
2076.09	449.333
2078.09	446.889
2080.08	446
2082.08	452
2084.08	442.889
2086.07	451.778
2088.07	448.889
2090.06	449.333
2092.05	441.778
2094.05	450.444
2096.04	444.444
2098.03	444.444
2100.02	440.889
2102.01	441.778
2104	440.889
2105.99	440.889
2107.98	434.444
2109.97	443.333
2111.95	436.667
2113.94	442.667
2115.93	438.889
2117.91	426.889
2119.9	430.444
2121.88	436.667
2123.87	437.556
2125.85	439.333
2127.83	426.889
2129.81	431.333
2131.8	434.667
2133.78	441.111
2135.76	430.889
2137.74	431.778
2139.72	428
2141.69	430.222
2143.67	430.889
2145.65	437.333
2147.63	429.556
2149.6	426.444
2151.58	430
2153.55	430.222
2155.53	414.889
2157.5	427.111
2159.48	428.222
2161.45	415.556
2163.42	410.667
2165.39	425.333
2167.36	423.333
2169.33	414.889
2171.3	419.778
2173.27	417.111
2175.24	416.889
2177.21	414
2179.18	413.778
2181.14	409.556
2183.11	410.444
2185.07	411.111
2187.04	404.667
2189	418.667
2190.97	417.778
2192.93	409.111
2194.89	405.333
2196.86	414
2198.82	407.333
2200.78	398.889
2202.74	402.667
2204.7	397.111
2206.66	409.333
2208.62	398.889
2210.57	411.333
2212.53	396.889
2214.49	404.667
2216.45	402
2218.4	395.333
2220.36	406.889
2222.31	400.444
2224.27	402.444
2226.22	399.111
2228.17	407.333
2230.12	407.333
2232.08	398.444
2234.03	393.111
2235.98	393.556
2237.93	393.778
2239.88	394.444
2241.83	394.222
2243.78	383.556
2245.72	389.556
2247.67	392
2249.62	392.222
2251.56	388
2253.51	400
2255.45	394.222
2257.4	391.556
2259.34	394.667
2261.28	395.111
2263.23	390.222
2265.17	382.222
2267.11	387.111
2269.05	396.444
2270.99	387.333
2272.93	389.556
2274.87	375.556
2276.81	380
2278.75	378.222
2280.68	384.444
2282.62	379.333
2284.56	381.778
2286.49	378.889
2288.43	377.778
2290.36	385.333
2292.3	382.667
2294.23	380
2296.16	380.444
2298.09	381.778
2300.03	374.222
2301.96	378.889
2303.89	375.556
2305.82	374.444
2307.75	380
2309.68	373.333
2311.6	363.111
2313.53	373.111
2315.46	373.556
2317.39	372.222
2319.31	370.889
2321.24	368.222
2323.16	366.222
2325.09	369.111
2327.01	366.222
2328.93	368.222
2330.86	368.222
2332.78	369.556
2334.7	366.222
2336.62	366.667
2338.54	363.333
2340.46	365.778
2342.38	370.444
2344.3	359.778
2346.22	366
2348.14	353.333
2350.05	356.222
2351.97	362
2353.89	362.222
2355.8	357.111
2357.71	362.889
2359.63	357.556
2361.54	359.333
2363.46	350.667
2365.37	360.667
2367.28	358.444
2369.19	350.222
2371.1	357.778
2373.01	356.889
2374.92	353.556
2376.83	355.556
2378.74	348.222
2380.65	342.222
2382.56	348.222
2384.46	353.333
2386.37	352.222
2388.27	344.444
2390.18	338.222
2392.08	348.889
2393.99	355.333
2395.89	350.889
2397.8	346.444
2399.7	353.333
2401.6	346.667
2403.5	342.444
2405.4	339.333
2407.3	346.889
2409.2	338.889
2411.1	349.778
2413	337.333
2414.9	346.889
2416.8	338.667
2418.69	333.333
2420.59	329.778
2422.48	338.889
2424.38	344
2426.28	339.333
2428.17	341.556
2430.06	340.222
2431.96	347.333
2433.85	340
2435.74	338.889
2437.63	339.111
2439.52	331.333
2441.41	330.444
2443.3	342.444
2445.19	337.556
2447.08	340.667
