178.677	718.889
181.278	724.444
183.879	718.222
186.48	725.556
189.078	732.889
191.677	736.667
194.275	738.444
196.871	743.333
199.467	755.778
202.061	764.444
204.656	768
207.248	770.222
209.841	779.333
212.431	778.667
215.022	777.778
217.613	793.333
220.201	788.444
222.789	798.667
225.375	791.333
227.962	792.222
230.547	806.444
233.13	811.556
235.714	802
238.296	804.222
240.879	787.333
243.459	812.445
246.04	795.556
248.618	807.556
251.196	793.778
253.774	781.333
256.35	777.778
258.927	777.778
261.501	748.222
264.074	769.333
266.648	746.667
269.22	735.556
271.791	735.333
274.362	731.778
276.931	715.333
279.5	713.778
282.069	712.444
284.635	697.111
287.201	697.333
289.766	677.333
292.331	678.222
294.894	683.556
297.457	673.333
300.018	680.889
302.58	679.556
305.14	666
307.699	674.222
310.257	669.333
312.814	672.222
315.372	674.889
317.928	659.333
320.482	658
323.036	653.556
325.589	653.556
328.142	669.778
330.693	665.555
333.243	658.667
335.795	668
338.343	648.222
340.891	654.222
343.439	665.556
345.985	674
348.53	658.222
351.075	665.556
353.619	672.667
356.162	664.222
358.704	663.111
361.245	672.222
363.786	671.556
366.325	665.333
368.864	664.889
371.402	669.333
373.939	674.889
376.475	683.556
379.011	683.111
381.545	694.444
384.079	683.111
386.612	682.667
389.144	679.333
391.674	664.889
394.204	676.889
396.734	677.556
399.263	656
401.791	664
404.318	676.889
406.844	670.667
409.368	665.556
411.893	673.778
414.417	675.778
416.94	678
419.462	670.667
421.982	670.222
424.502	675.333
427.022	680.444
429.541	687.778
432.057	691.778
434.574	700.222
437.091	703.333
439.606	697.111
442.12	678.222
444.634	685.778
447.147	680.444
449.657	685.333
452.169	689.778
454.68	686.444
457.188	697.111
459.697	692
462.205	691.111
464.711	698.667
467.217	681.778
469.722	690.667
472.227	682.222
474.731	674.222
477.232	688.889
479.735	684.222
482.235	688.444
484.736	690.889
487.234	694.667
489.734	696.444
492.23	694
494.728	696.889
497.223	688.667
499.719	694
502.213	690.222
504.707	685.778
507.199	694.444
509.692	690.889
512.182	688.222
514.673	692.222
517.162	702
519.65	702
522.139	696.889
524.625	706.889
527.112	694.222
529.597	677.778
532.081	699.111
534.565	686.444
537.047	680.889
539.529	688
542.011	693.333
544.491	683.778
546.97	697.778
549.45	686
551.927	693.778
554.404	692.444
556.88	692.444
559.356	694.445
561.831	695.778
564.304	689.111
566.777	701.556
569.25	703.556
571.721	698.889
574.191	696
576.661	694.444
579.129	690.889
581.599	692.889
584.066	686.667
586.532	687.778
588.997	696.889
591.462	690.222
593.926	693.778
596.389	709.111
598.851	707.111
601.314	706.444
603.775	705.778
606.235	694
608.694	690.889
611.152	697.333
613.609	718
616.066	696.667
618.522	703.111
620.977	695.111
623.431	695.111
625.885	700.222
628.338	702.222
630.79	698.444
633.241	707.333
635.691	704.889
638.141	701.778
640.589	698.445
643.036	716.444
645.483	701.333
647.929	690.222
650.375	712.222
652.82	696.222
655.264	691.556
657.707	691.333
660.149	709.111
662.59	693.778
665.031	698
667.471	689.333
669.91	702.222
672.349	696.889
674.786	698.444
677.222	701.333
679.658	702.667
682.093	698.889
684.528	694
686.96	707.778
689.393	692.889
691.826	694.222
694.256	695.778
696.686	699.556
699.116	694
701.545	705.111
703.972	713.333
706.4	683.111
708.826	694.222
711.251	706.444
713.676	698.222
716.099	697.111
718.523	700.222
720.946	696.222
723.366	695.778
725.788	692.667
728.207	687.778
730.627	695.556
733.044	697.111
735.462	703.111
737.88	693.111
740.295	683.333
742.711	682.889
745.125	692.222
747.539	678.222
749.951	700.667
752.363	684.667
754.775	679.333
757.185	690.444
759.595	696.889
762.003	689.111
764.412	693.333
766.819	696.444
769.225	685.333
771.632	690.222
774.036	689.333
776.441	694
778.844	689.778
781.246	698
783.649	689.333
786.05	697.778
788.449	699.778
790.85	702.222
793.248	704.222
795.646	694.889
798.042	697.778
800.44	692.667
802.835	702.444
805.23	702
807.623	692
810.018	702.222
812.41	702
814.801	692.444
817.192	691.778
819.582	694.222
821.972	689.556
824.361	693.333
826.748	688
829.135	693.333
831.521	681.556
833.907	697.333
836.291	677.333
838.675	681.556
841.059	683.778
843.442	673.111
845.823	689.778
848.204	686
850.584	687.778
852.963	679.778
855.342	681.333
857.72	688.222
860.097	686.667
862.473	692.667
864.848	692
867.223	681.333
869.597	687.556
871.97	692.889
874.343	680.667
876.714	685.111
879.084	686.667
881.454	687.556
883.824	698.889
886.192	694.444
888.56	700.444
890.927	685.778
893.294	700
895.66	679.111
898.023	688.222
900.387	690.889
902.751	687.333
905.114	690.222
907.476	692.444
909.835	682.667
912.196	684.222
914.555	685.333
916.914	677.556
919.271	679.333
921.629	680.889
923.985	680.889
926.341	684.222
928.695	676.889
931.05	679.555
933.404	672.889
935.755	670.444
938.107	688.444
940.459	693.333
942.808	680.667
945.158	684.222
947.508	681.333
949.855	673.556
952.202	678
954.548	693.333
956.894	681.333
959.239	688.667
961.583	693.111
963.928	674.222
966.27	687.333
968.612	689.556
970.953	694.889
973.294	688.222
975.633	692.667
977.972	682.222
980.31	686
982.647	686.667
984.984	689.778
987.32	686.667
989.656	685.556
991.989	683.111
994.324	698.222
996.656	688.444
998.988	687.111
1001.32	707.111
1003.65	720.444
1005.98	761.778
1008.31	780.667
1010.64	788.889
1012.97	769.778
1015.29	723.111
1017.62	707.556
1019.94	702
1022.27	698.222
1024.59	702
1026.92	691.778
1029.24	702.889
1031.56	709.111
1033.88	723.333
1036.2	729.333
1038.52	740.889
1040.84	719.556
1043.16	704.889
1045.48	693.333
1047.79	694.444
1050.11	694.445
1052.42	690.222
1054.74	695.556
1057.05	699.555
1059.36	705.778
1061.67	699.333
1063.99	702.667
1066.3	689.111
1068.61	702
1070.92	690.222
1073.22	707.778
1075.53	690
1077.84	695.778
1080.15	700.222
1082.45	703.333
1084.76	709.333
1087.06	705.111
1089.36	711.778
1091.66	720.444
1093.97	748.222
1096.27	740.889
1098.57	728.222
1100.87	736.444
1103.17	706.889
1105.46	710
1107.76	705.556
1110.06	709.111
1112.35	716.889
1114.65	722.222
1116.94	708
1119.24	712.889
1121.53	722.889
1123.82	727.556
1126.11	712.222
1128.4	725.556
1130.7	708.667
1132.98	701.778
1135.27	702.445
1137.56	688.222
1139.85	707.111
1142.13	685.111
1144.42	688.667
1146.71	705.333
1148.99	695.111
1151.27	698.444
1153.56	692.889
1155.84	695.556
1158.12	701.333
1160.4	700.222
1162.68	688.667
1164.96	688.222
1167.24	685.556
1169.51	697.333
1171.79	694
1174.07	678.889
1176.34	688.889
1178.62	693.111
1180.89	685.333
1183.17	686.444
1185.44	681.111
1187.71	670.889
1189.98	681.111
1192.25	678.889
1194.52	676.889
1196.79	688
1199.06	690.667
1201.33	676
1203.59	682.889
1205.86	687.333
1208.12	682.222
1210.39	687.333
1212.65	677.111
1214.92	682.667
1217.18	681.778
1219.44	680.444
1221.7	690.444
1223.96	682.222
1226.22	684.889
1228.48	682.222
1230.74	681.111
1233	668.444
1235.25	680.667
1237.51	687.111
1239.77	697.111
1242.02	692.222
1244.27	698.222
1246.53	689.556
1248.78	693.778
1251.03	689.556
1253.28	678.222
1255.53	689.778
1257.78	688.667
1260.03	686.667
1262.28	688.444
1264.53	698.667
1266.78	685.333
1269.02	693.111
1271.27	686
1273.51	683.778
1275.76	695.333
1278	691.778
1280.24	685.556
1282.48	685.111
1284.72	700.667
1286.97	683.111
1289.21	692.889
1291.44	704.667
1293.68	705.333
1295.92	693.333
1298.16	694.889
1300.39	687.111
1302.63	695.556
1304.86	696.889
1307.1	673.111
1309.33	692.889
1311.56	692
1313.8	689.556
1316.03	693.333
1318.26	690.222
1320.49	694.667
1322.72	691.111
1324.95	691.778
1327.17	692.889
1329.4	694.444
1331.63	691.111
1333.85	699.111
1336.08	703.333
1338.3	702.667
1340.53	697.778
1342.75	696
1344.97	706.222
1347.19	701.556
1349.41	700.444
1351.63	685.111
1353.85	691.333
1356.07	692.222
1358.29	690
1360.51	702.222
1362.72	701.111
1364.94	699.778
1367.16	694.667
1369.37	701.333
1371.58	712
1373.8	712.667
1376.01	703.778
1378.22	703.111
1380.43	709.556
1382.64	715.333
1384.85	701.333
1387.06	684.889
1389.27	690
1391.48	683.333
1393.68	678.889
1395.89	702.222
1398.1	670.889
1400.3	686.444
1402.51	670.444
1404.71	675.333
1406.91	676.889
1409.11	688.222
1411.32	670.667
1413.52	682
1415.72	670.222
1417.92	672
1420.11	669.556
1422.31	672
1424.51	658.667
1426.71	665.778
1428.9	664.444
1431.1	677.556
1433.29	673.555
1435.49	678
1437.68	670.667
1439.87	668.444
1442.06	668
1444.25	663.111
1446.45	657.778
1448.64	672.222
1450.82	672.444
1453.01	669.333
1455.2	671.556
1457.39	671.555
1459.57	673.333
1461.76	679.556
1463.94	667.778
1466.13	669.333
1468.31	675.111
1470.5	665.778
1472.68	679.556
1474.86	667.556
1477.04	674.889
1479.22	674.889
1481.4	672.222
1483.58	667.333
1485.76	662.889
1487.94	677.778
1490.11	663.556
1492.29	657.778
1494.46	661.778
1496.64	660.444
1498.81	665.555
1500.99	653.111
1503.16	662.667
1505.33	657.111
1507.5	652
1509.67	661.111
1511.84	671.111
1514.01	662.889
1516.18	660.444
1518.35	658.222
1520.52	672.222
1522.68	664.889
1524.85	672
1527.02	668.667
1529.18	670.444
1531.35	660
1533.51	673.556
1535.67	667.778
1537.83	671.333
1539.99	664.444
1542.16	656.667
1544.31	665.556
1546.47	655.333
1548.63	664.667
1550.79	658.667
1552.95	651.555
1555.11	655.333
1557.26	658.889
1559.42	650.889
1561.57	662.444
1563.73	664.445
1565.88	670.667
1568.03	672.444
1570.18	655.111
1572.34	669.333
1574.49	671.111
1576.64	663.111
1578.79	668.444
1580.93	667.778
1583.08	674.222
1585.23	667.111
1587.38	660.222
1589.52	668.889
1591.67	662.222
1593.81	662.444
1595.96	662.222
1598.1	663.556
1600.24	658.444
1602.38	673.778
1604.53	658.667
1606.67	667.111
1608.81	670.667
1610.95	661.333
1613.09	639.778
1615.22	648.667
1617.36	650
1619.5	650
1621.63	640
1623.77	659.333
1625.9	653.111
1628.04	628.889
1630.17	644
1632.3	632.222
1634.44	633.778
1636.57	634.667
1638.7	631.111
1640.83	615.333
1642.96	628.445
1645.09	628.889
1647.22	619.556
1649.34	612.222
1651.47	614.667
1653.6	626.222
1655.72	613.778
1657.85	609.111
1659.97	609.778
1662.1	620.444
1664.22	609.778
1666.34	610.222
1668.46	613.556
1670.58	600.444
1672.7	617.778
1674.82	612
1676.94	600.445
1679.06	600.222
1681.18	588.889
1683.3	604
1685.41	603.111
1687.53	600.667
1689.64	605.333
1691.76	598.444
1693.87	606
1695.99	601.778
1698.1	596.444
1700.21	592.444
1702.32	596
1704.43	594.444
1706.54	595.556
1708.65	594.889
1710.76	589.333
1712.87	577.556
1714.98	585.778
1717.08	589.778
1719.19	588.222
1721.29	593.111
1723.4	594.667
1725.5	590
1727.61	590.667
1729.71	589.556
1731.81	591.111
1733.91	590.444
1736.02	582.222
1738.12	580.889
1740.22	599.333
1742.31	577.333
1744.41	580.889
1746.51	588
1748.61	585.333
1750.7	575.333
1752.8	584.889
1754.9	575.111
1756.99	572.445
1759.08	580.222
1761.18	575.111
1763.27	575.333
1765.36	563.556
1767.45	567.111
1769.54	574.889
1771.63	580.667
1773.72	568.889
1775.81	572.444
1777.9	576.889
1779.99	568.667
1782.08	571.333
1784.16	579.778
1786.25	564.222
1788.33	559.333
1790.42	562.222
1792.5	567.333
1794.58	568.444
1796.67	575.556
1798.75	574.222
1800.83	572.889
1802.91	570.667
1804.99	565.111
1807.07	574.444
1809.15	565.556
1811.23	565.333
1813.3	559.556
1815.38	557.778
1817.46	566
1819.53	565.778
1821.61	567.556
1823.68	557.778
1825.75	566.889
1827.83	566.889
1829.9	555.556
1831.97	551.556
1834.04	545.111
1836.11	549.111
1838.18	553.333
1840.25	562.222
1842.32	551.333
1844.39	544.667
1846.46	546.444
1848.52	550.444
1850.59	551.778
1852.65	549.111
1854.72	536.222
1856.78	553.556
1858.85	551.778
1860.91	546.222
1862.97	547.111
1865.03	541.333
1867.09	551.111
1869.16	545.111
1871.22	540.667
1873.27	547.111
1875.33	542.222
1877.39	535.333
1879.45	538.444
1881.51	531.556
1883.56	543.556
1885.62	544.889
1887.67	535.778
1889.73	544.444
1891.78	542
1893.83	540
1895.89	527.778
1897.94	533.556
1899.99	533.111
1902.04	538.222
1904.09	530.889
1906.14	538.889
1908.19	539.556
1910.23	519.778
1912.28	533.778
1914.33	536.222
1916.37	529.333
1918.42	538
1920.46	532
1922.51	531.111
1924.55	528.889
1926.6	530
1928.64	527.556
1930.68	518.222
1932.72	528.667
1934.76	526.444
1936.8	522.889
1938.84	522.222
1940.88	522
1942.92	522.222
1944.96	517.333
1946.99	522.222
1949.03	514.667
1951.06	524.889
1953.1	513.333
1955.13	518.222
1957.17	517.556
1959.2	519.778
1961.23	507.111
1963.27	517.556
1965.3	513.778
1967.33	514.889
1969.36	504.444
1971.39	503.111
1973.42	506.889
1975.44	502.444
1977.47	512.444
1979.5	510
1981.53	497.556
1983.55	502
1985.58	501.111
1987.6	514.444
1989.63	504.222
1991.65	509.556
1993.67	505.778
1995.69	503.111
1997.72	507.333
1999.74	498
2001.76	501.556
2003.78	498.889
2005.8	502.222
2007.82	500.222
2009.83	502.889
2011.85	509.111
2013.87	498
2015.88	500.222
2017.9	503.556
2019.91	507.333
2021.93	495.111
2023.94	492.667
2025.96	499.333
2027.97	516.444
2029.98	494.667
2031.99	501.333
2034	499.556
2036.01	491.333
2038.02	495.111
2040.03	494.667
2042.04	492.889
2044.05	506.889
2046.05	497.778
2048.06	500
2050.07	496.667
2052.07	495.778
2054.08	487.556
2056.08	496.444
2058.08	487.778
2060.09	492
2062.09	491.111
2064.09	491.778
2066.09	488.889
2068.09	480
2070.09	490.444
2072.09	474.889
2074.09	490.444
2076.09	483.111
2078.09	489.778
2080.08	481.556
2082.08	475.556
2084.08	477.111
2086.07	485.111
2088.07	487.111
2090.06	479.111
2092.05	478.667
2094.05	483.778
2096.04	481.111
2098.03	474.444
2100.02	480
2102.01	478
2104	477.111
2105.99	474.444
2107.98	459.778
2109.97	484.222
2111.95	479.333
2113.94	466
2115.93	478.667
2117.91	473.333
2119.9	470
2121.88	472.667
2123.87	470.222
2125.85	469.556
2127.83	472.889
2129.81	469.111
2131.8	468.444
2133.78	473.556
2135.76	470.222
2137.74	476.444
2139.72	469.111
2141.69	464.222
2143.67	467.556
2145.65	461.556
2147.63	457.556
2149.6	457.333
2151.58	457.778
2153.55	462
2155.53	461.778
2157.5	456.222
2159.48	462.667
2161.45	455.778
2163.42	453.333
2165.39	451.556
2167.36	448
2169.33	446.444
2171.3	456
2173.27	446.444
2175.24	449.111
2177.21	458.667
2179.18	446.667
2181.14	448.222
2183.11	454.889
2185.07	444.444
2187.04	445.111
2189	452.889
2190.97	450.222
2192.93	447.333
2194.89	439.778
2196.86	446.222
2198.82	448.222
2200.78	443.111
2202.74	443.778
2204.7	437.778
2206.66	439.333
2208.62	438.222
2210.57	439.556
2212.53	438.444
2214.49	435.556
2216.45	428
2218.4	438.889
2220.36	428
2222.31	428
2224.27	428.667
2226.22	439.556
2228.17	431.556
2230.12	430.667
2232.08	432.889
2234.03	440.222
2235.98	431.333
2237.93	426.222
2239.88	426.889
2241.83	428.889
2243.78	432.667
2245.72	428.444
2247.67	422
2249.62	434.889
2251.56	433.778
2253.51	423.333
2255.45	430
2257.4	425.556
2259.34	424.889
2261.28	425.778
2263.23	430.444
2265.17	427.333
2267.11	415.333
2269.05	422.667
2270.99	425.778
2272.93	426
2274.87	418
2276.81	408.889
2278.75	413.556
2280.68	411.333
2282.62	414
2284.56	404.667
2286.49	408.222
2288.43	418.667
2290.36	416
2292.3	411.778
2294.23	408
2296.16	408.889
2298.09	409.556
2300.03	408.444
2301.96	410.667
2303.89	412.667
2305.82	411.778
2307.75	407.556
2309.68	408.444
2311.6	410.667
2313.53	403.778
2315.46	400.667
2317.39	407.111
2319.31	399.111
2321.24	406.889
2323.16	407.778
2325.09	406
2327.01	401.778
2328.93	407.778
2330.86	400.222
2332.78	396.444
2334.7	405.111
2336.62	401.111
2338.54	400.889
2340.46	386.889
2342.38	392
2344.3	398.222
2346.22	398.222
2348.14	398.667
2350.05	397.111
2351.97	393.333
2353.89	399.333
2355.8	393.556
2357.71	403.556
2359.63	384.444
2361.54	389.333
2363.46	388
2365.37	389.778
2367.28	391.556
2369.19	392.889
2371.1	388.667
2373.01	388.667
2374.92	382.889
2376.83	390.222
2378.74	383.333
2380.65	390
2382.56	379.333
2384.46	387.778
2386.37	391.778
2388.27	380.667
2390.18	378.667
2392.08	384.444
2393.99	378
2395.89	378.667
2397.8	384.667
2399.7	378
2401.6	376.889
2403.5	382.889
2405.4	372
2407.3	382.222
2409.2	373.333
2411.1	370.444
2413	376.667
2414.9	387.111
2416.8	367.111
2418.69	376.667
2420.59	370.444
2422.48	372.444
2424.38	365.778
2426.28	379.111
2428.17	382
2430.06	371.333
2431.96	373.333
2433.85	373.556
2435.74	364.889
2437.63	374
2439.52	364.889
2441.41	370.667
2443.3	378.444
2445.19	364.222
2447.08	370.889
