178.677	596.889
181.278	582.667
183.879	592.444
186.48	591.333
189.078	600
191.677	601.778
194.275	605.556
196.871	610.667
199.467	606.444
202.061	602.889
204.656	618.889
207.248	614
209.841	622.444
212.431	627.111
215.022	640.444
217.613	622.222
220.201	631.778
222.789	646
225.375	643.556
227.962	632.444
230.547	645.333
233.13	634.444
235.714	640
238.296	643.111
240.879	644.444
243.459	639.111
246.04	642.222
248.618	636.667
251.196	637.556
253.774	625.778
256.35	630.889
258.927	651.556
261.501	631.556
264.074	630.222
266.648	624.667
269.22	623.333
271.791	614.889
274.362	612
276.931	602.222
279.5	590.444
282.069	592.889
284.635	599.778
287.201	593.333
289.766	590.222
292.331	596.222
294.894	592.667
297.457	590
300.018	590
302.58	592.444
305.14	588.667
307.699	583.333
310.257	578.444
312.814	586.444
315.372	583.333
317.928	580
320.482	591.333
323.036	579.111
325.589	580.667
328.142	596
330.693	591.111
333.243	608
335.795	590.667
338.343	586.667
340.891	597.778
343.439	591.333
345.985	606.222
348.53	598.444
351.075	603.111
353.619	596.667
356.162	599.778
358.704	602.444
361.245	600.889
363.786	607.111
366.325	604.222
368.864	597.556
371.402	595.333
373.939	611.556
376.475	622.889
379.011	647.778
381.545	647.111
384.079	632
386.612	612.889
389.144	608.667
391.674	587.556
394.204	593.556
396.734	594
399.263	588
401.791	596.667
404.318	583.333
406.844	593.111
409.368	593.556
411.893	597.778
414.417	597.556
416.94	605.778
419.462	604.889
421.982	612
424.502	606.889
427.022	605.111
429.541	614.667
432.057	626
434.574	634.222
437.091	635.111
439.606	634.444
442.12	621.778
444.634	628.444
447.147	617.333
449.657	615.778
452.169	616.889
454.68	613.111
457.188	628
459.697	620.889
462.205	623.778
464.711	611.556
467.217	603.778
469.722	616.222
472.227	603.111
474.731	604.667
477.232	606.667
479.735	610.222
482.235	613.556
484.736	611.556
487.234	618.444
489.734	604
492.23	617.111
494.728	611.111
497.223	614.667
499.719	608
502.213	613.111
504.707	603.333
507.199	605.111
509.692	613.556
512.182	601.778
514.673	622.444
517.162	623.556
519.65	628.667
522.139	622.222
524.625	620.667
527.112	615.556
529.597	619.111
532.081	604.667
534.565	610.444
537.047	606
539.529	608.222
542.011	600.667
544.491	612.444
546.97	613.111
549.45	613.556
551.927	620.667
554.404	616.444
556.88	613.556
559.356	622.667
561.831	628.667
564.304	619.111
566.777	622.667
569.25	623.556
571.721	621.111
574.191	610.889
576.661	622.667
579.129	616
581.599	615.111
584.066	610
586.532	614.222
588.997	622.444
591.462	611.111
593.926	614.444
596.389	609.333
598.851	625.333
601.314	616.222
603.775	610.889
606.235	610.222
608.694	629.556
611.152	626.667
613.609	616.889
616.066	610.444
618.522	614.889
620.977	617.333
623.431	627.778
625.885	626.444
628.338	622
630.79	629.111
633.241	626.444
635.691	619.556
638.141	622.889
640.589	617.556
643.036	614
645.483	610.889
647.929	616.889
650.375	621.333
652.82	617.333
655.264	619.111
657.707	612.222
660.149	620
662.59	624
665.031	623.778
667.471	618.889
669.91	612.667
672.349	621.333
674.786	622.667
677.222	604.222
679.658	625.778
682.093	602.667
684.528	626.889
686.96	617.333
689.393	616
691.826	619.333
694.256	622.222
696.686	625.111
699.116	612
701.545	623.333
703.972	616.667
706.4	609.555
708.826	623.333
711.251	613.778
713.676	629.778
716.099	610.667
718.523	618
720.946	626.889
723.366	611.556
725.788	614.444
728.207	622.667
730.627	613.111
733.044	614.889
735.462	608.222
737.88	625.556
740.295	604.889
742.711	604.222
745.125	612.667
747.539	613.556
749.951	612.889
752.363	605.778
754.775	612.222
757.185	613.111
759.595	612.889
762.003	614.444
764.412	601.778
766.819	605.778
769.225	609.778
771.632	606.667
774.036	613.555
776.441	614.889
778.844	614.667
781.246	610.222
783.649	614.667
786.05	608.222
788.449	616.222
790.85	621.778
793.248	617.333
795.646	625.111
798.042	606.444
800.44	618.889
802.835	619.111
805.23	615.111
807.623	611.333
810.018	606.444
812.41	600.889
814.801	607.555
817.192	591.556
819.582	617.556
821.972	607.556
824.361	607.778
826.748	616.444
829.135	605.111
831.521	617.778
833.907	596.222
836.291	606.222
838.675	602.889
841.059	609.556
843.442	602.889
845.823	607.333
848.204	611.778
850.584	598.444
852.963	602
855.342	609.111
857.72	604.444
860.097	608.889
862.473	609.556
864.848	603.333
867.223	611.111
869.597	603.111
871.97	605.111
874.343	618
876.714	619.333
879.084	618.444
881.454	610.667
883.824	618
886.192	608
888.56	610.222
890.927	613.556
893.294	627.778
895.66	619.111
898.023	613.778
900.387	618.444
902.751	622.667
905.114	610
907.476	610.889
909.835	608.667
912.196	613.556
914.555	606.222
916.914	615.778
919.271	604.667
921.629	611.556
923.985	598
926.341	606.444
928.695	601.111
931.05	600
933.404	606.222
935.755	596.222
938.107	601.111
940.459	590.444
942.808	612
945.158	587.333
947.508	604.445
949.855	598.222
952.202	610.667
954.548	604.667
956.894	601.778
959.239	611.556
961.583	606.889
963.928	600.222
966.27	619.555
968.612	617.778
970.953	607.778
973.294	608.889
975.633	610.667
977.972	599.556
980.31	604.444
982.647	613.333
984.984	623.333
987.32	613.111
989.656	604.889
991.989	612.667
994.324	609.556
996.656	628.444
998.988	624.222
1001.32	615.778
1003.65	618.444
1005.98	639.556
1008.31	652.889
1010.64	652.889
1012.97	659.556
1015.29	645.333
1017.62	638.667
1019.94	609.111
1022.27	618.889
1024.59	614.889
1026.92	613.778
1029.24	610.667
1031.56	620.889
1033.88	635.778
1036.2	638.889
1038.52	648.444
1040.84	619.333
1043.16	611.556
1045.48	608.667
1047.79	618.889
1050.11	612.667
1052.42	618.667
1054.74	631.556
1057.05	625.111
1059.36	624.667
1061.67	628.667
1063.99	617.111
1066.3	624.667
1068.61	631.333
1070.92	626.222
1073.22	626
1075.53	625.556
1077.84	635.333
1080.15	638.889
1082.45	636.667
1084.76	641.333
1087.06	634.667
1089.36	661.333
1091.66	679.333
1093.97	696.889
1096.27	714.667
1098.57	708
1100.87	701.111
1103.17	681.111
1105.46	657.556
1107.76	638
1110.06	652
1112.35	648.889
1114.65	654
1116.94	656.667
1119.24	655.556
1121.53	676.222
1123.82	675.556
1126.11	676.667
1128.4	661.111
1130.7	647.778
1132.98	632
1135.27	619.778
1137.56	624.445
1139.85	624
1142.13	626
1144.42	629.111
1146.71	625.111
1148.99	622.222
1151.27	626.889
1153.56	631.333
1155.84	631.556
1158.12	630
1160.4	619.111
1162.68	632.889
1164.96	612.222
1167.24	594.889
1169.51	607.333
1171.79	594.222
1174.07	599.556
1176.34	601.556
1178.62	601.111
1180.89	600
1183.17	588
1185.44	600.222
1187.71	603.333
1189.98	591.111
1192.25	593.556
1194.52	578.889
1196.79	592.667
1199.06	594
1201.33	593.333
1203.59	592.444
1205.86	585.111
1208.12	594.667
1210.39	589.111
1212.65	591.556
1214.92	596.667
1217.18	574.444
1219.44	587.333
1221.7	600.222
1223.96	603.333
1226.22	594.667
1228.48	588.667
1230.74	600
1233	587.333
1235.25	601.778
1237.51	595.555
1239.77	591.556
1242.02	596.444
1244.27	600.444
1246.53	599.333
1248.78	595.333
1251.03	593.111
1253.28	599.556
1255.53	600
1257.78	596
1260.03	594
1262.28	598.222
1264.53	593.778
1266.78	588.889
1269.02	592.444
1271.27	594.889
1273.51	602.889
1275.76	590.222
1278	588.889
1280.24	617.333
1282.48	596.444
1284.72	602
1286.97	597.556
1289.21	609.333
1291.44	598.222
1293.68	602.889
1295.92	605.778
1298.16	602.889
1300.39	598.667
1302.63	606.444
1304.86	606
1307.1	604.222
1309.33	594.889
1311.56	594.222
1313.8	618.889
1316.03	604
1318.26	619.333
1320.49	614.667
1322.72	607.333
1324.95	614
1327.17	616.444
1329.4	615.333
1331.63	629.333
1333.85	623.556
1336.08	630.444
1338.3	617.111
1340.53	625.333
1342.75	618
1344.97	625.111
1347.19	620
1349.41	623.111
1351.63	614.667
1353.85	619.111
1356.07	602.444
1358.29	607.556
1360.51	609.111
1362.72	611.778
1364.94	615.333
1367.16	619.556
1369.37	623.778
1371.58	620.222
1373.8	624.667
1376.01	638.889
1378.22	638.667
1380.43	629.111
1382.64	628.222
1384.85	624.667
1387.06	613.556
1389.27	610.222
1391.48	607.333
1393.68	600
1395.89	599.333
1398.1	599.111
1400.3	602.667
1402.51	585.111
1404.71	592.444
1406.91	584.222
1409.11	592.889
1411.32	602.444
1413.52	585.111
1415.72	597.333
1417.92	585.556
1420.11	591.333
1422.31	588.889
1424.51	582.444
1426.71	589.333
1428.9	582.222
1431.1	585.556
1433.29	584.889
1435.49	574.889
1437.68	576
1439.87	585.778
1442.06	590.667
1444.25	575.778
1446.45	575.111
1448.64	578.222
1450.82	588.889
1453.01	584.222
1455.2	577.556
1457.39	576.222
1459.57	593.556
1461.76	582.667
1463.94	590
1466.13	590.889
1468.31	576.889
1470.5	567.333
1472.68	580
1474.86	588
1477.04	577.333
1479.22	577.556
1481.4	576.222
1483.58	587.111
1485.76	575.556
1487.94	567.333
1490.11	564.667
1492.29	558.222
1494.46	568
1496.64	557.556
1498.81	558.222
1500.99	568.889
1503.16	563.111
1505.33	570.889
1507.5	572.889
1509.67	552.889
1511.84	563.778
1514.01	563.556
1516.18	566.889
1518.35	561.111
1520.52	569.556
1522.68	574.889
1524.85	557.778
1527.02	568.889
1529.18	568
1531.35	570.444
1533.51	575.556
1535.67	567.333
1537.83	558.222
1539.99	565.556
1542.16	556.222
1544.31	578.667
1546.47	562.444
1548.63	564.667
1550.79	560.222
1552.95	566.667
1555.11	569.333
1557.26	561.556
1559.42	574
1561.57	557.333
1563.73	580.667
1565.88	565.333
1568.03	568
1570.18	566.444
1572.34	568
1574.49	565.778
1576.64	566.222
1578.79	562.222
1580.93	559.111
1583.08	570.889
1585.23	557.111
1587.38	567.333
1589.52	554.889
1591.67	562.222
1593.81	566.444
1595.96	568
1598.1	559.778
1600.24	556.889
1602.38	559.556
1604.53	558.889
1606.67	560.667
1608.81	574
1610.95	561.556
1613.09	575.778
1615.22	564.445
1617.36	566.222
1619.5	560.444
1621.63	556.889
1623.77	549.778
1625.9	554.222
1628.04	556.889
1630.17	544.444
1632.3	540.889
1634.44	544.889
1636.57	526.889
1638.7	540.667
1640.83	532.444
1642.96	535.778
1645.09	527.333
1647.22	529.556
1649.34	540.889
1651.47	525.556
1653.6	537.556
1655.72	517.778
1657.85	518.889
1659.97	524
1662.1	515.556
1664.22	532.444
1666.34	524.667
1668.46	512.222
1670.58	536.444
1672.7	517.333
1674.82	522
1676.94	520.667
1679.06	534.222
1681.18	526.889
1683.3	526.667
1685.41	523.111
1687.53	515.333
1689.64	513.111
1691.76	523.111
1693.87	512.222
1695.99	523.111
1698.1	513.333
1700.21	517.333
1702.32	504.889
1704.43	495.333
1706.54	511.556
1708.65	520.889
1710.76	519.111
1712.87	504
1714.98	518.222
1717.08	507.333
1719.19	511.556
1721.29	491.778
1723.4	515.556
1725.5	506.444
1727.61	510
1729.71	510
1731.81	505.556
1733.91	499.778
1736.02	505.778
1738.12	498.667
1740.22	501.778
1742.31	505.556
1744.41	500.889
1746.51	497.556
1748.61	494.889
1750.7	493.556
1752.8	495.111
1754.9	494.667
1756.99	491.556
1759.08	494.889
1761.18	491.778
1763.27	489.333
1765.36	493.556
1767.45	506.444
1769.54	501.556
1771.63	504.222
1773.72	493.556
1775.81	485.778
1777.9	492.444
1779.99	491.778
1782.08	486
1784.16	493.111
1786.25	493.778
1788.33	474.444
1790.42	491.111
1792.5	484
1794.58	490
1796.67	480.444
1798.75	491.111
1800.83	494.667
1802.91	486.444
1804.99	491.333
1807.07	484.889
1809.15	483.778
1811.23	478.222
1813.3	483.111
1815.38	484
1817.46	484.222
1819.53	493.111
1821.61	483.556
1823.68	483.778
1825.75	484.889
1827.83	476.889
1829.9	484.222
1831.97	479.111
1834.04	476.444
1836.11	469.556
1838.18	477.111
1840.25	467.778
1842.32	479.111
1844.39	478
1846.46	475.111
1848.52	472.889
1850.59	475.556
1852.65	485.333
1854.72	462.889
1856.78	471.333
1858.85	478
1860.91	475.778
1862.97	465.778
1865.03	469.556
1867.09	468.667
1869.16	465.111
1871.22	463.111
1873.27	468.667
1875.33	468.222
1877.39	472.889
1879.45	467.111
1881.51	469.111
1883.56	472.222
1885.62	465.333
1887.67	460.889
1889.73	462.222
1891.78	455.556
1893.83	451.333
1895.89	458
1897.94	459.556
1899.99	466.444
1902.04	468.667
1904.09	453.111
1906.14	456.444
1908.19	458.889
1910.23	467.778
1912.28	464.444
1914.33	459.111
1916.37	462.667
1918.42	451.333
1920.46	454.667
1922.51	452.889
1924.55	466
1926.6	460
1928.64	452.444
1930.68	446.444
1932.72	453.333
1934.76	456.667
1936.8	453.333
1938.84	448
1940.88	445.333
1942.92	453.111
1944.96	453.778
1946.99	447.333
1949.03	456.889
1951.06	447.778
1953.1	446.444
1955.13	440.222
1957.17	435.778
1959.2	443.333
1961.23	440.222
1963.27	429.111
1965.3	449.111
1967.33	439.111
1969.36	440.667
1971.39	444.889
1973.42	432.667
1975.44	432.444
1977.47	435.556
1979.5	430.222
1981.53	430.889
1983.55	432
1985.58	440.222
1987.6	439.556
1989.63	436.222
1991.65	429.333
1993.67	442.222
1995.69	443.556
1997.72	426.667
1999.74	436.222
2001.76	430
2003.78	436.444
2005.8	426.889
2007.82	436.444
2009.83	419.111
2011.85	434.889
2013.87	433.111
2015.88	431.111
2017.9	425.556
2019.91	428.444
2021.93	443.333
2023.94	429.556
2025.96	428.889
2027.97	436.889
2029.98	432.667
2031.99	429.111
2034	426.444
2036.01	423.556
2038.02	437.778
2040.03	422.667
2042.04	420.444
2044.05	419.111
2046.05	431.556
2048.06	427.333
2050.07	428.444
2052.07	412.889
2054.08	426.222
2056.08	420
2058.08	434.667
2060.09	429.556
2062.09	420
2064.09	421.556
2066.09	421.778
2068.09	423.333
2070.09	412.444
2072.09	415.111
2074.09	418.667
2076.09	428.222
2078.09	426.667
2080.08	424.222
2082.08	431.111
2084.08	410
2086.07	418.444
2088.07	420.222
2090.06	412.889
2092.05	415.111
2094.05	416.444
2096.04	405.556
2098.03	416.444
2100.02	415.111
2102.01	407.778
2104	412.889
2105.99	411.333
2107.98	408.889
2109.97	401.778
2111.95	402.222
2113.94	412.222
2115.93	413.333
2117.91	409.333
2119.9	413.778
2121.88	412.889
2123.87	396.444
2125.85	403.556
2127.83	408.222
2129.81	400.444
2131.8	404.889
2133.78	411.333
2135.76	406
2137.74	398.222
2139.72	406.222
2141.69	404.889
2143.67	401.111
2145.65	402.667
2147.63	402.222
2149.6	404
2151.58	405.333
2153.55	389.111
2155.53	398
2157.5	402.889
2159.48	392
2161.45	392
2163.42	394.222
2165.39	399.111
2167.36	394.444
2169.33	394.222
2171.3	395.333
2173.27	385.333
2175.24	386.444
2177.21	388.222
2179.18	388
2181.14	392
2183.11	390.222
2185.07	386.667
2187.04	389.111
2189	385.333
2190.97	391.556
2192.93	379.556
2194.89	382.667
2196.86	384.222
2198.82	376.444
2200.78	382.889
2202.74	378.667
2204.7	378
2206.66	373.111
2208.62	373.556
2210.57	377.778
2212.53	375.778
2214.49	378.667
2216.45	374
2218.4	378.667
2220.36	376
2222.31	377.111
2224.27	376.222
2226.22	383.556
2228.17	368.889
2230.12	373.778
2232.08	374.667
2234.03	369.333
2235.98	372.667
2237.93	372.222
2239.88	380.667
2241.83	365.778
2243.78	375.778
2245.72	371.778
2247.67	373.111
2249.62	374
2251.56	364.222
2253.51	358
2255.45	359.111
2257.4	364
2259.34	366
2261.28	364.222
2263.23	367.778
2265.17	366.667
2267.11	352.222
2269.05	359.778
2270.99	364.222
2272.93	362.889
2274.87	357.556
2276.81	356.889
2278.75	357.556
2280.68	356.889
2282.62	356.889
2284.56	360
2286.49	352.667
2288.43	354.889
2290.36	354.667
2292.3	349.778
2294.23	362.222
2296.16	351.556
2298.09	346.889
2300.03	352
2301.96	354
2303.89	356.444
2305.82	349.333
2307.75	341.778
2309.68	346.444
2311.6	349.778
2313.53	344
2315.46	354.222
2317.39	344.889
2319.31	345.556
2321.24	344.889
2323.16	348.222
2325.09	348.889
2327.01	342
2328.93	343.333
2330.86	344.667
2332.78	348.889
2334.7	337.778
2336.62	342
2338.54	350.444
2340.46	344.222
2342.38	342.444
2344.3	341.778
2346.22	332.889
2348.14	342.444
2350.05	340.222
2351.97	330.889
2353.89	338
2355.8	340.222
2357.71	334.444
2359.63	337.778
2361.54	336.222
2363.46	324.889
2365.37	332.889
2367.28	335.333
2369.19	329.556
2371.1	335.556
2373.01	334.667
2374.92	330.222
2376.83	331.111
2378.74	327.778
2380.65	333.111
2382.56	330
2384.46	330.444
2386.37	328.222
2388.27	327.556
2390.18	331.111
2392.08	321.111
2393.99	323.778
2395.89	322.222
2397.8	321.556
2399.7	314.667
2401.6	319.333
2403.5	324.444
2405.4	328.889
2407.3	323.111
2409.2	318.222
2411.1	320.444
2413	318
2414.9	319.556
2416.8	328.889
2418.69	322
2420.59	320.889
2422.48	321.333
2424.38	314.444
2426.28	317.333
2428.17	310.889
2430.06	314.889
2431.96	317.333
2433.85	314.222
2435.74	323.556
2437.63	318.889
2439.52	314.667
2441.41	318.222
2443.3	316.667
2445.19	318.444
2447.08	310
