176.817	535.556
179.42	537.333
182.022	534.667
184.622	533.333
187.223	535.778
189.821	538.222
192.419	527.778
195.017	541.111
197.612	529.333
200.208	534.222
202.802	527.778
205.397	528.889
207.99	539.111
210.581	531.333
213.173	538.889
215.762	542
218.352	536
220.94	543.556
223.528	542.889
226.114	546
228.701	552.445
231.285	548.667
233.87	541.778
236.452	559.778
239.034	563.556
241.616	552.667
244.196	566
246.777	569.111
249.355	575.778
251.933	568.889
254.511	568.222
257.086	573.333
259.663	576.667
262.237	570
264.81	566.222
267.383	577.111
269.955	572.222
272.525	580
275.097	568.444
277.665	570.889
280.234	573.333
282.802	566
285.368	572.222
287.934	555.555
290.499	567.778
293.064	565.111
295.627	575.111
298.189	570
300.75	580.444
303.312	574.222
305.871	584.667
308.43	577.778
310.988	587.556
313.545	578
316.101	572
318.658	576.667
321.212	576
323.766	571.111
326.319	572.889
328.871	578
331.422	588.444
333.972	592
336.522	586.889
339.072	584
341.619	582.444
344.166	578
346.712	586.889
349.258	591.778
351.802	599.556
354.346	595.111
356.888	589.111
359.43	598.444
361.971	587.555
364.511	594.889
367.051	602.222
369.589	596.444
372.127	592
374.664	607.111
377.2	615.778
379.735	631.778
382.27	613.778
384.802	623.333
387.334	608.222
389.866	599.333
392.397	586.667
394.927	582
397.457	579.333
399.985	591.111
402.513	590.889
405.038	589.333
407.565	594.889
410.09	590.222
412.614	587.556
415.138	600.222
417.66	584.444
420.181	601.333
422.702	584.444
425.222	614
427.742	610.667
430.259	610.667
432.777	613.333
435.294	616.222
437.81	632.889
440.324	631.111
442.838	616.889
445.352	610
447.863	606.222
450.375	610.222
452.887	611.333
455.395	613.333
457.905	628.889
460.414	620.667
462.92	626
465.427	609.556
467.932	604.667
470.438	601.556
472.942	597.778
475.445	606
477.948	613.556
480.448	602.444
482.95	608.444
485.449	603.111
487.949	610
490.446	605.111
492.944	598.889
495.44	614.444
497.937	619.778
500.431	619.556
502.926	611.333
505.418	612.444
507.912	610.444
510.403	615.556
512.894	610.667
515.384	611.111
517.874	607.111
520.361	612
522.848	615.556
525.336	610.222
527.821	615.778
530.306	594.889
532.791	600.222
535.274	599.111
537.756	606.667
540.238	605.778
542.719	604.444
545.199	607.556
547.679	611.111
550.157	597.111
552.634	597.555
555.112	618.667
557.588	601.778
560.063	620.667
562.537	625.778
565.011	603.556
567.484	622.889
569.955	602.444
572.426	612.667
574.896	617.333
577.367	615.111
579.835	608.667
582.303	600
584.77	603.778
587.236	612.667
589.701	600.444
592.165	609.556
594.629	608.444
597.093	612.444
599.555	606.222
602.016	605.111
604.477	610.889
606.936	611.111
609.395	613.111
611.853	609.778
614.311	611.333
616.767	598.889
619.223	620.444
621.678	612.222
624.132	618
626.585	612
629.037	609.111
631.489	613.333
633.94	614.889
636.39	613.555
638.839	626
641.288	624.444
643.736	616.222
646.183	616.667
648.627	601.778
651.073	606.889
653.517	616.444
655.961	611.556
658.404	612.222
660.846	617.778
663.288	608
665.727	612.667
668.167	615.333
670.606	606.444
673.044	612.667
675.482	612.889
677.917	611.333
680.353	614
682.788	609.333
685.222	621.111
687.655	614.222
690.087	615.556
692.519	616.444
694.951	616
697.38	617.333
699.809	617.778
702.238	624.889
704.665	618.889
707.092	623.556
709.519	615.556
711.943	620.667
714.368	624.667
716.791	630
719.214	621.333
721.637	630.667
724.058	626.889
726.479	623.778
728.898	631.111
731.317	614.444
733.734	620.889
736.152	612.889
738.568	609.556
740.985	616.222
743.399	626.222
745.814	613.778
748.227	624.889
750.64	614.667
753.051	609.778
755.463	618.222
757.872	609.556
760.283	620
762.691	613.555
765.098	616.889
767.506	608.889
769.912	607.556
772.318	615.778
774.722	596.889
777.126	620.222
779.53	619.333
781.932	615.111
784.333	616.222
786.735	607.778
789.135	615.778
791.533	616.667
793.933	620
796.33	612
798.727	612.444
801.123	605.111
803.519	621.111
805.913	623.778
808.307	616.222
810.699	614.889
813.093	621.333
815.484	622.667
817.874	617.556
820.264	612
822.653	605.778
825.041	624
827.43	609.556
829.817	619.333
832.203	608.222
834.588	616
836.972	625.778
839.356	618
841.738	616.889
844.12	619.333
846.502	616.222
848.882	613.556
851.262	616
853.641	621.556
856.02	625.333
858.397	628.889
860.774	628.222
863.15	637.333
865.525	624.222
867.9	613.111
870.273	622.444
872.646	624.889
875.019	624.222
877.39	618
879.761	617.556
882.131	629.333
884.5	636.222
886.869	628
889.236	641.778
891.602	630.222
893.968	632.889
896.334	632.667
898.698	644.444
901.062	628.222
903.426	632.444
905.787	623.556
908.148	626
910.509	619.333
912.87	615.111
915.228	618.444
917.587	605.778
919.945	615.778
922.302	610.889
924.657	613.778
927.013	610.889
929.368	624.444
931.721	607.333
934.074	612
936.427	618
938.778	615.333
941.129	609.333
943.479	616
945.828	620.222
948.177	605.556
950.524	607.556
952.871	601.778
955.218	618.889
957.563	613.778
959.908	624.444
962.252	619.111
964.595	616.889
966.937	627.778
969.28	627.556
971.62	624
973.961	607.111
976.3	614.222
978.639	615.333
980.976	624.222
983.314	618.444
985.65	622
987.987	611.111
990.321	619.111
992.655	628.222
994.989	634.667
997.321	637.555
999.653	636
1001.98	626.444
1004.31	621.556
1006.65	614.889
1008.97	634.889
1011.3	614.667
1013.63	611.778
1015.96	617.778
1018.28	604
1020.61	614
1022.93	613.778
1025.26	618.889
1027.58	620
1029.9	626.889
1032.22	621.333
1034.54	619.778
1036.86	624.667
1039.18	611.556
1041.5	621.111
1043.82	615.778
1046.14	633.778
1048.45	620.222
1050.77	631.333
1053.08	623.333
1055.4	632
1057.71	632.889
1060.02	658
1062.33	647.111
1064.64	636.222
1066.96	634.444
1069.27	627.333
1071.57	649.111
1073.88	642
1076.19	630.667
1078.5	643.778
1080.8	645.778
1083.11	654.667
1085.41	663.333
1087.72	655.111
1090.02	685.111
1092.32	701.111
1094.62	725.556
1096.92	748
1099.22	741.778
1101.52	720
1103.82	693.333
1106.12	685.111
1108.42	687.778
1110.71	677.556
1113.01	682
1115.3	676.444
1117.6	674.889
1119.89	694.889
1122.18	692.222
1124.48	709.778
1126.77	684.667
1129.06	684.667
1131.35	667.778
1133.64	664.667
1135.93	659.333
1138.21	648
1140.5	649.111
1142.79	645.778
1145.07	641.555
1147.36	646.222
1149.64	662.222
1151.92	648.667
1154.21	651.111
1156.49	659.556
1158.77	649.333
1161.05	634.889
1163.33	632.667
1165.61	631.333
1167.89	634.667
1170.16	638.222
1172.44	638.444
1174.72	620
1176.99	634.444
1179.27	629.778
1181.54	625.556
1183.81	625.111
1186.09	626
1188.36	626.222
1190.63	622.222
1192.9	624.444
1195.17	630
1197.44	631.111
1199.71	625.333
1201.97	620.889
1204.24	631.111
1206.5	635.111
1208.77	630
1211.03	630.667
1213.3	634.444
1215.56	626.444
1217.82	630.889
1220.09	637.333
1222.35	630.444
1224.61	633.556
1226.87	646.222
1229.12	635.333
1231.38	638.444
1233.64	633.778
1235.9	648.889
1238.15	646.889
1240.41	650.667
1242.66	650
1244.92	657.333
1247.17	648.667
1249.42	658.667
1251.67	651.778
1253.92	656.667
1256.17	651.556
1258.42	649.778
1260.67	654.889
1262.92	657.778
1265.17	657.556
1267.42	654.667
1269.66	659.111
1271.91	662.222
1274.15	658.889
1276.39	654.889
1278.64	657.111
1280.88	647.778
1283.12	651.111
1285.36	654
1287.6	657.333
1289.84	654.222
1292.08	651.556
1294.32	662.667
1296.56	658
1298.79	651.333
1301.03	644.444
1303.26	664.222
1305.5	648.667
1307.73	636.222
1309.97	648.222
1312.2	649.556
1314.43	649.111
1316.66	664.444
1318.89	651.778
1321.12	660.444
1323.35	656.222
1325.58	668.667
1327.81	655.556
1330.03	659.111
1332.26	665.556
1334.49	672.444
1336.71	678.889
1338.94	671.778
1341.16	671.778
1343.38	672.667
1345.6	659.111
1347.83	662
1350.05	648
1352.27	644.444
1354.49	651.555
1356.7	658.444
1358.92	659.778
1361.14	640
1363.36	671.778
1365.57	660.222
1367.79	660.444
1370	676.444
1372.21	665.556
1374.43	666.444
1376.64	684.444
1378.85	682.222
1381.06	686.444
1383.27	695.333
1385.48	661.111
1387.69	646.889
1389.9	670.667
1392.11	662.889
1394.31	652
1396.52	658.889
1398.73	650.222
1400.93	647.333
1403.13	644.667
1405.34	648
1407.54	642.222
1409.74	628.222
1411.94	645.333
1414.14	637.333
1416.34	630.667
1418.54	629.333
1420.74	629.556
1422.94	641.111
1425.14	627.555
1427.33	639.778
1429.53	638.222
1431.72	624.444
1433.92	639.333
1436.11	631.556
1438.3	636.889
1440.5	639.333
1442.69	613.111
1444.88	637.778
1447.07	640.889
1449.26	642.444
1451.45	640.444
1453.64	640
1455.82	636.889
1458.01	649.111
1460.2	642.444
1462.38	626.444
1464.57	619.111
1466.75	644.667
1468.93	645.778
1471.12	641.333
1473.3	632.667
1475.48	640.444
1477.66	638.889
1479.84	648.667
1482.02	637.778
1484.2	643.333
1486.38	623.778
1488.55	619.556
1490.73	624.444
1492.91	616
1495.08	625.555
1497.26	621.333
1499.43	625.111
1501.61	624.222
1503.78	618.889
1505.95	627.556
1508.12	629.111
1510.29	647.778
1512.46	624.444
1514.63	635.111
1516.8	630.222
1518.97	628.889
1521.14	632.667
1523.3	647.778
1525.47	635.333
1527.63	636.444
1529.8	644
1531.96	643.778
1534.12	652.444
1536.29	639.333
1538.45	644.667
1540.61	642.889
1542.77	652.445
1544.93	652
1547.09	653.556
1549.25	650.222
1551.41	656
1553.56	652
1555.72	657.111
1557.88	658.444
1560.03	672.222
1562.18	657.333
1564.34	661.333
1566.49	658.222
1568.64	666.222
1570.8	663.111
1572.95	656.222
1575.1	667.556
1577.25	647.778
1579.4	654.222
1581.55	653.778
1583.69	652
1585.84	668.667
1587.99	665.333
1590.13	682.222
1592.28	665.333
1594.42	662.889
1596.57	654.667
1598.71	651.778
1600.85	670.222
1602.99	667.111
1605.14	652.667
1607.28	650.889
1609.42	661.111
1611.56	652
1613.69	646.889
1615.83	640
1617.97	640.444
1620.11	640.889
1622.24	624
1624.38	614.222
1626.51	611.111
1628.65	617.333
1630.78	604.222
1632.91	610
1635.04	596.667
1637.17	589.556
1639.31	578
1641.44	597.556
1643.57	581.111
1645.69	585.111
1647.82	581.333
1649.95	580.445
1652.08	559.778
1654.2	574
1656.33	576.444
1658.45	570
1660.58	568.444
1662.7	567.111
1664.82	564.667
1666.94	569.111
1669.07	564.889
1671.19	561.333
1673.31	567.333
1675.43	547.556
1677.55	555.778
1679.66	552.889
1681.78	552
1683.9	546.667
1686.01	551.778
1688.13	547.556
1690.25	546.889
1692.36	540.889
1694.47	542.222
1696.59	543.333
1698.7	548.222
1700.81	547.333
1702.92	547.778
1705.03	528.222
1707.14	534.889
1709.25	533.111
1711.36	533.333
1713.47	533.778
1715.58	536.667
1717.68	524.889
1719.79	527.556
1721.89	530.667
1724	535.333
1726.1	528.222
1728.21	527.556
1730.31	523.778
1732.41	524.889
1734.51	523.556
1736.61	526.667
1738.71	522
1740.81	525.111
1742.91	512
1745.01	520.444
1747.11	513.778
1749.2	520.222
1751.3	528.444
1753.4	514.667
1755.49	504
1757.59	507.778
1759.68	505.111
1761.77	508.889
1763.86	505.333
1765.96	511.556
1768.05	506.667
1770.14	514.222
1772.23	508.222
1774.32	507.556
1776.41	514.444
1778.49	494.444
1780.58	510.667
1782.67	501.111
1784.76	502.667
1786.84	505.111
1788.92	508.222
1791.01	506
1793.09	494.667
1795.18	500.667
1797.26	506.889
1799.34	496.667
1801.42	501.333
1803.5	500.444
1805.58	502.222
1807.66	504.222
1809.74	500
1811.82	496.444
1813.89	504.889
1815.97	502.222
1818.05	496
1820.12	499.778
1822.2	494
1824.27	489.556
1826.34	496.444
1828.42	497.778
1830.49	495.333
1832.56	490.667
1834.63	487.778
1836.7	498
1838.77	494.222
1840.84	485.333
1842.91	486.667
1844.98	488.444
1847.04	491.333
1849.11	481.556
1851.18	492.667
1853.24	487.333
1855.31	483.556
1857.37	478
1859.43	485.556
1861.5	489.333
1863.56	475.778
1865.62	475.778
1867.68	481.778
1869.74	482.889
1871.8	475.333
1873.86	471.556
1875.92	475.111
1877.98	475.778
1880.03	473.556
1882.09	480.222
1884.15	476.444
1886.2	478
1888.26	476.444
1890.31	473.333
1892.36	463.556
1894.42	476
1896.47	470.667
1898.52	477.333
1900.57	467.556
1902.62	481.111
1904.67	470.667
1906.72	474.222
1908.77	472
1910.82	477.556
1912.86	478.222
1914.91	468.444
1916.96	477.556
1919	472.889
1921.04	474
1923.09	479.556
1925.13	461.333
1927.18	478.667
1929.22	461.333
1931.26	464.889
1933.3	469.111
1935.34	470.889
1937.38	463.556
1939.42	460
1941.46	464.222
1943.5	459.778
1945.53	454.667
1947.57	464.444
1949.61	458
1951.64	454.444
1953.68	453.333
1955.71	460.889
1957.75	456.667
1959.78	450.444
1961.81	456.667
1963.84	457.556
1965.87	448.222
1967.9	455.778
1969.93	450.444
1971.96	454.667
1973.99	456
1976.02	444.667
1978.05	440.444
1980.07	448.444
1982.1	450.889
1984.13	448.444
1986.15	434.889
1988.18	444.667
1990.2	452.889
1992.22	452.889
1994.25	454.222
1996.27	446.889
1998.29	435.556
2000.31	435.111
2002.33	442
2004.35	434.222
2006.37	440.444
2008.39	453.778
2010.41	438.444
2012.42	450.667
2014.44	442.667
2016.46	447.556
2018.47	450.667
2020.49	445.111
2022.5	450
2024.51	442.667
2026.53	446.667
2028.54	442
2030.55	438.444
2032.56	441.556
2034.57	435.111
2036.58	440.889
2038.59	437.556
2040.6	434.444
2042.61	451.556
2044.62	444
2046.62	442.222
2048.63	433.778
2050.64	435.333
2052.64	437.111
2054.65	435.556
2056.65	432
2058.65	429.333
2060.66	429.556
2062.66	432.667
2064.66	430.889
2066.66	430
2068.66	432
2070.66	431.333
2072.66	422.444
2074.66	427.556
2076.66	419.556
2078.65	428.889
2080.65	436.667
2082.65	420.444
2084.64	427.556
2086.64	432.444
2088.63	433.333
2090.63	424
2092.62	421.111
2094.61	427.333
2096.6	422.444
2098.59	427.778
2100.59	417.111
2102.58	418.444
2104.56	421.556
2106.55	413.333
2108.54	415.333
2110.53	418.667
2112.52	421.333
2114.5	418.444
2116.49	426.444
2118.48	423.111
2120.46	422
2122.44	432.889
2124.43	428.222
2126.41	430.444
2128.39	434.444
2130.38	434.889
2132.36	439.333
2134.34	441.333
2136.32	432.667
2138.3	433.111
2140.28	438.889
2142.26	422
2144.23	438.444
2146.21	428.444
2148.19	425.778
2150.16	420.889
2152.14	423.111
2154.11	425.778
2156.09	427.111
2158.06	418.222
2160.04	419.778
2162.01	425.333
2163.98	414
2165.95	421.111
2167.92	413.111
2169.89	405.778
2171.86	412.889
2173.83	418.889
2175.8	398
2177.77	414.444
2179.73	407.111
2181.7	413.111
2183.67	416.889
2185.63	407.333
2187.6	402.444
2189.56	404
2191.53	407.333
2193.49	397.333
2195.45	395.778
2197.41	402.444
2199.37	388
2201.34	394
2203.29	399.333
2205.26	391.333
2207.21	392.889
2209.17	388.444
2211.13	394.889
2213.09	380
2215.05	382.444
2217	380.444
2218.96	374.667
2220.91	383.556
2222.87	376.667
2224.82	387.778
2226.77	380
2228.73	390
2230.68	384.667
2232.63	377.111
2234.58	374
2236.53	375.333
2238.48	372.667
2240.43	381.556
2242.38	383.333
2244.33	377.111
2246.27	374.889
2248.22	373.778
2250.17	374.889
2252.11	370
2254.06	376.889
2256	371.333
2257.95	376.889
2259.89	372
2261.84	369.333
2263.78	378.222
2265.72	369.333
2267.66	366.444
2269.6	354
2271.54	364.222
2273.48	364.444
2275.42	366.222
2277.36	373.111
2279.3	357.556
2281.23	363.111
2283.17	365.556
2285.11	369.556
2287.04	357.333
2288.98	361.556
2290.91	362.444
2292.84	360.667
2294.78	360.222
2296.71	353.333
2298.64	357.333
2300.57	348.889
2302.51	347.778
2304.44	360.667
2306.37	360.889
2308.29	355.778
2310.22	355.111
2312.15	359.333
2314.08	348.667
2316.01	353.556
2317.93	357.111
2319.86	353.778
2321.78	352.889
2323.71	354.667
2325.63	349.778
2327.56	347.556
2329.48	350.444
2331.4	348
2333.32	359.556
2335.25	344
2337.17	348.667
2339.09	349.111
2341.01	347.333
2342.92	344
2344.84	344.889
2346.76	350.889
2348.68	345.556
2350.6	339.333
2352.51	345.778
2354.43	338.889
2356.34	349.111
2358.26	345.111
2360.17	345.778
2362.09	336.889
2364	348.222
2365.91	342.222
2367.82	341.778
2369.73	334.667
2371.64	336.222
2373.55	338.444
2375.46	334.667
2377.37	334.444
2379.28	334.444
2381.19	331.333
2383.1	333.111
2385	334.222
2386.91	339.556
2388.82	327.778
2390.72	340.222
2392.62	329.556
2394.53	328.444
2396.43	326
2398.33	331.111
2400.24	325.778
2402.14	331.333
2404.04	331.111
2405.94	324.667
2407.84	330
2409.74	322
2411.64	333.778
2413.54	320.222
2415.44	329.333
2417.33	328.444
2419.23	321.111
2421.13	324.222
2423.02	323.778
2424.92	324.889
2426.81	319.778
2428.71	321.556
2430.6	319.111
2432.49	323.111
2434.38	324.889
2436.28	319.333
2438.17	319.333
2440.06	319.111
2441.95	320.889
2443.84	317.333
2445.73	326.444
