176.817	691.333
179.42	690
182.022	688.222
184.622	682.444
187.223	684.889
189.821	674.667
192.419	678.222
195.017	671.778
197.612	653.111
200.208	674.889
202.802	672.889
205.397	676
207.99	676.667
210.581	682
213.173	676.667
215.762	681.111
218.352	682.667
220.94	677.333
223.528	690.667
226.114	686.667
228.701	702.444
231.285	707.111
233.87	714.889
236.452	708.444
239.034	717.778
241.616	718.667
244.196	732.667
246.777	736.222
249.355	728.667
251.933	716.889
254.511	718.889
257.086	738.889
259.663	729.556
262.237	721.333
264.81	749.556
267.383	714.222
269.955	720.667
272.525	722.222
275.097	717.111
277.665	707.333
280.234	702
282.802	686.889
285.368	684.222
287.934	686.444
290.499	688.444
293.064	677.778
295.627	678.667
298.189	694.444
300.75	674.444
303.312	681.556
305.871	681.556
308.43	684.667
310.988	664.444
313.545	653.111
316.101	650.889
318.658	648.667
321.212	646.889
323.766	644.889
326.319	634
328.871	632
331.422	633.556
333.972	640.222
336.522	624.222
339.072	636
341.619	639.111
344.166	643.778
346.712	634.222
349.258	633.111
351.802	635.778
354.346	630.222
356.888	635.778
359.43	648.222
361.971	646.222
364.511	654
367.051	645.333
369.589	645.111
372.127	650
374.664	652
377.2	667.333
379.735	672.889
382.27	676.889
384.802	670.222
387.334	662.889
389.866	646.222
392.397	640.667
394.927	642.667
397.457	654.444
399.985	638
402.513	646.222
405.038	648.222
407.565	652
410.09	640
412.614	638
415.138	641.778
417.66	646.667
420.181	631.333
422.702	646.667
425.222	638.667
427.742	653.111
430.259	648.222
432.777	654.889
435.294	660.667
437.81	665.111
440.324	652.889
442.838	650
445.352	659.778
447.863	643.333
450.375	652
452.887	636.889
455.395	644.889
457.905	647.556
460.414	659.555
462.92	658.444
465.427	641.556
467.932	642.889
470.438	656.889
472.942	655.111
475.445	660.444
477.948	653.111
480.448	638.444
482.95	652.444
485.449	654
487.949	645.333
490.446	650
492.944	662
495.44	642.889
497.937	656.444
500.431	643.556
502.926	653.111
505.418	661.556
507.912	651.778
510.403	645.111
512.894	652.222
515.384	646.222
517.874	643.778
520.361	656.222
522.848	642.222
525.336	649.111
527.821	644.667
530.306	646.444
532.791	639.778
535.274	648.889
537.756	644.667
540.238	642.222
542.719	654.889
545.199	628
547.679	656.222
550.157	641.333
552.634	649.333
555.112	650
557.588	649.778
560.063	659.111
562.537	649.778
565.011	661.333
567.484	648.444
569.955	664.444
572.426	660.667
574.896	654
577.367	667.778
579.835	652
582.303	650.889
584.77	666.667
587.236	662
589.701	658.889
592.165	641.333
594.629	641.333
597.093	647.111
599.555	646.222
602.016	650.667
604.477	648.667
606.936	645.111
609.395	657.778
611.853	655.333
614.311	647.778
616.767	653.333
619.223	659.111
621.678	648.222
624.132	652.444
626.585	668
629.037	672.222
631.489	669.556
633.94	677.778
636.39	670.889
638.839	668.667
641.288	666.222
643.736	667.555
646.183	665.556
648.627	674
651.073	670.889
653.517	674.667
655.961	672.889
658.404	668.667
660.846	677.111
663.288	683.333
665.727	684.667
668.167	679.333
670.606	675.111
673.044	660.667
675.482	681.556
677.917	684
680.353	666
682.788	684.667
685.222	683.778
687.655	677.556
690.087	681.556
692.519	672.444
694.951	677.333
697.38	675.556
699.809	680.889
702.238	680.445
704.665	686.222
707.092	697.111
709.519	688.222
711.943	693.333
714.368	700
716.791	678
719.214	692
721.637	693.111
724.058	692.667
726.479	692.667
728.898	676.889
731.317	693.333
733.734	677.333
736.152	684.667
738.568	678
740.985	668.667
743.399	687.333
745.814	684
748.227	670.889
750.64	670.667
753.051	673.778
755.463	670.222
757.872	674
760.283	671.778
762.691	674
765.098	673.556
767.506	674
769.912	674
772.318	677.111
774.722	664.222
777.126	674.222
779.53	674.444
781.932	691.333
784.333	684.222
786.735	673.556
789.135	680.222
791.533	677.111
793.933	680.667
796.33	690.222
798.727	689.333
801.123	683.111
803.519	678.444
805.913	688.889
808.307	681.778
810.699	706
813.093	697.111
815.484	688.444
817.874	685.333
820.264	708.444
822.653	688.222
825.041	701.111
827.43	692.444
829.817	692.889
832.203	690.667
834.588	695.778
836.972	687.333
839.356	691.333
841.738	678
844.12	685.111
846.502	691.111
848.882	693.333
851.262	686.444
853.641	689.111
856.02	695.556
858.397	695.111
860.774	692.444
863.15	680.667
865.525	692.889
867.9	709.111
870.273	710.444
872.646	695.333
875.019	715.556
877.39	705.556
879.761	696.444
882.131	702.667
884.5	718.222
886.869	702
889.236	704.444
891.602	705.111
893.968	708.444
896.334	704.667
898.698	712.222
901.062	703.333
903.426	701.111
905.787	698.444
908.148	694
910.509	680.667
912.87	698.222
915.228	702.444
917.587	698.444
919.945	691.333
922.302	694.667
924.657	704.444
927.013	699.778
929.368	689.778
931.721	694.222
934.074	690.889
936.427	685.333
938.778	691.778
941.129	704.889
943.479	680.445
945.828	705.111
948.177	702.889
950.524	694.889
952.871	702
955.218	698.222
957.563	698.222
959.908	694.444
962.252	710.889
964.595	699.111
966.937	693.556
969.28	707.778
971.62	705.556
973.961	706
976.3	696.667
978.639	692.444
980.976	695.556
983.314	693.333
985.65	700.667
987.987	700
990.321	686
992.655	701.111
994.989	702.444
997.321	707.556
999.653	710.667
1001.98	704.889
1004.31	707.111
1006.65	698.222
1008.97	697.778
1011.3	698.667
1013.63	692.667
1015.96	692.222
1018.28	698.222
1020.61	690.444
1022.93	691.555
1025.26	686.889
1027.58	705.778
1029.9	703.111
1032.22	707.556
1034.54	696.667
1036.86	710.444
1039.18	708.444
1041.5	715.778
1043.82	703.778
1046.14	705.111
1048.45	714.222
1050.77	697.333
1053.08	705.333
1055.4	706.222
1057.71	713.556
1060.02	719.333
1062.33	701.556
1064.64	713.333
1066.96	719.556
1069.27	712.222
1071.57	734
1073.88	722.889
1076.19	709.333
1078.5	709.111
1080.8	733.556
1083.11	739.333
1085.41	751.556
1087.72	739.778
1090.02	744.444
1092.32	752.445
1094.62	768.444
1096.92	784.889
1099.22	786.889
1101.52	773.333
1103.82	778.889
1106.12	780.222
1108.42	771.333
1110.71	780.889
1113.01	776
1115.3	774.667
1117.6	782.445
1119.89	786.889
1122.18	788.444
1124.48	788.444
1126.77	785.333
1129.06	781.778
1131.35	785.778
1133.64	770.444
1135.93	777.333
1138.21	768.222
1140.5	765.333
1142.79	775.333
1145.07	777.556
1147.36	774.889
1149.64	788.444
1151.92	786.444
1154.21	787.556
1156.49	782.444
1158.77	783.111
1161.05	789.778
1163.33	776.444
1165.61	773.778
1167.89	785.111
1170.16	776.667
1172.44	777.556
1174.72	764.889
1176.99	769.333
1179.27	768.667
1181.54	766.667
1183.81	766.667
1186.09	764.222
1188.36	770.444
1190.63	772
1192.9	775.778
1195.17	774.222
1197.44	779.111
1199.71	773.778
1201.97	790.444
1204.24	778.667
1206.5	791.778
1208.77	783.556
1211.03	776
1213.3	805.333
1215.56	796.444
1217.82	794.444
1220.09	806
1222.35	827.556
1224.61	814.889
1226.87	819.778
1229.12	821.111
1231.38	831.778
1233.64	826.667
1235.9	839.778
1238.15	843.111
1240.41	839.333
1242.66	832.222
1244.92	839.778
1247.17	829.556
1249.42	820.222
1251.67	843.111
1253.92	838.667
1256.17	841.556
1258.42	837.111
1260.67	851.778
1262.92	856.222
1265.17	855.333
1267.42	860
1269.66	853.556
1271.91	850.222
1274.15	852.444
1276.39	854.889
1278.64	845.111
1280.88	851.111
1283.12	835.556
1285.36	854
1287.6	853.556
1289.84	853.111
1292.08	864
1294.32	862
1296.56	845.778
1298.79	861.333
1301.03	861.333
1303.26	856
1305.5	851.778
1307.73	852
1309.97	858.889
1312.2	848.444
1314.43	854.444
1316.66	855.556
1318.89	852.889
1321.12	849.556
1323.35	845.333
1325.58	861.778
1327.81	851.333
1330.03	845.778
1332.26	846
1334.49	833.556
1336.71	848.667
1338.94	832.444
1341.16	834
1343.38	830.444
1345.6	836.444
1347.83	831.333
1350.05	833.778
1352.27	833.778
1354.49	832.667
1356.7	826.889
1358.92	829.111
1361.14	828.889
1363.36	832.444
1365.57	836.444
1367.79	836.889
1370	842
1372.21	834.444
1374.43	841.333
1376.64	832.444
1378.85	825.556
1381.06	819.556
1383.27	829.333
1385.48	833.778
1387.69	837.333
1389.9	821.778
1392.11	815.556
1394.31	812.889
1396.52	799.778
1398.73	803.778
1400.93	806
1403.13	792.667
1405.34	805.111
1407.54	794.222
1409.74	788.667
1411.94	804.889
1414.14	802.667
1416.34	802
1418.54	804.667
1420.74	807.333
1422.94	808
1425.14	808.889
1427.33	808.444
1429.53	806.889
1431.72	808
1433.92	823.333
1436.11	832.222
1438.3	824.889
1440.5	818.222
1442.69	828.667
1444.88	831.333
1447.07	844.445
1449.26	843.111
1451.45	834.444
1453.64	850
1455.82	847.111
1458.01	868.889
1460.2	865.778
1462.38	867.333
1464.57	870.667
1466.75	882.444
1468.93	886.222
1471.12	883.778
1473.3	864.889
1475.48	873.111
1477.66	867.556
1479.84	878.222
1482.02	868
1484.2	872.889
1486.38	843.778
1488.55	872.667
1490.73	862.444
1492.91	856.444
1495.08	866.222
1497.26	861.111
1499.43	855.333
1501.61	867.333
1503.78	868.889
1505.95	873.333
1508.12	866.445
1510.29	870.667
1512.46	867.333
1514.63	874.667
1516.8	892.222
1518.97	894
1521.14	904
1523.3	924
1525.47	913.111
1527.63	918.889
1529.8	931.111
1531.96	914.889
1534.12	938.222
1536.29	944.222
1538.45	962.444
1540.61	936.889
1542.77	944.667
1544.93	952.667
1547.09	943.333
1549.25	942.667
1551.41	943.111
1553.56	936
1555.72	921.556
1557.88	938.889
1560.03	931.778
1562.18	949.333
1564.34	948.444
1566.49	958
1568.64	964
1570.8	975.556
1572.95	964.444
1575.1	979.333
1577.25	979.556
1579.4	996.444
1581.55	1002.67
1583.69	996.667
1585.84	1022.44
1587.99	1006.89
1590.13	1013.33
1592.28	1013.33
1594.42	1026
1596.57	1007.78
1598.71	1015.11
1600.85	1000.67
1602.99	997.778
1605.14	991.111
1607.28	975.111
1609.42	955.556
1611.56	944.444
1613.69	942.222
1615.83	922.889
1617.97	906.667
1620.11	893.333
1622.24	866.444
1624.38	866.444
1626.51	853.333
1628.65	830.667
1630.78	816
1632.91	826
1635.04	802.444
1637.17	787.111
1639.31	777.333
1641.44	771.556
1643.57	760.444
1645.69	755.111
1647.82	751.333
1649.95	747.556
1652.08	750
1654.2	736.444
1656.33	723.778
1658.45	724.889
1660.58	712.889
1662.7	713.556
1664.82	704.222
1666.94	702.445
1669.07	705.111
1671.19	688.667
1673.31	678.445
1675.43	682.222
1677.55	673.778
1679.66	681.111
1681.78	672.889
1683.9	648.889
1686.01	654.222
1688.13	669.778
1690.25	652.445
1692.36	651.778
1694.47	657.333
1696.59	641.778
1698.7	645.556
1700.81	653.333
1702.92	621.778
1705.03	638
1707.14	630.889
1709.25	622.889
1711.36	636.889
1713.47	632
1715.58	634.889
1717.68	643.333
1719.79	630.222
1721.89	622.667
1724	630
1726.1	627.333
1728.21	618.444
1730.31	613.333
1732.41	611.111
1734.51	615.778
1736.61	613.778
1738.71	603.111
1740.81	601.333
1742.91	602.444
1745.01	598
1747.11	598.222
1749.2	590.222
1751.3	597.333
1753.4	580.667
1755.49	590.667
1757.59	580.667
1759.68	588.667
1761.77	591.556
1763.86	582.667
1765.96	588.889
1768.05	597.111
1770.14	601.111
1772.23	584.889
1774.32	578.889
1776.41	580.667
1778.49	579.333
1780.58	581.556
1782.67	566
1784.76	574.222
1786.84	581.778
1788.92	570.222
1791.01	576.667
1793.09	579.333
1795.18	571.333
1797.26	569.556
1799.34	569.778
1801.42	574.889
1803.5	567.333
1805.58	567.778
1807.66	567.778
1809.74	566.222
1811.82	557.778
1813.89	560.444
1815.97	567.556
1818.05	558.444
1820.12	563.333
1822.2	554.667
1824.27	558.444
1826.34	563.111
1828.42	557.778
1830.49	556.889
1832.56	555.556
1834.63	553.778
1836.7	555.778
1838.77	551.778
1840.84	557.778
1842.91	546.889
1844.98	540.222
1847.04	557.556
1849.11	544.222
1851.18	542
1853.24	544.889
1855.31	551.333
1857.37	553.778
1859.43	536.222
1861.5	544.889
1863.56	534.222
1865.62	537.111
1867.68	536.222
1869.74	538.889
1871.8	542.889
1873.86	532.444
1875.92	532.889
1877.98	532
1880.03	531.778
1882.09	541.111
1884.15	531.111
1886.2	538.667
1888.26	531.778
1890.31	543.778
1892.36	532.444
1894.42	530
1896.47	537.333
1898.52	530.667
1900.57	528.889
1902.62	528.444
1904.67	528
1906.72	526.667
1908.77	526.667
1910.82	527.333
1912.86	532.444
1914.91	527.556
1916.96	533.333
1919	529.333
1921.04	533.778
1923.09	525.556
1925.13	527.111
1927.18	532.667
1929.22	525.778
1931.26	524
1933.3	523.556
1935.34	512
1937.38	516.889
1939.42	517.555
1941.46	526.445
1943.5	516.889
1945.53	519.111
1947.57	516
1949.61	520.444
1951.64	512.667
1953.68	506.889
1955.71	506.444
1957.75	508.222
1959.78	501.333
1961.81	500.667
1963.84	508.889
1965.87	511.111
1967.9	504.667
1969.93	512.222
1971.96	502.667
1973.99	505.333
1976.02	502.222
1978.05	503.333
1980.07	504.667
1982.1	494.667
1984.13	501.111
1986.15	493.111
1988.18	495.333
1990.2	496
1992.22	487.556
1994.25	498.222
1996.27	491.111
1998.29	490.667
2000.31	502.667
2002.33	496
2004.35	501.778
2006.37	501.111
2008.39	498.444
2010.41	500.667
2012.42	494.444
2014.44	507.111
2016.46	502.889
2018.47	497.111
2020.49	498.667
2022.5	489.111
2024.51	497.111
2026.53	492.222
2028.54	489.556
2030.55	486.222
2032.56	489.111
2034.57	482.222
2036.58	491.111
2038.59	486.889
2040.6	487.111
2042.61	482
2044.62	495.778
2046.62	494
2048.63	493.333
2050.64	491.556
2052.64	485.111
2054.65	488.667
2056.65	494.222
2058.65	489.111
2060.66	495.778
2062.66	497.111
2064.66	477.778
2066.66	488
2068.66	476.667
2070.66	484
2072.66	483.333
2074.66	481.333
2076.66	477.333
2078.65	478.444
2080.65	476
2082.65	475.333
2084.64	480
2086.64	481.111
2088.63	479.556
2090.63	474.889
2092.62	469.111
2094.61	481.556
2096.6	472.444
2098.59	477.778
2100.59	482.444
2102.58	475.556
2104.56	473.556
2106.55	475.111
2108.54	478.667
2110.53	487.333
2112.52	478
2114.5	499.778
2116.49	515.333
2118.48	502.889
2120.46	525.111
2122.44	530.444
2124.43	534.889
2126.41	548.222
2128.39	542.222
2130.38	552.889
2132.36	545.778
2134.34	544.889
2136.32	544.667
2138.3	537.556
2140.28	529.333
2142.26	537.333
2144.23	524.444
2146.21	515.556
2148.19	516.444
2150.16	520
2152.14	506
2154.11	505.778
2156.09	503.333
2158.06	511.556
2160.04	501.333
2162.01	505.556
2163.98	498.667
2165.95	508.222
2167.92	505.111
2169.89	494.222
2171.86	488.889
2173.83	502.667
2175.8	495.556
2177.77	497.778
2179.73	494.444
2181.7	497.333
2183.67	484.667
2185.63	495.778
2187.6	484.444
2189.56	482.667
2191.53	470
2193.49	477.556
2195.45	468.889
2197.41	464.667
2199.37	462.667
2201.34	460
2203.29	461.556
2205.26	448.444
2207.21	453.778
2209.17	450.444
2211.13	448.667
2213.09	438.667
2215.05	441.333
2217	445.556
2218.96	434.889
2220.91	434
2222.87	433.556
2224.82	432.444
2226.77	435.111
2228.73	440
2230.68	430.444
2232.63	432.889
2234.58	424.667
2236.53	434
2238.48	420.222
2240.43	433.778
2242.38	427.111
2244.33	429.111
2246.27	419.778
2248.22	426
2250.17	421.556
2252.11	434.667
2254.06	420.667
2256	418.222
2257.95	420.222
2259.89	417.333
2261.84	416.222
2263.78	423.556
2265.72	412
2267.66	422.889
2269.6	416.444
2271.54	408.222
2273.48	418.222
2275.42	417.111
2277.36	406.667
2279.3	414.667
2281.23	415.111
2283.17	416.444
2285.11	406
2287.04	403.556
2288.98	403.778
2290.91	408.222
2292.84	398.667
2294.78	402.889
2296.71	410.444
2298.64	399.778
2300.57	409.111
2302.51	398.667
2304.44	400.222
2306.37	403.778
2308.29	405.333
2310.22	401.333
2312.15	400.444
2314.08	400.222
2316.01	394.889
2317.93	411.778
2319.86	396
2321.78	390.444
2323.71	392.667
2325.63	392.667
2327.56	392.889
2329.48	395.111
2331.4	403.333
2333.32	396.444
2335.25	393.778
2337.17	398.889
2339.09	392.444
2341.01	396.444
2342.92	389.778
2344.84	385.556
2346.76	391.111
2348.68	386.889
2350.6	389.556
2352.51	389.778
2354.43	383.556
2356.34	389.333
2358.26	383.778
2360.17	386.444
2362.09	380.222
2364	383.556
2365.91	383.778
2367.82	377.333
2369.73	394.222
2371.64	374
2373.55	378.667
2375.46	380
2377.37	374.889
2379.28	379.778
2381.19	386.889
2383.1	376.222
2385	372
2386.91	372.444
2388.82	378.667
2390.72	378
2392.62	372.444
2394.53	372.889
2396.43	376.889
2398.33	371.333
2400.24	373.778
2402.14	372.667
2404.04	370
2405.94	372
2407.84	377.556
2409.74	366.889
2411.64	366
2413.54	376
2415.44	378.889
2417.33	371.111
2419.23	372.222
2421.13	364.667
2423.02	371.111
2424.92	365.111
2426.81	361.778
2428.71	364.222
2430.6	364.889
2432.49	359.778
2434.38	370.667
2436.28	362.222
2438.17	358
2440.06	367.556
2441.95	365.778
2443.84	368.444
2445.73	360.889
