176.817	776
179.42	732.889
182.022	746.889
184.622	739.333
187.223	739.778
189.821	750
192.419	745.111
195.017	726.444
197.612	738.889
200.208	747.111
202.802	750.222
205.397	754.222
207.99	749.111
210.581	765.778
213.173	751.333
215.762	762.889
218.352	753.778
220.94	760.667
223.528	761.333
226.114	777.778
228.701	767.555
231.285	782.222
233.87	787.333
236.452	790.889
239.034	786.889
241.616	790.444
244.196	789.111
246.777	814.222
249.355	807.333
251.933	800.222
254.511	808.667
257.086	824.667
259.663	797.333
262.237	809.111
264.81	806.667
267.383	801.556
269.955	801.778
272.525	791.778
275.097	792
277.665	778.222
280.234	788
282.802	789.333
285.368	775.556
287.934	770
290.499	763.111
293.064	760.445
295.627	758.889
298.189	754
300.75	754
303.312	768.667
305.871	774
308.43	759.556
310.988	758.889
313.545	739.111
316.101	746.667
318.658	739.333
321.212	738
323.766	725.111
326.319	738.222
328.871	746.667
331.422	750.222
333.972	740.444
336.522	735.111
339.072	736.444
341.619	721.556
344.166	737.333
346.712	738.889
349.258	746.889
351.802	747.556
354.346	740.444
356.888	742.444
359.43	729.111
361.971	740.222
364.511	753.778
367.051	742.222
369.589	745.778
372.127	738
374.664	749.111
377.2	751.111
379.735	773.111
382.27	768.889
384.802	755.556
387.334	756.667
389.866	750.667
392.397	753.556
394.927	730.889
397.457	730.889
399.985	723.556
402.513	735.778
405.038	736.667
407.565	740.444
410.09	730.667
412.614	738.889
415.138	746.444
417.66	741.555
420.181	740.889
422.702	746.889
425.222	746.444
427.742	733.333
430.259	739.556
432.777	741.111
435.294	754.667
437.81	769.556
440.324	751.556
442.838	756
445.352	754
447.863	755.778
450.375	748.889
452.887	738.444
455.395	743.778
457.905	738.222
460.414	754.667
462.92	763.556
465.427	755.778
467.932	745.778
470.438	759.111
472.942	734
475.445	731.556
477.948	729.333
480.448	734
482.95	738.444
485.449	740.889
487.949	737.111
490.446	752
492.944	747.556
495.44	740.667
497.937	741.556
500.431	745.333
502.926	734.667
505.418	737.556
507.912	754.444
510.403	730.667
512.894	740.222
515.384	743.333
517.874	751.778
520.361	751.111
522.848	744.444
525.336	744.667
527.821	734
530.306	733.333
532.791	745.111
535.274	741.333
537.756	746.667
540.238	749.333
542.719	738.889
545.199	746
547.679	768
550.157	760.222
552.634	741.778
555.112	744.889
557.588	752.444
560.063	755.333
562.537	755.333
565.011	759.111
567.484	762.667
569.955	747.778
572.426	750.222
574.896	750
577.367	746.667
579.835	733.556
582.303	730.667
584.77	740.889
587.236	756
589.701	744.222
592.165	751.111
594.629	750.667
597.093	748.222
599.555	742.222
602.016	737.778
604.477	748.889
606.936	744.222
609.395	747.333
611.853	750.222
614.311	761.111
616.767	757.333
619.223	761.778
621.678	747.556
624.132	757.333
626.585	749.556
629.037	766.444
631.489	747.111
633.94	780.222
636.39	767.778
638.839	767.778
641.288	765.556
643.736	761.556
646.183	755.111
648.627	766.444
651.073	769.333
653.517	765.556
655.961	756.444
658.404	766.667
660.846	762.667
663.288	769.333
665.727	759.778
668.167	764.222
670.606	767.111
673.044	760.889
675.482	766.222
677.917	763.556
680.353	762.222
682.788	771.333
685.222	768.222
687.655	757.778
690.087	771.556
692.519	773.111
694.951	764.222
697.38	770.222
699.809	769.111
702.238	781.778
704.665	772.444
707.092	772.444
709.519	791.778
711.943	792.444
714.368	783.333
716.791	790.667
719.214	788
721.637	767.778
724.058	775.778
726.479	773.111
728.898	789.111
731.317	762.222
733.734	767.778
736.152	772
738.568	774.444
740.985	773.778
743.399	763.333
745.814	755.111
748.227	768.667
750.64	762.222
753.051	756.444
755.463	768.667
757.872	763.778
760.283	767.556
762.691	775.333
765.098	758.222
767.506	775.778
769.912	775.333
772.318	770.444
774.722	759.111
777.126	752.222
779.53	775.333
781.932	776.222
784.333	773.333
786.735	760.889
789.135	774.667
791.533	784.889
793.933	773.333
796.33	784.444
798.727	790.222
801.123	782.667
803.519	780.444
805.913	787.333
808.307	790
810.699	788
813.093	800.667
815.484	804
817.874	791.778
820.264	798
822.653	799.778
825.041	804.889
827.43	790.444
829.817	792
832.203	790.889
834.588	809.111
836.972	788
839.356	792.222
841.738	791.111
844.12	799.778
846.502	806.889
848.882	792.222
851.262	790.889
853.641	805.111
856.02	809.556
858.397	803.333
860.774	817.333
863.15	807.778
865.525	796.889
867.9	812.222
870.273	820.444
872.646	817.333
875.019	827.778
877.39	824.889
879.761	810
882.131	814.667
884.5	818
886.869	817.778
889.236	821.556
891.602	826
893.968	820.444
896.334	826.444
898.698	830.444
901.062	816
903.426	818.889
905.787	820.667
908.148	816.667
910.509	805.111
912.87	805.555
915.228	808.444
917.587	811.333
919.945	809.778
922.302	805.778
924.657	808.667
927.013	816.667
929.368	820
931.721	812
934.074	800.222
936.427	808
938.778	809.333
941.129	809.333
943.479	792
945.828	802.889
948.177	797.333
950.524	804
952.871	798.222
955.218	800.444
957.563	812.889
959.908	810.667
962.252	805.111
964.595	805.111
966.937	812.667
969.28	819.556
971.62	821.333
973.961	817.111
976.3	808.222
978.639	803.333
980.976	800.222
983.314	805.333
985.65	798
987.987	798.667
990.321	804.667
992.655	806.222
994.989	816.222
997.321	805.111
999.653	804.444
1001.98	791.333
1004.31	791.333
1006.65	789.555
1008.97	793.333
1011.3	795.778
1013.63	787.333
1015.96	788.667
1018.28	786.667
1020.61	793.111
1022.93	803.111
1025.26	799.778
1027.58	794.667
1029.9	796.889
1032.22	796.667
1034.54	811.111
1036.86	794
1039.18	795.556
1041.5	797.556
1043.82	794
1046.14	792.444
1048.45	796.667
1050.77	790
1053.08	809.333
1055.4	810.222
1057.71	826
1060.02	818
1062.33	814.667
1064.64	811.778
1066.96	817.556
1069.27	832.222
1071.57	823.778
1073.88	827.111
1076.19	836.889
1078.5	821.778
1080.8	825.111
1083.11	835.778
1085.41	836
1087.72	834
1090.02	860.222
1092.32	861.111
1094.62	890.222
1096.92	898.222
1099.22	889.333
1101.52	881.111
1103.82	874.667
1106.12	892.889
1108.42	873.556
1110.71	876
1113.01	888
1115.3	879.556
1117.6	884.889
1119.89	896.222
1122.18	900.667
1124.48	911.555
1126.77	899.778
1129.06	910
1131.35	906.889
1133.64	900.667
1135.93	910.667
1138.21	907.778
1140.5	906.667
1142.79	887.556
1145.07	893.333
1147.36	902.444
1149.64	894.667
1151.92	914.889
1154.21	903.333
1156.49	910.444
1158.77	914
1161.05	896.667
1163.33	913.333
1165.61	906.667
1167.89	893.778
1170.16	886.444
1172.44	891.333
1174.72	912.444
1176.99	888.444
1179.27	883.333
1181.54	885.333
1183.81	887.778
1186.09	900.444
1188.36	891.778
1190.63	908.222
1192.9	908.444
1195.17	894.222
1197.44	910.222
1199.71	898.445
1201.97	902.222
1204.24	902.222
1206.5	893.333
1208.77	908.222
1211.03	911.556
1213.3	912.444
1215.56	926.444
1217.82	936
1220.09	933.556
1222.35	935.333
1224.61	929.333
1226.87	947.333
1229.12	940.667
1231.38	960.222
1233.64	949.778
1235.9	951.556
1238.15	955.111
1240.41	961.111
1242.66	958.889
1244.92	965.556
1247.17	981.555
1249.42	968.889
1251.67	988.222
1253.92	977.556
1256.17	987.556
1258.42	988.444
1260.67	979.333
1262.92	981.778
1265.17	983.778
1267.42	986.222
1269.66	972.889
1271.91	968
1274.15	976.889
1276.39	968.222
1278.64	971.778
1280.88	966.889
1283.12	955.556
1285.36	930.889
1287.6	944.667
1289.84	960
1292.08	956.222
1294.32	952.667
1296.56	964
1298.79	963.333
1301.03	952.667
1303.26	942.444
1305.5	947.778
1307.73	941.333
1309.97	946
1312.2	952.222
1314.43	954.889
1316.66	949.333
1318.89	954.889
1321.12	946.222
1323.35	964.222
1325.58	936.222
1327.81	952.889
1330.03	965.556
1332.26	949.778
1334.49	964
1336.71	947.333
1338.94	955.778
1341.16	948.667
1343.38	951.111
1345.6	949.333
1347.83	947.333
1350.05	955.556
1352.27	957.111
1354.49	946
1356.7	928.667
1358.92	935.333
1361.14	926.222
1363.36	939.111
1365.57	933.778
1367.79	952
1370	918.889
1372.21	943.333
1374.43	934.444
1376.64	945.333
1378.85	941.333
1381.06	938.889
1383.27	933.556
1385.48	936.667
1387.69	919.556
1389.9	928
1392.11	909.556
1394.31	898.444
1396.52	913.556
1398.73	890.889
1400.93	890.444
1403.13	876.444
1405.34	894.444
1407.54	885.333
1409.74	896.889
1411.94	887.778
1414.14	894.667
1416.34	894
1418.54	897.556
1420.74	893.556
1422.94	898.889
1425.14	912.444
1427.33	906.667
1429.53	917.333
1431.72	893.111
1433.92	896
1436.11	902
1438.3	916.889
1440.5	920.889
1442.69	917.333
1444.88	935.111
1447.07	935.111
1449.26	945.111
1451.45	944.889
1453.64	939.333
1455.82	946.222
1458.01	943.333
1460.2	955.333
1462.38	960.444
1464.57	954.889
1466.75	963.778
1468.93	963.111
1471.12	970.222
1473.3	971.333
1475.48	970.889
1477.66	978
1479.84	978
1482.02	991.778
1484.2	982.667
1486.38	977.333
1488.55	992.889
1490.73	999.111
1492.91	1000.67
1495.08	1018.22
1497.26	993.111
1499.43	1014.67
1501.61	1017.78
1503.78	1027.11
1505.95	1029.11
1508.12	1030
1510.29	1030.44
1512.46	1049.11
1514.63	1044.67
1516.8	1038.67
1518.97	1048.44
1521.14	1069.11
1523.3	1054.89
1525.47	1062.89
1527.63	1054.44
1529.8	1064.89
1531.96	1070
1534.12	1079.56
1536.29	1073.33
1538.45	1085.33
1540.61	1102
1542.77	1090.44
1544.93	1101.33
1547.09	1099.56
1549.25	1107.78
1551.41	1127.78
1553.56	1130.44
1555.72	1151.33
1557.88	1136.44
1560.03	1164
1562.18	1159.78
1564.34	1183.33
1566.49	1206.89
1568.64	1222.67
1570.8	1232.22
1572.95	1244
1575.1	1219.11
1577.25	1217.56
1579.4	1223.11
1581.55	1206.44
1583.69	1210.44
1585.84	1179.33
1587.99	1163.78
1590.13	1147.11
1592.28	1138.89
1594.42	1128.67
1596.57	1115.56
1598.71	1093.56
1600.85	1078.89
1602.99	1064.67
1605.14	1080.67
1607.28	1062.89
1609.42	1034.89
1611.56	1033.33
1613.69	1021.11
1615.83	995.778
1617.97	982.222
1620.11	954.889
1622.24	955.556
1624.38	939.333
1626.51	928.667
1628.65	897.556
1630.78	872.889
1632.91	883.111
1635.04	844.889
1637.17	838.889
1639.31	847.778
1641.44	821.778
1643.57	814
1645.69	786.667
1647.82	803.333
1649.95	796
1652.08	787.333
1654.2	785.333
1656.33	773.111
1658.45	769.556
1660.58	777.778
1662.7	760.667
1664.82	751.778
1666.94	760
1669.07	754
1671.19	742.889
1673.31	752.667
1675.43	741.778
1677.55	730.444
1679.66	736.222
1681.78	729.778
1683.9	718
1686.01	712
1688.13	728.444
1690.25	717.111
1692.36	706
1694.47	711.111
1696.59	716.889
1698.7	703.556
1700.81	705.333
1702.92	696.444
1705.03	694.889
1707.14	694.889
1709.25	694
1711.36	705.333
1713.47	705.778
1715.58	686.667
1717.68	686.444
1719.79	686
1721.89	678.889
1724	690.444
1726.1	677.778
1728.21	690
1730.31	680.667
1732.41	671.778
1734.51	676
1736.61	665.778
1738.71	683.556
1740.81	669.111
1742.91	664.889
1745.01	660.889
1747.11	653.333
1749.2	660.222
1751.3	660
1753.4	650.889
1755.49	652.667
1757.59	659.111
1759.68	657.555
1761.77	662
1763.86	650.222
1765.96	650.889
1768.05	649.333
1770.14	643.778
1772.23	647.111
1774.32	648.444
1776.41	648.889
1778.49	645.778
1780.58	639.111
1782.67	642.667
1784.76	631.556
1786.84	644.889
1788.92	629.333
1791.01	634
1793.09	632
1795.18	652
1797.26	621.556
1799.34	631.778
1801.42	626.667
1803.5	629.333
1805.58	636
1807.66	626.667
1809.74	621.778
1811.82	628.889
1813.89	638.444
1815.97	614.889
1818.05	632.667
1820.12	620.889
1822.2	621.556
1824.27	615.556
1826.34	619.333
1828.42	616.889
1830.49	621.333
1832.56	620.222
1834.63	619.111
1836.7	620.667
1838.77	609.555
1840.84	618.889
1842.91	594.889
1844.98	615.778
1847.04	615.778
1849.11	603.333
1851.18	610.889
1853.24	611.778
1855.31	597.333
1857.37	596.889
1859.43	594.444
1861.5	598.222
1863.56	597.778
1865.62	598.889
1867.68	598.222
1869.74	604.667
1871.8	602.667
1873.86	602.222
1875.92	601.333
1877.98	598.889
1880.03	605.556
1882.09	600.222
1884.15	596.667
1886.2	590.667
1888.26	596.445
1890.31	587.111
1892.36	596.667
1894.42	596
1896.47	595.111
1898.52	590.889
1900.57	584.444
1902.62	588
1904.67	588.222
1906.72	589.778
1908.77	592.667
1910.82	586.222
1912.86	586.889
1914.91	592.889
1916.96	596.667
1919	596
1921.04	589.333
1923.09	582.889
1925.13	597.778
1927.18	591.556
1929.22	581.778
1931.26	583.556
1933.3	584.667
1935.34	584.889
1937.38	582.444
1939.42	576.444
1941.46	580.222
1943.5	569.778
1945.53	577.778
1947.57	569.111
1949.61	576.889
1951.64	568
1953.68	569.556
1955.71	567.111
1957.75	564.667
1959.78	566.667
1961.81	565.556
1963.84	569.111
1965.87	559.556
1967.9	562.222
1969.93	553.556
1971.96	558.889
1973.99	542.444
1976.02	566.889
1978.05	557.556
1980.07	555.555
1982.1	548
1984.13	547.333
1986.15	555.333
1988.18	563.556
1990.2	558.444
1992.22	553.111
1994.25	538.222
1996.27	556.222
1998.29	554
2000.31	556.222
2002.33	554.444
2004.35	555.333
2006.37	553.555
2008.39	557.778
2010.41	551.333
2012.42	550.222
2014.44	549.111
2016.46	549.778
2018.47	548.667
2020.49	546.222
2022.5	553.556
2024.51	550.444
2026.53	560.889
2028.54	552.889
2030.55	550.444
2032.56	548
2034.57	546.444
2036.58	551.556
2038.59	545.556
2040.6	549.111
2042.61	554.667
2044.62	544.667
2046.62	545.333
2048.63	553.778
2050.64	541.333
2052.64	543.111
2054.65	552.444
2056.65	545.333
2058.65	549.111
2060.66	536.889
2062.66	538.222
2064.66	551.778
2066.66	538
2068.66	550.222
2070.66	546.444
2072.66	536.444
2074.66	541.333
2076.66	544.667
2078.65	533.111
2080.65	543.333
2082.65	537.778
2084.64	545.556
2086.64	546
2088.63	536.889
2090.63	534.445
2092.62	543.555
2094.61	543.333
2096.6	546.889
2098.59	541.111
2100.59	540
2102.58	546.444
2104.56	534.667
2106.55	548.889
2108.54	552.667
2110.53	546.889
2112.52	544.889
2114.5	546.889
2116.49	555.333
2118.48	570.222
2120.46	559.111
2122.44	574.222
2124.43	563.111
2126.41	563.778
2128.39	572.222
2130.38	569.778
2132.36	585.556
2134.34	576.222
2136.32	577.333
2138.3	569.556
2140.28	567.778
2142.26	566.222
2144.23	566.444
2146.21	563.778
2148.19	541.555
2150.16	558.889
2152.14	546.889
2154.11	551.333
2156.09	551.778
2158.06	542.222
2160.04	542.444
2162.01	553.111
2163.98	542.889
2165.95	540.667
2167.92	534.889
2169.89	538.667
2171.86	552.889
2173.83	533.556
2175.8	542.667
2177.77	537.556
2179.73	525.333
2181.7	537.333
2183.67	526.889
2185.63	526.444
2187.6	523.111
2189.56	529.333
2191.53	514.667
2193.49	525.333
2195.45	525.111
2197.41	519.333
2199.37	510.222
2201.34	512.889
2203.29	508
2205.26	498.889
2207.21	506.222
2209.17	507.333
2211.13	496.889
2213.09	496.667
2215.05	492.222
2217	489.333
2218.96	495.333
2220.91	491.778
2222.87	497.111
2224.82	477.778
2226.77	482.444
2228.73	485.778
2230.68	490.667
2232.63	486.667
2234.58	474.667
2236.53	481.333
2238.48	469.111
2240.43	481.111
2242.38	485.111
2244.33	474
2246.27	479.111
2248.22	465.778
2250.17	474.889
2252.11	463.778
2254.06	467.111
2256	468.889
2257.95	471.111
2259.89	478.889
2261.84	468.444
2263.78	467.778
2265.72	474.889
2267.66	459.778
2269.6	456
2271.54	459.111
2273.48	466.444
2275.42	462.889
2277.36	465.111
2279.3	453.333
2281.23	460.667
2283.17	457.556
2285.11	459.778
2287.04	452.444
2288.98	460.444
2290.91	458.444
2292.84	447.778
2294.78	446.667
2296.71	458.889
2298.64	448.444
2300.57	455.111
2302.51	458.222
2304.44	446.444
2306.37	450
2308.29	455.333
2310.22	451.333
2312.15	457.556
2314.08	443.111
2316.01	454.889
2317.93	437.556
2319.86	438
2321.78	446.444
2323.71	444.889
2325.63	439.778
2327.56	432
2329.48	436.444
2331.4	435.778
2333.32	441.778
2335.25	443.778
2337.17	436
2339.09	455.111
2341.01	435.556
2342.92	431.333
2344.84	442.444
2346.76	442.889
2348.68	441.333
2350.6	436.444
2352.51	433.556
2354.43	440.222
2356.34	435.333
2358.26	438.667
2360.17	433.333
2362.09	420
2364	433.111
2365.91	425.778
2367.82	429.778
2369.73	424
2371.64	418
2373.55	421.111
2375.46	430.889
2377.37	417.778
2379.28	422.444
2381.19	416.444
2383.1	428.667
2385	413.778
2386.91	420.667
2388.82	422.889
2390.72	423.778
2392.62	414
2394.53	417.333
2396.43	412.222
2398.33	415.778
2400.24	411.111
2402.14	404.889
2404.04	415.111
2405.94	406
2407.84	419.556
2409.74	406.889
2411.64	417.556
2413.54	409.333
2415.44	407.111
2417.33	404.444
2419.23	412
2421.13	411.333
2423.02	402.667
2424.92	406.222
2426.81	412.667
2428.71	406.222
2430.6	411.333
2432.49	402.222
2434.38	405.778
2436.28	411.778
2438.17	405.111
2440.06	406.889
2441.95	399.333
2443.84	396.444
2445.73	401.778
