176.817	852.667
179.42	841.778
182.022	836.889
184.622	834
187.223	830.444
189.821	834.444
192.419	819.778
195.017	816
197.612	818
200.208	819.556
202.802	822.667
205.397	817.556
207.99	836.444
210.581	820.444
213.173	836
215.762	838.889
218.352	846.222
220.94	846.444
223.528	853.778
226.114	842.889
228.701	858.222
231.285	860.667
233.87	874.667
236.452	880.222
239.034	897.778
241.616	887.333
244.196	892.667
246.777	902.222
249.355	893.333
251.933	902.667
254.511	894.444
257.086	916.444
259.663	905.555
262.237	904.667
264.81	900.444
267.383	897.111
269.955	881.555
272.525	876
275.097	876.667
277.665	859.333
280.234	851.778
282.802	852
285.368	854.889
287.934	843.333
290.499	827.333
293.064	833.556
295.627	837.555
298.189	826
300.75	822.667
303.312	826
305.871	825.111
308.43	809.111
310.988	796.444
313.545	796.222
316.101	790.667
318.658	777.111
321.212	761.556
323.766	770.222
326.319	766.667
328.871	759.111
331.422	766.667
333.972	758
336.522	761.556
339.072	753.111
341.619	768.889
344.166	762.667
346.712	771.333
349.258	762
351.802	762.444
354.346	753.111
356.888	764
359.43	770.222
361.971	757.778
364.511	767.778
367.051	753.778
369.589	776.889
372.127	765.556
374.664	775.778
377.2	786.445
379.735	807.111
382.27	804.667
384.802	792.222
387.334	775.778
389.866	759.778
392.397	761.778
394.927	749.778
397.457	763.111
399.985	755.556
402.513	771.333
405.038	762.444
407.565	755.778
410.09	754.222
412.614	756.222
415.138	759.778
417.66	754.444
420.181	754
422.702	754.444
425.222	762.222
427.742	752.889
430.259	776
432.777	781.111
435.294	780.889
437.81	785.778
440.324	779.778
442.838	773.333
445.352	756.222
447.863	748.667
450.375	771.556
452.887	754.667
455.395	762.444
457.905	778
460.414	756.445
462.92	770.889
465.427	758.889
467.932	760
470.438	758.444
472.942	749.333
475.445	749.556
477.948	765.778
480.448	767.556
482.95	768.889
485.449	762.667
487.949	775.333
490.446	753.111
492.944	755.333
495.44	762.222
497.937	765.778
500.431	761.556
502.926	750.667
505.418	754
507.912	763.556
510.403	761.111
512.894	759.556
515.384	770.667
517.874	758.222
520.361	756.667
522.848	778.444
525.336	758.222
527.821	762.889
530.306	749.111
532.791	772.889
535.274	753.333
537.756	754.222
540.238	752
542.719	755.778
545.199	755.333
547.679	760.445
550.157	767.556
552.634	760.444
555.112	765.333
557.588	768.444
560.063	774.444
562.537	766
565.011	769.333
567.484	777.111
569.955	756.667
572.426	770
574.896	762.889
577.367	762.889
579.835	757.556
582.303	763.778
584.77	750.222
587.236	759.556
589.701	770.222
592.165	773.778
594.629	765.111
597.093	764.444
599.555	768.889
602.016	762.222
604.477	758.667
606.936	765.333
609.395	762
611.853	772.444
614.311	770.667
616.767	764.444
619.223	772.444
621.678	775.333
624.132	774
626.585	772.222
629.037	777.111
631.489	784.889
633.94	785.778
636.39	787.333
638.839	798
641.288	793.556
643.736	790.667
646.183	787.333
648.627	806.222
651.073	796
653.517	796
655.961	772.444
658.404	781.111
660.846	783.111
663.288	793.556
665.727	802.222
668.167	783.333
670.606	802.889
673.044	798.222
675.482	792.889
677.917	787.111
680.353	792.222
682.788	796.667
685.222	804
687.655	810
690.087	800.444
692.519	809.111
694.951	788
697.38	798.444
699.809	806.889
702.238	818.444
704.665	814.222
707.092	821.333
709.519	806.444
711.943	814
714.368	811.111
716.791	822.222
719.214	813.111
721.637	811.556
724.058	812.444
726.479	807.333
728.898	805.333
731.317	814.889
733.734	790.445
736.152	780
738.568	795.556
740.985	792.222
743.399	793.778
745.814	778.444
748.227	791.111
750.64	782.889
753.051	789.555
755.463	791.556
757.872	788.222
760.283	783.111
762.691	811.556
765.098	794.667
767.506	784.444
769.912	791.778
772.318	801.333
774.722	792.889
777.126	800.667
779.53	804.444
781.932	809.556
784.333	822.222
786.735	826
789.135	813.778
791.533	810.444
793.933	803.111
796.33	822
798.727	811.556
801.123	810
803.519	812.222
805.913	817.111
808.307	837.778
810.699	826.444
813.093	826.445
815.484	838
817.874	832.667
820.264	832.889
822.653	829.556
825.041	838.222
827.43	829.333
829.817	847.778
832.203	842.667
834.588	835.111
836.972	832
839.356	846.889
841.738	831.556
844.12	851.555
846.502	840.667
848.882	835.556
851.262	854.667
853.641	835.333
856.02	862.444
858.397	855.556
860.774	860.667
863.15	865.778
865.525	861.111
867.9	872
870.273	866.889
872.646	858
875.019	884.444
877.39	880
879.761	878.444
882.131	884.889
884.5	892.444
886.869	876.889
889.236	878.222
891.602	875.556
893.968	890.889
896.334	871.556
898.698	878
901.062	877.778
903.426	870.667
905.787	870.889
908.148	876.889
910.509	875.111
912.87	863.111
915.228	865.556
917.587	873.778
919.945	854.889
922.302	864
924.657	858
927.013	859.111
929.368	861.333
931.721	865.333
934.074	852
936.427	853.556
938.778	852.222
941.129	875.111
943.479	853.556
945.828	850.444
948.177	847.555
950.524	856.667
952.871	835.556
955.218	850
957.563	836.444
959.908	840.667
962.252	847.333
964.595	853.556
966.937	845.556
969.28	842
971.62	857.778
973.961	846.222
976.3	856.222
978.639	844.222
980.976	848.444
983.314	841.556
985.65	848.444
987.987	849.556
990.321	839.556
992.655	851.778
994.989	860.667
997.321	864.444
999.653	866.889
1001.98	869.556
1004.31	859.111
1006.65	846.667
1008.97	851.333
1011.3	844.444
1013.63	841.333
1015.96	846
1018.28	855.778
1020.61	858.222
1022.93	847.333
1025.26	853.333
1027.58	861.556
1029.9	863.333
1032.22	855.111
1034.54	865.556
1036.86	860.444
1039.18	854.222
1041.5	857.111
1043.82	860
1046.14	866.667
1048.45	880.444
1050.77	884.667
1053.08	893.778
1055.4	901.555
1057.71	893.778
1060.02	893.333
1062.33	890.889
1064.64	897.778
1066.96	892.444
1069.27	908.444
1071.57	917.111
1073.88	892.444
1076.19	908.889
1078.5	896
1080.8	902.667
1083.11	921.556
1085.41	923.778
1087.72	933.556
1090.02	942
1092.32	958.667
1094.62	979.111
1096.92	1004.89
1099.22	984.889
1101.52	981.778
1103.82	966
1106.12	970.889
1108.42	957.556
1110.71	960.889
1113.01	982
1115.3	974.222
1117.6	995.556
1119.89	1000.22
1122.18	1013.56
1124.48	1004
1126.77	1010.22
1129.06	1021.56
1131.35	1012.22
1133.64	1008
1135.93	998.889
1138.21	1004.44
1140.5	996.667
1142.79	1006
1145.07	1013.56
1147.36	1002.67
1149.64	1034.89
1151.92	1012.22
1154.21	1029.33
1156.49	1019.33
1158.77	1017.11
1161.05	1015.78
1163.33	1010.44
1165.61	1009.56
1167.89	1008.89
1170.16	1024.22
1172.44	1011.56
1174.72	1008.89
1176.99	1011.78
1179.27	1014.89
1181.54	1006.89
1183.81	1010.89
1186.09	1009.33
1188.36	1004.44
1190.63	1004.67
1192.9	1001.33
1195.17	1012.22
1197.44	1015.78
1199.71	1010.22
1201.97	1022.22
1204.24	1020.89
1206.5	1031.78
1208.77	1018.67
1211.03	1026
1213.3	1030.22
1215.56	1022.22
1217.82	1022.22
1220.09	1030.89
1222.35	1038
1224.61	1047.56
1226.87	1038.44
1229.12	1056.44
1231.38	1055.78
1233.64	1047.33
1235.9	1070
1238.15	1080.67
1240.41	1090.44
1242.66	1088.22
1244.92	1096
1247.17	1107.33
1249.42	1090.89
1251.67	1097.11
1253.92	1109.56
1256.17	1117.78
1258.42	1099.11
1260.67	1111.33
1262.92	1110
1265.17	1106
1267.42	1104.22
1269.66	1110.89
1271.91	1089.11
1274.15	1095.56
1276.39	1106.22
1278.64	1097.56
1280.88	1102.44
1283.12	1097.78
1285.36	1112.67
1287.6	1108.44
1289.84	1111.11
1292.08	1134.67
1294.32	1123.56
1296.56	1102.44
1298.79	1106.89
1301.03	1112
1303.26	1098.22
1305.5	1093.78
1307.73	1093.11
1309.97	1091.78
1312.2	1098
1314.43	1093.33
1316.66	1109.11
1318.89	1099.33
1321.12	1092
1323.35	1095.33
1325.58	1093.11
1327.81	1101.33
1330.03	1111.33
1332.26	1094.22
1334.49	1102
1336.71	1102.44
1338.94	1104
1341.16	1105.11
1343.38	1098.67
1345.6	1096
1347.83	1087.33
1350.05	1102.67
1352.27	1078.67
1354.49	1095.33
1356.7	1094.44
1358.92	1088
1361.14	1099.56
1363.36	1113.56
1365.57	1100.22
1367.79	1088.89
1370	1099.78
1372.21	1110
1374.43	1092.44
1376.64	1115.56
1378.85	1101.56
1381.06	1124.44
1383.27	1119.56
1385.48	1108.89
1387.69	1081.11
1389.9	1077.33
1392.11	1078.22
1394.31	1063.56
1396.52	1055.56
1398.73	1045.78
1400.93	1048
1403.13	1043.78
1405.34	1045.78
1407.54	1051.56
1409.74	1064.89
1411.94	1041.11
1414.14	1043.78
1416.34	1053.78
1418.54	1071.56
1420.74	1062.67
1422.94	1052.89
1425.14	1066.67
1427.33	1082.44
1429.53	1089.11
1431.72	1092.89
1433.92	1107.56
1436.11	1104.44
1438.3	1112
1440.5	1122.22
1442.69	1096.67
1444.88	1097.78
1447.07	1117.78
1449.26	1099.56
1451.45	1101.11
1453.64	1106.67
1455.82	1115.33
1458.01	1126.89
1460.2	1122
1462.38	1139.11
1464.57	1139.56
1466.75	1141.78
1468.93	1151.33
1471.12	1156.67
1473.3	1162.44
1475.48	1157.11
1477.66	1152
1479.84	1164.44
1482.02	1161.33
1484.2	1164.67
1486.38	1158.89
1488.55	1178.22
1490.73	1168.67
1492.91	1178.67
1495.08	1186
1497.26	1217.33
1499.43	1212.44
1501.61	1222.89
1503.78	1232.67
1505.95	1240.22
1508.12	1260
1510.29	1258
1512.46	1275.11
1514.63	1280.89
1516.8	1279.78
1518.97	1280.67
1521.14	1280.89
1523.3	1307.56
1525.47	1291.11
1527.63	1292.67
1529.8	1310.67
1531.96	1324.89
1534.12	1339.56
1536.29	1320.89
1538.45	1335.11
1540.61	1327.33
1542.77	1341.78
1544.93	1337.11
1547.09	1347.78
1549.25	1356.22
1551.41	1359.11
1553.56	1363.33
1555.72	1363.33
1557.88	1383.56
1560.03	1375.56
1562.18	1394
1564.34	1380.67
1566.49	1379.33
1568.64	1393.11
1570.8	1391.56
1572.95	1402.67
1575.1	1416.67
1577.25	1409.56
1579.4	1428.44
1581.55	1432.89
1583.69	1404.67
1585.84	1422
1587.99	1425.56
1590.13	1415.33
1592.28	1419.33
1594.42	1417.56
1596.57	1412.67
1598.71	1405.11
1600.85	1386.44
1602.99	1375.56
1605.14	1345.33
1607.28	1334.44
1609.42	1313.33
1611.56	1312
1613.69	1281.33
1615.83	1267.11
1617.97	1231.11
1620.11	1209.11
1622.24	1191.78
1624.38	1162.22
1626.51	1129.78
1628.65	1103.78
1630.78	1094.67
1632.91	1081.56
1635.04	1054.89
1637.17	1035.56
1639.31	1002.67
1641.44	998.667
1643.57	997.333
1645.69	976.222
1647.82	951.111
1649.95	938.444
1652.08	928.444
1654.2	922.444
1656.33	911.333
1658.45	890.667
1660.58	891.778
1662.7	878.889
1664.82	866.444
1666.94	859.333
1669.07	861.556
1671.19	849.111
1673.31	852
1675.43	834.444
1677.55	841.333
1679.66	815.778
1681.78	821.556
1683.9	825.111
1686.01	808.889
1688.13	806.222
1690.25	808.444
1692.36	788.444
1694.47	794.222
1696.59	777.778
1698.7	777.778
1700.81	776.444
1702.92	768.667
1705.03	773.333
1707.14	780.889
1709.25	775.111
1711.36	765.556
1713.47	764.667
1715.58	775.111
1717.68	761.333
1719.79	774.444
1721.89	771.333
1724	756.889
1726.1	747.555
1728.21	748.889
1730.31	747.333
1732.41	745.333
1734.51	742.889
1736.61	749.778
1738.71	739.111
1740.81	726
1742.91	732.889
1745.01	720.667
1747.11	738
1749.2	728
1751.3	718.889
1753.4	714
1755.49	715.556
1757.59	699.556
1759.68	714
1761.77	711.333
1763.86	716.444
1765.96	709.556
1768.05	707.556
1770.14	702.444
1772.23	704
1774.32	687.556
1776.41	706.222
1778.49	694.444
1780.58	699.333
1782.67	697.778
1784.76	700.667
1786.84	689.556
1788.92	690
1791.01	680.667
1793.09	688.667
1795.18	688.222
1797.26	695.111
1799.34	690
1801.42	676
1803.5	679.556
1805.58	680
1807.66	678.444
1809.74	667.556
1811.82	673.333
1813.89	684.667
1815.97	676.667
1818.05	676.222
1820.12	676.444
1822.2	675.111
1824.27	656
1826.34	668
1828.42	666
1830.49	669.556
1832.56	659.556
1834.63	654.889
1836.7	662
1838.77	657.778
1840.84	671.778
1842.91	658.222
1844.98	647.111
1847.04	649.333
1849.11	649.778
1851.18	653.778
1853.24	643.556
1855.31	659.111
1857.37	645.778
1859.43	654
1861.5	654
1863.56	655.333
1865.62	645.111
1867.68	645.111
1869.74	639.556
1871.8	644.667
1873.86	650.889
1875.92	637.111
1877.98	633.555
1880.03	647.778
1882.09	644.444
1884.15	643.778
1886.2	642
1888.26	636.444
1890.31	642.222
1892.36	647.333
1894.42	650.889
1896.47	634
1898.52	636.222
1900.57	648.222
1902.62	638.222
1904.67	638.667
1906.72	633.111
1908.77	637.778
1910.82	638.889
1912.86	622.667
1914.91	643.333
1916.96	626.889
1919	626.444
1921.04	633.556
1923.09	638.444
1925.13	632.444
1927.18	624.889
1929.22	627.778
1931.26	634
1933.3	630.444
1935.34	634.445
1937.38	629.556
1939.42	619.111
1941.46	620.444
1943.5	622.444
1945.53	625.556
1947.57	611.778
1949.61	618.444
1951.64	611.778
1953.68	605.556
1955.71	626
1957.75	615.556
1959.78	609.778
1961.81	607.333
1963.84	602.444
1965.87	611.111
1967.9	609.778
1969.93	596.889
1971.96	614.667
1973.99	602.444
1976.02	604.444
1978.05	612
1980.07	612
1982.1	601.555
1984.13	602.889
1986.15	602
1988.18	601.778
1990.2	608.222
1992.22	603.778
1994.25	613.111
1996.27	602
1998.29	600.444
2000.31	595.778
2002.33	610
2004.35	600.222
2006.37	594.444
2008.39	600.222
2010.41	595.778
2012.42	608.444
2014.44	607.556
2016.46	596
2018.47	604.222
2020.49	600.222
2022.5	602
2024.51	594.222
2026.53	596.222
2028.54	596
2030.55	606.889
2032.56	595.778
2034.57	600.889
2036.58	596
2038.59	604.889
2040.6	607.778
2042.61	591.556
2044.62	596.222
2046.62	592.667
2048.63	594.444
2050.64	590
2052.64	585.778
2054.65	593.333
2056.65	588.222
2058.65	605.778
2060.66	584.444
2062.66	587.778
2064.66	586.889
2066.66	592
2068.66	575.111
2070.66	580.444
2072.66	582.667
2074.66	589.556
2076.66	575.333
2078.65	581.111
2080.65	595.111
2082.65	577.778
2084.64	585.555
2086.64	570.889
2088.63	581.111
2090.63	584.222
2092.62	583.333
2094.61	581.111
2096.6	597.556
2098.59	577.333
2100.59	582
2102.58	586.222
2104.56	588.222
2106.55	589.111
2108.54	585.333
2110.53	596.667
2112.52	590.444
2114.5	607.333
2116.49	610.889
2118.48	626.667
2120.46	626.444
2122.44	633.556
2124.43	640.444
2126.41	652.889
2128.39	656.667
2130.38	665.333
2132.36	656
2134.34	669.778
2136.32	654.222
2138.3	658
2140.28	643.333
2142.26	652.889
2144.23	640
2146.21	639.778
2148.19	639.778
2150.16	630
2152.14	633.111
2154.11	639.111
2156.09	626
2158.06	629.778
2160.04	626.889
2162.01	634.889
2163.98	621.778
2165.95	622.444
2167.92	614.222
2169.89	612.444
2171.86	609.556
2173.83	617.778
2175.8	601.333
2177.77	608.667
2179.73	598.667
2181.7	603.333
2183.67	595.333
2185.63	600.889
2187.6	599.111
2189.56	586.889
2191.53	587.556
2193.49	585.333
2195.45	577.778
2197.41	568
2199.37	560.444
2201.34	561.333
2203.29	561.333
2205.26	561.778
2207.21	551.333
2209.17	558.889
2211.13	553.333
2213.09	556.667
2215.05	561.556
2217	551.556
2218.96	543.556
2220.91	539.111
2222.87	549.556
2224.82	546.222
2226.77	542.889
2228.73	537.111
2230.68	532.889
2232.63	542.889
2234.58	530.889
2236.53	530.667
2238.48	541.111
2240.43	530
2242.38	524.222
2244.33	517.111
2246.27	522.667
2248.22	532
2250.17	532.667
2252.11	528.444
2254.06	531.111
2256	517.111
2257.95	521.778
2259.89	528.444
2261.84	524.222
2263.78	518.222
2265.72	515.111
2267.66	518
2269.6	508
2271.54	522.667
2273.48	510
2275.42	506.222
2277.36	509.556
2279.3	509.111
2281.23	510.222
2283.17	506.444
2285.11	502.667
2287.04	508.667
2288.98	500.222
2290.91	500.222
2292.84	499.556
2294.78	502.444
2296.71	506.667
2298.64	494.444
2300.57	504.444
2302.51	498.444
2304.44	505.111
2306.37	505.556
2308.29	501.111
2310.22	499.333
2312.15	497.778
2314.08	500.444
2316.01	492
2317.93	511.556
2319.86	492.667
2321.78	498.222
2323.71	499.556
2325.63	494.444
2327.56	486.444
2329.48	486.889
2331.4	494.667
2333.32	505.111
2335.25	492
2337.17	483.778
2339.09	490
2341.01	487.333
2342.92	482
2344.84	480
2346.76	489.778
2348.68	487.111
2350.6	487.778
2352.51	485.556
2354.43	484.889
2356.34	473.333
2358.26	484.444
2360.17	486.222
2362.09	485.333
2364	472.667
2365.91	482
2367.82	472
2369.73	476.889
2371.64	476.444
2373.55	487.333
2375.46	475.778
2377.37	474.889
2379.28	474.444
2381.19	474.444
2383.1	473.556
2385	477.111
2386.91	478.889
2388.82	474.889
2390.72	463.111
2392.62	470.667
2394.53	470
2396.43	466.222
2398.33	472
2400.24	477.111
2402.14	465.778
2404.04	476
2405.94	458.667
2407.84	465.333
2409.74	468.667
2411.64	460.667
2413.54	460.667
2415.44	458.889
2417.33	468.889
2419.23	466.444
2421.13	468.889
2423.02	454.444
2424.92	462
2426.81	453.111
2428.71	461.333
2430.6	454.222
2432.49	464.444
2434.38	457.333
2436.28	462.444
2438.17	460.889
2440.06	459.333
2441.95	451.556
2443.84	455.111
2445.73	455.556
