188.706	72
191.305	81.3333
193.902	88.2222
196.499	87.5556
199.096	93.1111
201.69	108
204.284	117.333
206.877	105.111
209.47	88.6667
212.062	68.2222
214.652	64.2222
217.242	64.2222
219.83	60.8889
222.419	60.8889
225.005	59.1111
227.592	55.1111
230.177	55.5556
232.762	56
235.345	53.3333
237.928	52
240.509	48.4444
243.09	52.2222
245.671	51.7778
248.249	50.2222
250.829	47.3333
253.405	51.7778
255.983	49.3333
258.558	48.8889
261.132	50
263.707	50.4444
266.28	50
268.852	49.3333
271.424	49.5556
273.994	50.6667
276.564	49.3333
279.133	48.8889
281.701	53.1111
284.268	50.2222
286.835	49.7778
289.4	52.8889
291.964	48.4444
294.527	53.3333
297.091	52
299.653	51.7778
302.214	50
304.774	49.7778
307.334	51.3333
309.892	49.1111
312.45	49.7778
315.006	48
317.562	49.7778
320.118	51.7778
322.672	48.6667
325.225	50.8889
327.778	49.1111
330.329	51.1111
332.88	50
335.43	51.1111
337.978	50.8889
340.528	48.8889
343.075	49.3333
345.622	51.3333
348.167	51.1111
350.712	48.8889
353.256	48.4444
355.799	49.1111
358.341	52.6667
360.883	50.4444
363.423	51.3333
365.963	52.8889
368.502	51.7778
371.04	50.4444
373.577	53.7778
376.114	55.5556
378.649	53.3333
381.184	54.6667
383.718	56.4444
386.251	57.7778
388.783	59.5556
391.314	61.7778
393.844	67.5556
396.373	65.7778
398.902	69.1111
401.43	66
403.957	62.8889
406.484	58.6667
409.009	54.2222
411.534	54.8889
414.057	51.5556
416.58	51.7778
419.102	55.7778
421.624	54.6667
424.144	57.3333
426.663	57.5556
429.181	57.1111
431.7	58
434.217	55.7778
436.732	53.1111
439.248	50
441.763	48.6667
444.277	48.8889
446.788	46.8889
449.301	47.5556
451.812	45.5556
454.322	46.6667
456.831	45.5556
459.341	48.8889
461.847	48
464.355	45.5556
466.861	44.2222
469.366	50.2222
471.871	48.6667
474.374	51.5556
476.877	49.5556
479.378	47.3333
481.88	50.6667
484.381	51.3333
486.879	54.4444
489.379	50.4444
491.876	52.4444
494.373	51.7778
496.869	47.1111
499.365	49.7778
501.858	47.5556
504.353	48.8889
506.845	48.4444
509.338	45.3333
511.828	47.7778
514.319	43.5556
516.808	47.7778
519.296	45.7778
521.785	45.3333
524.272	46.4444
526.759	48.4444
529.244	46.2222
531.728	45.5556
534.212	46.6667
536.695	46.6667
539.178	46.8889
541.659	47.7778
544.139	45.1111
546.619	48.4444
549.098	47.3333
551.575	47.3333
554.052	47.7778
556.529	44.8889
559.005	45.1111
561.479	47.3333
563.953	47.7778
566.427	46.8889
568.899	45.5556
571.37	47.5556
573.84	48.2222
576.311	48.8889
578.78	45.7778
581.248	44.8889
583.715	46.2222
586.181	46.4444
588.647	46
591.113	45.1111
593.577	46.2222
596.04	46.4444
598.503	45.5556
600.964	45.5556
603.425	45.1111
605.885	46.6667
608.344	46.6667
610.803	47.1111
613.26	44.2222
615.718	45.3333
618.174	46.8889
620.63	47.3333
623.084	47.1111
625.538	46.6667
627.99	47.3333
630.443	44.6667
632.894	46.6667
635.344	47.7778
637.792	47.3333
640.241	46.4444
642.689	47.5556
645.137	55.3333
647.583	71.7778
650.029	75.1111
652.474	57.7778
654.918	47.7778
657.361	47.1111
659.804	47.1111
662.246	48
664.685	44.4444
667.125	48.8889
669.565	47.7778
672.003	47.7778
674.441	47.3333
676.877	46.2222
679.313	47.1111
681.749	46
684.183	48
686.617	46
689.049	46.2222
691.481	48.4444
693.913	46
696.342	45.3333
698.772	50.2222
701.201	51.5556
703.63	46.8889
706.056	47.7778
708.483	45.7778
710.909	46.8889
713.333	47.1111
715.758	47.7778
718.18	47.1111
720.603	47.3333
723.025	45.5556
725.445	47.7778
727.866	47.7778
730.284	46.4444
732.703	45.7778
735.122	47.5556
737.538	47.7778
739.955	46.6667
742.369	46.8889
744.784	46.6667
747.197	48
749.611	50.2222
752.023	54.2222
754.435	52.2222
756.845	67.7778
759.255	101.333
761.664	136.444
764.071	134.667
766.48	93.1111
768.886	65.5556
771.292	51.3333
773.697	51.1111
776.102	48.8889
778.505	48.2222
780.907	46.2222
783.31	48.6667
785.711	47.5556
788.111	47.5556
790.511	45.5556
792.91	44.8889
795.308	49.3333
797.706	49.1111
800.102	50
802.497	56.8889
804.892	55.1111
807.287	49.1111
809.68	47.7778
812.072	46.4444
814.464	47.1111
816.855	49.1111
819.246	46.8889
821.635	48.4444
824.024	43.5556
826.412	49.1111
828.799	47.5556
831.186	46
833.572	46.2222
835.956	46.8889
838.34	49.1111
840.723	45.1111
843.106	48.8889
845.487	47.7778
847.868	48.2222
850.248	51.5556
852.628	55.3333
855.006	63.1111
857.384	60.2222
859.761	52.8889
862.138	50
864.513	46.4444
866.888	48.6667
869.262	48.6667
871.636	46.4444
874.008	49.1111
876.38	47.7778
878.751	47.5556
881.121	48.4444
883.491	47.5556
885.86	50.6667
888.228	52.8889
890.595	52.8889
892.962	54
895.327	53.5556
897.691	52
900.055	51.5556
902.419	50.4444
904.782	47.1111
907.144	46.6667
909.505	49.1111
911.864	47.1111
914.224	45.1111
916.583	45.7778
918.941	45.7778
921.298	45.1111
923.654	46
926.01	49.1111
928.366	46.2222
930.719	42.8889
933.073	44.8889
935.426	44.6667
937.777	44.2222
940.129	44.2222
942.479	45.5556
944.828	46.4444
947.178	46.4444
949.526	44.8889
951.873	44
954.22	44.6667
956.565	46.6667
958.911	47.1111
961.254	42.2222
963.598	44.8889
965.942	44.6667
968.283	48
970.625	48.4444
972.965	44.2222
975.305	46.8889
977.644	45.3333
979.983	46.2222
982.32	48.2222
984.657	48.8889
986.993	50.8889
989.327	53.5556
991.663	56
993.996	66
996.33	104
998.662	168.222
1000.99	161.556
1003.32	103.111
1005.65	66.4445
1007.98	51.7778
1010.31	49.7778
1012.64	47.3333
1014.97	43.5556
1017.29	45.5556
1019.62	48
1021.94	46.4444
1024.27	45.3333
1026.59	46
1028.91	48.2222
1031.24	47.3333
1033.56	46.6667
1035.88	45.1111
1038.2	45.7778
1040.51	44.2222
1042.83	49.3333
1045.15	45.5556
1047.47	45.5556
1049.78	43.5556
1052.1	45.5556
1054.41	45.1111
1056.73	45.3333
1059.04	46.2222
1061.35	46.8889
1063.66	44.2222
1065.97	44
1068.28	44.4444
1070.59	43.7778
1072.9	44.2222
1075.21	46.2222
1077.52	44.8889
1079.82	43.7778
1082.13	50.2222
1084.43	44.2222
1086.74	48.6667
1089.04	48.8889
1091.34	45.3333
1093.65	48
1095.95	47.7778
1098.25	45.3333
1100.55	44.2222
1102.85	43.7778
1105.14	45.3333
1107.44	45.3333
1109.74	44.6667
1112.03	44.8889
1114.33	44.8889
1116.62	45.5556
1118.92	44
1121.21	44.2222
1123.5	44.6667
1125.79	43.5556
1128.09	45.7778
1130.38	47.5556
1132.67	45.3333
1134.95	46.4444
1137.24	43.7778
1139.53	43.3333
1141.82	47.5556
1144.1	46.2222
1146.39	44.4444
1148.67	48.8889
1150.95	49.5556
1153.24	54
1155.52	54.2222
1157.8	54.6667
1160.08	51.5556
1162.36	49.5556
1164.64	47.1111
1166.92	48.4444
1169.2	49.1111
1171.47	50
1173.75	50.2222
1176.03	49.5556
1178.3	52
1180.58	52.6667
1182.85	52.8889
1185.12	51.1111
1187.39	50.8889
1189.66	49.1111
1191.94	48.6667
1194.21	45.7778
1196.48	49.1111
1198.74	46.6667
1201.01	43.7778
1203.28	46.6667
1205.54	45.3333
1207.81	44.4444
1210.07	45.1111
1212.34	47.5556
1214.6	45.7778
1216.86	45.5556
1219.13	44.6667
1221.39	47.1111
1223.65	42.4444
1225.91	47.1111
1228.17	45.5556
1230.43	47.7778
1232.68	47.3333
1234.94	48.6667
1237.2	48.2222
1239.45	42.6667
1241.71	45.1111
1243.96	46
1246.22	47.1111
1248.47	49.3333
1250.72	51.1111
1252.97	48.4444
1255.22	53.5556
1257.47	52.6667
1259.72	51.7778
1261.97	56.2222
1264.22	58
1266.46	57.3333
1268.71	62.8889
1270.95	62.6667
1273.2	61.7778
1275.44	62.4444
1277.69	61.7778
1279.93	59.5556
1282.17	58.4444
1284.41	60
1286.65	59.3333
1288.89	58.8889
1291.13	65.7778
1293.37	69.3333
1295.61	72.6667
1297.85	75.3333
1300.08	72.8889
1302.32	66.8889
1304.55	64.8889
1306.79	59.7778
1309.02	58.4444
1311.26	56.8889
1313.49	57.1111
1315.72	53.7778
1317.95	59.1111
1320.18	56
1322.41	61.7778
1324.64	65.5556
1326.86	64
1329.09	66.2222
1331.32	60.6667
1333.55	56.8889
1335.77	56.8889
1337.99	53.3333
1340.22	53.3333
1342.44	51.5556
1344.66	49.7778
1346.89	49.1111
1349.11	47.1111
1351.33	50.2222
1353.55	50.2222
1355.77	51.3333
1357.98	52
1360.2	50
1362.42	48.6667
1364.63	50
1366.85	50.8889
1369.06	47.7778
1371.28	47.5556
1373.49	49.7778
1375.7	48.6667
1377.92	50
1380.13	48.2222
1382.34	49.7778
1384.55	51.5556
1386.76	47.3333
1388.97	46.2222
1391.17	47.3333
1393.38	49.5556
1395.59	49.7778
1397.79	48.4444
1400	48
1402.2	51.5556
1404.41	48.6667
1406.61	51.3333
1408.81	50.6667
1411.01	49.3333
1413.21	49.5556
1415.41	50.4444
1417.61	51.5556
1419.81	50
1422.01	49.7778
1424.21	50.2222
1426.4	51.7778
1428.6	54.8889
1430.8	53.3333
1432.99	54.6667
1435.18	56.6667
1437.38	55.7778
1439.57	55.3333
1441.76	61.3333
1443.95	63.1111
1446.14	67.1111
1448.33	67.5556
1450.52	64.8889
1452.71	61.1111
1454.9	57.3333
1457.09	59.7778
1459.27	58.6667
1461.46	59.1111
1463.64	57.1111
1465.83	59.3333
1468.01	58.2222
1470.2	60.4444
1472.38	56.4444
1474.56	56.4444
1476.74	54.6667
1478.92	56.4444
1481.1	51.1111
1483.28	55.1111
1485.46	52
1487.64	52.4444
1489.81	53.3333
1491.99	51.1111
1494.16	52
1496.34	50.8889
1498.51	50
1500.69	50.6667
1502.86	53.3333
1505.03	48.6667
1507.21	47.7778
1509.38	52.6667
1511.55	47.7778
1513.72	49.3333
1515.89	50.8889
1518.05	52
1520.22	51.7778
1522.39	50.2222
1524.55	53.1111
1526.72	52.4444
1528.88	52.8889
1531.05	50.6667
1533.21	52
1535.37	52.4444
1537.54	51.5556
1539.7	49.3333
1541.86	53.3333
1544.02	53.5556
1546.18	50.4444
1548.34	52
1550.5	52
1552.65	53.3333
1554.81	53.7778
1556.97	54.4444
1559.12	52.2222
1561.28	56.4444
1563.43	55.7778
1565.58	54.8889
1567.74	58.8889
1569.89	65.7778
1572.04	81.7778
1574.19	97.1111
1576.34	113.111
1578.49	109.556
1580.64	94.4444
1582.79	82.4444
1584.94	73.7778
1587.08	66.6667
1589.23	70.4444
1591.37	66.8889
1593.52	62.8889
1595.66	59.5556
1597.81	62.6667
1599.95	60.4444
1602.09	59.5556
1604.23	59.3333
1606.37	59.1111
1608.51	59.5556
1610.65	59.3333
1612.79	61.3333
1614.93	61.3333
1617.07	60.2222
1619.21	65.3333
1621.34	67.5556
1623.48	67.1111
1625.61	70.4444
1627.75	77.7778
1629.88	79.5556
1632.01	87.3333
1634.15	89.3333
1636.28	96
1638.41	104.222
1640.54	103.778
1642.67	104.222
1644.8	101.556
1646.93	106.889
1649.05	100.889
1651.18	98
1653.31	93.7778
1655.43	86.4444
1657.56	83.7778
1659.68	88
1661.81	82.2222
1663.93	76.6667
1666.05	71.1111
1668.17	70.4444
1670.3	64.6667
1672.42	63.3333
1674.54	62.2222
1676.66	61.1111
1678.77	62
1680.89	59.3333
1683.01	59.5556
1685.13	60
1687.24	58
1689.36	55.7778
1691.47	58
1693.59	56.8889
1695.7	56
1697.81	55.5556
1699.92	50.2222
1702.04	53.1111
1704.15	52.8889
1706.26	54.2222
1708.37	55.1111
1710.47	54.2222
1712.58	55.1111
1714.69	51.1111
1716.8	53.5556
1718.9	52
1721.01	53.7778
1723.11	54
1725.22	52.6667
1727.32	52.2222
1729.42	52.6667
1731.53	50
1733.63	51.7778
1735.73	52
1737.83	50.6667
1739.93	50
1742.03	51.7778
1744.13	52.2222
1746.23	51.5556
1748.32	49.5556
1750.42	50.6667
1752.52	50.4444
1754.61	49.3333
1756.71	52.6667
1758.8	50.2222
1760.89	50.4444
1762.99	48.8889
1765.08	50
1767.17	51.7778
1769.26	50.8889
1771.35	50.8889
1773.44	50
1775.53	49.3333
1777.62	50.6667
1779.71	50.4444
1781.79	49.1111
1783.88	48.2222
1785.96	49.5556
1788.05	49.3333
1790.13	51.7778
1792.22	48.4444
1794.3	47.7778
1796.38	49.5556
1798.47	49.1111
1800.55	47.7778
1802.63	48.8889
1804.71	50.6667
1806.79	48.2222
1808.87	49.5556
1810.95	50.2222
1813.02	49.1111
1815.1	50.4444
1817.18	48.2222
1819.25	47.5556
1821.33	50.8889
1823.4	48.6667
1825.47	47.7778
1827.55	48.8889
1829.62	51.3333
1831.69	51.1111
1833.76	52
1835.83	51.7778
1837.9	50.8889
1839.97	48.8889
1842.04	49.5556
1844.11	48.6667
1846.18	49.5556
1848.24	49.3333
1850.31	49.7778
1852.38	50.8889
1854.44	50.2222
1856.51	50.8889
1858.57	48.6667
1860.63	49.7778
1862.69	49.7778
1864.76	50.4444
1866.82	50
1868.88	49.5556
1870.94	50
1873	50.4444
1875.06	48.2222
1877.11	47.3333
1879.17	48.4444
1881.23	50.2222
1883.28	50.8889
1885.34	49.7778
1887.4	49.5556
1889.45	48.6667
1891.5	51.1111
1893.56	48.2222
1895.61	47.1111
1897.66	50.8889
1899.71	45.7778
1901.76	49.3333
1903.81	50
1905.86	51.1111
1907.91	49.1111
1909.96	49.5556
1912.01	49.3333
1914.05	49.1111
1916.1	50.2222
1918.15	51.3333
1920.19	50.2222
1922.23	49.3333
1924.28	49.3333
1926.32	50.6667
1928.36	51.1111
1930.41	47.7778
1932.45	50
1934.49	50.8889
1936.53	50.4444
1938.57	48
1940.61	49.7778
1942.64	50.6667
1944.68	49.3333
1946.72	50.6667
1948.76	48.8889
1950.79	50.2222
1952.83	50.2222
1954.86	48.2222
1956.89	50.6667
1958.93	49.3333
1960.96	52.8889
1962.99	51.1111
1965.03	47.1111
1967.06	51.3333
1969.09	48.4444
1971.12	50.8889
1973.14	48.8889
1975.17	49.3333
1977.2	46.8889
1979.23	51.1111
1981.25	50.4444
1983.28	48.6667
1985.31	46.8889
1987.33	51.5556
1989.36	48.4444
1991.38	50.8889
1993.4	48
1995.42	51.3333
1997.45	50.8889
1999.47	50
2001.49	50.4444
2003.51	49.7778
2005.53	50.4444
2007.55	48.4444
2009.56	49.5556
2011.58	50
2013.6	48.8889
2015.61	52.6667
2017.63	51.1111
2019.65	50.8889
2021.66	50.2222
2023.67	52.4444
2025.69	49.1111
2027.7	51.1111
2029.71	51.5556
2031.72	49.1111
2033.73	49.5556
2035.74	52.4444
2037.75	51.5556
2039.76	48.2222
2041.77	50
2043.78	50.8889
2045.79	49.5556
2047.79	49.7778
2049.8	51.1111
2051.8	49.1111
2053.81	49.3333
2055.81	50.8889
2057.82	51.7778
2059.82	50.8889
2061.82	47.5556
2063.82	50.4444
2065.83	51.3333
2067.83	48.6667
2069.83	46.8889
2071.83	52.8889
2073.82	48.2222
2075.82	50.6667
2077.82	48.2222
2079.82	46.8889
2081.81	51.7778
2083.81	49.1111
2085.8	51.1111
2087.8	50.6667
2089.79	50
2091.79	48.6667
2093.78	48.2222
2095.77	50.6667
2097.76	51.5556
2099.76	48.6667
2101.75	49.1111
2103.74	50.8889
2105.72	48.6667
2107.71	46.8889
2109.7	49.1111
2111.69	50.8889
2113.68	50.4444
2115.66	51.5556
2117.65	48.8889
2119.63	48.8889
2121.62	50.8889
2123.6	50.2222
2125.59	49.7778
2127.57	52
2129.55	50.2222
2131.53	53.3333
2133.51	52.4444
2135.49	49.3333
2137.47	50.6667
2139.45	49.7778
2141.43	51.5556
2143.41	49.5556
2145.39	52.6667
2147.36	52.6667
2149.34	52.8889
2151.32	52.2222
2153.29	52
2155.27	49.7778
2157.24	51.3333
2159.21	48.8889
2161.19	50.2222
2163.16	52
2165.13	50.2222
2167.1	47.7778
2169.07	51.7778
2171.04	52.2222
2173.01	52.2222
2174.98	51.5556
2176.95	51.7778
2178.92	48.8889
2180.88	51.3333
2182.85	49.7778
2184.81	48.2222
2186.78	52
2188.74	51.7778
2190.71	50.6667
2192.67	47.7778
2194.63	51.1111
2196.6	50.8889
2198.56	51.5556
2200.52	50
2202.48	48.6667
2204.44	48.2222
2206.4	49.1111
2208.36	48.8889
2210.32	52.6667
2212.28	52.2222
2214.23	51.3333
2216.19	50.6667
2218.14	52.6667
2220.1	52
2222.05	49.7778
2224.01	51.3333
2225.96	50
2227.91	49.5556
2229.87	50.6667
2231.82	49.3333
2233.77	51.7778
2235.72	51.7778
2237.67	53.7778
2239.62	50.8889
2241.57	51.7778
2243.52	52.6667
2245.47	50.8889
2247.41	50
2249.36	53.7778
2251.31	51.5556
2253.25	50.6667
2255.2	47.7778
2257.14	53.3333
2259.09	50.6667
2261.03	51.7778
2262.97	53.7778
2264.91	49.3333
2266.85	51.1111
2268.8	50.2222
2270.74	52
2272.68	52.6667
2274.61	51.3333
2276.55	51.1111
2278.49	49.1111
2280.43	51.5556
2282.37	51.3333
2284.3	52
2286.24	49.5556
2288.17	50.2222
2290.11	52.8889
2292.04	52.4444
2293.98	49.1111
2295.91	48.8889
2297.84	52
2299.77	53.5556
2301.7	49.7778
2303.64	52
2305.56	50.4444
2307.49	49.1111
2309.42	52.6667
2311.35	51.1111
2313.28	51.3333
2315.21	50.2222
2317.13	51.5556
2319.06	54.6667
2320.99	53.5556
2322.91	50.8889
2324.84	53.3333
2326.76	51.5556
2328.68	54.8889
2330.6	53.7778
2332.53	48.8889
2334.45	53.3333
2336.37	51.1111
2338.29	49.5556
2340.21	52.8889
2342.13	52
2344.05	48.4444
2345.97	49.3333
2347.89	53.5556
2349.8	51.7778
2351.72	49.7778
2353.63	52.2222
2355.55	48.6667
2357.47	51.1111
2359.38	51.1111
2361.29	52.4444
2363.21	52.6667
2365.12	54
2367.03	51.1111
2368.94	51.7778
2370.85	52.2222
2372.76	52.6667
2374.67	50.2222
2376.58	51.5556
2378.49	52.2222
2380.4	54.2222
2382.31	51.7778
2384.21	50.6667
2386.12	51.1111
2388.03	52
2389.93	51.3333
2391.84	53.1111
2393.74	51.1111
2395.64	52.6667
2397.55	52.4444
2399.45	51.7778
2401.35	54.8889
2403.25	50
2405.15	52
2407.05	54.8889
2408.95	50.6667
2410.85	53.3333
2412.75	51.1111
2414.65	51.7778
2416.55	53.3333
2418.45	54
2420.34	51.7778
2422.24	54.4444
2424.13	52.6667
2426.03	53.5556
2427.92	50.8889
2429.82	50
2431.71	54.8889
2433.6	53.3333
2435.49	53.5556
2437.39	50.8889
2439.28	54.2222
2441.17	53.1111
2443.06	50.8889
2444.95	50.6667
2446.83	57.3333
2448.72	52.6667
2450.61	56
2452.5	54
2454.39	54
