188.706	64
191.305	74.2222
193.902	81.7778
196.499	87.1111
199.096	90
201.69	108.444
204.284	119.556
206.877	109.333
209.47	89.3333
212.062	73.3333
214.652	62.8889
217.242	60.8889
219.83	59.5556
222.419	60.2222
225.005	60.4444
227.592	54.6667
230.177	53.1111
232.762	52.6667
235.345	50
237.928	50.4444
240.509	50.2222
243.09	49.5556
245.671	50
248.249	49.3333
250.829	50.8889
253.405	50
255.983	49.1111
258.558	50
261.132	46.8889
263.707	48
266.28	48.6667
268.852	48
271.424	50.2222
273.994	47.7778
276.564	47.5556
279.133	47.7778
281.701	48.8889
284.268	46.2222
286.835	47.3333
289.4	48.8889
291.964	51.3333
294.527	52.2222
297.091	49.3333
299.653	53.1111
302.214	47.1111
304.774	48.4444
307.334	47.7778
309.892	49.1111
312.45	46.8889
315.006	50
317.562	48.6667
320.118	47.3333
322.672	50.2222
325.225	46.8889
327.778	48
330.329	48.8889
332.88	46.4444
335.43	46.6667
337.978	48.6667
340.528	47.1111
343.075	47.7778
345.622	46
348.167	49.3333
350.712	50.4444
353.256	48.2222
355.799	48
358.341	46
360.883	50.6667
363.423	47.5556
365.963	49.7778
368.502	49.1111
371.04	50.6667
373.577	52.2222
376.114	52.8889
378.649	51.5556
381.184	54.4444
383.718	52.8889
386.251	54.6667
388.783	56.4444
391.314	57.3333
393.844	60.2222
396.373	61.3333
398.902	61.3333
401.43	59.5556
403.957	61.7778
406.484	56.6667
409.009	52.2222
411.534	49.7778
414.057	52.6667
416.58	48.4444
419.102	53.5556
421.624	51.7778
424.144	52.8889
426.663	53.5556
429.181	53.7778
431.7	52.2222
434.217	51.5556
436.732	49.5556
439.248	48.2222
441.763	46.4444
444.277	47.3333
446.788	46.6667
449.301	48.2222
451.812	47.7778
454.322	47.3333
456.831	44.8889
459.341	43.3333
461.847	45.5556
464.355	45.3333
466.861	45.3333
469.366	47.1111
471.871	44
474.374	43.3333
476.877	49.3333
479.378	45.7778
481.88	49.7778
484.381	48.2222
486.879	51.3333
489.379	50.2222
491.876	50
494.373	46.6667
496.869	48
499.365	47.1111
501.858	44
504.353	44.4444
506.845	44.2222
509.338	45.5556
511.828	44.6667
514.319	47.7778
516.808	45.3333
519.296	45.7778
521.785	44.2222
524.272	45.7778
526.759	45.1111
529.244	46.2222
531.728	46
534.212	45.3333
536.695	45.5556
539.178	46
541.659	44.6667
544.139	45.5556
546.619	45.5556
549.098	44
551.575	45.1111
554.052	46.6667
556.529	43.5556
559.005	45.1111
561.479	43.3333
563.953	45.7778
566.427	47.1111
568.899	46.2222
571.37	45.7778
573.84	45.1111
576.311	45.5556
578.78	45.1111
581.248	43.3333
583.715	46.6667
586.181	46.4444
588.647	43.5556
591.113	47.3333
593.577	44.2222
596.04	44.2222
598.503	42.8889
600.964	47.3333
603.425	44.2222
605.885	41.7778
608.344	46
610.803	45.5556
613.26	44.8889
615.718	45.3333
618.174	44.6667
620.63	46.6667
623.084	44.4444
625.538	45.1111
627.99	46
630.443	45.7778
632.894	46.2222
635.344	44
637.792	46
640.241	45.3333
642.689	44.6667
645.137	54.2222
647.583	73.5556
650.029	74
652.474	58.4444
654.918	46.2222
657.361	46
659.804	45.7778
662.246	46
664.685	45.5556
667.125	43.7778
669.565	44.8889
672.003	46
674.441	46.6667
676.877	46.4444
679.313	44.2222
681.749	43.1111
684.183	44.6667
686.617	46.2222
689.049	43.7778
691.481	44.8889
693.913	46.4444
696.342	48.8889
698.772	46.4444
701.201	46.2222
703.63	45.5556
706.056	47.7778
708.483	48.2222
710.909	46.4444
713.333	45.3333
715.758	44.8889
718.18	44.8889
720.603	44.2222
723.025	46.4444
725.445	44.2222
727.866	46.2222
730.284	43.1111
732.703	44.8889
735.122	48
737.538	47.5556
739.955	44.6667
742.369	45.7778
744.784	45.1111
747.197	48
749.611	49.1111
752.023	49.3333
754.435	56.2222
756.845	64.2222
759.255	92.6667
761.664	127.778
764.071	129.333
766.48	92.4445
768.886	65.1111
771.292	54.6667
773.697	47.7778
776.102	46.4444
778.505	46.4444
780.907	48.4444
783.31	46.4444
785.711	47.7778
788.111	45.5556
790.511	46.8889
792.91	46.4444
795.308	45.5556
797.706	48.2222
800.102	51.5556
802.497	52.8889
804.892	52.6667
807.287	50.8889
809.68	46.8889
812.072	47.3333
814.464	44.2222
816.855	46
819.246	46
821.635	45.3333
824.024	47.1111
826.412	44
828.799	47.5556
831.186	44.8889
833.572	48.6667
835.956	46.4444
838.34	46.2222
840.723	45.5556
843.106	46
845.487	46.8889
847.868	46.4444
850.248	48.6667
852.628	55.3333
855.006	61.7778
857.384	58.2222
859.761	52.6667
862.138	48.6667
864.513	48.8889
866.888	46
869.262	44
871.636	47.5556
874.008	47.7778
876.38	49.1111
878.751	44.6667
881.121	44
883.491	49.1111
885.86	45.7778
888.228	45.7778
890.595	50.6667
892.962	49.5556
895.327	53.7778
897.691	54
900.055	52.8889
902.419	48.8889
904.782	47.3333
907.144	45.3333
909.505	47.5556
911.864	46.4444
914.224	46.6667
916.583	42.8889
918.941	45.7778
921.298	46
923.654	46.4444
926.01	43.1111
928.366	47.1111
930.719	44.8889
933.073	42.2222
935.426	45.3333
937.777	44.8889
940.129	44.2222
942.479	43.5556
944.828	41.7778
947.178	44
949.526	43.7778
951.873	43.5556
954.22	43.3333
956.565	43.1111
958.911	47.5556
961.254	44.4444
963.598	45.7778
965.942	44.4444
968.283	44.2222
970.625	45.5556
972.965	45.3333
975.305	44.4444
977.644	43.7778
979.983	46.8889
982.32	44.8889
984.657	49.7778
986.993	48
989.327	52.2222
991.663	56.2222
993.996	64.8889
996.33	99.7778
998.662	148.889
1000.99	152
1003.32	100.222
1005.65	63.7778
1007.98	50.6667
1010.31	46
1012.64	47.1111
1014.97	46
1017.29	43.5556
1019.62	46.2222
1021.94	46.4444
1024.27	48.8889
1026.59	46.6667
1028.91	46.2222
1031.24	44
1033.56	44.6667
1035.88	46.6667
1038.2	45.5556
1040.51	46.2222
1042.83	46
1045.15	41.3333
1047.47	44
1049.78	42
1052.1	46
1054.41	46
1056.73	45.1111
1059.04	43.5556
1061.35	43.7778
1063.66	44.8889
1065.97	44
1068.28	45.1111
1070.59	45.3333
1072.9	44.4444
1075.21	45.3333
1077.52	44.6667
1079.82	45.1111
1082.13	45.1111
1084.43	46.6667
1086.74	44.2222
1089.04	44.8889
1091.34	48.2222
1093.65	45.3333
1095.95	45.1111
1098.25	45.7778
1100.55	40.4444
1102.85	43.1111
1105.14	43.7778
1107.44	45.3333
1109.74	45.7778
1112.03	44.8889
1114.33	45.3333
1116.62	45.3333
1118.92	44.8889
1121.21	44
1123.5	40.6667
1125.79	44
1128.09	41.5556
1130.38	42.4444
1132.67	44.6667
1134.95	44.4444
1137.24	45.7778
1139.53	45.1111
1141.82	44.2222
1144.1	46.4444
1146.39	45.3333
1148.67	46
1150.95	49.5556
1153.24	52.2222
1155.52	53.1111
1157.8	50.8889
1160.08	49.7778
1162.36	48
1164.64	46
1166.92	46.8889
1169.2	47.5556
1171.47	49.7778
1173.75	47.1111
1176.03	47.1111
1178.3	49.5556
1180.58	49.7778
1182.85	50
1185.12	48.8889
1187.39	49.5556
1189.66	49.1111
1191.94	48.4444
1194.21	45.1111
1196.48	45.5556
1198.74	45.1111
1201.01	44
1203.28	47.1111
1205.54	45.1111
1207.81	45.3333
1210.07	45.3333
1212.34	42.6667
1214.6	45.5556
1216.86	45.1111
1219.13	44
1221.39	45.3333
1223.65	44.2222
1225.91	45.1111
1228.17	42.6667
1230.43	46.2222
1232.68	44.8889
1234.94	46
1237.2	47.5556
1239.45	45.5556
1241.71	46.6667
1243.96	44.8889
1246.22	46.2222
1248.47	50.2222
1250.72	46.8889
1252.97	48.4444
1255.22	50.6667
1257.47	51.1111
1259.72	51.7778
1261.97	54
1264.22	53.3333
1266.46	52.4444
1268.71	59.1111
1270.95	59.7778
1273.2	59.3333
1275.44	58.4444
1277.69	56.8889
1279.93	57.7778
1282.17	56.8889
1284.41	55.5556
1286.65	54.8889
1288.89	55.7778
1291.13	59.3333
1293.37	63.1111
1295.61	67.7778
1297.85	74.6667
1300.08	70.4444
1302.32	65.3333
1304.55	59.7778
1306.79	57.5556
1309.02	56.6667
1311.26	56.2222
1313.49	54
1315.72	56.8889
1317.95	54.8889
1320.18	55.5556
1322.41	58.4444
1324.64	58.4444
1326.86	62.8889
1329.09	59.3333
1331.32	56.6667
1333.55	53.7778
1335.77	51.5556
1337.99	50.8889
1340.22	49.5556
1342.44	48
1344.66	49.5556
1346.89	50.6667
1349.11	48.8889
1351.33	50.4444
1353.55	49.5556
1355.77	49.5556
1357.98	49.1111
1360.2	46.8889
1362.42	49.5556
1364.63	44.8889
1366.85	47.7778
1369.06	47.5556
1371.28	47.3333
1373.49	48.2222
1375.7	50.8889
1377.92	48.6667
1380.13	47.3333
1382.34	47.7778
1384.55	48.6667
1386.76	45.3333
1388.97	45.3333
1391.17	48
1393.38	46.2222
1395.59	48.6667
1397.79	48.8889
1400	48.6667
1402.2	47.7778
1404.41	49.3333
1406.61	50.4444
1408.81	50
1411.01	49.1111
1413.21	49.3333
1415.41	49.7778
1417.61	50.6667
1419.81	49.1111
1422.01	46.4444
1424.21	49.5556
1426.4	52.4444
1428.6	48.2222
1430.8	54
1432.99	50.6667
1435.18	52
1437.38	51.5556
1439.57	52
1441.76	54
1443.95	62.6667
1446.14	59.5556
1448.33	64.6667
1450.52	61.3333
1452.71	55.1111
1454.9	58.6667
1457.09	56.4444
1459.27	56.4444
1461.46	57.1111
1463.64	56.2222
1465.83	59.5556
1468.01	56.4444
1470.2	56.2222
1472.38	56.4444
1474.56	51.5556
1476.74	54.2222
1478.92	53.5556
1481.1	52.4444
1483.28	48.4444
1485.46	48.8889
1487.64	50
1489.81	50.2222
1491.99	50.4444
1494.16	49.3333
1496.34	50.2222
1498.51	48.2222
1500.69	52.4444
1502.86	49.1111
1505.03	51.7778
1507.21	50.2222
1509.38	48.6667
1511.55	51.5556
1513.72	48
1515.89	51.1111
1518.05	48.4444
1520.22	50.2222
1522.39	51.1111
1524.55	48.4444
1526.72	50.6667
1528.88	47.5556
1531.05	49.1111
1533.21	50.8889
1535.37	48.6667
1537.54	49.3333
1539.7	51.7778
1541.86	48.2222
1544.02	48.6667
1546.18	49.7778
1548.34	50.4444
1550.5	52.8889
1552.65	50
1554.81	55.5556
1556.97	53.3333
1559.12	54.6667
1561.28	52
1563.43	53.3333
1565.58	57.7778
1567.74	55.1111
1569.89	62.4444
1572.04	74.6667
1574.19	87.7778
1576.34	95.3333
1578.49	100.444
1580.64	86.8889
1582.79	79.3333
1584.94	70
1587.08	66.6667
1589.23	63.5556
1591.37	61.3333
1593.52	60
1595.66	57.3333
1597.81	56.2222
1599.95	54
1602.09	56.8889
1604.23	58
1606.37	59.3333
1608.51	56.6667
1610.65	56.2222
1612.79	57.3333
1614.93	58.4444
1617.07	64
1619.21	62.4444
1621.34	59.1111
1623.48	63.7778
1625.61	67.7778
1627.75	70.4444
1629.88	70.2222
1632.01	76.6667
1634.15	77.7778
1636.28	88.2222
1638.41	91.3333
1640.54	94.2222
1642.67	93.5556
1644.8	98
1646.93	96.2222
1649.05	93.1111
1651.18	88.2222
1653.31	86.2222
1655.43	81.1111
1657.56	80.6667
1659.68	74.8889
1661.81	74.2222
1663.93	71.3333
1666.05	65.7778
1668.17	65.7778
1670.3	64.2222
1672.42	63.1111
1674.54	63.7778
1676.66	58.6667
1678.77	58.4444
1680.89	57.1111
1683.01	55.5556
1685.13	54.8889
1687.24	55.7778
1689.36	54.4444
1691.47	54.8889
1693.59	55.1111
1695.7	55.3333
1697.81	52
1699.92	50.6667
1702.04	53.7778
1704.15	52
1706.26	50.6667
1708.37	52
1710.47	54.4444
1712.58	53.1111
1714.69	53.1111
1716.8	52
1718.9	52.2222
1721.01	51.3333
1723.11	50.2222
1725.22	51.3333
1727.32	53.3333
1729.42	50.2222
1731.53	52
1733.63	52.6667
1735.73	49.5556
1737.83	50
1739.93	52
1742.03	50
1744.13	49.5556
1746.23	48.4444
1748.32	49.5556
1750.42	51.1111
1752.52	48.8889
1754.61	53.1111
1756.71	49.1111
1758.8	50.2222
1760.89	50.4444
1762.99	49.3333
1765.08	49.3333
1767.17	50.6667
1769.26	50.4444
1771.35	49.7778
1773.44	50
1775.53	51.3333
1777.62	50.4444
1779.71	46.2222
1781.79	49.7778
1783.88	50.8889
1785.96	48.2222
1788.05	47.3333
1790.13	49.7778
1792.22	46
1794.3	48.4444
1796.38	50
1798.47	50.2222
1800.55	50.2222
1802.63	50
1804.71	50.8889
1806.79	50.4444
1808.87	48.6667
1810.95	48
1813.02	51.1111
1815.1	48.4444
1817.18	48.6667
1819.25	47.7778
1821.33	51.3333
1823.4	47.3333
1825.47	49.3333
1827.55	50.2222
1829.62	48.2222
1831.69	52.4444
1833.76	49.5556
1835.83	47.5556
1837.9	48.8889
1839.97	48.2222
1842.04	49.5556
1844.11	49.7778
1846.18	51.5556
1848.24	51.7778
1850.31	48.6667
1852.38	48.4444
1854.44	46.8889
1856.51	49.5556
1858.57	50.2222
1860.63	48.4444
1862.69	47.7778
1864.76	50.8889
1866.82	50.6667
1868.88	48
1870.94	49.1111
1873	50.6667
1875.06	48.6667
1877.11	48
1879.17	49.3333
1881.23	47.5556
1883.28	50
1885.34	48.8889
1887.4	49.3333
1889.45	51.3333
1891.5	50.6667
1893.56	48.8889
1895.61	49.7778
1897.66	48.2222
1899.71	46.8889
1901.76	48.2222
1903.81	51.1111
1905.86	51.1111
1907.91	51.1111
1909.96	47.5556
1912.01	49.5556
1914.05	48.6667
1916.1	49.3333
1918.15	49.3333
1920.19	48.2222
1922.23	50.4444
1924.28	46.8889
1926.32	50.2222
1928.36	49.1111
1930.41	48
1932.45	49.7778
1934.49	48.6667
1936.53	50.6667
1938.57	48.4444
1940.61	49.1111
1942.64	51.5556
1944.68	49.5556
1946.72	48.8889
1948.76	49.5556
1950.79	49.7778
1952.83	48
1954.86	48.4444
1956.89	50.2222
1958.93	46.4444
1960.96	50.6667
1962.99	52.4444
1965.03	50.8889
1967.06	47.7778
1969.09	46.2222
1971.12	47.7778
1973.14	49.3333
1975.17	48
1977.2	48
1979.23	49.5556
1981.25	48.2222
1983.28	49.1111
1985.31	46
1987.33	49.3333
1989.36	49.5556
1991.38	48.4444
1993.4	47.1111
1995.42	48.8889
1997.45	47.7778
1999.47	50.4444
2001.49	48.4444
2003.51	49.5556
2005.53	48
2007.55	50
2009.56	50.4444
2011.58	48.6667
2013.6	48.4444
2015.61	48.2222
2017.63	47.7778
2019.65	51.5556
2021.66	47.3333
2023.67	48.8889
2025.69	50.2222
2027.7	50.4444
2029.71	49.7778
2031.72	53.1111
2033.73	50.6667
2035.74	49.7778
2037.75	48.2222
2039.76	48.6667
2041.77	51.1111
2043.78	50
2045.79	49.1111
2047.79	51.3333
2049.8	50.8889
2051.8	48.2222
2053.81	52.8889
2055.81	48.6667
2057.82	49.7778
2059.82	49.1111
2061.82	47.5556
2063.82	52.4444
2065.83	47.7778
2067.83	50
2069.83	50
2071.83	50.2222
2073.82	51.5556
2075.82	50.4444
2077.82	50.2222
2079.82	51.5556
2081.81	50.6667
2083.81	51.5556
2085.8	48
2087.8	48.8889
2089.79	51.3333
2091.79	51.5556
2093.78	48.2222
2095.77	51.3333
2097.76	48.4444
2099.76	50.6667
2101.75	48.2222
2103.74	46
2105.72	49.3333
2107.71	52
2109.7	50.2222
2111.69	52.4444
2113.68	48.8889
2115.66	51.1111
2117.65	52
2119.63	51.7778
2121.62	51.7778
2123.6	51.3333
2125.59	48.8889
2127.57	49.7778
2129.55	51.5556
2131.53	50.6667
2133.51	49.7778
2135.49	52.2222
2137.47	50.6667
2139.45	50.6667
2141.43	51.1111
2143.41	49.3333
2145.39	48.8889
2147.36	51.5556
2149.34	53.1111
2151.32	49.1111
2153.29	50.4444
2155.27	50.8889
2157.24	49.5556
2159.21	48.6667
2161.19	51.7778
2163.16	50.2222
2165.13	49.1111
2167.1	50
2169.07	48.8889
2171.04	50.6667
2173.01	50.8889
2174.98	49.5556
2176.95	50.4444
2178.92	51.1111
2180.88	49.1111
2182.85	51.7778
2184.81	51.5556
2186.78	49.5556
2188.74	50
2190.71	49.1111
2192.67	51.3333
2194.63	51.5556
2196.6	52.4444
2198.56	51.7778
2200.52	49.5556
2202.48	52.8889
2204.44	48
2206.4	49.5556
2208.36	50.8889
2210.32	48.2222
2212.28	50.4444
2214.23	50.6667
2216.19	49.5556
2218.14	51.3333
2220.1	53.1111
2222.05	52.2222
2224.01	52.4444
2225.96	49.1111
2227.91	50.6667
2229.87	51.5556
2231.82	49.7778
2233.77	50.6667
2235.72	50.4444
2237.67	50.6667
2239.62	50.2222
2241.57	50.6667
2243.52	48.8889
2245.47	55.5556
2247.41	47.7778
2249.36	50.6667
2251.31	52.2222
2253.25	51.1111
2255.2	53.5556
2257.14	50
2259.09	51.7778
2261.03	52.4444
2262.97	52.2222
2264.91	51.5556
2266.85	48.8889
2268.8	51.1111
2270.74	51.3333
2272.68	50.4444
2274.61	52
2276.55	49.5556
2278.49	48.8889
2280.43	52.2222
2282.37	50.8889
2284.3	53.5556
2286.24	52.6667
2288.17	51.3333
2290.11	51.7778
2292.04	50.8889
2293.98	49.3333
2295.91	54.4444
2297.84	53.3333
2299.77	54
2301.7	50
2303.64	49.7778
2305.56	49.3333
2307.49	49.7778
2309.42	52.2222
2311.35	51.7778
2313.28	51.5556
2315.21	50.8889
2317.13	51.7778
2319.06	50.2222
2320.99	53.3333
2322.91	51.1111
2324.84	52.6667
2326.76	52.2222
2328.68	52.2222
2330.6	54.4444
2332.53	53.1111
2334.45	52
2336.37	52.6667
2338.29	51.3333
2340.21	50
2342.13	52.4444
2344.05	53.1111
2345.97	49.7778
2347.89	51.7778
2349.8	54
2351.72	51.3333
2353.63	49.5556
2355.55	52.2222
2357.47	51.7778
2359.38	51.3333
2361.29	53.3333
2363.21	52.8889
2365.12	51.1111
2367.03	50.8889
2368.94	51.5556
2370.85	50.8889
2372.76	49.1111
2374.67	51.3333
2376.58	52.2222
2378.49	50.6667
2380.4	52.4444
2382.31	52.4444
2384.21	51.1111
2386.12	49.5556
2388.03	52.4444
2389.93	52.2222
2391.84	52.2222
2393.74	50.8889
2395.64	54
2397.55	51.1111
2399.45	51.7778
2401.35	52.8889
2403.25	51.5556
2405.15	52
2407.05	52.2222
2408.95	49.7778
2410.85	51.3333
2412.75	52.8889
2414.65	51.3333
2416.55	53.1111
2418.45	53.3333
2420.34	51.7778
2422.24	52.8889
2424.13	52.4444
2426.03	51.7778
2427.92	51.7778
2429.82	51.7778
2431.71	52.8889
2433.6	50.4444
2435.49	54.8889
2437.39	50.4444
2439.28	56
2441.17	52.4444
2443.06	54.4444
2444.95	54.6667
2446.83	53.7778
2448.72	55.3333
2450.61	51.5556
2452.5	52
2454.39	53.5556
