188.706	67.5556
191.305	75.3333
193.902	85.3333
196.499	87.7778
199.096	96
201.69	114
204.284	121.556
206.877	108
209.47	91.3333
212.062	77.5556
214.652	64.4445
217.242	61.3333
219.83	59.5556
222.419	61.7778
225.005	60.4444
227.592	54.6667
230.177	51.3333
232.762	50.6667
235.345	52.6667
237.928	48.2222
240.509	51.7778
243.09	48.4444
245.671	47.1111
248.249	45.5556
250.829	49.3333
253.405	49.5556
255.983	47.3333
258.558	49.5556
261.132	46.4444
263.707	46.4444
266.28	49.7778
268.852	49.5556
271.424	48.2222
273.994	50
276.564	49.3333
279.133	48.6667
281.701	46.6667
284.268	48.8889
286.835	51.5556
289.4	48
291.964	49.3333
294.527	48
297.091	51.3333
299.653	48.6667
302.214	48
304.774	46
307.334	45.5556
309.892	44.4444
312.45	47.5556
315.006	44.4444
317.562	49.3333
320.118	48.8889
322.672	46.8889
325.225	47.7778
327.778	50
330.329	49.3333
332.88	47.7778
335.43	46.8889
337.978	45.1111
340.528	47.3333
343.075	47.1111
345.622	46.8889
348.167	49.5556
350.712	48.8889
353.256	46
355.799	48.2222
358.341	50.4444
360.883	50
363.423	48.6667
365.963	47.5556
368.502	50.2222
371.04	50.2222
373.577	51.1111
376.114	50.4444
378.649	52
381.184	53.7778
383.718	53.7778
386.251	55.1111
388.783	56
391.314	57.5556
393.844	58
396.373	58.8889
398.902	64.4444
401.43	61.3333
403.957	57.3333
406.484	52.6667
409.009	56
411.534	51.5556
414.057	50.4444
416.58	50.8889
419.102	49.7778
421.624	52.6667
424.144	55.1111
426.663	52.8889
429.181	54
431.7	54.2222
434.217	48.4444
436.732	51.5556
439.248	49.1111
441.763	47.5556
444.277	46.6667
446.788	46.8889
449.301	46.2222
451.812	45.1111
454.322	45.7778
456.831	42.4444
459.341	46.8889
461.847	44
464.355	44
466.861	45.7778
469.366	43.7778
471.871	42.8889
474.374	45.3333
476.877	47.1111
479.378	45.1111
481.88	47.3333
484.381	48.2222
486.879	49.3333
489.379	50.2222
491.876	49.7778
494.373	47.7778
496.869	48.8889
499.365	46.4444
501.858	45.5556
504.353	46.2222
506.845	44.6667
509.338	44.2222
511.828	44.4444
514.319	45.1111
516.808	46.4444
519.296	43.7778
521.785	45.3333
524.272	45.1111
526.759	45.7778
529.244	44.6667
531.728	44.6667
534.212	44.2222
536.695	44.8889
539.178	45.1111
541.659	46.2222
544.139	43.1111
546.619	44.4444
549.098	44.6667
551.575	44.4444
554.052	43.5556
556.529	46.4444
559.005	44
561.479	44.4444
563.953	44.8889
566.427	45.7778
568.899	44.2222
571.37	44.6667
573.84	45.1111
576.311	42.8889
578.78	45.1111
581.248	45.1111
583.715	45.5556
586.181	43.1111
588.647	44.2222
591.113	44.8889
593.577	44.8889
596.04	43.7778
598.503	44.4444
600.964	44
603.425	45.5556
605.885	43.7778
608.344	44.2222
610.803	40.8889
613.26	43.7778
615.718	45.5556
618.174	44.2222
620.63	45.1111
623.084	43.7778
625.538	41.3333
627.99	44.8889
630.443	44.2222
632.894	44.8889
635.344	41.5556
637.792	42.8889
640.241	46.4444
642.689	47.3333
645.137	56.2222
647.583	73.7778
650.029	73.7778
652.474	60.2222
654.918	46.6667
657.361	44
659.804	45.3333
662.246	44
664.685	43.1111
667.125	43.1111
669.565	42.8889
672.003	43.5556
674.441	45.1111
676.877	42.4444
679.313	43.7778
681.749	44.4444
684.183	42.8889
686.617	44.6667
689.049	42.6667
691.481	44.8889
693.913	46.6667
696.342	44.8889
698.772	46.8889
701.201	47.3333
703.63	47.3333
706.056	44.4444
708.483	43.7778
710.909	45.5556
713.333	43.1111
715.758	43.3333
718.18	43.3333
720.603	42.8889
723.025	44.8889
725.445	43.3333
727.866	44.6667
730.284	42.8889
732.703	44
735.122	45.3333
737.538	45.5556
739.955	44.8889
742.369	45.5556
744.784	44.2222
747.197	48.4444
749.611	47.3333
752.023	50.2222
754.435	55.1111
756.845	69.1111
759.255	97.5556
761.664	136
764.071	136.222
766.48	94.8889
768.886	64.6667
771.292	50.6667
773.697	49.5556
776.102	47.1111
778.505	46.6667
780.907	48.4444
783.31	46.6667
785.711	46.4444
788.111	45.7778
790.511	46.2222
792.91	45.7778
795.308	45.3333
797.706	47.3333
800.102	52
802.497	51.3333
804.892	54.2222
807.287	50.2222
809.68	46.6667
812.072	45.5556
814.464	45.1111
816.855	43.5556
819.246	44.8889
821.635	48.4444
824.024	44.2222
826.412	45.3333
828.799	45.7778
831.186	46.4444
833.572	44.4444
835.956	45.5556
838.34	40.2222
840.723	46.2222
843.106	45.7778
845.487	44.2222
847.868	47.5556
850.248	46.8889
852.628	51.7778
855.006	56.6667
857.384	58.8889
859.761	50.6667
862.138	49.7778
864.513	46.6667
866.888	43.3333
869.262	45.3333
871.636	43.7778
874.008	46.2222
876.38	46
878.751	46
881.121	46.4444
883.491	47.7778
885.86	48.2222
888.228	48
890.595	50.2222
892.962	47.7778
895.327	52.6667
897.691	50.6667
900.055	50
902.419	46.8889
904.782	48
907.144	46
909.505	45.3333
911.864	43.7778
914.224	46.2222
916.583	43.1111
918.941	43.3333
921.298	42.4444
923.654	41.7778
926.01	41.7778
928.366	44.8889
930.719	44.2222
933.073	43.5556
935.426	43.5556
937.777	43.3333
940.129	44
942.479	43.7778
944.828	41.5556
947.178	47.3333
949.526	44.6667
951.873	43.1111
954.22	44.8889
956.565	43.5556
958.911	42.2222
961.254	45.3333
963.598	45.1111
965.942	42.2222
968.283	42
970.625	42.8889
972.965	43.3333
975.305	42.6667
977.644	44.2222
979.983	42.8889
982.32	46
984.657	47.5556
986.993	50.2222
989.327	50
991.663	55.1111
993.996	62.2222
996.33	102
998.662	164.444
1000.99	158
1003.32	104.667
1005.65	64.8889
1007.98	52.2222
1010.31	46.2222
1012.64	45.7778
1014.97	44.2222
1017.29	45.5556
1019.62	46.2222
1021.94	44.8889
1024.27	43.7778
1026.59	45.1111
1028.91	46
1031.24	42.2222
1033.56	45.3333
1035.88	40.2222
1038.2	46
1040.51	45.7778
1042.83	43.3333
1045.15	42.6667
1047.47	43.3333
1049.78	44
1052.1	44
1054.41	42
1056.73	44.2222
1059.04	43.1111
1061.35	43.1111
1063.66	40.6667
1065.97	42.8889
1068.28	45.1111
1070.59	44
1072.9	42.8889
1075.21	44
1077.52	44.8889
1079.82	44.4444
1082.13	44.4444
1084.43	45.1111
1086.74	44.6667
1089.04	40.8889
1091.34	42
1093.65	42.6667
1095.95	41.3333
1098.25	43.3333
1100.55	40.4444
1102.85	44.6667
1105.14	44.4444
1107.44	43.1111
1109.74	43.1111
1112.03	43.3333
1114.33	43.7778
1116.62	42.2222
1118.92	42.2222
1121.21	43.1111
1123.5	43.7778
1125.79	42.8889
1128.09	44
1130.38	43.1111
1132.67	43.1111
1134.95	43.5556
1137.24	43.5556
1139.53	42.4444
1141.82	41.3333
1144.1	42.8889
1146.39	44.2222
1148.67	46.2222
1150.95	49.1111
1153.24	50.6667
1155.52	55.1111
1157.8	52.2222
1160.08	50.8889
1162.36	47.3333
1164.64	45.1111
1166.92	48
1169.2	45.7778
1171.47	47.7778
1173.75	46.4444
1176.03	48.6667
1178.3	46.8889
1180.58	50.6667
1182.85	49.1111
1185.12	49.3333
1187.39	46.6667
1189.66	47.1111
1191.94	44.2222
1194.21	44.2222
1196.48	44.2222
1198.74	44.4444
1201.01	44.4444
1203.28	41.7778
1205.54	43.1111
1207.81	42.8889
1210.07	46.2222
1212.34	43.7778
1214.6	43.1111
1216.86	47.3333
1219.13	43.5556
1221.39	44.2222
1223.65	47.5556
1225.91	43.5556
1228.17	46.8889
1230.43	45.1111
1232.68	43.7778
1234.94	46.4444
1237.2	41.1111
1239.45	44.4444
1241.71	43.5556
1243.96	45.1111
1246.22	46
1248.47	44.2222
1250.72	45.1111
1252.97	49.7778
1255.22	49.5556
1257.47	50
1259.72	54.4444
1261.97	53.7778
1264.22	54.2222
1266.46	54.4444
1268.71	59.5556
1270.95	59.1111
1273.2	61.7778
1275.44	57.5556
1277.69	61.7778
1279.93	59.1111
1282.17	56.4444
1284.41	52.4444
1286.65	54.2222
1288.89	54.6667
1291.13	60.2222
1293.37	62.4444
1295.61	66.8889
1297.85	72.8889
1300.08	70.6667
1302.32	66.8889
1304.55	60.4444
1306.79	57.5556
1309.02	53.1111
1311.26	55.1111
1313.49	49.1111
1315.72	51.5556
1317.95	55.5556
1320.18	56.2222
1322.41	56.4444
1324.64	60
1326.86	62.2222
1329.09	61.7778
1331.32	59.1111
1333.55	55.1111
1335.77	48.6667
1337.99	53.1111
1340.22	48
1342.44	49.1111
1344.66	47.1111
1346.89	44.4444
1349.11	48.8889
1351.33	45.5556
1353.55	47.3333
1355.77	44.6667
1357.98	45.7778
1360.2	47.3333
1362.42	46.8889
1364.63	46.6667
1366.85	46.4444
1369.06	44.8889
1371.28	46
1373.49	49.1111
1375.7	48.2222
1377.92	46.2222
1380.13	46.2222
1382.34	47.7778
1384.55	49.1111
1386.76	46
1388.97	48.2222
1391.17	47.5556
1393.38	47.7778
1395.59	47.7778
1397.79	47.3333
1400	45.5556
1402.2	45.5556
1404.41	49.1111
1406.61	48
1408.81	47.3333
1411.01	49.1111
1413.21	45.7778
1415.41	48
1417.61	47.7778
1419.81	49.7778
1422.01	49.5556
1424.21	48.2222
1426.4	53.1111
1428.6	50.6667
1430.8	52.4444
1432.99	53.7778
1435.18	54.2222
1437.38	52.6667
1439.57	53.7778
1441.76	54.6667
1443.95	59.3333
1446.14	63.5556
1448.33	62.2222
1450.52	59.5556
1452.71	56.8889
1454.9	56.4444
1457.09	55.7778
1459.27	57.5556
1461.46	58.2222
1463.64	57.7778
1465.83	57.7778
1468.01	58.6667
1470.2	55.7778
1472.38	55.1111
1474.56	52.6667
1476.74	50.8889
1478.92	51.5556
1481.1	50.2222
1483.28	50.8889
1485.46	50.4444
1487.64	50.4444
1489.81	48.6667
1491.99	47.5556
1494.16	47.5556
1496.34	51.3333
1498.51	50.4444
1500.69	49.1111
1502.86	46.8889
1505.03	47.7778
1507.21	48.6667
1509.38	49.3333
1511.55	48.4444
1513.72	47.5556
1515.89	47.3333
1518.05	46.6667
1520.22	47.7778
1522.39	50
1524.55	46.4444
1526.72	46
1528.88	47.7778
1531.05	48.6667
1533.21	49.5556
1535.37	45.5556
1537.54	47.7778
1539.7	48.2222
1541.86	51.5556
1544.02	50.6667
1546.18	49.7778
1548.34	48.2222
1550.5	48.2222
1552.65	50.8889
1554.81	51.7778
1556.97	50.2222
1559.12	51.7778
1561.28	51.1111
1563.43	53.5556
1565.58	54.6667
1567.74	55.5556
1569.89	65.1111
1572.04	75.5556
1574.19	90.4444
1576.34	106.444
1578.49	103.778
1580.64	89.1111
1582.79	76.4444
1584.94	68.2222
1587.08	64.8889
1589.23	58.6667
1591.37	62.2222
1593.52	61.1111
1595.66	56.8889
1597.81	56.4444
1599.95	59.1111
1602.09	56.6667
1604.23	54.2222
1606.37	54
1608.51	55.7778
1610.65	57.5556
1612.79	58.2222
1614.93	57.5556
1617.07	58.2222
1619.21	58.6667
1621.34	65.1111
1623.48	62.4444
1625.61	65.5556
1627.75	68.2222
1629.88	72.2222
1632.01	77.5556
1634.15	82.6667
1636.28	87.3333
1638.41	91.1111
1640.54	96
1642.67	97.3333
1644.8	100.889
1646.93	100.667
1649.05	91.5556
1651.18	94.6667
1653.31	87.3333
1655.43	82.6667
1657.56	83.1111
1659.68	74.4444
1661.81	76.6667
1663.93	75.1111
1666.05	66.4444
1668.17	64.6667
1670.3	63.3333
1672.42	62.6667
1674.54	60.8889
1676.66	60
1678.77	60.6667
1680.89	56.2222
1683.01	54.8889
1685.13	56
1687.24	51.3333
1689.36	55.3333
1691.47	54
1693.59	54.2222
1695.7	54.8889
1697.81	51.5556
1699.92	52
1702.04	51.1111
1704.15	52
1706.26	53.5556
1708.37	53.5556
1710.47	53.1111
1712.58	51.3333
1714.69	52.8889
1716.8	52.6667
1718.9	51.1111
1721.01	49.3333
1723.11	50.2222
1725.22	48.8889
1727.32	50.6667
1729.42	49.1111
1731.53	48.2222
1733.63	49.5556
1735.73	48.6667
1737.83	49.5556
1739.93	48
1742.03	50.6667
1744.13	46
1746.23	48.8889
1748.32	47.7778
1750.42	48.4444
1752.52	49.7778
1754.61	48
1756.71	48.6667
1758.8	50
1760.89	48.8889
1762.99	46.4444
1765.08	48.2222
1767.17	47.7778
1769.26	50.8889
1771.35	48.4444
1773.44	48
1775.53	47.7778
1777.62	49.1111
1779.71	50.8889
1781.79	48.4444
1783.88	49.5556
1785.96	48.6667
1788.05	48
1790.13	50.2222
1792.22	48
1794.3	48.4444
1796.38	49.7778
1798.47	48.4444
1800.55	48
1802.63	47.7778
1804.71	45.3333
1806.79	50.4444
1808.87	49.3333
1810.95	50.2222
1813.02	49.7778
1815.1	48.2222
1817.18	49.1111
1819.25	48.2222
1821.33	49.5556
1823.4	46.6667
1825.47	48
1827.55	48.4444
1829.62	48.2222
1831.69	49.3333
1833.76	48.6667
1835.83	47.5556
1837.9	49.5556
1839.97	43.7778
1842.04	46.8889
1844.11	49.7778
1846.18	49.5556
1848.24	48.6667
1850.31	49.7778
1852.38	48
1854.44	47.7778
1856.51	47.7778
1858.57	46.2222
1860.63	46.8889
1862.69	44.4444
1864.76	49.5556
1866.82	47.5556
1868.88	47.1111
1870.94	50.2222
1873	46.6667
1875.06	47.3333
1877.11	47.5556
1879.17	48.8889
1881.23	50
1883.28	46.2222
1885.34	49.3333
1887.4	47.7778
1889.45	48.2222
1891.5	47.5556
1893.56	46.6667
1895.61	46.8889
1897.66	47.3333
1899.71	51.1111
1901.76	45.1111
1903.81	48.8889
1905.86	47.1111
1907.91	47.3333
1909.96	49.1111
1912.01	49.5556
1914.05	49.5556
1916.1	50.4444
1918.15	45.7778
1920.19	48.6667
1922.23	47.3333
1924.28	46.6667
1926.32	48.6667
1928.36	46.4444
1930.41	48.6667
1932.45	49.1111
1934.49	48.8889
1936.53	46.2222
1938.57	47.3333
1940.61	51.1111
1942.64	46.2222
1944.68	48.6667
1946.72	48.2222
1948.76	49.5556
1950.79	47.3333
1952.83	49.5556
1954.86	47.7778
1956.89	51.1111
1958.93	49.7778
1960.96	48.4444
1962.99	48.4444
1965.03	47.3333
1967.06	45.5556
1969.09	46.8889
1971.12	47.7778
1973.14	48
1975.17	48.6667
1977.2	46.2222
1979.23	52
1981.25	47.5556
1983.28	47.5556
1985.31	47.5556
1987.33	50.2222
1989.36	49.1111
1991.38	46.6667
1993.4	50.8889
1995.42	46.8889
1997.45	50.2222
1999.47	47.7778
2001.49	50
2003.51	46.4444
2005.53	48.6667
2007.55	48
2009.56	49.1111
2011.58	46.8889
2013.6	47.7778
2015.61	49.1111
2017.63	48.8889
2019.65	49.3333
2021.66	49.1111
2023.67	50
2025.69	50.6667
2027.7	46.2222
2029.71	48
2031.72	48.4444
2033.73	48.8889
2035.74	49.7778
2037.75	48.8889
2039.76	47.3333
2041.77	48.2222
2043.78	48.6667
2045.79	45.5556
2047.79	48
2049.8	49.5556
2051.8	48.2222
2053.81	52
2055.81	48
2057.82	48.2222
2059.82	47.5556
2061.82	48.2222
2063.82	49.7778
2065.83	49.7778
2067.83	47.3333
2069.83	48.8889
2071.83	47.7778
2073.82	50
2075.82	47.5556
2077.82	47.7778
2079.82	49.7778
2081.81	47.1111
2083.81	48.8889
2085.8	49.3333
2087.8	48.2222
2089.79	48.4444
2091.79	49.1111
2093.78	49.7778
2095.77	48
2097.76	49.5556
2099.76	49.7778
2101.75	48.4444
2103.74	47.5556
2105.72	48.8889
2107.71	46.4444
2109.7	51.1111
2111.69	51.1111
2113.68	47.3333
2115.66	50.6667
2117.65	49.5556
2119.63	50.4444
2121.62	50.6667
2123.6	49.3333
2125.59	49.5556
2127.57	50
2129.55	48.8889
2131.53	51.5556
2133.51	48.6667
2135.49	50.2222
2137.47	50.6667
2139.45	49.3333
2141.43	48.4444
2143.41	49.7778
2145.39	50.4444
2147.36	50.4444
2149.34	52
2151.32	48.8889
2153.29	50.2222
2155.27	47.7778
2157.24	48.8889
2159.21	50.8889
2161.19	49.3333
2163.16	47.3333
2165.13	48.8889
2167.1	50
2169.07	47.5556
2171.04	48.8889
2173.01	50.6667
2174.98	51.3333
2176.95	49.3333
2178.92	47.5556
2180.88	52
2182.85	52.6667
2184.81	50
2186.78	49.1111
2188.74	50.4444
2190.71	50.6667
2192.67	51.5556
2194.63	49.5556
2196.6	50.8889
2198.56	49.3333
2200.52	49.7778
2202.48	48.6667
2204.44	50.6667
2206.4	51.3333
2208.36	48
2210.32	49.5556
2212.28	48.6667
2214.23	46.6667
2216.19	47.5556
2218.14	49.7778
2220.1	49.1111
2222.05	50
2224.01	50
2225.96	51.5556
2227.91	52
2229.87	49.3333
2231.82	49.1111
2233.77	48.2222
2235.72	48.8889
2237.67	53.1111
2239.62	53.1111
2241.57	47.7778
2243.52	50
2245.47	50.6667
2247.41	48.8889
2249.36	50.4444
2251.31	52.2222
2253.25	48
2255.2	48
2257.14	48.8889
2259.09	51.7778
2261.03	49.7778
2262.97	52
2264.91	49.7778
2266.85	52.8889
2268.8	51.7778
2270.74	48.4444
2272.68	50.8889
2274.61	51.1111
2276.55	51.3333
2278.49	50.2222
2280.43	51.3333
2282.37	51.7778
2284.3	52
2286.24	49.3333
2288.17	49.5556
2290.11	52.4444
2292.04	47.3333
2293.98	48.6667
2295.91	51.5556
2297.84	51.1111
2299.77	49.5556
2301.7	50.8889
2303.64	52.6667
2305.56	49.1111
2307.49	50.2222
2309.42	48.8889
2311.35	50.6667
2313.28	48.8889
2315.21	51.3333
2317.13	49.7778
2319.06	51.1111
2320.99	49.7778
2322.91	50.8889
2324.84	51.3333
2326.76	51.5556
2328.68	53.7778
2330.6	52.8889
2332.53	52.2222
2334.45	51.5556
2336.37	48.6667
2338.29	49.5556
2340.21	47.5556
2342.13	50
2344.05	50.2222
2345.97	50.6667
2347.89	53.3333
2349.8	50.8889
2351.72	50.8889
2353.63	54.8889
2355.55	53.3333
2357.47	52.6667
2359.38	50.6667
2361.29	52.4444
2363.21	50.2222
2365.12	51.1111
2367.03	53.3333
2368.94	49.1111
2370.85	51.1111
2372.76	52.2222
2374.67	49.5556
2376.58	52.4444
2378.49	49.5556
2380.4	54
2382.31	52.8889
2384.21	47.3333
2386.12	52.4444
2388.03	48.6667
2389.93	50
2391.84	49.1111
2393.74	51.7778
2395.64	51.3333
2397.55	52.2222
2399.45	53.1111
2401.35	54
2403.25	49.3333
2405.15	50.6667
2407.05	54.4444
2408.95	54.8889
2410.85	50.4444
2412.75	51.5556
2414.65	49.1111
2416.55	51.7778
2418.45	52
2420.34	52
2422.24	50.2222
2424.13	52.4444
2426.03	51.7778
2427.92	52.6667
2429.82	52.4444
2431.71	53.7778
2433.6	52.2222
2435.49	53.5556
2437.39	52.2222
2439.28	50.6667
2441.17	50.4444
2443.06	52.6667
2444.95	52
2446.83	50.6667
2448.72	51.7778
2450.61	52.6667
2452.5	51.3333
2454.39	51.7778
