188.706	70.2222
191.305	80.8889
193.902	82.4444
196.499	85.7778
199.096	94
201.69	108
204.284	119.111
206.877	106.444
209.47	87.7778
212.062	69.5556
214.652	65.7778
217.242	61.1111
219.83	60.6667
222.419	62.4444
225.005	54.8889
227.592	57.1111
230.177	51.3333
232.762	52.2222
235.345	53.1111
237.928	51.3333
240.509	50.6667
243.09	48.8889
245.671	50.2222
248.249	49.7778
250.829	49.3333
253.405	48.2222
255.983	50.2222
258.558	48.2222
261.132	51.1111
263.707	47.3333
266.28	48.2222
268.852	50.6667
271.424	48.8889
273.994	49.7778
276.564	49.1111
279.133	48.4444
281.701	49.5556
284.268	50
286.835	48.4444
289.4	49.3333
291.964	48.6667
294.527	49.3333
297.091	49.3333
299.653	52.2222
302.214	47.3333
304.774	50
307.334	47.7778
309.892	47.3333
312.45	49.3333
315.006	49.3333
317.562	49.1111
320.118	50.2222
322.672	45.3333
325.225	46.6667
327.778	46.4444
330.329	49.3333
332.88	48.4444
335.43	46.6667
337.978	49.5556
340.528	46
343.075	48.8889
345.622	48.4444
348.167	47.7778
350.712	48.8889
353.256	47.5556
355.799	49.1111
358.341	49.3333
360.883	49.1111
363.423	50.4444
365.963	51.5556
368.502	48.2222
371.04	50.6667
373.577	49.3333
376.114	53.1111
378.649	50.2222
381.184	51.1111
383.718	53.3333
386.251	53.5556
388.783	55.7778
391.314	59.3333
393.844	57.1111
396.373	62
398.902	58.6667
401.43	60.6667
403.957	57.3333
406.484	55.3333
409.009	53.5556
411.534	50.2222
414.057	50
416.58	53.1111
419.102	54.6667
421.624	52.4444
424.144	53.3333
426.663	52.8889
429.181	53.5556
431.7	52.6667
434.217	53.1111
436.732	51.1111
439.248	46.8889
441.763	46.8889
444.277	47.7778
446.788	47.5556
449.301	47.7778
451.812	46.4444
454.322	47.3333
456.831	48
459.341	46
461.847	45.5556
464.355	47.3333
466.861	47.1111
469.366	45.7778
471.871	47.5556
474.374	48
476.877	46.8889
479.378	46.8889
481.88	49.1111
484.381	51.5556
486.879	49.1111
489.379	49.3333
491.876	50
494.373	44.6667
496.869	48.4444
499.365	48.2222
501.858	46.4444
504.353	46.2222
506.845	47.7778
509.338	46.6667
511.828	46.4444
514.319	40.8889
516.808	43.1111
519.296	45.3333
521.785	43.7778
524.272	46.6667
526.759	46.2222
529.244	46
531.728	44.2222
534.212	47.1111
536.695	47.7778
539.178	45.3333
541.659	46.4444
544.139	46.2222
546.619	47.7778
549.098	45.1111
551.575	46.8889
554.052	45.3333
556.529	44.2222
559.005	46.4444
561.479	46.8889
563.953	44.8889
566.427	44.6667
568.899	49.1111
571.37	45.1111
573.84	48.4444
576.311	45.1111
578.78	47.5556
581.248	46.8889
583.715	44.6667
586.181	46.8889
588.647	44
591.113	44.4444
593.577	46.2222
596.04	45.3333
598.503	48
600.964	42.8889
603.425	41.7778
605.885	44.8889
608.344	46.8889
610.803	44.6667
613.26	44.4444
615.718	46.2222
618.174	46.8889
620.63	44.6667
623.084	45.5556
625.538	46.6667
627.99	48
630.443	44
632.894	45.7778
635.344	45.7778
637.792	48.4444
640.241	45.7778
642.689	48.2222
645.137	56.4444
647.583	68.8889
650.029	69.3333
652.474	56
654.918	48.8889
657.361	45.5556
659.804	44
662.246	45.7778
664.685	45.1111
667.125	44.6667
669.565	46
672.003	47.7778
674.441	44.8889
676.877	42.4444
679.313	47.1111
681.749	44.2222
684.183	47.1111
686.617	48.8889
689.049	47.1111
691.481	46
693.913	44
696.342	48.6667
698.772	48.2222
701.201	47.5556
703.63	44
706.056	45.5556
708.483	46
710.909	45.5556
713.333	45.7778
715.758	44
718.18	46.8889
720.603	45.5556
723.025	47.5556
725.445	44.4444
727.866	45.3333
730.284	47.1111
732.703	48
735.122	46
737.538	46.4444
739.955	46.6667
742.369	46
744.784	47.1111
747.197	48.8889
749.611	48.6667
752.023	49.3333
754.435	55.1111
756.845	63.3333
759.255	92.6667
761.664	123.556
764.071	123.778
766.48	88
768.886	63.1111
771.292	53.5556
773.697	50.4444
776.102	49.1111
778.505	47.5556
780.907	46
783.31	47.3333
785.711	42.4444
788.111	44.8889
790.511	48
792.91	47.1111
795.308	47.1111
797.706	46.4444
800.102	52.4444
802.497	52.4444
804.892	52.4444
807.287	50.2222
809.68	47.1111
812.072	47.5556
814.464	48.4444
816.855	47.5556
819.246	45.7778
821.635	45.3333
824.024	46
826.412	48
828.799	46.4444
831.186	46.4444
833.572	44.8889
835.956	46
838.34	46.8889
840.723	45.3333
843.106	47.5556
845.487	45.1111
847.868	48.8889
850.248	49.5556
852.628	53.5556
855.006	58
857.384	57.1111
859.761	54.2222
862.138	51.1111
864.513	49.3333
866.888	45.1111
869.262	47.1111
871.636	48
874.008	46.6667
876.38	45.7778
878.751	47.1111
881.121	47.3333
883.491	46.8889
885.86	46.4444
888.228	47.7778
890.595	47.3333
892.962	52.4444
895.327	52.6667
897.691	51.7778
900.055	52
902.419	46.6667
904.782	46.8889
907.144	45.5556
909.505	44
911.864	46.8889
914.224	46.8889
916.583	44.6667
918.941	44.4444
921.298	45.5556
923.654	45.3333
926.01	45.7778
928.366	44.4444
930.719	43.5556
933.073	45.5556
935.426	44.8889
937.777	43.5556
940.129	44.4444
942.479	46.6667
944.828	42.4444
947.178	44
949.526	44
951.873	44.8889
954.22	43.3333
956.565	44.6667
958.911	44.6667
961.254	46.6667
963.598	45.1111
965.942	43.1111
968.283	44.8889
970.625	44
972.965	46.2222
975.305	47.1111
977.644	45.1111
979.983	45.1111
982.32	47.3333
984.657	47.5556
986.993	49.3333
989.327	51.7778
991.663	54.8889
993.996	62.8889
996.33	94.4444
998.662	144
1000.99	150
1003.32	98
1005.65	63.3333
1007.98	51.1111
1010.31	47.5556
1012.64	47.3333
1014.97	45.1111
1017.29	44.2222
1019.62	46.4444
1021.94	47.1111
1024.27	45.1111
1026.59	46.6667
1028.91	44.4444
1031.24	43.3333
1033.56	44.6667
1035.88	45.3333
1038.2	44.6667
1040.51	45.5556
1042.83	44.8889
1045.15	45.1111
1047.47	46.8889
1049.78	42.2222
1052.1	42
1054.41	43.3333
1056.73	44.4444
1059.04	45.5556
1061.35	42.2222
1063.66	44.2222
1065.97	43.3333
1068.28	43.7778
1070.59	45.5556
1072.9	45.1111
1075.21	45.3333
1077.52	41.5556
1079.82	43.5556
1082.13	45.7778
1084.43	46.2222
1086.74	44.4444
1089.04	46.2222
1091.34	43.7778
1093.65	46.6667
1095.95	42.4444
1098.25	43.7778
1100.55	44.8889
1102.85	43.7778
1105.14	45.1111
1107.44	43.5556
1109.74	42.6667
1112.03	44.2222
1114.33	45.1111
1116.62	44.6667
1118.92	44.2222
1121.21	43.7778
1123.5	44.4444
1125.79	43.7778
1128.09	43.7778
1130.38	44.4444
1132.67	41.3333
1134.95	43.5556
1137.24	43.5556
1139.53	46.6667
1141.82	43.3333
1144.1	45.3333
1146.39	46
1148.67	48.6667
1150.95	46.6667
1153.24	52
1155.52	53.3333
1157.8	49.7778
1160.08	49.5556
1162.36	48.6667
1164.64	44.8889
1166.92	46.2222
1169.2	48.2222
1171.47	48.8889
1173.75	46
1176.03	46
1178.3	48.8889
1180.58	48.8889
1182.85	48.8889
1185.12	50.8889
1187.39	51.5556
1189.66	46.2222
1191.94	48
1194.21	44.2222
1196.48	45.3333
1198.74	46.2222
1201.01	45.3333
1203.28	46.6667
1205.54	44.6667
1207.81	44.6667
1210.07	44.2222
1212.34	43.7778
1214.6	43.3333
1216.86	42.6667
1219.13	44.4444
1221.39	45.7778
1223.65	46.8889
1225.91	44.4444
1228.17	46.4444
1230.43	46.8889
1232.68	44.4444
1234.94	45.7778
1237.2	44.6667
1239.45	43.5556
1241.71	45.7778
1243.96	42.4444
1246.22	47.1111
1248.47	46.2222
1250.72	48
1252.97	50.6667
1255.22	49.7778
1257.47	49.7778
1259.72	54.6667
1261.97	53.1111
1264.22	53.7778
1266.46	56
1268.71	56.8889
1270.95	56.6667
1273.2	57.5556
1275.44	59.5556
1277.69	55.3333
1279.93	53.5556
1282.17	58.8889
1284.41	51.1111
1286.65	55.5556
1288.89	54.8889
1291.13	58.4444
1293.37	63.1111
1295.61	66.6667
1297.85	68.6667
1300.08	68.2222
1302.32	62.6667
1304.55	62.4444
1306.79	60
1309.02	55.3333
1311.26	54.8889
1313.49	53.7778
1315.72	55.3333
1317.95	54.6667
1320.18	56.8889
1322.41	56.8889
1324.64	57.5556
1326.86	60.6667
1329.09	60.2222
1331.32	56.4444
1333.55	56.2222
1335.77	50.6667
1337.99	50.2222
1340.22	51.1111
1342.44	49.3333
1344.66	49.1111
1346.89	49.3333
1349.11	46
1351.33	51.7778
1353.55	49.3333
1355.77	49.1111
1357.98	48.8889
1360.2	49.7778
1362.42	49.1111
1364.63	46.8889
1366.85	47.3333
1369.06	48.2222
1371.28	49.3333
1373.49	46.4444
1375.7	49.1111
1377.92	47.3333
1380.13	51.1111
1382.34	46.2222
1384.55	47.3333
1386.76	49.1111
1388.97	50.2222
1391.17	47.1111
1393.38	48.4444
1395.59	49.7778
1397.79	47.7778
1400	49.3333
1402.2	44.8889
1404.41	48.4444
1406.61	47.7778
1408.81	50.2222
1411.01	50.4444
1413.21	51.3333
1415.41	50
1417.61	50.2222
1419.81	47.3333
1422.01	48.8889
1424.21	54.2222
1426.4	49.1111
1428.6	51.7778
1430.8	54.2222
1432.99	52.2222
1435.18	54
1437.38	50.6667
1439.57	53.1111
1441.76	56
1443.95	60.4444
1446.14	61.3333
1448.33	62.8889
1450.52	61.5556
1452.71	56.4444
1454.9	54.2222
1457.09	54.4444
1459.27	54.2222
1461.46	58
1463.64	58.2222
1465.83	56.4444
1468.01	54.4444
1470.2	55.7778
1472.38	55.1111
1474.56	54.8889
1476.74	53.1111
1478.92	53.3333
1481.1	48.8889
1483.28	52.6667
1485.46	51.5556
1487.64	52.2222
1489.81	48.8889
1491.99	46.6667
1494.16	50
1496.34	51.1111
1498.51	50
1500.69	49.7778
1502.86	50.2222
1505.03	51.3333
1507.21	52
1509.38	48.2222
1511.55	48.4444
1513.72	50.8889
1515.89	50.2222
1518.05	51.7778
1520.22	46.2222
1522.39	50
1524.55	49.7778
1526.72	48.6667
1528.88	50.2222
1531.05	49.3333
1533.21	49.7778
1535.37	49.7778
1537.54	50
1539.7	52.8889
1541.86	49.5556
1544.02	51.1111
1546.18	52.4444
1548.34	52
1550.5	51.5556
1552.65	50.2222
1554.81	54.2222
1556.97	53.3333
1559.12	51.5556
1561.28	54
1563.43	52.8889
1565.58	51.7778
1567.74	56.6667
1569.89	64.6667
1572.04	74.2222
1574.19	84.6667
1576.34	97.5556
1578.49	100.889
1580.64	86.2222
1582.79	72.8889
1584.94	69.3333
1587.08	65.5556
1589.23	62.4444
1591.37	58.6667
1593.52	57.3333
1595.66	60
1597.81	55.7778
1599.95	56.2222
1602.09	56.2222
1604.23	58.4444
1606.37	56.2222
1608.51	58.8889
1610.65	55.5556
1612.79	56.6667
1614.93	57.7778
1617.07	60.8889
1619.21	62.6667
1621.34	64.2222
1623.48	61.3333
1625.61	65.3333
1627.75	70
1629.88	71.3333
1632.01	78.2222
1634.15	81.3333
1636.28	85.3333
1638.41	90.4444
1640.54	90.2222
1642.67	94.4444
1644.8	92.4444
1646.93	95.5556
1649.05	91.3333
1651.18	87.5556
1653.31	84
1655.43	84.8889
1657.56	76.2222
1659.68	70.8889
1661.81	72
1663.93	70.4444
1666.05	63.5556
1668.17	65.1111
1670.3	65.1111
1672.42	60.8889
1674.54	59.5556
1676.66	59.1111
1678.77	58.8889
1680.89	57.1111
1683.01	58
1685.13	56.4444
1687.24	54.2222
1689.36	52.2222
1691.47	53.7778
1693.59	54.2222
1695.7	55.3333
1697.81	54.2222
1699.92	54
1702.04	53.1111
1704.15	52
1706.26	51.1111
1708.37	54
1710.47	51.5556
1712.58	54
1714.69	51.1111
1716.8	49.5556
1718.9	49.3333
1721.01	50
1723.11	51.7778
1725.22	50.6667
1727.32	54.4444
1729.42	48.4444
1731.53	52.4444
1733.63	51.7778
1735.73	48.8889
1737.83	50.6667
1739.93	48
1742.03	49.7778
1744.13	47.5556
1746.23	48.8889
1748.32	50.8889
1750.42	48.4444
1752.52	50.6667
1754.61	50.6667
1756.71	49.5556
1758.8	50
1760.89	52
1762.99	49.5556
1765.08	49.5556
1767.17	50.4444
1769.26	48.6667
1771.35	52
1773.44	48.8889
1775.53	48.6667
1777.62	49.1111
1779.71	51.1111
1781.79	48.6667
1783.88	49.1111
1785.96	52
1788.05	52
1790.13	48.4444
1792.22	50.6667
1794.3	47.7778
1796.38	50
1798.47	49.1111
1800.55	51.1111
1802.63	49.5556
1804.71	49.5556
1806.79	47.3333
1808.87	48.6667
1810.95	46.6667
1813.02	50.8889
1815.1	47.5556
1817.18	50
1819.25	49.5556
1821.33	49.5556
1823.4	49.1111
1825.47	50
1827.55	49.7778
1829.62	44.4444
1831.69	50.4444
1833.76	48.8889
1835.83	50
1837.9	50.2222
1839.97	50.4444
1842.04	48.6667
1844.11	48.8889
1846.18	50
1848.24	47.7778
1850.31	46.8889
1852.38	46
1854.44	48
1856.51	50.4444
1858.57	47.1111
1860.63	48.6667
1862.69	47.5556
1864.76	47.3333
1866.82	50.8889
1868.88	50.4444
1870.94	52
1873	48
1875.06	49.3333
1877.11	51.1111
1879.17	49.1111
1881.23	49.1111
1883.28	50
1885.34	51.7778
1887.4	48.6667
1889.45	47.5556
1891.5	48
1893.56	48
1895.61	50.2222
1897.66	47.1111
1899.71	48.6667
1901.76	50.4444
1903.81	48.8889
1905.86	48
1907.91	49.3333
1909.96	49.5556
1912.01	47.5556
1914.05	47.5556
1916.1	49.3333
1918.15	50.6667
1920.19	49.3333
1922.23	49.3333
1924.28	48.8889
1926.32	48.8889
1928.36	50.8889
1930.41	48.4444
1932.45	50.2222
1934.49	46.4444
1936.53	50.4444
1938.57	49.7778
1940.61	50.2222
1942.64	49.7778
1944.68	49.3333
1946.72	49.3333
1948.76	49.5556
1950.79	50.2222
1952.83	49.5556
1954.86	48.2222
1956.89	45.1111
1958.93	48.2222
1960.96	50.4444
1962.99	48.8889
1965.03	48.2222
1967.06	52
1969.09	50.2222
1971.12	49.7778
1973.14	50.4444
1975.17	46.6667
1977.2	47.5556
1979.23	49.7778
1981.25	46
1983.28	46.6667
1985.31	50.6667
1987.33	47.5556
1989.36	47.5556
1991.38	49.5556
1993.4	49.1111
1995.42	48.6667
1997.45	46.4444
1999.47	51.1111
2001.49	48.6667
2003.51	49.3333
2005.53	48.2222
2007.55	47.3333
2009.56	48.2222
2011.58	51.1111
2013.6	48.2222
2015.61	47.5556
2017.63	47.3333
2019.65	49.1111
2021.66	50
2023.67	49.1111
2025.69	49.5556
2027.7	50.4444
2029.71	49.5556
2031.72	48.2222
2033.73	49.7778
2035.74	51.1111
2037.75	48.2222
2039.76	50.4444
2041.77	51.1111
2043.78	47.5556
2045.79	49.5556
2047.79	50.6667
2049.8	48.6667
2051.8	49.3333
2053.81	49.5556
2055.81	51.5556
2057.82	50.6667
2059.82	46.4444
2061.82	50
2063.82	49.3333
2065.83	52.4444
2067.83	49.1111
2069.83	51.5556
2071.83	47.5556
2073.82	48.6667
2075.82	48.2222
2077.82	51.1111
2079.82	51.7778
2081.81	47.7778
2083.81	49.3333
2085.8	50.4444
2087.8	49.7778
2089.79	49.3333
2091.79	50.2222
2093.78	48.8889
2095.77	47.3333
2097.76	50.8889
2099.76	48.6667
2101.75	50.4444
2103.74	50.4444
2105.72	50.4444
2107.71	51.1111
2109.7	51.5556
2111.69	50.8889
2113.68	49.3333
2115.66	51.3333
2117.65	49.1111
2119.63	50.2222
2121.62	49.7778
2123.6	48.2222
2125.59	49.7778
2127.57	47.1111
2129.55	48.8889
2131.53	51.3333
2133.51	51.1111
2135.49	49.7778
2137.47	51.5556
2139.45	51.3333
2141.43	52
2143.41	50.6667
2145.39	51.3333
2147.36	50.8889
2149.34	49.1111
2151.32	50
2153.29	51.1111
2155.27	50.4444
2157.24	48.2222
2159.21	49.3333
2161.19	50
2163.16	51.7778
2165.13	52
2167.1	49.7778
2169.07	46.8889
2171.04	48.8889
2173.01	51.1111
2174.98	49.1111
2176.95	50.4444
2178.92	50.2222
2180.88	50.2222
2182.85	50.4444
2184.81	50.4444
2186.78	51.5556
2188.74	47.7778
2190.71	50
2192.67	52.2222
2194.63	48.6667
2196.6	48.2222
2198.56	50
2200.52	50
2202.48	49.1111
2204.44	49.7778
2206.4	49.7778
2208.36	48.6667
2210.32	48.2222
2212.28	51.3333
2214.23	47.7778
2216.19	52.4444
2218.14	48.6667
2220.1	50.6667
2222.05	51.7778
2224.01	52
2225.96	49.5556
2227.91	50.6667
2229.87	51.3333
2231.82	48.4444
2233.77	50.4444
2235.72	51.5556
2237.67	52.8889
2239.62	50.2222
2241.57	50.6667
2243.52	50.6667
2245.47	52.4444
2247.41	51.5556
2249.36	50.6667
2251.31	52.4444
2253.25	50.6667
2255.2	49.7778
2257.14	50.8889
2259.09	53.1111
2261.03	51.5556
2262.97	51.1111
2264.91	49.5556
2266.85	51.5556
2268.8	50.4444
2270.74	51.1111
2272.68	51.5556
2274.61	52
2276.55	50.2222
2278.49	50.6667
2280.43	49.1111
2282.37	48.6667
2284.3	52.2222
2286.24	49.1111
2288.17	51.1111
2290.11	54
2292.04	49.3333
2293.98	50
2295.91	50.2222
2297.84	52.4444
2299.77	49.7778
2301.7	47.5556
2303.64	52.8889
2305.56	49.7778
2307.49	50.8889
2309.42	50.6667
2311.35	50
2313.28	56.2222
2315.21	47.1111
2317.13	50.6667
2319.06	48.8889
2320.99	50.2222
2322.91	50.6667
2324.84	55.3333
2326.76	55.3333
2328.68	53.7778
2330.6	52.6667
2332.53	51.5556
2334.45	51.7778
2336.37	51.1111
2338.29	49.1111
2340.21	51.5556
2342.13	52.6667
2344.05	54
2345.97	52.6667
2347.89	52.4444
2349.8	51.7778
2351.72	50.6667
2353.63	49.3333
2355.55	48
2357.47	53.3333
2359.38	52.6667
2361.29	52.2222
2363.21	52
2365.12	50.8889
2367.03	49.7778
2368.94	52
2370.85	51.5556
2372.76	53.1111
2374.67	49.7778
2376.58	52.8889
2378.49	52.4444
2380.4	51.3333
2382.31	51.7778
2384.21	52.8889
2386.12	48.8889
2388.03	54
2389.93	50
2391.84	54.6667
2393.74	52.2222
2395.64	49.5556
2397.55	52
2399.45	52.8889
2401.35	53.5556
2403.25	51.3333
2405.15	54.2222
2407.05	50.8889
2408.95	52.2222
2410.85	49.5556
2412.75	48.8889
2414.65	51.1111
2416.55	54.2222
2418.45	51.3333
2420.34	53.7778
2422.24	52
2424.13	54.6667
2426.03	52.8889
2427.92	50.8889
2429.82	53.5556
2431.71	52.6667
2433.6	49.3333
2435.49	51.1111
2437.39	50.4444
2439.28	53.3333
2441.17	52.4444
2443.06	51.5556
2444.95	52.4444
2446.83	51.3333
2448.72	54.2222
2450.61	53.5556
2452.5	54.6667
2454.39	53.5556
