188.706	70.2222
191.305	74.6667
193.902	83.3333
196.499	85.7778
199.096	90.2222
201.69	109.556
204.284	115.333
206.877	103.778
209.47	85.3333
212.062	67.1111
214.652	63.5556
217.242	62.2222
219.83	65.1111
222.419	58.6667
225.005	61.3333
227.592	55.1111
230.177	52.4444
232.762	52
235.345	49.1111
237.928	48.4444
240.509	49.5556
243.09	54.2222
245.671	49.3333
248.249	49.1111
250.829	50.2222
253.405	48.8889
255.983	48.4444
258.558	46.4444
261.132	52.2222
263.707	48
266.28	49.1111
268.852	49.5556
271.424	52.8889
273.994	47.5556
276.564	48.2222
279.133	48.8889
281.701	48.8889
284.268	51.7778
286.835	48.4444
289.4	49.1111
291.964	50.4444
294.527	50.8889
297.091	52
299.653	50.2222
302.214	48.2222
304.774	49.1111
307.334	49.3333
309.892	49.1111
312.45	49.7778
315.006	47.3333
317.562	49.1111
320.118	46.4444
322.672	49.1111
325.225	48.6667
327.778	48.6667
330.329	47.3333
332.88	46.2222
335.43	48.2222
337.978	48.6667
340.528	48
343.075	47.5556
345.622	48.2222
348.167	48.8889
350.712	44.8889
353.256	46
355.799	49.7778
358.341	49.3333
360.883	48.4444
363.423	49.7778
365.963	49.1111
368.502	48
371.04	50.4444
373.577	50.8889
376.114	52.4444
378.649	52
381.184	53.3333
383.718	56.8889
386.251	56.6667
388.783	56.4444
391.314	59.1111
393.844	65.3333
396.373	63.5556
398.902	65.3333
401.43	63.7778
403.957	62.4444
406.484	58.2222
409.009	53.7778
411.534	49.3333
414.057	50.8889
416.58	52
419.102	53.5556
421.624	52.4444
424.144	53.3333
426.663	54
429.181	54.6667
431.7	50
434.217	53.5556
436.732	53.7778
439.248	49.3333
441.763	49.5556
444.277	47.5556
446.788	47.5556
449.301	46.2222
451.812	49.1111
454.322	48
456.831	46
459.341	44.2222
461.847	44.8889
464.355	46
466.861	44.6667
469.366	46.2222
471.871	43.5556
474.374	44.8889
476.877	47.5556
479.378	46.4444
481.88	48.4444
484.381	47.1111
486.879	49.5556
489.379	49.7778
491.876	49.1111
494.373	49.3333
496.869	47.1111
499.365	44.4444
501.858	45.7778
504.353	44
506.845	47.7778
509.338	47.1111
511.828	48
514.319	41.1111
516.808	45.7778
519.296	48
521.785	45.7778
524.272	45.3333
526.759	47.5556
529.244	43.7778
531.728	46.6667
534.212	43.7778
536.695	46.2222
539.178	45.1111
541.659	45.1111
544.139	42.4444
546.619	42.8889
549.098	46
551.575	45.1111
554.052	42.2222
556.529	46.4444
559.005	44
561.479	47.5556
563.953	45.3333
566.427	43.5556
568.899	46.2222
571.37	45.7778
573.84	45.5556
576.311	45.3333
578.78	45.7778
581.248	43.5556
583.715	46
586.181	45.5556
588.647	46.4444
591.113	44.4444
593.577	45.5556
596.04	44.2222
598.503	45.5556
600.964	45.3333
603.425	44.2222
605.885	42.6667
608.344	43.7778
610.803	44.8889
613.26	44.2222
615.718	47.1111
618.174	44.6667
620.63	44.2222
623.084	44.2222
625.538	44
627.99	46.8889
630.443	44.2222
632.894	46.4444
635.344	47.5556
637.792	46.8889
640.241	46.4444
642.689	46.8889
645.137	55.5556
647.583	68.8889
650.029	71.1111
652.474	55.7778
654.918	47.5556
657.361	45.3333
659.804	45.7778
662.246	47.5556
664.685	46.4444
667.125	45.5556
669.565	44.2222
672.003	45.1111
674.441	44.4444
676.877	44.2222
679.313	43.5556
681.749	42.8889
684.183	45.1111
686.617	44.6667
689.049	42.4444
691.481	47.5556
693.913	45.5556
696.342	44.6667
698.772	46.8889
701.201	48
703.63	46
706.056	46.8889
708.483	47.1111
710.909	44.6667
713.333	44.6667
715.758	45.1111
718.18	46
720.603	46.8889
723.025	46.2222
725.445	45.7778
727.866	45.3333
730.284	45.5556
732.703	44.6667
735.122	46.2222
737.538	45.1111
739.955	48.4444
742.369	44.2222
744.784	44.8889
747.197	48.4444
749.611	50
752.023	48
754.435	54.6667
756.845	63.3333
759.255	91.7778
761.664	129.111
764.071	128.667
766.48	92.8889
768.886	62.8889
771.292	53.1111
773.697	49.3333
776.102	47.3333
778.505	48.2222
780.907	48
783.31	45.1111
785.711	44.6667
788.111	46
790.511	46.2222
792.91	50.2222
795.308	46.4444
797.706	48.2222
800.102	55.5556
802.497	55.3333
804.892	54.6667
807.287	50.2222
809.68	46.8889
812.072	44.8889
814.464	46.2222
816.855	47.3333
819.246	47.7778
821.635	44.6667
824.024	44.6667
826.412	45.7778
828.799	43.7778
831.186	43.3333
833.572	44.8889
835.956	46.2222
838.34	45.7778
840.723	46.4444
843.106	45.1111
845.487	45.5556
847.868	47.1111
850.248	48
852.628	54.8889
855.006	57.7778
857.384	58.6667
859.761	53.5556
862.138	48.6667
864.513	46
866.888	45.5556
869.262	48.2222
871.636	46.4444
874.008	44.6667
876.38	46.6667
878.751	48
881.121	47.7778
883.491	47.1111
885.86	46.6667
888.228	46.2222
890.595	51.7778
892.962	50.4444
895.327	52.6667
897.691	49.1111
900.055	52
902.419	48
904.782	45.3333
907.144	45.3333
909.505	46.8889
911.864	47.3333
914.224	44
916.583	43.1111
918.941	46.2222
921.298	45.1111
923.654	44.4444
926.01	44.4444
928.366	45.7778
930.719	44
933.073	44
935.426	44
937.777	43.1111
940.129	44
942.479	44
944.828	44.4444
947.178	42.6667
949.526	45.1111
951.873	42.8889
954.22	43.7778
956.565	42.6667
958.911	46.4444
961.254	44.6667
963.598	44.8889
965.942	45.3333
968.283	44.2222
970.625	44.8889
972.965	44
975.305	45.3333
977.644	45.5556
979.983	46.2222
982.32	47.7778
984.657	46.2222
986.993	48
989.327	48.6667
991.663	55.3333
993.996	64.6667
996.33	102.444
998.662	160.222
1000.99	154
1003.32	100.444
1005.65	64.2222
1007.98	51.1111
1010.31	48.6667
1012.64	47.3333
1014.97	46.6667
1017.29	46.2222
1019.62	42.8889
1021.94	45.1111
1024.27	42.8889
1026.59	45.3333
1028.91	45.7778
1031.24	45.3333
1033.56	46.4444
1035.88	43.7778
1038.2	44.8889
1040.51	44.2222
1042.83	45.1111
1045.15	42
1047.47	43.7778
1049.78	46.2222
1052.1	46
1054.41	45.1111
1056.73	44.2222
1059.04	43.7778
1061.35	42.4444
1063.66	44.6667
1065.97	44.6667
1068.28	44.4444
1070.59	43.5556
1072.9	45.5556
1075.21	41.5556
1077.52	44.2222
1079.82	40.6667
1082.13	44.8889
1084.43	47.7778
1086.74	46.4444
1089.04	48
1091.34	45.1111
1093.65	45.7778
1095.95	45.7778
1098.25	43.3333
1100.55	43.3333
1102.85	42
1105.14	41.1111
1107.44	43.3333
1109.74	41.1111
1112.03	44.2222
1114.33	44.4444
1116.62	44.6667
1118.92	43.1111
1121.21	40.6667
1123.5	42.6667
1125.79	43.5556
1128.09	43.1111
1130.38	44.2222
1132.67	42
1134.95	47.1111
1137.24	46
1139.53	45.3333
1141.82	45.3333
1144.1	44.8889
1146.39	46
1148.67	43.5556
1150.95	49.3333
1153.24	50.2222
1155.52	54.2222
1157.8	51.3333
1160.08	50.2222
1162.36	46.2222
1164.64	49.7778
1166.92	48.6667
1169.2	49.5556
1171.47	48.4444
1173.75	46.8889
1176.03	49.3333
1178.3	52.2222
1180.58	51.3333
1182.85	51.5556
1185.12	53.1111
1187.39	46.6667
1189.66	47.3333
1191.94	49.1111
1194.21	44.4444
1196.48	43.5556
1198.74	42.6667
1201.01	44.8889
1203.28	43.5556
1205.54	45.3333
1207.81	44.2222
1210.07	44.2222
1212.34	43.5556
1214.6	43.1111
1216.86	42.2222
1219.13	44.4444
1221.39	44.4444
1223.65	45.5556
1225.91	46.8889
1228.17	42.4444
1230.43	46.6667
1232.68	42.4444
1234.94	45.5556
1237.2	46
1239.45	44.8889
1241.71	45.1111
1243.96	46.2222
1246.22	47.3333
1248.47	48
1250.72	48.2222
1252.97	48
1255.22	52.4444
1257.47	52.8889
1259.72	53.1111
1261.97	54
1264.22	55.5556
1266.46	56.2222
1268.71	60
1270.95	59.7778
1273.2	64.2222
1275.44	59.3333
1277.69	60.8889
1279.93	57.3333
1282.17	54.4444
1284.41	56.6667
1286.65	57.1111
1288.89	56.8889
1291.13	60.2222
1293.37	65.3333
1295.61	69.1111
1297.85	74.8889
1300.08	68
1302.32	66
1304.55	62.4444
1306.79	59.3333
1309.02	55.7778
1311.26	55.7778
1313.49	52.8889
1315.72	56.2222
1317.95	54.2222
1320.18	56.2222
1322.41	57.5556
1324.64	62.6667
1326.86	62.8889
1329.09	61.3333
1331.32	60.4444
1333.55	56.8889
1335.77	54.6667
1337.99	50.8889
1340.22	50.2222
1342.44	49.1111
1344.66	51.7778
1346.89	48.2222
1349.11	45.7778
1351.33	48
1353.55	48.4444
1355.77	48.4444
1357.98	48
1360.2	50
1362.42	50
1364.63	50
1366.85	46
1369.06	50.4444
1371.28	50.4444
1373.49	50
1375.7	48.2222
1377.92	46
1380.13	48
1382.34	46
1384.55	49.3333
1386.76	44.2222
1388.97	50.8889
1391.17	49.1111
1393.38	47.5556
1395.59	51.7778
1397.79	48.8889
1400	49.3333
1402.2	50
1404.41	49.5556
1406.61	46.6667
1408.81	50.4444
1411.01	46.4444
1413.21	49.3333
1415.41	50.4444
1417.61	47.7778
1419.81	50.6667
1422.01	51.1111
1424.21	49.5556
1426.4	48.6667
1428.6	51.7778
1430.8	53.7778
1432.99	56.2222
1435.18	56.4444
1437.38	51.3333
1439.57	52
1441.76	55.5556
1443.95	62.4444
1446.14	66.6667
1448.33	67.1111
1450.52	60.4444
1452.71	60.4444
1454.9	57.3333
1457.09	56.4444
1459.27	59.7778
1461.46	59.5556
1463.64	56.2222
1465.83	58.4444
1468.01	57.1111
1470.2	58.4444
1472.38	55.5556
1474.56	54.4444
1476.74	54.4444
1478.92	54
1481.1	53.5556
1483.28	49.7778
1485.46	52.2222
1487.64	49.7778
1489.81	52.2222
1491.99	50.8889
1494.16	48.8889
1496.34	49.1111
1498.51	48
1500.69	47.7778
1502.86	49.5556
1505.03	46.2222
1507.21	48
1509.38	48
1511.55	50.2222
1513.72	49.1111
1515.89	49.5556
1518.05	49.7778
1520.22	49.3333
1522.39	50.8889
1524.55	50.6667
1526.72	51.1111
1528.88	49.1111
1531.05	53.1111
1533.21	51.1111
1535.37	51.1111
1537.54	47.5556
1539.7	49.5556
1541.86	52.8889
1544.02	51.5556
1546.18	52.4444
1548.34	50.4444
1550.5	52.4444
1552.65	49.3333
1554.81	50.8889
1556.97	55.5556
1559.12	52.4444
1561.28	52.6667
1563.43	54.6667
1565.58	56.6667
1567.74	60.6667
1569.89	62.8889
1572.04	80.6667
1574.19	98.8889
1576.34	106.444
1578.49	105.778
1580.64	93.5556
1582.79	82
1584.94	70
1587.08	69.3333
1589.23	67.3333
1591.37	63.5556
1593.52	62.8889
1595.66	62.8889
1597.81	58.4444
1599.95	57.3333
1602.09	56.2222
1604.23	56.2222
1606.37	58
1608.51	57.7778
1610.65	58.8889
1612.79	59.3333
1614.93	60.2222
1617.07	59.5556
1619.21	62
1621.34	59.7778
1623.48	64.4444
1625.61	68.6667
1627.75	71.5556
1629.88	74.2222
1632.01	79.1111
1634.15	87.7778
1636.28	92.4444
1638.41	99.1111
1640.54	96.8889
1642.67	108.222
1644.8	102
1646.93	103.333
1649.05	101.111
1651.18	96
1653.31	92.2222
1655.43	84
1657.56	84.8889
1659.68	79.3333
1661.81	76
1663.93	72.4444
1666.05	67.3333
1668.17	67.5556
1670.3	65.5556
1672.42	64.2222
1674.54	61.1111
1676.66	59.1111
1678.77	62.6667
1680.89	60.6667
1683.01	58.6667
1685.13	59.7778
1687.24	58.4444
1689.36	59.5556
1691.47	55.1111
1693.59	56
1695.7	54
1697.81	54.2222
1699.92	54.6667
1702.04	55.1111
1704.15	52.6667
1706.26	51.1111
1708.37	52.2222
1710.47	53.7778
1712.58	50.6667
1714.69	52
1716.8	51.5556
1718.9	53.1111
1721.01	49.7778
1723.11	50.8889
1725.22	49.5556
1727.32	51.1111
1729.42	51.1111
1731.53	49.3333
1733.63	51.7778
1735.73	50
1737.83	50.6667
1739.93	48.8889
1742.03	48.8889
1744.13	48.8889
1746.23	50.8889
1748.32	50.8889
1750.42	53.3333
1752.52	49.1111
1754.61	50.2222
1756.71	47.3333
1758.8	51.3333
1760.89	50.6667
1762.99	48.6667
1765.08	49.3333
1767.17	50
1769.26	48.6667
1771.35	50.6667
1773.44	49.7778
1775.53	49.7778
1777.62	49.1111
1779.71	50
1781.79	48.6667
1783.88	49.1111
1785.96	49.7778
1788.05	49.3333
1790.13	47.5556
1792.22	50.2222
1794.3	49.5556
1796.38	50.6667
1798.47	48.2222
1800.55	49.5556
1802.63	46.8889
1804.71	48.8889
1806.79	49.3333
1808.87	50
1810.95	47.3333
1813.02	49.3333
1815.1	48.2222
1817.18	48.8889
1819.25	48.2222
1821.33	49.3333
1823.4	50.6667
1825.47	48
1827.55	49.1111
1829.62	48.4444
1831.69	48.8889
1833.76	49.5556
1835.83	47.7778
1837.9	48.6667
1839.97	49.7778
1842.04	49.3333
1844.11	51.1111
1846.18	46.4444
1848.24	49.3333
1850.31	48.8889
1852.38	48.8889
1854.44	45.5556
1856.51	45.7778
1858.57	47.1111
1860.63	47.7778
1862.69	48.4444
1864.76	49.3333
1866.82	47.1111
1868.88	47.1111
1870.94	48.4444
1873	48.2222
1875.06	47.7778
1877.11	48.8889
1879.17	49.3333
1881.23	50
1883.28	48.8889
1885.34	48
1887.4	50.6667
1889.45	46
1891.5	49.3333
1893.56	48
1895.61	49.1111
1897.66	47.1111
1899.71	48.2222
1901.76	50
1903.81	45.7778
1905.86	48.2222
1907.91	45.1111
1909.96	49.5556
1912.01	50.8889
1914.05	47.3333
1916.1	51.1111
1918.15	48.8889
1920.19	49.3333
1922.23	47.7778
1924.28	50.6667
1926.32	49.1111
1928.36	51.7778
1930.41	47.1111
1932.45	48.8889
1934.49	48.8889
1936.53	48.8889
1938.57	47.3333
1940.61	46.2222
1942.64	52.2222
1944.68	48.8889
1946.72	52
1948.76	47.7778
1950.79	48.6667
1952.83	47.7778
1954.86	51.7778
1956.89	48.8889
1958.93	49.7778
1960.96	47.7778
1962.99	52.4444
1965.03	50.6667
1967.06	46.6667
1969.09	47.1111
1971.12	48.2222
1973.14	51.7778
1975.17	49.1111
1977.2	48
1979.23	46.6667
1981.25	47.7778
1983.28	49.5556
1985.31	49.5556
1987.33	47.7778
1989.36	48.2222
1991.38	49.7778
1993.4	47.5556
1995.42	49.7778
1997.45	48.8889
1999.47	51.1111
2001.49	48.4444
2003.51	46.8889
2005.53	48.6667
2007.55	47.5556
2009.56	49.1111
2011.58	48
2013.6	50
2015.61	48.8889
2017.63	48.4444
2019.65	50
2021.66	47.7778
2023.67	48
2025.69	49.3333
2027.7	48
2029.71	48.8889
2031.72	47.3333
2033.73	49.7778
2035.74	48.6667
2037.75	50.2222
2039.76	47.5556
2041.77	50.2222
2043.78	49.5556
2045.79	48.6667
2047.79	50.2222
2049.8	49.5556
2051.8	50
2053.81	50.6667
2055.81	49.3333
2057.82	48.6667
2059.82	48.4444
2061.82	50.8889
2063.82	47.7778
2065.83	49.3333
2067.83	49.1111
2069.83	48.2222
2071.83	49.1111
2073.82	48.8889
2075.82	48.4444
2077.82	49.3333
2079.82	49.3333
2081.81	48.8889
2083.81	50.4444
2085.8	48.8889
2087.8	49.7778
2089.79	51.5556
2091.79	49.3333
2093.78	48.2222
2095.77	51.1111
2097.76	48.6667
2099.76	51.3333
2101.75	48.4444
2103.74	46
2105.72	51.3333
2107.71	48.6667
2109.7	52.4444
2111.69	50
2113.68	46.6667
2115.66	49.1111
2117.65	50
2119.63	49.5556
2121.62	50.2222
2123.6	48.4444
2125.59	50.6667
2127.57	49.5556
2129.55	48
2131.53	48.6667
2133.51	49.7778
2135.49	49.3333
2137.47	48
2139.45	50.8889
2141.43	52.4444
2143.41	49.1111
2145.39	49.1111
2147.36	49.7778
2149.34	50.2222
2151.32	52.6667
2153.29	50
2155.27	50.8889
2157.24	50.4444
2159.21	50.2222
2161.19	51.5556
2163.16	48
2165.13	51.3333
2167.1	49.7778
2169.07	47.3333
2171.04	50.8889
2173.01	45.5556
2174.98	51.3333
2176.95	50.2222
2178.92	48
2180.88	48
2182.85	48.4444
2184.81	47.7778
2186.78	49.5556
2188.74	49.1111
2190.71	49.7778
2192.67	48.6667
2194.63	50.2222
2196.6	48.8889
2198.56	47.5556
2200.52	50.6667
2202.48	51.5556
2204.44	50
2206.4	50
2208.36	50.8889
2210.32	49.7778
2212.28	51.3333
2214.23	49.1111
2216.19	50.2222
2218.14	47.5556
2220.1	51.1111
2222.05	52.2222
2224.01	46.8889
2225.96	51.3333
2227.91	48
2229.87	50
2231.82	50.4444
2233.77	48.8889
2235.72	50
2237.67	50
2239.62	50.2222
2241.57	48.6667
2243.52	46.4444
2245.47	52
2247.41	50.6667
2249.36	50.4444
2251.31	49.1111
2253.25	49.3333
2255.2	51.1111
2257.14	51.1111
2259.09	50.2222
2261.03	51.1111
2262.97	50.2222
2264.91	49.3333
2266.85	49.3333
2268.8	53.5556
2270.74	50.8889
2272.68	51.7778
2274.61	51.7778
2276.55	50.2222
2278.49	50.6667
2280.43	48.6667
2282.37	48.6667
2284.3	50.2222
2286.24	51.1111
2288.17	51.7778
2290.11	49.1111
2292.04	50
2293.98	51.1111
2295.91	52.4444
2297.84	50.6667
2299.77	49.7778
2301.7	51.7778
2303.64	50.8889
2305.56	51.7778
2307.49	49.7778
2309.42	52.4444
2311.35	49.1111
2313.28	51.3333
2315.21	50
2317.13	50.8889
2319.06	52
2320.99	52.2222
2322.91	51.1111
2324.84	50.6667
2326.76	52.6667
2328.68	54.4444
2330.6	54
2332.53	53.5556
2334.45	53.1111
2336.37	52.4444
2338.29	52.4444
2340.21	51.1111
2342.13	48.8889
2344.05	51.3333
2345.97	52
2347.89	53.7778
2349.8	51.3333
2351.72	49.7778
2353.63	53.1111
2355.55	52.8889
2357.47	50.4444
2359.38	51.5556
2361.29	54.2222
2363.21	51.5556
2365.12	52.6667
2367.03	54.2222
2368.94	51.1111
2370.85	50.2222
2372.76	51.1111
2374.67	51.1111
2376.58	52.8889
2378.49	52.4444
2380.4	51.5556
2382.31	52.2222
2384.21	53.1111
2386.12	50.8889
2388.03	51.3333
2389.93	51.1111
2391.84	53.7778
2393.74	50.2222
2395.64	51.1111
2397.55	50.2222
2399.45	52.4444
2401.35	53.3333
2403.25	51.7778
2405.15	51.7778
2407.05	52
2408.95	52.2222
2410.85	52.2222
2412.75	52
2414.65	51.1111
2416.55	51.1111
2418.45	48.6667
2420.34	50.8889
2422.24	52.8889
2424.13	54.2222
2426.03	50.2222
2427.92	49.5556
2429.82	49.5556
2431.71	54.8889
2433.6	53.5556
2435.49	51.7778
2437.39	52.6667
2439.28	53.7778
2441.17	51.3333
2443.06	52.4444
2444.95	51.3333
2446.83	52.2222
2448.72	52.4444
2450.61	56
2452.5	52.6667
2454.39	52.6667
