188.706	70.6667
191.305	83.3333
193.902	88.8889
196.499	91.5556
199.096	103.556
201.69	122.667
204.284	143.333
206.877	125.556
209.47	93.1111
212.062	78.4444
214.652	67.3333
217.242	64.4444
219.83	62.8889
222.419	64
225.005	58.8889
227.592	54.2222
230.177	51.7778
232.762	50.4444
235.345	50.8889
237.928	49.5556
240.509	52.8889
243.09	51.3333
245.671	46.6667
248.249	50.2222
250.829	48
253.405	46.4444
255.983	50.6667
258.558	50.8889
261.132	46.8889
263.707	48
266.28	46.4444
268.852	50.4444
271.424	48.2222
273.994	46
276.564	46.8889
279.133	45.3333
281.701	50.8889
284.268	49.3333
286.835	48.4444
289.4	48.8889
291.964	51.7778
294.527	50
297.091	50.8889
299.653	48
302.214	49.7778
304.774	51.5556
307.334	49.1111
309.892	50
312.45	47.7778
315.006	49.5556
317.562	51.7778
320.118	49.1111
322.672	50.4444
325.225	48.4444
327.778	47.7778
330.329	49.1111
332.88	46
335.43	46.8889
337.978	49.1111
340.528	48.8889
343.075	47.3333
345.622	47.3333
348.167	48.2222
350.712	47.1111
353.256	49.3333
355.799	46.6667
358.341	47.1111
360.883	50.4444
363.423	47.5556
365.963	48.4444
368.502	47.1111
371.04	48.8889
373.577	52.6667
376.114	51.5556
378.649	51.3333
381.184	53.5556
383.718	50.6667
386.251	55.1111
388.783	54
391.314	55.1111
393.844	60.6667
396.373	60.2222
398.902	63.3333
401.43	61.3333
403.957	58.4444
406.484	54.8889
409.009	56
411.534	48.8889
414.057	54.2222
416.58	48.8889
419.102	54.2222
421.624	50
424.144	55.7778
426.663	54
429.181	52.2222
431.7	53.3333
434.217	54.4444
436.732	50.2222
439.248	47.1111
441.763	45.7778
444.277	48.6667
446.788	45.3333
449.301	46.2222
451.812	43.5556
454.322	47.5556
456.831	44.8889
459.341	45.3333
461.847	44.4444
464.355	46.6667
466.861	46.4444
469.366	45.1111
471.871	46.4444
474.374	47.7778
476.877	46.4444
479.378	48
481.88	49.3333
484.381	50
486.879	51.5556
489.379	50
491.876	51.1111
494.373	49.3333
496.869	47.5556
499.365	48
501.858	48.4444
504.353	45.1111
506.845	47.3333
509.338	46.8889
511.828	46.2222
514.319	48.2222
516.808	45.7778
519.296	48
521.785	41.7778
524.272	43.5556
526.759	45.5556
529.244	44.6667
531.728	45.1111
534.212	42.6667
536.695	45.5556
539.178	46.6667
541.659	45.3333
544.139	45.1111
546.619	46
549.098	42.6667
551.575	47.3333
554.052	45.7778
556.529	44.2222
559.005	45.3333
561.479	45.7778
563.953	43.7778
566.427	47.3333
568.899	46.2222
571.37	46
573.84	46.4444
576.311	47.5556
578.78	45.1111
581.248	46.2222
583.715	43.7778
586.181	43.5556
588.647	46
591.113	43.3333
593.577	43.5556
596.04	46
598.503	42.6667
600.964	48.2222
603.425	44.2222
605.885	42.2222
608.344	44.6667
610.803	45.7778
613.26	44.2222
615.718	47.1111
618.174	45.5556
620.63	43.3333
623.084	46.8889
625.538	44.6667
627.99	44.6667
630.443	46.8889
632.894	45.7778
635.344	46.4444
637.792	47.1111
640.241	47.3333
642.689	48
645.137	60.6667
647.583	79.1111
650.029	78.6667
652.474	59.5556
654.918	49.1111
657.361	46.6667
659.804	42.8889
662.246	46.2222
664.685	44.4444
667.125	43.3333
669.565	45.7778
672.003	44.2222
674.441	46.4444
676.877	46.8889
679.313	45.5556
681.749	46
684.183	43.3333
686.617	47.1111
689.049	43.7778
691.481	46.2222
693.913	47.5556
696.342	46.6667
698.772	49.3333
701.201	47.7778
703.63	45.5556
706.056	47.3333
708.483	46.2222
710.909	48.2222
713.333	44.4444
715.758	44.6667
718.18	47.1111
720.603	48.6667
723.025	48.8889
725.445	45.1111
727.866	45.7778
730.284	46.6667
732.703	46.6667
735.122	44.2222
737.538	44.6667
739.955	45.5556
742.369	46.6667
744.784	46.8889
747.197	47.5556
749.611	50
752.023	51.3333
754.435	55.5556
756.845	65.7778
759.255	100
761.664	146.889
764.071	138.889
766.48	97.3333
768.886	63.7778
771.292	53.5556
773.697	50.8889
776.102	48.2222
778.505	48.6667
780.907	46.4444
783.31	46.6667
785.711	47.3333
788.111	46.4444
790.511	44.2222
792.91	47.5556
795.308	48.4444
797.706	49.1111
800.102	51.1111
802.497	53.5556
804.892	55.1111
807.287	48.6667
809.68	46.8889
812.072	47.7778
814.464	48.6667
816.855	47.3333
819.246	46
821.635	48.6667
824.024	44.2222
826.412	48.6667
828.799	47.1111
831.186	48
833.572	46.8889
835.956	47.1111
838.34	46
840.723	47.5556
843.106	48.4444
845.487	46.4444
847.868	51.3333
850.248	49.1111
852.628	57.5556
855.006	59.7778
857.384	64.6667
859.761	54.4444
862.138	47.7778
864.513	49.3333
866.888	45.7778
869.262	45.3333
871.636	46.8889
874.008	47.7778
876.38	48.6667
878.751	43.7778
881.121	46
883.491	47.3333
885.86	48
888.228	48.6667
890.595	51.3333
892.962	50.6667
895.327	50
897.691	50.4444
900.055	51.1111
902.419	48.2222
904.782	48
907.144	48.4444
909.505	40.8889
911.864	45.7778
914.224	45.3333
916.583	43.5556
918.941	45.7778
921.298	44.6667
923.654	45.1111
926.01	42.8889
928.366	47.5556
930.719	43.1111
933.073	43.3333
935.426	43.5556
937.777	42.2222
940.129	45.1111
942.479	45.1111
944.828	44.2222
947.178	46
949.526	42.2222
951.873	44.8889
954.22	45.5556
956.565	43.3333
958.911	45.1111
961.254	44.2222
963.598	44.8889
965.942	44.6667
968.283	45.5556
970.625	44.8889
972.965	44.8889
975.305	44
977.644	45.5556
979.983	44.2222
982.32	48.4444
984.657	48
986.993	49.1111
989.327	50.8889
991.663	56.2222
993.996	63.7778
996.33	110.667
998.662	165.111
1000.99	169.333
1003.32	110.222
1005.65	66.2222
1007.98	50.2222
1010.31	47.7778
1012.64	46.8889
1014.97	44.8889
1017.29	48.2222
1019.62	44.8889
1021.94	45.7778
1024.27	46
1026.59	46.8889
1028.91	48.2222
1031.24	44.4444
1033.56	43.5556
1035.88	44.2222
1038.2	45.1111
1040.51	45.1111
1042.83	44.4444
1045.15	45.1111
1047.47	43.5556
1049.78	42.6667
1052.1	44.4444
1054.41	46.2222
1056.73	46
1059.04	43.7778
1061.35	44.4444
1063.66	42.6667
1065.97	44.6667
1068.28	42.6667
1070.59	46
1072.9	44
1075.21	43.5556
1077.52	46.4444
1079.82	43.5556
1082.13	44.8889
1084.43	46.4444
1086.74	45.3333
1089.04	46.2222
1091.34	42.2222
1093.65	45.1111
1095.95	46
1098.25	44
1100.55	43.7778
1102.85	45.1111
1105.14	44.2222
1107.44	43.3333
1109.74	40.8889
1112.03	44.2222
1114.33	43.5556
1116.62	43.5556
1118.92	44.4444
1121.21	41.7778
1123.5	43.5556
1125.79	43.3333
1128.09	42.6667
1130.38	44.8889
1132.67	46
1134.95	42.4444
1137.24	42.8889
1139.53	42.4444
1141.82	44
1144.1	45.1111
1146.39	46.2222
1148.67	45.7778
1150.95	48.2222
1153.24	51.5556
1155.52	56
1157.8	50.4444
1160.08	50.8889
1162.36	48.8889
1164.64	48.4444
1166.92	47.7778
1169.2	47.7778
1171.47	49.5556
1173.75	48
1176.03	50
1178.3	49.5556
1180.58	50.8889
1182.85	54.2222
1185.12	50.8889
1187.39	50.8889
1189.66	47.5556
1191.94	45.5556
1194.21	47.3333
1196.48	44.6667
1198.74	45.3333
1201.01	44.8889
1203.28	45.7778
1205.54	45.7778
1207.81	46.6667
1210.07	44.2222
1212.34	43.7778
1214.6	43.5556
1216.86	44.6667
1219.13	44.4444
1221.39	45.3333
1223.65	45.3333
1225.91	43.3333
1228.17	46.4444
1230.43	45.5556
1232.68	43.7778
1234.94	43.7778
1237.2	46.6667
1239.45	44.8889
1241.71	46
1243.96	46.6667
1246.22	47.1111
1248.47	47.3333
1250.72	47.3333
1252.97	49.5556
1255.22	52
1257.47	53.5556
1259.72	54.4444
1261.97	56.2222
1264.22	54.2222
1266.46	57.1111
1268.71	57.5556
1270.95	59.1111
1273.2	63.7778
1275.44	61.5556
1277.69	60.6667
1279.93	55.3333
1282.17	54
1284.41	57.3333
1286.65	53.1111
1288.89	58.2222
1291.13	60
1293.37	65.5556
1295.61	69.5556
1297.85	70.4444
1300.08	69.1111
1302.32	66.8889
1304.55	63.3333
1306.79	58.2222
1309.02	55.1111
1311.26	55.3333
1313.49	56.6667
1315.72	52
1317.95	54.6667
1320.18	59.1111
1322.41	58.6667
1324.64	65.7778
1326.86	60.4444
1329.09	62.6667
1331.32	59.1111
1333.55	54.8889
1335.77	53.5556
1337.99	52.8889
1340.22	50
1342.44	50.6667
1344.66	49.1111
1346.89	50
1349.11	48.6667
1351.33	49.7778
1353.55	46.6667
1355.77	47.1111
1357.98	49.5556
1360.2	46.8889
1362.42	48.2222
1364.63	48.6667
1366.85	48.6667
1369.06	48.2222
1371.28	45.5556
1373.49	49.1111
1375.7	49.3333
1377.92	48.2222
1380.13	51.1111
1382.34	47.5556
1384.55	49.1111
1386.76	46
1388.97	49.3333
1391.17	49.3333
1393.38	50.2222
1395.59	48.6667
1397.79	46
1400	48.6667
1402.2	47.7778
1404.41	48.6667
1406.61	44.6667
1408.81	48.2222
1411.01	47.1111
1413.21	47.7778
1415.41	50.4444
1417.61	48.6667
1419.81	50.6667
1422.01	49.1111
1424.21	50
1426.4	50.4444
1428.6	49.3333
1430.8	52.2222
1432.99	51.7778
1435.18	53.7778
1437.38	49.5556
1439.57	52.8889
1441.76	53.1111
1443.95	60
1446.14	68
1448.33	64.4444
1450.52	60
1452.71	57.1111
1454.9	56
1457.09	57.1111
1459.27	55.5556
1461.46	56.2222
1463.64	55.7778
1465.83	58.2222
1468.01	57.5556
1470.2	56.6667
1472.38	54.8889
1474.56	53.7778
1476.74	56.2222
1478.92	52.4444
1481.1	53.1111
1483.28	50.2222
1485.46	49.3333
1487.64	52.4444
1489.81	50.4444
1491.99	49.1111
1494.16	50.6667
1496.34	48.4444
1498.51	51.3333
1500.69	50
1502.86	50.2222
1505.03	49.3333
1507.21	51.1111
1509.38	49.1111
1511.55	49.5556
1513.72	50.4444
1515.89	48.8889
1518.05	50
1520.22	51.5556
1522.39	48.6667
1524.55	51.5556
1526.72	48.6667
1528.88	50.2222
1531.05	50.2222
1533.21	47.5556
1535.37	50.6667
1537.54	50.4444
1539.7	51.1111
1541.86	50
1544.02	52
1546.18	50.4444
1548.34	50.4444
1550.5	49.7778
1552.65	55.1111
1554.81	51.1111
1556.97	55.5556
1559.12	50.8889
1561.28	53.1111
1563.43	54.8889
1565.58	54.6667
1567.74	57.3333
1569.89	66.2222
1572.04	77.1111
1574.19	96.4444
1576.34	103.111
1578.49	106.222
1580.64	92.4444
1582.79	75.7778
1584.94	68.4444
1587.08	64.6667
1589.23	62.8889
1591.37	60
1593.52	58.6667
1595.66	59.7778
1597.81	56
1599.95	59.1111
1602.09	57.1111
1604.23	57.1111
1606.37	58.6667
1608.51	58.4444
1610.65	57.3333
1612.79	57.3333
1614.93	58.6667
1617.07	62
1619.21	62
1621.34	65.7778
1623.48	60.4444
1625.61	68
1627.75	71.1111
1629.88	76
1632.01	74.6667
1634.15	85.3333
1636.28	86.6667
1638.41	96.8889
1640.54	97.1111
1642.67	96
1644.8	99.1111
1646.93	102
1649.05	98.2222
1651.18	91.1111
1653.31	88
1655.43	83.5556
1657.56	79.1111
1659.68	76.8889
1661.81	76.8889
1663.93	72.8889
1666.05	68.6667
1668.17	65.5556
1670.3	65.5555
1672.42	66
1674.54	64
1676.66	62.4444
1678.77	58.4444
1680.89	60.4444
1683.01	60.4444
1685.13	58.2222
1687.24	55.3333
1689.36	53.5556
1691.47	54.8889
1693.59	54
1695.7	55.5556
1697.81	55.5556
1699.92	57.1111
1702.04	52.8889
1704.15	50.6667
1706.26	52
1708.37	54.4444
1710.47	50.2222
1712.58	51.1111
1714.69	52.2222
1716.8	49.7778
1718.9	51.5556
1721.01	51.3333
1723.11	49.5556
1725.22	50
1727.32	48.4444
1729.42	51.5556
1731.53	52.2222
1733.63	50
1735.73	53.3333
1737.83	49.1111
1739.93	53.7778
1742.03	49.7778
1744.13	50
1746.23	49.7778
1748.32	49.1111
1750.42	50
1752.52	50.6667
1754.61	51.3333
1756.71	48.6667
1758.8	48.8889
1760.89	49.1111
1762.99	50.2222
1765.08	52
1767.17	48.6667
1769.26	50
1771.35	47.5556
1773.44	49.7778
1775.53	51.3333
1777.62	50.8889
1779.71	50.2222
1781.79	45.7778
1783.88	50.2222
1785.96	51.7778
1788.05	48.2222
1790.13	48
1792.22	51.1111
1794.3	49.1111
1796.38	50
1798.47	51.7778
1800.55	46.4444
1802.63	49.5556
1804.71	49.3333
1806.79	51.7778
1808.87	51.3333
1810.95	51.1111
1813.02	49.1111
1815.1	48.4444
1817.18	47.3333
1819.25	49.3333
1821.33	50.2222
1823.4	49.7778
1825.47	50
1827.55	50.6667
1829.62	47.3333
1831.69	48.8889
1833.76	49.3333
1835.83	49.1111
1837.9	48.4444
1839.97	50
1842.04	48.4444
1844.11	50
1846.18	49.3333
1848.24	49.1111
1850.31	49.7778
1852.38	47.1111
1854.44	47.3333
1856.51	48.6667
1858.57	47.7778
1860.63	46.4444
1862.69	49.3333
1864.76	48
1866.82	53.1111
1868.88	47.5556
1870.94	48.4444
1873	49.1111
1875.06	48
1877.11	50.2222
1879.17	47.7778
1881.23	51.1111
1883.28	46.6667
1885.34	50.4444
1887.4	48.4444
1889.45	49.5556
1891.5	48
1893.56	49.1111
1895.61	50.4444
1897.66	49.5556
1899.71	48.2222
1901.76	50.6667
1903.81	51.1111
1905.86	47.5556
1907.91	48.6667
1909.96	49.1111
1912.01	48.2222
1914.05	50.4444
1916.1	47.7778
1918.15	48.4444
1920.19	49.7778
1922.23	49.5556
1924.28	50.8889
1926.32	49.5556
1928.36	47.7778
1930.41	50.2222
1932.45	50.8889
1934.49	52.2222
1936.53	47.1111
1938.57	51.1111
1940.61	48.6667
1942.64	46.8889
1944.68	50.4444
1946.72	50.2222
1948.76	49.3333
1950.79	48
1952.83	50.2222
1954.86	47.7778
1956.89	49.3333
1958.93	50
1960.96	47.1111
1962.99	49.1111
1965.03	50.2222
1967.06	52.4444
1969.09	50.8889
1971.12	48.6667
1973.14	48.6667
1975.17	50
1977.2	50.2222
1979.23	47.3333
1981.25	46.4444
1983.28	48.4444
1985.31	49.1111
1987.33	50.6667
1989.36	49.7778
1991.38	49.1111
1993.4	48.6667
1995.42	47.1111
1997.45	48.4444
1999.47	48.4444
2001.49	50
2003.51	51.3333
2005.53	50.4444
2007.55	47.1111
2009.56	49.7778
2011.58	49.5556
2013.6	49.1111
2015.61	49.3333
2017.63	51.1111
2019.65	50.2222
2021.66	51.1111
2023.67	49.5556
2025.69	48.6667
2027.7	49.3333
2029.71	50
2031.72	49.5556
2033.73	50.2222
2035.74	47.7778
2037.75	51.5556
2039.76	50.8889
2041.77	46.4444
2043.78	52
2045.79	48.8889
2047.79	52.8889
2049.8	48
2051.8	50.6667
2053.81	49.5556
2055.81	50.2222
2057.82	52.8889
2059.82	50.8889
2061.82	51.5556
2063.82	48.6667
2065.83	52.6667
2067.83	49.5556
2069.83	50
2071.83	49.5556
2073.82	49.3333
2075.82	47.5556
2077.82	50.4444
2079.82	49.7778
2081.81	51.3333
2083.81	51.3333
2085.8	50.8889
2087.8	51.3333
2089.79	52.4444
2091.79	49.5556
2093.78	49.5556
2095.77	48.4444
2097.76	52.6667
2099.76	47.5556
2101.75	49.3333
2103.74	47.5556
2105.72	46.6667
2107.71	49.1111
2109.7	50.2222
2111.69	50.8889
2113.68	48.4444
2115.66	48.8889
2117.65	49.5556
2119.63	50
2121.62	50.2222
2123.6	50.8889
2125.59	50.6667
2127.57	49.3333
2129.55	50.2222
2131.53	51.5556
2133.51	49.3333
2135.49	48.6667
2137.47	50.4444
2139.45	49.5556
2141.43	50
2143.41	49.7778
2145.39	51.7778
2147.36	54
2149.34	49.7778
2151.32	50.8889
2153.29	51.1111
2155.27	50.8889
2157.24	51.1111
2159.21	49.3333
2161.19	51.7778
2163.16	52
2165.13	51.1111
2167.1	51.3333
2169.07	52
2171.04	48.4444
2173.01	49.1111
2174.98	49.3333
2176.95	50
2178.92	52
2180.88	50.8889
2182.85	51.7778
2184.81	52.6667
2186.78	50
2188.74	50.4444
2190.71	51.5556
2192.67	52.2222
2194.63	50.8889
2196.6	50.4444
2198.56	47.5556
2200.52	50.8889
2202.48	51.5556
2204.44	50.2222
2206.4	50.2222
2208.36	51.3333
2210.32	50
2212.28	51.7778
2214.23	51.3333
2216.19	49.1111
2218.14	50.6667
2220.1	51.7778
2222.05	51.7778
2224.01	51.3333
2225.96	49.7778
2227.91	52.4444
2229.87	49.3333
2231.82	51.5556
2233.77	53.3333
2235.72	50
2237.67	53.5556
2239.62	49.3333
2241.57	48.8889
2243.52	49.7778
2245.47	49.3333
2247.41	51.5556
2249.36	52
2251.31	52.6667
2253.25	51.7778
2255.2	51.1111
2257.14	51.5556
2259.09	52.6667
2261.03	51.3333
2262.97	48.4444
2264.91	53.7778
2266.85	50.2222
2268.8	49.7778
2270.74	49.5556
2272.68	50.6667
2274.61	49.3333
2276.55	51.3333
2278.49	50.2222
2280.43	50.6667
2282.37	50
2284.3	51.5556
2286.24	50.2222
2288.17	51.3333
2290.11	52.2222
2292.04	52.6667
2293.98	49.7778
2295.91	52.6667
2297.84	50.8889
2299.77	51.1111
2301.7	51.1111
2303.64	49.5556
2305.56	50.8889
2307.49	52
2309.42	50.8889
2311.35	50.2222
2313.28	50.4444
2315.21	53.1111
2317.13	51.1111
2319.06	52.6667
2320.99	52
2322.91	53.5556
2324.84	53.1111
2326.76	54.4444
2328.68	53.3333
2330.6	51.5556
2332.53	54.6667
2334.45	50.8889
2336.37	52.2222
2338.29	49.5556
2340.21	52.4444
2342.13	52.4444
2344.05	49.7778
2345.97	50.4444
2347.89	48.8889
2349.8	49.3333
2351.72	53.7778
2353.63	53.1111
2355.55	51.1111
2357.47	48.6667
2359.38	50.2222
2361.29	53.5556
2363.21	51.7778
2365.12	51.3333
2367.03	51.5556
2368.94	50.2222
2370.85	50
2372.76	52.8889
2374.67	49.3333
2376.58	50.8889
2378.49	50.6667
2380.4	50.8889
2382.31	50
2384.21	49.7778
2386.12	51.7778
2388.03	48.4444
2389.93	53.3333
2391.84	48.6667
2393.74	52
2395.64	51.7778
2397.55	51.5556
2399.45	53.7778
2401.35	52.4444
2403.25	54
2405.15	51.5556
2407.05	54.8889
2408.95	49.5556
2410.85	52.4444
2412.75	51.1111
2414.65	53.5556
2416.55	56.4444
2418.45	52.6667
2420.34	52.8889
2422.24	55.3333
2424.13	54
2426.03	50.4444
2427.92	52.6667
2429.82	51.7778
2431.71	52
2433.6	55.5556
2435.49	53.1111
2437.39	50.8889
2439.28	51.7778
2441.17	52.2222
2443.06	56.2222
2444.95	49.3333
2446.83	53.5556
2448.72	53.3333
2450.61	52.8889
2452.5	51.7778
2454.39	52.4444
