105.443	1999.77
108.528	1995.76
111.612	1956.38
114.693	1911.63
117.774	1884.73
120.854	1848.39
123.931	1817.98
127.007	1807.88
130.081	1781.43
133.155	1747.39
136.226	1734.27
139.296	1716.12
142.364	1659.79
145.431	1649.74
148.496	1660.8
151.559	1616.19
154.622	1621.02
157.682	1583.59
160.741	1570.59
163.799	1573.36
166.855	1558.5
169.91	1530.35
172.963	1502.38
176.014	1520.52
179.064	1525.53
182.113	1515.2
185.16	1507.79
188.205	1501.2
191.249	1511.34
194.291	1502.98
197.333	1492.06
200.372	1484.82
203.409	1476.82
206.446	1461.52
209.48	1460.1
212.514	1436.11
215.546	1422.55
218.577	1423.79
221.605	1420.44
224.633	1410.01
227.658	1446.04
230.682	1442.68
233.706	1438.24
236.727	1441.01
239.747	1450.12
242.765	1443.76
245.782	1437
248.797	1438.67
251.811	1404.32
254.823	1410.71
257.834	1396.52
260.844	1368.71
263.852	1389.13
266.858	1392.86
269.863	1393.12
272.866	1388.62
275.868	1402.32
278.869	1401.08
281.867	1424.97
284.865	1416.78
287.861	1409.2
290.856	1425.86
293.848	1417.61
296.84	1404.64
299.83	1397.25
302.819	1386.12
305.806	1379.5
308.791	1388.47
311.775	1353.82
314.758	1376.51
317.739	1364.71
320.719	1374.1
323.697	1384.35
326.674	1381.46
329.649	1406.48
332.623	1391.55
335.595	1397.56
338.566	1410.7
341.535	1423.42
344.504	1417.88
347.47	1430.2
350.434	1457.26
353.399	1474.14
356.36	1488.24
359.321	1527.37
362.281	1523.67
365.238	1461.59
368.194	1453.22
371.149	1434.85
374.102	1401.51
377.054	1362.78
380.005	1368.41
382.954	1365.2
385.901	1365.12
388.847	1359.11
391.792	1367.49
394.735	1366.72
397.676	1398.78
400.617	1416.3
403.555	1452.44
406.493	1544.4
409.429	1740.45
412.363	2078.4
415.297	2436.71
418.228	2393.31
421.158	2055.48
424.087	1766.08
427.014	1548.16
429.94	1457
432.864	1422.83
435.787	1378.32
438.709	1351.22
441.629	1342.1
444.547	1333.66
447.464	1307.15
450.38	1297.11
453.294	1293.91
456.208	1295.47
459.119	1268.4
462.028	1258.63
464.938	1260.05
467.844	1266.3
470.75	1262.11
473.654	1265.38
476.557	1277.79
479.459	1294.56
482.359	1329.07
485.257	1344.49
488.154	1325.34
491.05	1325.41
493.945	1297.79
496.838	1300.42
499.729	1261.69
502.619	1249.52
505.508	1229.17
508.395	1225
511.281	1222.23
514.165	1228.15
517.049	1210.13
519.93	1191.53
522.81	1191.8
525.689	1195.95
528.566	1171.98
531.442	1164.44
534.317	1147.76
537.19	1141.05
540.062	1146.3
542.932	1144.37
545.801	1159.33
548.669	1155.17
551.534	1140.88
554.399	1154.73
557.262	1151.34
560.124	1159.71
562.985	1144.51
565.844	1159.05
568.702	1156.65
571.558	1154.68
574.413	1147.51
577.266	1143.81
580.118	1135.2
582.969	1134.78
585.819	1133.45
588.666	1130.76
591.513	1119.38
594.359	1129.32
597.202	1109.31
600.045	1107.1
602.885	1101.36
605.725	1102.87
608.564	1098.53
611.4	1098.96
614.236	1119.68
617.07	1096.5
619.902	1103.55
622.734	1102.45
625.564	1100.8
628.393	1088.37
631.219	1105.37
634.045	1093.92
636.87	1112.43
639.693	1089.09
642.515	1099.03
645.335	1089.69
648.153	1078.51
650.971	1094.15
653.787	1072.92
656.602	1074.12
659.416	1052.06
662.228	1067.27
665.038	1044.06
667.848	1019.1
670.655	1038.79
673.462	1050.38
676.268	1023.52
679.071	1045.34
681.874	1035.46
684.675	1029.08
687.475	1038.36
690.273	1055.39
693.07	1044.6
695.866	1049.98
698.66	1049.5
701.453	1071.67
704.244	1068.87
707.035	1074.1
709.824	1080.5
712.612	1095.67
715.397	1092.88
718.183	1097.71
720.966	1085.31
723.748	1112.57
726.529	1100.44
729.308	1098.84
732.087	1084.61
734.863	1082.28
737.639	1077.04
740.413	1076.62
743.186	1087.39
745.956	1065.18
748.726	1055.88
751.495	1057.31
754.262	1051.16
757.029	1061.96
759.793	1062.91
762.557	1048.74
765.318	1077.15
768.079	1092.04
770.839	1079.27
773.597	1077.67
776.353	1070.24
779.109	1074.15
781.862	1061.01
784.615	1025.28
787.366	1042.97
790.116	1042.84
792.865	1044.88
795.612	1029.79
798.358	1023.61
801.102	1012.18
803.846	1019.06
806.588	1026.12
809.329	1020.58
812.068	1015.42
814.806	998.315
817.542	1020.53
820.278	1004.41
823.012	991.946
825.744	996.747
828.476	981.863
831.206	980.156
833.935	982.69
836.662	1017.99
839.388	1002.64
842.113	1031.1
844.836	1055.53
847.558	1083.64
850.279	1129.04
852.999	1162.79
855.718	1205.71
858.435	1197.2
861.15	1197.35
863.865	1167.88
866.577	1133.24
869.289	1127.42
871.999	1103.13
874.709	1101.04
877.417	1089.93
880.123	1110.73
882.828	1074.27
885.531	1058.98
888.234	1039.85
890.936	1008.68
893.635	994.546
896.334	996.096
899.031	961.944
901.728	964.082
904.422	972.473
907.116	973.113
909.808	989.514
912.499	984.471
915.188	1001.78
917.877	1008.3
920.563	1012.14
923.249	992.632
925.934	990.413
928.617	942.967
931.298	924.253
933.979	918.061
936.658	894.98
939.336	876.971
942.013	875.802
944.688	873.485
947.362	850.348
950.035	841.131
952.706	846.883
955.377	831.183
958.045	837.631
960.714	839.367
963.38	819.829
966.044	825.636
968.709	827.39
971.372	826.353
974.033	814.503
976.693	834.942
979.351	824.43
982.009	816.829
984.665	828.978
987.32	827.037
989.974	818.292
992.626	827.174
995.277	829.848
997.926	844.208
1000.57	836.636
1003.22	847.893
1005.87	837.814
1008.51	865.539
1011.16	865.633
1013.8	892.591
1016.44	895.852
1019.08	902.961
1021.72	917.102
1024.35	911.29
1026.99	924.364
1029.63	946.656
1032.26	978.543
1034.89	1011.02
1037.52	1054.21
1040.15	1038.31
1042.78	1005.7
1045.41	931.821
1048.03	882.423
1050.66	883.673
1053.28	876.634
1055.9	873.601
1058.52	870.335
1061.14	865.935
1063.76	839.087
1066.38	832.872
1068.99	815.993
1071.61	795.429
1074.22	801.477
1076.83	807.681
1079.44	795.75
1082.05	798.823
1084.66	803.722
1087.27	800.471
1089.87	800.52
1092.48	789.318
1095.08	789.901
1097.68	789.616
1100.29	769.52
1102.88	779.699
1105.48	778.856
1108.08	792.841
1110.68	788.718
1113.27	793.446
1115.86	811.571
1118.46	806.679
1121.05	813.972
1123.64	832.41
1126.23	838.608
1128.81	842.024
1131.4	840.571
1133.98	843.623
1136.57	821.601
1139.15	824.732
1141.73	791.099
1144.31	779.891
1146.89	756.441
1149.47	751.432
1152.04	730.682
1154.62	717.393
1157.19	705.925
1159.76	705.398
1162.33	706.769
1164.9	710.736
1167.47	715.504
1170.04	720.429
1172.61	713.657
1175.17	721.464
1177.74	713.609
1180.3	742.377
1182.86	740.814
1185.42	751.234
1187.98	748.089
1190.54	753.918
1193.09	724.495
1195.65	726.495
1198.2	689.05
1200.76	672.592
1203.31	655.666
1205.86	661.865
1208.41	664.172
1210.96	657.549
1213.5	653.536
1216.05	656.959
1218.59	659.99
1221.14	633.782
1223.68	636.495
1226.22	647.973
1228.76	648.282
1231.3	662.321
1233.84	673.816
1236.37	674.207
1238.91	687.486
1241.44	708.473
1243.97	728.906
1246.5	739.953
1249.03	740.306
1251.56	742.635
1254.09	744.442
1256.62	724.821
1259.14	693.15
1261.67	708.357
1264.19	690.654
1266.71	678.636
1269.23	665.678
1271.75	677.3
1274.27	666.654
1276.78	683.333
1279.3	678.829
1281.81	680.745
1284.33	676.71
1286.84	663.747
1289.35	661.233
1291.86	650.994
1294.37	648.434
1296.88	664.109
1299.38	648.932
1301.89	639.128
1304.39	641.681
1306.89	632.267
1309.4	649.844
1311.9	637.763
1314.4	651.495
1316.89	654.824
1319.39	643.362
1321.89	667.969
1324.38	641.268
1326.87	650.057
1329.37	633.896
1331.86	634.933
1334.35	646.15
1336.83	642.93
1339.32	652.863
1341.81	643.268
1344.29	654.91
1346.78	658.35
1349.26	652.918
1351.74	647.121
1354.22	663.906
1356.7	646.799
1359.18	645.019
1361.65	647.633
1364.13	640.52
1366.6	646.343
1369.08	652.642
1371.55	643.736
1374.02	638.897
1376.49	648.369
1378.96	648.797
1381.43	635.198
1383.89	644.563
1386.36	630.818
1388.82	636.134
1391.28	625.621
1393.75	636.446
1396.21	631.142
1398.67	627.988
1401.12	630.946
1403.58	631.546
1406.04	639.967
1408.49	650.949
1410.95	642.329
1413.4	658.98
1415.85	647.232
1418.3	676.101
1420.75	687.78
1423.2	713.094
1425.64	750.358
1428.09	783.495
1430.53	822.553
1432.97	872.546
1435.42	898.665
1437.86	929.298
1440.3	945.848
1442.74	981.829
1445.17	979.524
1447.61	1002.13
1450.05	982.193
1452.48	943.833
1454.91	889.58
1457.34	840.465
1459.77	786.146
1462.2	759.896
1464.63	734.121
1467.06	725.183
1469.48	693.985
1471.91	690.731
1474.33	704.298
1476.76	697.36
1479.18	688.698
1481.6	670.426
1484.02	614.537
1486.44	604.029
1488.85	600.594
1491.27	573.963
1493.68	583.585
1496.1	567.601
1498.51	547.281
1500.92	547.666
1503.33	534.537
1505.74	543.688
1508.15	520.454
1510.55	522.91
1512.96	518.824
1515.36	520.814
1517.77	513.432
1520.17	514.092
1522.57	497.545
1524.97	494.591
1527.37	500.876
1529.77	504.262
1532.16	491.098
1534.56	489.35
1536.95	490.321
1539.35	489.353
1541.74	480.978
1544.13	482.779
1546.52	487.88
1548.91	478.335
1551.3	478.633
1553.68	479.533
1556.07	478.1
1558.45	468.788
1560.84	462.391
1563.22	469.963
1565.6	466.19
1567.98	466.384
1570.36	473.748
1572.74	462.985
1575.11	456.096
1577.49	458.522
1579.86	464.872
1582.24	461.612
1584.61	452.068
1586.98	450.237
1589.35	453.447
1591.72	456.176
1594.08	439.331
1596.45	455.077
1598.82	448.748
1601.18	434.954
1603.54	429.49
1605.91	438.486
1608.27	431.302
1610.63	443.503
1612.99	436.425
1615.34	430.66
1617.7	434.29
1620.06	421.858
1622.41	425.855
1624.76	420.983
1627.12	426.047
1629.47	418.353
1631.82	426.99
1634.17	420.855
1636.51	413.621
1638.86	414.937
1641.21	407.633
1643.55	410.166
1645.9	400.492
1648.24	399.04
1650.58	404.565
1652.92	401.759
1655.26	399.647
1657.6	400.485
1659.93	402.328
1662.27	396.019
1664.6	395.88
1666.94	392.984
1669.27	385.501
1671.6	389.506
1673.93	390.056
1676.26	387.107
1678.59	383.818
1680.92	381.089
1683.24	373.535
1685.57	376.65
1687.89	380.258
1690.22	365.675
1692.54	374.599
1694.86	368.566
1697.18	365.343
1699.5	371.991
1701.81	381.476
1704.13	370.096
1706.45	368.86
1708.76	368.961
1711.07	357.976
1713.38	361.02
1715.7	367.658
1718.01	352.258
1720.31	349.842
1722.62	350.635
1724.93	351.508
1727.24	348.635
1729.54	351.104
1731.84	343.057
1734.15	338.389
1736.45	336.321
1738.75	337.829
1741.05	335.214
1743.35	339.273
1745.64	334.861
1747.94	337.403
1750.23	331.33
1752.53	330.843
1754.82	331.774
1757.11	325.461
1759.4	329.795
1761.69	324.264
1763.98	324.717
1766.27	316.778
1768.56	316.166
1770.84	311.417
1773.13	319.215
1775.41	320.58
1777.69	313.447
1779.97	307.592
1782.25	304.144
1784.53	306.62
1786.81	301.5
1789.09	302.159
1791.36	307.543
1793.64	297.531
1795.91	300.415
1798.18	296.563
1800.46	288.985
1802.73	287.059
1805	291.986
1807.27	297.748
1809.53	296.877
1811.8	278.426
1814.07	289.154
1816.33	285.244
1818.59	283.398
1820.86	288.39
1823.12	290.898
1825.38	280.616
1827.64	284.153
1829.89	284.865
1832.15	283.822
1834.41	278.275
1836.66	277.854
1838.92	280.15
1841.17	275.808
1843.42	284.588
1845.67	274.047
1847.92	264.442
1850.17	273.332
1852.42	270.992
1854.67	265.717
1856.91	281.829
1859.16	269.795
1861.4	267.031
1863.64	262.074
1865.88	265.847
1868.12	266.495
1870.36	263.415
1872.6	263.604
1874.84	253.985
1877.08	262.761
1879.31	258.389
1881.54	251.788
1883.78	261.547
1886.01	252.995
1888.24	246.642
1890.47	252.274
1892.7	254.237
1894.93	246.766
1897.16	244.714
1899.38	249.986
1901.61	243.397
1903.83	243.106
1906.05	244.727
1908.28	244.741
1910.5	241.831
1912.72	242.049
1914.94	240.656
1917.16	241.465
1919.37	237.642
1921.59	242.999
1923.8	241.972
1926.02	236.66
1928.23	233.42
1930.44	233.658
1932.65	231.395
1934.86	235.953
1937.07	236.212
1939.28	235.234
1941.48	232.71
1943.69	238.041
1945.9	223.02
1948.1	225.2
1950.3	222.043
1952.5	228.309
1954.7	222.129
1956.9	219.855
1959.1	222.592
1961.3	219.435
1963.5	218.854
1965.69	210.473
1967.89	219.601
1970.08	214.599
1972.27	217.192
1974.46	209.729
1976.66	205.319
1978.84	202.7
1981.03	203.79
1983.22	211.081
1985.41	205.617
1987.59	207.096
1989.78	201.014
1991.96	199.18
1994.14	199.587
1996.32	202.328
1998.51	198.795
2000.69	200.503
2002.86	191.285
2005.04	198.632
2007.22	195.786
2009.39	195.951
2011.57	187.389
2013.74	192.716
2015.91	183.354
2018.09	192.292
2020.26	190.993
2022.43	188.642
2024.59	189.226
2026.76	177.821
2028.93	175.85
2031.09	189.863
2033.26	192.246
2035.42	178.801
2037.59	181.168
2039.75	183.691
2041.91	181.349
2044.07	178.644
2046.23	167.22
2048.38	178.275
2050.54	175.961
2052.7	170.925
2054.85	163.352
2057	175.708
2059.16	170.387
2061.31	168.678
2063.46	165.684
2065.61	168.752
2067.76	168.724
2069.91	160.65
2072.05	163.315
2074.2	161.067
2076.34	162.738
2078.49	163.807
2080.63	159.603
2082.77	160.743
2084.91	157.13
2087.05	152.782
2089.19	155.941
2091.33	148.664
2093.47	153.794
2095.6	153.942
2097.74	153.882
2099.87	152.481
2102.01	151.439
2104.14	150.137
2106.27	151.224
2108.4	146.852
2110.53	148.477
2112.66	142.833
2114.79	138.419
2116.91	142.281
2119.04	138.176
2121.16	139.262
2123.29	141.084
2125.41	141.137
2127.53	138.533
2129.65	139.833
2131.77	140.164
2133.89	145.951
2136.01	139.018
2138.12	133.842
2140.24	131.043
2142.35	133.647
2144.47	131.48
2146.58	140.952
2148.69	132.764
2150.8	132.791
2152.91	131.955
2155.02	135.016
2157.13	128.575
2159.24	127.844
2161.34	125.242
2163.45	126.826
2165.55	127.331
2167.66	130.805
2169.76	141.484
2171.86	122.736
2173.96	125.078
2176.06	123.854
2178.16	127.833
2180.26	120.175
2182.35	129.541
2184.45	121.031
2186.54	122.948
2188.64	120.828
2190.73	119.877
2192.82	118.292
2194.91	116.697
2197	119.347
2199.09	114.087
2201.18	120.573
2203.27	116.826
2205.35	119.671
2207.44	114.281
2209.52	114.23
2211.61	116.731
2213.69	111.202
2215.77	114.01
2217.85	111.032
2219.93	114.939
2222.01	111.157
2224.09	114.816
2226.16	113.439
2228.24	106.475
2230.31	117.323
2232.39	112.673
2234.46	113.719
2236.53	106.54
2238.6	112.097
2240.67	109.167
2242.74	108.298
2244.81	115.839
2246.88	108.515
2248.94	100.872
2251.01	105.765
2253.07	105.753
2255.14	99.9448
2257.2	103.932
2259.26	106.593
2261.32	105.869
2263.38	107.854
2265.44	101.592
2267.5	101.954
2269.56	102.718
2271.61	102.466
2273.67	95.5954
2275.72	100.939
2277.78	102.71
2279.83	95.8007
2281.88	99.2492
2283.93	98.8454
2285.98	100.074
2288.03	95.4563
2290.08	95.9892
2292.12	97.4603
2294.17	99.0085
2296.21	91.14
2298.26	92.7197
2300.3	89.6047
2302.34	93.3622
2304.38	91.3645
2306.42	85.9301
2308.46	84.6047
2310.5	93.4448
2312.54	88.321
2314.58	88.7535
2316.61	88.7051
2318.65	84.3446
2320.68	89.096
2322.71	87.1229
2324.75	86.991
2326.78	82.9052
2328.81	91.688
2330.84	81.8282
2332.86	83.7255
2334.89	85.2747
2336.92	82.8405
2338.94	81.8232
2340.97	82.3432
2342.99	82.6952
2345.02	82.4618
2347.04	82.4581
2349.06	76.3739
2351.08	80.21
2353.1	83.5678
2355.12	79.283
2357.13	86.5263
2359.15	76.4051
2361.17	75.3921
2363.18	73.6858
2365.19	77.751
2367.21	77.4942
2369.22	74.7553
2371.23	74.9301
2373.24	73.8138
2375.25	76.3735
2377.26	78.3685
2379.27	78.2427
2381.27	69.6124
2383.28	68.1439
2385.28	74.4903
2387.29	75.5659
2389.29	71.5751
2391.29	74.7139
2393.29	67.9703
2395.29	70.976
2397.29	73.2784
2399.29	68.1666
2401.29	70.1758
2403.28	68.1879
2405.28	68.4916
2407.27	68.1366
2409.27	68.7706
2411.26	73.1346
2413.25	69.9629
2415.25	73.8988
2417.24	68.9707
2419.22	67.7856
2421.21	66.2567
2423.2	64.4261
2425.19	67.9902
2427.17	66.4686
2429.16	66.8556
2431.14	65.0384
2433.13	64.5316
2435.11	60.7384
2437.09	64.3193
2439.07	61.9933
2441.05	64.1776
2443.03	65.8665
2445.01	64.4796
2446.98	56.5659
2448.96	61.036
2450.93	61.7524
2452.91	60.7973
2454.88	65.3595
2456.85	58.1114
2458.83	58.7517
2460.8	61.9084
2462.77	63.0967
2464.74	56.43
2466.7	59.7554
2468.67	64.6915
2470.64	61.9084
2472.6	59.0608
2474.57	58.9952
2476.53	56.2155
2478.49	62.4184
2480.46	59.3094
2482.42	64.104
2484.38	60.2214
2486.34	56.3713
2488.29	61.99
2490.25	62.3295
2492.21	66.3599
2494.16	61.606
2496.12	59.0554
2498.07	62.7012
2500.03	54.1809
2501.98	57.903
2503.93	58.7463
2505.88	57.6955
2507.83	59.7029
2509.78	69.6541
2511.73	73.6862
2513.67	73.2777
2515.62	73.8817
2517.56	62.2071
2519.51	56.7012
2521.45	52.2321
2523.4	50.0889
2525.34	53.4173
2527.28	51.915
2529.22	53.336
2531.16	54.4078
2533.1	48.0261
2535.03	51.771
2536.97	51.1327
2538.91	50.0118
2540.84	49.4999
2542.77	50.8822
2544.71	48.9321
2546.64	46.3211
2548.57	51.0556
2550.5	51.1214
2552.43	48.9497
2554.36	54.1833
2556.29	50.9503
2558.21	51.3805
2560.14	49.1248
2562.07	52.5273
2563.99	46.3678
2565.91	48.1871
2567.84	47.0698
2569.76	51.2342
2571.68	48.6202
2573.6	45.6015
2575.52	45.9647
2577.44	49.2661
2579.36	43.3645
2581.27	45.0163
2583.19	41.3529
2585.1	42.2132
2587.02	45.1058
2588.93	45.7463
2590.84	46.9178
2592.75	45.6144
2594.67	43.3073
2596.58	45.7777
2598.48	45.7588
2600.39	43.7954
