105.443	1916.76
108.528	1925.27
111.612	1873.28
114.693	1814.07
117.774	1788.28
120.854	1756.44
123.931	1747.45
127.007	1718.58
130.081	1681.29
133.155	1680.4
136.226	1653.83
139.296	1611.91
142.364	1588.64
145.431	1570.17
148.496	1550.43
151.559	1529.79
154.622	1511.23
157.682	1512.56
160.741	1501.63
163.799	1517.86
166.855	1469.89
169.91	1462.09
172.963	1427.67
176.014	1434.73
179.064	1422.42
182.113	1413.5
185.16	1406.92
188.205	1419.59
191.249	1426.16
194.291	1432.66
197.333	1405.67
200.372	1404.7
203.409	1386.95
206.446	1373.17
209.48	1388.33
212.514	1372.36
215.546	1370.91
218.577	1360.89
221.605	1354.11
224.633	1359.49
227.658	1370.95
230.682	1378.89
233.706	1372.18
236.727	1378
239.747	1365.95
242.765	1373.94
245.782	1360.68
248.797	1336.64
251.811	1334.61
254.823	1311.53
257.834	1291.18
260.844	1300.76
263.852	1291.03
266.858	1290.02
269.863	1300.67
272.866	1310.61
275.868	1315.24
278.869	1335.99
281.867	1334.89
284.865	1335.26
287.861	1354.47
290.856	1324.25
293.848	1322.7
296.84	1334.12
299.83	1293.06
302.819	1314.58
305.806	1291.19
308.791	1297.71
311.775	1283.76
314.758	1287.15
317.739	1293.27
320.719	1292.25
323.697	1288.5
326.674	1304.82
329.649	1304.11
332.623	1312.15
335.595	1337.24
338.566	1324.22
341.535	1323.14
344.504	1334.26
347.47	1360.86
350.434	1379.56
353.399	1398.4
356.36	1424.38
359.321	1432.22
362.281	1422.81
365.238	1390.16
368.194	1364.08
371.149	1347.95
374.102	1324.33
377.054	1299.01
380.005	1289.37
382.954	1272.59
385.901	1290.93
388.847	1285.58
391.792	1301.46
394.735	1294.11
397.676	1319.06
400.617	1345.16
403.555	1373.86
406.493	1458.43
409.429	1639.39
412.363	1994.22
415.297	2335.55
418.228	2309.02
421.158	1973.32
424.087	1670.75
427.014	1489.31
429.94	1384.67
432.864	1320.41
435.787	1289.49
438.709	1281.56
441.629	1263.19
444.547	1249.01
447.464	1233.7
450.38	1232.52
453.294	1206.58
456.208	1192.03
459.119	1197.51
462.028	1185.96
464.938	1184.7
467.844	1186.96
470.75	1182.75
473.654	1173.07
476.557	1186.78
479.459	1221.23
482.359	1255.98
485.257	1284.58
488.154	1282.39
491.05	1262.07
493.945	1231.47
496.838	1210.08
499.729	1202.34
502.619	1175.73
505.508	1173.42
508.395	1160.39
511.281	1149.61
514.165	1146.72
517.049	1131.86
519.93	1119.67
522.81	1103
525.689	1105.73
528.566	1110.06
531.442	1088.34
534.317	1079.38
537.19	1081.4
540.062	1071.54
542.932	1085.92
545.801	1077.62
548.669	1093.73
551.534	1086.2
554.399	1070.67
557.262	1092.99
560.124	1076.72
562.985	1072.07
565.844	1070.08
568.702	1100.16
571.558	1082.44
574.413	1085.72
577.266	1074.92
580.118	1073.47
582.969	1065.63
585.819	1077.2
588.666	1074.14
591.513	1057.2
594.359	1055.81
597.202	1046.93
600.045	1039.71
602.885	1044.22
605.725	1040.02
608.564	1038.46
611.4	1033.24
614.236	1047.44
617.07	1035.95
619.902	1025.17
622.734	1042.7
625.564	1052.28
628.393	1035.59
631.219	1029.53
634.045	1047.83
636.87	1030.2
639.693	1040.28
642.515	1035.75
645.335	1015.14
648.153	1004.53
650.971	1019.86
653.787	1009.11
656.602	1007.16
659.416	1004.06
662.228	982.783
665.038	989.886
667.848	969.919
670.655	963.341
673.462	976.831
676.268	946.22
679.071	965.995
681.874	966.8
684.675	987.551
687.475	994.069
690.273	980.29
693.07	967.807
695.866	995.021
698.66	997.89
701.453	1010.62
704.244	1006.31
707.035	1017.2
709.824	1025.64
712.612	1017.28
715.397	1034.05
718.183	1032.24
720.966	1034.37
723.748	1035.94
726.529	1019.54
729.308	1013.63
732.087	1022.25
734.863	1020.76
737.639	1020.89
740.413	1022.03
743.186	1000.94
745.956	1005.18
748.726	1008.19
751.495	1000.72
754.262	987.498
757.029	1001.83
759.793	1002.91
762.557	1003.01
765.318	1015.75
768.079	1020.29
770.839	1036.04
773.597	1027.97
776.353	1016.43
779.109	1012.35
781.862	1010.64
784.615	977.668
787.366	976.047
790.116	990.409
792.865	993.699
795.612	978.81
798.358	973.521
801.102	968.401
803.846	960.203
806.588	950.89
809.329	973.584
812.068	950.335
814.806	948.726
817.542	937.076
820.278	945.136
823.012	941.534
825.744	935.976
828.476	931.458
831.206	949.156
833.935	943.81
836.662	941.705
839.388	966.974
842.113	978.299
844.836	1000.93
847.558	1038.77
850.279	1056.34
852.999	1106.64
855.718	1143.76
858.435	1158.26
861.15	1109.14
863.865	1120.94
866.577	1089.05
869.289	1036.2
871.999	1056.84
874.709	1042.62
877.417	1070.16
880.123	1033.51
882.828	1034.46
885.531	991.901
888.234	968.226
890.936	951.943
893.635	953.915
896.334	922.327
899.031	938.521
901.728	920.631
904.422	922.519
907.116	937.277
909.808	936.648
912.499	950.603
915.188	958.035
917.877	960.921
920.563	952.91
923.249	945.517
925.934	921.974
928.617	909.71
931.298	872.816
933.979	876.042
936.658	846.356
939.336	825.182
942.013	838.291
944.688	825.841
947.362	806
950.035	803.553
952.706	791.602
955.377	795.314
958.045	789.752
960.714	781.358
963.38	780.333
966.044	769.948
968.709	768.603
971.372	769.856
974.033	781.584
976.693	770.792
979.351	772.855
982.009	774.091
984.665	773.047
987.32	794
989.974	785.865
992.626	779.53
995.277	787.711
997.926	792.4
1000.57	796.663
1003.22	794.593
1005.87	793.663
1008.51	825.476
1011.16	843.504
1013.8	849.142
1016.44	848.599
1019.08	860.815
1021.72	854.056
1024.35	888.089
1026.99	883.909
1029.63	895.833
1032.26	924.406
1034.89	973.681
1037.52	1003.42
1040.15	992.434
1042.78	949.547
1045.41	904.974
1048.03	863.634
1050.66	822.431
1053.28	815.664
1055.9	822.914
1058.52	825.707
1061.14	803.23
1063.76	801.849
1066.38	781.664
1068.99	750.41
1071.61	757.974
1074.22	758.686
1076.83	771.236
1079.44	764.798
1082.05	763.402
1084.66	752.453
1087.27	757.182
1089.87	756.454
1092.48	747.365
1095.08	748.312
1097.68	747.058
1100.29	750.376
1102.88	733.886
1105.48	742.156
1108.08	740.119
1110.68	766.366
1113.27	776.85
1115.86	762.383
1118.46	763.278
1121.05	786.446
1123.64	793.786
1126.23	802.411
1128.81	803.032
1131.4	821.457
1133.98	799.128
1136.57	787.872
1139.15	769.998
1141.73	754.062
1144.31	744.362
1146.89	723.806
1149.47	704.232
1152.04	697.752
1154.62	690.087
1157.19	677.114
1159.76	670.276
1162.33	674.258
1164.9	674.615
1167.47	678.334
1170.04	683.579
1172.61	670.628
1175.17	688.281
1177.74	701.469
1180.3	699.84
1182.86	717.329
1185.42	720.056
1187.98	714.921
1190.54	708.872
1193.09	690.695
1195.65	675.624
1198.2	655.299
1200.76	638.838
1203.31	635.462
1205.86	635.143
1208.41	637.383
1210.96	627.669
1213.5	625.692
1216.05	615.333
1218.59	617.906
1221.14	607.564
1223.68	619.602
1226.22	619.333
1228.76	628.141
1231.3	626.418
1233.84	635.357
1236.37	652.167
1238.91	661.99
1241.44	678.731
1243.97	694.166
1246.5	710.209
1249.03	691.795
1251.56	703.196
1254.09	700.684
1256.62	686.819
1259.14	668.541
1261.67	659.902
1264.19	665.294
1266.71	645.142
1269.23	632.644
1271.75	632.377
1274.27	638.381
1276.78	656.14
1279.3	664.112
1281.81	639.776
1284.33	640.347
1286.84	628.196
1289.35	624.864
1291.86	631.105
1294.37	608.512
1296.88	627.668
1299.38	617.275
1301.89	605.254
1304.39	617.754
1306.89	598.83
1309.4	615.713
1311.9	622.107
1314.4	615.076
1316.89	618.58
1319.39	617.158
1321.89	617.951
1324.38	618.524
1326.87	611.551
1329.37	621.18
1331.86	617.978
1334.35	618.192
1336.83	612.632
1339.32	627.458
1341.81	626.569
1344.29	615.459
1346.78	622.304
1349.26	623.183
1351.74	623.892
1354.22	627.151
1356.7	621.965
1359.18	617.443
1361.65	626.469
1364.13	618.715
1366.6	611.582
1369.08	616.387
1371.55	618.697
1374.02	615.818
1376.49	614.641
1378.96	622.083
1381.43	621.944
1383.89	607.079
1386.36	608.455
1388.82	603.96
1391.28	603.668
1393.75	614.428
1396.21	596.134
1398.67	597.696
1401.12	605.905
1403.58	617.254
1406.04	598.978
1408.49	623.38
1410.95	619.841
1413.4	637.929
1415.85	625.581
1418.3	645.689
1420.75	656.387
1423.2	699.931
1425.64	725.639
1428.09	767.194
1430.53	815.422
1432.97	862.293
1435.42	888.134
1437.86	893.861
1440.3	915.212
1442.74	944.23
1445.17	978.972
1447.61	986.358
1450.05	951.661
1452.48	925.78
1454.91	867.329
1457.34	824.514
1459.77	760.943
1462.2	735.109
1464.63	704.032
1467.06	688.915
1469.48	686.363
1471.91	687.825
1474.33	665.775
1476.76	662.818
1479.18	645.293
1481.6	629.593
1484.02	605.72
1486.44	578.891
1488.85	569.811
1491.27	565.666
1493.68	549.23
1496.1	539.444
1498.51	531.311
1500.92	528.726
1503.33	513.744
1505.74	521.893
1508.15	504.03
1510.55	503.275
1512.96	498.052
1515.36	495.228
1517.77	497.055
1520.17	493.633
1522.57	494.358
1524.97	490.527
1527.37	485.557
1529.77	473.076
1532.16	475.609
1534.56	471.016
1536.95	481.107
1539.35	462.746
1541.74	466.628
1544.13	455.209
1546.52	478.218
1548.91	462.171
1551.3	457.387
1553.68	450.899
1556.07	454.983
1558.45	453.487
1560.84	456.08
1563.22	459.924
1565.6	452.419
1567.98	445.089
1570.36	448.415
1572.74	444.26
1575.11	435.22
1577.49	441.338
1579.86	440.668
1582.24	425.101
1584.61	431.036
1586.98	437.797
1589.35	426.598
1591.72	435.826
1594.08	433.218
1596.45	416.086
1598.82	426.076
1601.18	420.836
1603.54	427.934
1605.91	411.614
1608.27	419.526
1610.63	409.124
1612.99	412.223
1615.34	414.979
1617.7	413.776
1620.06	409.131
1622.41	404.599
1624.76	409.365
1627.12	405.98
1629.47	410.744
1631.82	402.137
1634.17	401.151
1636.51	401.813
1638.86	405.987
1641.21	402.071
1643.55	389.217
1645.9	387.14
1648.24	391.26
1650.58	384.58
1652.92	391.081
1655.26	374.99
1657.6	381.084
1659.93	382.983
1662.27	387.685
1664.6	380.91
1666.94	377.388
1669.27	366.792
1671.6	369.97
1673.93	370.125
1676.26	359.155
1678.59	368.245
1680.92	370.467
1683.24	364.467
1685.57	354.087
1687.89	360.166
1690.22	357.308
1692.54	356.112
1694.86	364.914
1697.18	363.275
1699.5	356.951
1701.81	357.661
1704.13	351.11
1706.45	352.857
1708.76	358.131
1711.07	341.944
1713.38	341.522
1715.7	333.03
1718.01	337.451
1720.31	333.582
1722.62	347.086
1724.93	339.854
1727.24	328.476
1729.54	329.774
1731.84	335.368
1734.15	333.743
1736.45	332.944
1738.75	333.517
1741.05	326.198
1743.35	325.557
1745.64	320.833
1747.94	318.135
1750.23	321.503
1752.53	318.294
1754.82	312.744
1757.11	313.581
1759.4	314.624
1761.69	306.443
1763.98	305.528
1766.27	301.11
1768.56	306.235
1770.84	306.991
1773.13	295.504
1775.41	302.533
1777.69	289.392
1779.97	301.198
1782.25	291.194
1784.53	294.833
1786.81	294.117
1789.09	292.037
1791.36	289.965
1793.64	286.634
1795.91	287.809
1798.18	287.449
1800.46	278.717
1802.73	281.608
1805	289.81
1807.27	281.188
1809.53	275.056
1811.8	285
1814.07	275.761
1816.33	285.033
1818.59	274.277
1820.86	277.693
1823.12	272.522
1825.38	270.956
1827.64	274.035
1829.89	274.032
1832.15	266.094
1834.41	273.651
1836.66	273.972
1838.92	271.184
1841.17	274.497
1843.42	267.998
1845.67	271.101
1847.92	261.915
1850.17	242.745
1852.42	260.692
1854.67	258.497
1856.91	260.795
1859.16	260.072
1861.4	260.228
1863.64	258.148
1865.88	252.626
1868.12	257.142
1870.36	258.324
1872.6	255.194
1874.84	260.172
1877.08	256.627
1879.31	246.681
1881.54	248.516
1883.78	252.152
1886.01	255.903
1888.24	251.312
1890.47	250.168
1892.7	244.072
1894.93	243.077
1897.16	245.131
1899.38	235.004
1901.61	246.164
1903.83	249.302
1906.05	240.183
1908.28	230.132
1910.5	235.222
1912.72	232.964
1914.94	228.091
1917.16	230.022
1919.37	232.675
1921.59	231.867
1923.8	226.788
1926.02	227.647
1928.23	225.479
1930.44	227.713
1932.65	216.386
1934.86	224.2
1937.07	222.251
1939.28	227.419
1941.48	221.352
1943.69	221.002
1945.9	215.921
1948.1	216.14
1950.3	217.713
1952.5	214.777
1954.7	214.252
1956.9	210.979
1959.1	214.446
1961.3	205.404
1963.5	214.083
1965.69	211.438
1967.89	207.332
1970.08	204.523
1972.27	207.459
1974.46	203.968
1976.66	205.082
1978.84	202.362
1981.03	200.419
1983.22	197.188
1985.41	199.075
1987.59	196.81
1989.78	194.685
1991.96	190.777
1994.14	192.644
1996.32	192.588
1998.51	184.644
2000.69	191.456
2002.86	191.83
2005.04	195.779
2007.22	182.818
2009.39	188.227
2011.57	181.043
2013.74	181.445
2015.91	182.357
2018.09	185.389
2020.26	172.792
2022.43	176.602
2024.59	178.461
2026.76	170.626
2028.93	181.148
2031.09	176.872
2033.26	172.702
2035.42	168.991
2037.59	164.901
2039.75	171.094
2041.91	172.501
2044.07	163.966
2046.23	169.738
2048.38	165.595
2050.54	166.094
2052.7	160.803
2054.85	159.653
2057	159.867
2059.16	160.505
2061.31	165.75
2063.46	160.448
2065.61	149.715
2067.76	155.405
2069.91	155.164
2072.05	158.586
2074.2	156.697
2076.34	151.396
2078.49	160.512
2080.63	154.133
2082.77	149.399
2084.91	152.261
2087.05	149.645
2089.19	151.119
2091.33	150.628
2093.47	142.423
2095.6	143.046
2097.74	144.312
2099.87	145.144
2102.01	140.428
2104.14	146.323
2106.27	139.953
2108.4	140.917
2110.53	141.504
2112.66	145.639
2114.79	139.014
2116.91	134.504
2119.04	138.533
2121.16	139.947
2123.29	129.44
2125.41	133.221
2127.53	133.575
2129.65	131.696
2131.77	138.388
2133.89	129.655
2136.01	132.002
2138.12	129.217
2140.24	129.559
2142.35	135.134
2144.47	133.477
2146.58	124.918
2148.69	124.312
2150.8	123.888
2152.91	122.858
2155.02	127.214
2157.13	125.613
2159.24	125.641
2161.34	125.952
2163.45	118.267
2165.55	127.573
2167.66	126.047
2169.76	133.865
2171.86	125.723
2173.96	118.125
2176.06	114.833
2178.16	121.416
2180.26	119.473
2182.35	120.944
2184.45	122.366
2186.54	124.133
2188.64	121.103
2190.73	118.82
2192.82	113.124
2194.91	110.966
2197	117.277
2199.09	113.945
2201.18	115.885
2203.27	113.325
2205.35	107.311
2207.44	118.03
2209.52	110.919
2211.61	117.062
2213.69	112.388
2215.77	110.833
2217.85	107.381
2219.93	113.242
2222.01	105.81
2224.09	111.376
2226.16	104.614
2228.24	105.212
2230.31	111.461
2232.39	106.851
2234.46	107.8
2236.53	103.23
2238.6	109.11
2240.67	104.804
2242.74	104.998
2244.81	103.417
2246.88	103.881
2248.94	105.353
2251.01	98.9173
2253.07	103.17
2255.14	100.605
2257.2	98.0859
2259.26	101.521
2261.32	97.1238
2263.38	103.173
2265.44	99.5846
2267.5	102.236
2269.56	97.9753
2271.61	91.9924
2273.67	98.996
2275.72	96.3474
2277.78	96.1395
2279.83	94.5006
2281.88	93.0549
2283.93	94.7765
2285.98	90.7216
2288.03	93.5543
2290.08	94.6734
2292.12	89.6965
2294.17	92.3768
2296.21	90.8548
2298.26	87.6663
2300.3	90.3862
2302.34	92.5697
2304.38	88.6837
2306.42	90.1393
2308.46	86.836
2310.5	86.4049
2312.54	83.2601
2314.58	84.8678
2316.61	85.5869
2318.65	84.3976
2320.68	86.2506
2322.71	79.3588
2324.75	83.9655
2326.78	86.0894
2328.81	82.1998
2330.84	83.4234
2332.86	78.5726
2334.89	85.7222
2336.92	81.3882
2338.94	81.1924
2340.97	82.0379
2342.99	80.8886
2345.02	79.0533
2347.04	80.1429
2349.06	78.7316
2351.08	83.4579
2353.1	79.3858
2355.12	80.0787
2357.13	79.1948
2359.15	78.0944
2361.17	78.3153
2363.18	78.0061
2365.19	74.7373
2367.21	73.2527
2369.22	75.2521
2371.23	75.5167
2373.24	74.992
2375.25	78.7861
2377.26	74.9113
2379.27	75.9608
2381.27	76.2945
2383.28	73.3169
2385.28	72.166
2387.29	77.7045
2389.29	66.693
2391.29	69.7868
2393.29	65.7479
2395.29	69.3645
2397.29	72.2109
2399.29	66.163
2401.29	65.333
2403.28	71.2959
2405.28	66.6268
2407.27	70.7139
2409.27	63.6376
2411.26	66.7811
2413.25	66.7303
2415.25	64.8383
2417.24	65.1289
2419.22	63.7502
2421.21	68.4234
2423.2	66.4584
2425.19	64.9608
2427.17	63.3976
2429.16	64.1436
2431.14	67.3116
2433.13	64.2866
2435.11	63.4427
2437.09	62.895
2439.07	66.8133
2441.05	65.2159
2443.03	62.756
2445.01	63.9913
2446.98	63.591
2448.96	60.3115
2450.93	60.1439
2452.91	64.8319
2454.88	63.1372
2456.85	60.2179
2458.83	58.8908
2460.8	57.179
2462.77	61.0893
2464.74	54.9459
2466.7	58.5773
2468.67	60.5117
2470.64	61.4455
2472.6	57.5304
2474.57	60.9659
2476.53	55.5877
2478.49	53.8902
2480.46	59.2078
2482.42	55.8849
2484.38	58.1667
2486.34	61.082
2488.29	61.4779
2490.25	61.0857
2492.21	67.9738
2494.16	66.0421
2496.12	61.1122
2498.07	56.4154
2500.03	55.3588
2501.98	53.842
2503.93	57.2895
2505.88	61.548
2507.83	64.1881
2509.78	68.6198
2511.73	70.4977
2513.67	71.4197
2515.62	71.2543
2517.56	66.9639
2519.51	60.4234
2521.45	58.4749
2523.4	55.6994
2525.34	55.6691
2527.28	52.5124
2529.22	49.7791
2531.16	48.5181
2533.1	51.1402
2535.03	52.8886
2536.97	50.3882
2538.91	53.3926
2540.84	53.4756
2542.77	47.9595
2544.71	48.7754
2546.64	48.1087
2548.57	49.7861
2550.5	50.7139
2552.43	52.487
2554.36	52.0639
2556.29	47.1128
2558.21	47.013
2560.14	48.2815
2562.07	54.8972
2563.99	49.7359
2565.91	44.3732
2567.84	48.1395
2569.76	47.0297
2571.68	45.9475
2573.6	47.9451
2575.52	46.5947
2577.44	46.5883
2579.36	45.0314
2581.27	46.6319
2583.19	48.5804
2585.1	47.7935
2587.02	48.2209
2588.93	45.3343
2590.84	42.6808
2592.75	45.5315
2594.67	45.3092
2596.58	44.2928
2598.48	42.5756
2600.39	43.8759
