178.677	3497.56
181.278	3495.78
183.879	3523.33
186.48	3593.11
189.078	3681.33
191.677	3806.44
194.275	3922.67
196.871	4050.67
199.467	4190.67
202.061	4309.11
204.656	4459.78
207.248	4542.89
209.841	4701.78
212.431	4821.11
215.022	4999.56
217.613	5153.33
220.201	5393.78
222.789	5656.89
225.375	5993.33
227.962	6386.67
230.547	6893.11
233.13	7466.22
235.714	8096.22
238.296	8596
240.879	8990.67
243.459	9070.67
246.04	8847.11
248.618	8297.11
251.196	7567.56
253.774	6781.78
256.35	5982.44
258.927	5270.44
261.501	4657.33
264.074	4156.22
266.648	3728.22
269.22	3414.44
271.791	3145.33
274.362	2922.44
276.931	2741.78
279.5	2580.44
282.069	2486.22
284.635	2342.22
287.201	2273.33
289.766	2188
292.331	2134
294.894	2094.89
297.457	2038.89
300.018	1997.33
302.58	1955.78
305.14	1937.78
307.699	1906
310.257	1854.22
312.814	1840.89
315.372	1808.67
317.928	1798.44
320.482	1782.22
323.036	1768.67
325.589	1751.11
328.142	1756.44
330.693	1729.33
333.243	1744.44
335.795	1718.44
338.343	1702.44
340.891	1704.44
343.439	1709.56
345.985	1694.67
348.53	1695.78
351.075	1714
353.619	1707.56
356.162	1692.67
358.704	1732
361.245	1693.33
363.786	1693.11
366.325	1704
368.864	1691.33
371.402	1687.78
373.939	1684.89
376.475	1712.22
379.011	1694.44
381.545	1721.33
384.079	1690.44
386.612	1685.56
389.144	1664.44
391.674	1656
394.204	1633.56
396.734	1649.33
399.263	1629.33
401.791	1656.89
404.318	1656.89
406.844	1641.56
409.368	1638.44
411.893	1622
414.417	1624.44
416.94	1632.22
419.462	1644.67
421.982	1651.78
424.502	1645.78
427.022	1632
429.541	1634.22
432.057	1633.11
434.574	1658
437.091	1641.33
439.606	1638.22
442.12	1632.89
444.634	1625.56
447.147	1620.89
449.657	1617.33
452.169	1619.11
454.68	1602.44
457.188	1587.11
459.697	1631.56
462.205	1614.44
464.711	1603.56
467.217	1582.22
469.722	1588.44
472.227	1592.89
474.731	1589.78
477.232	1600.44
479.735	1591.33
482.235	1582.22
484.736	1594
487.234	1566.44
489.734	1585.78
492.23	1564.22
494.728	1582.89
497.223	1556.44
499.719	1572.89
502.213	1544.44
504.707	1556.44
507.199	1558.22
509.692	1555.11
512.182	1531.56
514.673	1548
517.162	1537.78
519.65	1550.22
522.139	1530
524.625	1536.67
527.112	1532
529.597	1500.22
532.081	1514.89
534.565	1508.67
537.047	1525.56
539.529	1523.78
542.011	1535.11
544.491	1532
546.97	1539.78
549.45	1530
551.927	1533.78
554.404	1530.67
556.88	1532.44
559.356	1526.89
561.831	1550.67
564.304	1548.67
566.777	1543.11
569.25	1531.78
571.721	1532.44
574.191	1513.33
576.661	1546.22
579.129	1543.33
581.599	1540.44
584.066	1528.22
586.532	1548
588.997	1547.78
591.462	1518.22
593.926	1534.22
596.389	1541.11
598.851	1512.22
601.314	1529.33
603.775	1534
606.235	1517.33
608.694	1536.44
611.152	1540.22
613.609	1535.33
616.066	1556.67
618.522	1547.78
620.977	1558.67
623.431	1563.11
625.885	1573.78
628.338	1563.33
630.79	1567.33
633.241	1570
635.691	1574.22
638.141	1573.11
640.589	1558
643.036	1576.44
645.483	1575.11
647.929	1584.67
650.375	1594.67
652.82	1556.22
655.264	1561.78
657.707	1531.11
660.149	1560.22
662.59	1548.44
665.031	1535.11
667.471	1570.22
669.91	1537.33
672.349	1542.89
674.786	1543.11
677.222	1531.33
679.658	1546
682.093	1527.56
684.528	1533.11
686.96	1538.22
689.393	1559.33
691.826	1553.33
694.256	1555.78
696.686	1559.33
699.116	1570.44
701.545	1579.78
703.972	1571.56
706.4	1556.89
708.826	1540.22
711.251	1571.56
713.676	1566.44
716.099	1565.56
718.523	1575.11
720.946	1572.89
723.366	1556
725.788	1567.56
728.207	1560.89
730.627	1566.67
733.044	1560.22
735.462	1570.22
737.88	1562
740.295	1565.56
742.711	1536.67
745.125	1556
747.539	1554
749.951	1549.11
752.363	1546.89
754.775	1558.89
757.185	1553.78
759.595	1564
762.003	1575.56
764.412	1569.11
766.819	1552.22
769.225	1564.89
771.632	1554.44
774.036	1562.22
776.441	1567.78
778.844	1575.11
781.246	1580.67
783.649	1594.67
786.05	1572.67
788.449	1592
790.85	1593.56
793.248	1599.78
795.646	1607.33
798.042	1589.11
800.44	1599.56
802.835	1600
805.23	1602.44
807.623	1618
810.018	1621.78
812.41	1615.11
814.801	1631.78
817.192	1640.67
819.582	1632.89
821.972	1616.22
824.361	1634.44
826.748	1620.89
829.135	1622.67
831.521	1605.11
833.907	1607.78
836.291	1618.67
838.675	1611.78
841.059	1610.22
843.442	1621.78
845.823	1631.56
848.204	1643.33
850.584	1637.78
852.963	1650.89
855.342	1633.33
857.72	1667.56
860.097	1684.67
862.473	1683.56
864.848	1664
867.223	1654
869.597	1636.89
871.97	1610.22
874.343	1594.44
876.714	1605.56
879.084	1614.67
881.454	1609.56
883.824	1613.78
886.192	1600.22
888.56	1592
890.927	1629.11
893.294	1615.11
895.66	1628.44
898.023	1610.67
900.387	1617.33
902.751	1613.78
905.114	1612.67
907.476	1601.33
909.835	1620.89
912.196	1603.78
914.555	1608.89
916.914	1596.67
919.271	1613.33
921.629	1584
923.985	1584.89
926.341	1615.11
928.695	1575.33
931.05	1598
933.404	1582.44
935.755	1575.56
938.107	1598
940.459	1606.22
942.808	1599.56
945.158	1605.33
947.508	1590.44
949.855	1596.89
952.202	1602.44
954.548	1603.33
956.894	1617.33
959.239	1611.78
961.583	1624.89
963.928	1612
966.27	1615.11
968.612	1621.33
970.953	1613.56
973.294	1629.11
975.633	1610.22
977.972	1621.11
980.31	1613.56
982.647	1612.89
984.984	1634
987.32	1604.67
989.656	1614.22
991.989	1624.22
994.324	1619.56
996.656	1642
998.988	1643.56
1001.32	1631.78
1003.65	1625.33
1005.98	1629.11
1008.31	1610.67
1010.64	1615.11
1012.97	1628.89
1015.29	1622
1017.62	1636.44
1019.94	1608.22
1022.27	1629.11
1024.59	1634
1026.92	1635.33
1029.24	1654.44
1031.56	1633.56
1033.88	1632.67
1036.2	1648.44
1038.52	1656
1040.84	1628.44
1043.16	1641.11
1045.48	1657.33
1047.79	1648.89
1050.11	1654.44
1052.42	1670.44
1054.74	1671.33
1057.05	1680.89
1059.36	1703.78
1061.67	1693.78
1063.99	1686.67
1066.3	1695.11
1068.61	1688
1070.92	1698
1073.22	1680.22
1075.53	1693.78
1077.84	1679.11
1080.15	1712.67
1082.45	1680.67
1084.76	1717.78
1087.06	1727.33
1089.36	1718.44
1091.66	1735.11
1093.97	1752.22
1096.27	1772
1098.57	1766.44
1100.87	1752
1103.17	1769.78
1105.46	1759.78
1107.76	1778.22
1110.06	1780.22
1112.35	1796.89
1114.65	1786
1116.94	1771.56
1119.24	1778
1121.53	1774.67
1123.82	1768
1126.11	1763.33
1128.4	1794
1130.7	1764.89
1132.98	1749.11
1135.27	1764.44
1137.56	1764.44
1139.85	1753.56
1142.13	1756.67
1144.42	1762.89
1146.71	1779.78
1148.99	1792.22
1151.27	1795.56
1153.56	1766.22
1155.84	1792.44
1158.12	1797.56
1160.4	1801.33
1162.68	1819.56
1164.96	1808.44
1167.24	1810.89
1169.51	1816.67
1171.79	1794.67
1174.07	1801.11
1176.34	1772.44
1178.62	1784
1180.89	1757.11
1183.17	1744.44
1185.44	1752.22
1187.71	1743.33
1189.98	1769.11
1192.25	1753.11
1194.52	1750.22
1196.79	1755.56
1199.06	1770
1201.33	1773.11
1203.59	1777.11
1205.86	1762.44
1208.12	1782.44
1210.39	1770.22
1212.65	1751.11
1214.92	1768.89
1217.18	1773.33
1219.44	1785.11
1221.7	1795.11
1223.96	1772
1226.22	1787.78
1228.48	1811.56
1230.74	1805.33
1233	1847.78
1235.25	1864.89
1237.51	1872.89
1239.77	1906.22
1242.02	1880.67
1244.27	1914.44
1246.53	1893.78
1248.78	1912.67
1251.03	1920.44
1253.28	1931.33
1255.53	1929.56
1257.78	1947.56
1260.03	1937.56
1262.28	1937.11
1264.53	1931.33
1266.78	1913.33
1269.02	1908.89
1271.27	1892.22
1273.51	1897.56
1275.76	1902.67
1278	1858.89
1280.24	1854.44
1282.48	1838.67
1284.72	1839.33
1286.97	1858.89
1289.21	1856
1291.44	1858
1293.68	1854
1295.92	1860.22
1298.16	1856.89
1300.39	1831.78
1302.63	1845.78
1304.86	1874
1307.1	1864.89
1309.33	1887.78
1311.56	1902.89
1313.8	1956.44
1316.03	1981.56
1318.26	2018.89
1320.49	2046
1322.72	2080.22
1324.95	2074.44
1327.17	2082.44
1329.4	2044.22
1331.63	2011.78
1333.85	1985.33
1336.08	1956.22
1338.3	1905.78
1340.53	1887.33
1342.75	1896.67
1344.97	1910.44
1347.19	1884.67
1349.41	1849.33
1351.63	1864.22
1353.85	1864.22
1356.07	1858.22
1358.29	1853.78
1360.51	1855.56
1362.72	1851.56
1364.94	1870.22
1367.16	1852.44
1369.37	1857.33
1371.58	1884.44
1373.8	1853.11
1376.01	1851.78
1378.22	1864.89
1380.43	1858.44
1382.64	1860.44
1384.85	1857.33
1387.06	1856.67
1389.27	1853.11
1391.48	1848
1393.68	1864.44
1395.89	1846.67
1398.1	1844.89
1400.3	1829.11
1402.51	1845.56
1404.71	1832
1406.91	1846
1409.11	1824.89
1411.32	1816.22
1413.52	1822.22
1415.72	1846.89
1417.92	1836.22
1420.11	1831.11
1422.31	1821.78
1424.51	1830.67
1426.71	1846.22
1428.9	1832
1431.1	1841.11
1433.29	1829.56
1435.49	1830.44
1437.68	1842.22
1439.87	1851.78
1442.06	1852
1444.25	1831.78
1446.45	1855.11
1448.64	1848
1450.82	1882.44
1453.01	1856.89
1455.2	1856
1457.39	1891.56
1459.57	1875.11
1461.76	1895.78
1463.94	1872.44
1466.13	1876.44
1468.31	1862.67
1470.5	1885.11
1472.68	1915.33
1474.86	1888
1477.04	1890.89
1479.22	1891.11
1481.4	1916.89
1483.58	1890
1485.76	1907.11
1487.94	1885.33
1490.11	1869.78
1492.29	1859.78
1494.46	1868
1496.64	1866.67
1498.81	1867.78
1500.99	1880
1503.16	1886.44
1505.33	1882.22
1507.5	1900
1509.67	1885.56
1511.84	1888
1514.01	1892.89
1516.18	1888.22
1518.35	1899.78
1520.52	1889.11
1522.68	1873.33
1524.85	1874.89
1527.02	1874.89
1529.18	1873.33
1531.35	1882.44
1533.51	1890.44
1535.67	1873.11
1537.83	1890
1539.99	1880.67
1542.16	1904.22
1544.31	1876.89
1546.47	1895.56
1548.63	1870.89
1550.79	1883.11
1552.95	1905.11
1555.11	1906.89
1557.26	1890.67
1559.42	1886.44
1561.57	1901.11
1563.73	1904.67
1565.88	1900.67
1568.03	1908
1570.18	1911.33
1572.34	1936.89
1574.49	1926.44
1576.64	1936.44
1578.79	1940.44
1580.93	1945.56
1583.08	1912
1585.23	1922.89
1587.38	1944
1589.52	1918.89
1591.67	1950.44
1593.81	1932.67
1595.96	1924.89
1598.1	1909.33
1600.24	1911.11
1602.38	1898.22
1604.53	1880.22
1606.67	1888.89
1608.81	1857.78
1610.95	1868.89
1613.09	1853.56
1615.22	1840.44
1617.36	1819.33
1619.5	1839.78
1621.63	1859.33
1623.77	1815.11
1625.9	1809.78
1628.04	1784.89
1630.17	1775.78
1632.3	1766.67
1634.44	1750.22
1636.57	1729.56
1638.7	1737.33
1640.83	1728.22
1642.96	1715.78
1645.09	1707.56
1647.22	1687.11
1649.34	1695.11
1651.47	1685.33
1653.6	1676.89
1655.72	1689.11
1657.85	1681.33
1659.97	1678.67
1662.1	1652
1664.22	1650.22
1666.34	1667.78
1668.46	1662.22
1670.58	1655.56
1672.7	1652.44
1674.82	1656.44
1676.94	1644.22
1679.06	1656.89
1681.18	1633.78
1683.3	1638.22
1685.41	1650.67
1687.53	1609.11
1689.64	1650.44
1691.76	1656.67
1693.87	1626.44
1695.99	1634.22
1698.1	1644.89
1700.21	1621.33
1702.32	1624.22
1704.43	1633.33
1706.54	1627.56
1708.65	1618.44
1710.76	1640.67
1712.87	1626.22
1714.98	1623.33
1717.08	1616
1719.19	1611.33
1721.29	1615.11
1723.4	1596
1725.5	1603.78
1727.61	1590.22
1729.71	1623.78
1731.81	1598
1733.91	1589.11
1736.02	1588.44
1738.12	1583.56
1740.22	1588.22
1742.31	1577.56
1744.41	1560.89
1746.51	1575.56
1748.61	1579.33
1750.7	1546
1752.8	1573.78
1754.9	1564.44
1756.99	1557.33
1759.08	1571.33
1761.18	1559.78
1763.27	1567.56
1765.36	1564.89
1767.45	1561.33
1769.54	1566.44
1771.63	1553.33
1773.72	1560
1775.81	1564.67
1777.9	1552
1779.99	1558
1782.08	1569.11
1784.16	1570
1786.25	1579.78
1788.33	1586
1790.42	1565.11
1792.5	1566.44
1794.58	1566
1796.67	1571.78
1798.75	1550
1800.83	1556
1802.91	1557.11
1804.99	1550.22
1807.07	1541.11
1809.15	1556
1811.23	1550
1813.3	1546.89
1815.38	1545.11
1817.46	1543.78
1819.53	1565.33
1821.61	1527.33
1823.68	1552.89
1825.75	1535.78
1827.83	1538.67
1829.9	1536.89
1831.97	1524.67
1834.04	1548.44
1836.11	1530.89
1838.18	1530.67
1840.25	1540.44
1842.32	1541.56
1844.39	1549.56
1846.46	1530.44
1848.52	1544.22
1850.59	1518.89
1852.65	1522.44
1854.72	1518
1856.78	1531.33
1858.85	1512.22
1860.91	1514.67
1862.97	1503.56
1865.03	1505.56
1867.09	1512
1869.16	1490.44
1871.22	1511.56
1873.27	1516.89
1875.33	1507.11
1877.39	1493.56
1879.45	1514.44
1881.51	1512.44
1883.56	1511.33
1885.62	1512.44
1887.67	1504
1889.73	1492
1891.78	1512.89
1893.83	1494.44
1895.89	1501.56
1897.94	1520.89
1899.99	1507.11
1902.04	1498.67
1904.09	1499.78
1906.14	1510
1908.19	1505.56
1910.23	1518.22
1912.28	1516.22
1914.33	1519.56
1916.37	1497.78
1918.42	1507.11
1920.46	1503.33
1922.51	1501.11
1924.55	1501.33
1926.6	1491.56
1928.64	1496.22
1930.68	1489.33
1932.72	1482.67
1934.76	1482.44
1936.8	1489.33
1938.84	1484.67
1940.88	1493.56
1942.92	1476
1944.96	1492
1946.99	1490.22
1949.03	1476.67
1951.06	1476.22
1953.1	1478.67
1955.13	1457.78
1957.17	1463.78
1959.2	1455.11
1961.23	1465.11
1963.27	1459.56
1965.3	1479.78
1967.33	1461.11
1969.36	1477.33
1971.39	1464.22
1973.42	1458.67
1975.44	1461.78
1977.47	1458
1979.5	1459.11
1981.53	1454.67
1983.55	1445.33
1985.58	1462.22
1987.6	1461.78
1989.63	1445.33
1991.65	1459.78
1993.67	1451.11
1995.69	1459.78
1997.72	1452.22
1999.74	1473.11
2001.76	1481.78
2003.78	1448.44
2005.8	1445.11
2007.82	1466.22
2009.83	1451.11
2011.85	1460.67
2013.87	1459.11
2015.88	1448.67
2017.9	1462.22
2019.91	1462.89
2021.93	1452.22
2023.94	1458.22
2025.96	1454
2027.97	1461.56
2029.98	1467.56
2031.99	1460.44
2034	1456
2036.01	1456.44
2038.02	1442.67
2040.03	1446.89
2042.04	1457.78
2044.05	1427.56
2046.05	1446.67
2048.06	1446.44
2050.07	1445.56
2052.07	1450.67
2054.08	1454.44
2056.08	1436.22
2058.08	1458.22
2060.09	1428
2062.09	1435.11
2064.09	1413.33
2066.09	1434.89
2068.09	1431.56
2070.09	1404.44
2072.09	1435.11
2074.09	1417.78
2076.09	1404
2078.09	1406.22
2080.08	1410.44
2082.08	1401.11
2084.08	1402.22
2086.07	1421.33
2088.07	1411.11
2090.06	1409.33
2092.05	1426.89
2094.05	1417.33
2096.04	1395.56
2098.03	1402.22
2100.02	1426.44
2102.01	1425.11
2104	1415.11
2105.99	1403.78
2107.98	1387.11
2109.97	1407.56
2111.95	1409.33
2113.94	1394.22
2115.93	1410.67
2117.91	1410
2119.9	1398
2121.88	1413.33
2123.87	1384.89
2125.85	1414.22
2127.83	1404.22
2129.81	1398.89
2131.8	1403.78
2133.78	1392.89
2135.76	1391.78
2137.74	1383.11
2139.72	1390.89
2141.69	1371.78
2143.67	1389.33
2145.65	1389.11
2147.63	1380.44
2149.6	1370.22
2151.58	1379.11
2153.55	1383.11
2155.53	1372.22
2157.5	1373.33
2159.48	1377.78
2161.45	1361.56
2163.42	1370.44
2165.39	1366.67
2167.36	1374.89
2169.33	1365.11
2171.3	1372.22
2173.27	1358.89
2175.24	1368
2177.21	1365.33
2179.18	1351.33
2181.14	1359.33
2183.11	1349.78
2185.07	1351.33
2187.04	1350.22
2189	1358
2190.97	1352
2192.93	1344.44
2194.89	1339.78
2196.86	1348
2198.82	1358
2200.78	1331.78
2202.74	1331.11
2204.7	1336.44
2206.66	1347.78
2208.62	1333.56
2210.57	1332.44
2212.53	1330.89
2214.49	1330
2216.45	1311.33
2218.4	1335.33
2220.36	1332.44
2222.31	1319.33
2224.27	1321.33
2226.22	1319.56
2228.17	1312
2230.12	1318.67
2232.08	1315.78
2234.03	1327.11
2235.98	1318.67
2237.93	1313.33
2239.88	1302.22
2241.83	1294
2243.78	1307.78
2245.72	1319.33
2247.67	1316.22
2249.62	1300.89
2251.56	1314.44
2253.51	1313.78
2255.45	1296
2257.4	1284.44
2259.34	1311.78
2261.28	1298.22
2263.23	1294.67
2265.17	1296.89
2267.11	1293.78
2269.05	1289.56
2270.99	1284.22
2272.93	1274.67
2274.87	1296.89
2276.81	1280.22
2278.75	1277.33
2280.68	1263.78
2282.62	1275.78
2284.56	1290
2286.49	1274.89
2288.43	1264.89
2290.36	1276.22
2292.3	1266
2294.23	1261.56
2296.16	1268.44
2298.09	1264.89
2300.03	1266.22
2301.96	1268.89
2303.89	1278.67
2305.82	1269.56
2307.75	1255.33
2309.68	1252.89
2311.6	1272.67
2313.53	1260.22
2315.46	1247.33
2317.39	1249.56
2319.31	1263.11
2321.24	1246.89
2323.16	1252.22
2325.09	1254.44
2327.01	1248.22
2328.93	1247.56
2330.86	1251.11
2332.78	1262.22
2334.7	1262.44
2336.62	1248.22
2338.54	1236.22
2340.46	1244.22
2342.38	1244.67
2344.3	1256
2346.22	1232
2348.14	1236.44
2350.05	1253.78
2351.97	1238.22
2353.89	1222.67
2355.8	1232.22
2357.71	1226.22
2359.63	1212.67
2361.54	1220.89
2363.46	1218.67
2365.37	1225.11
2367.28	1231.33
2369.19	1212.22
2371.1	1226.67
2373.01	1202.67
2374.92	1214.67
2376.83	1214.89
2378.74	1215.11
2380.65	1213.33
2382.56	1213.56
2384.46	1204.44
2386.37	1223.33
2388.27	1201.56
2390.18	1196.67
2392.08	1200.22
2393.99	1200
2395.89	1186.67
2397.8	1210
2399.7	1211.56
2401.6	1193.78
2403.5	1192.44
2405.4	1189.11
2407.3	1198.67
2409.2	1203.33
2411.1	1194.44
2413	1205.56
2414.9	1197.56
2416.8	1198.22
2418.69	1205.78
2420.59	1192.67
2422.48	1191.11
2424.38	1200.89
2426.28	1194.89
2428.17	1206.44
2430.06	1200.89
2431.96	1192.22
2433.85	1197.56
2435.74	1185.78
2437.63	1193.56
2439.52	1190.44
2441.41	1186.22
2443.3	1194.89
2445.19	1190.67
2447.08	1204
