178.677	1908.44
181.278	1924
183.879	1923.78
186.48	1951.33
189.078	1999.11
191.677	2054.22
194.275	2104.44
196.871	2150.22
199.467	2212.89
202.061	2295.11
204.656	2322
207.248	2391.56
209.841	2428
212.431	2497.56
215.022	2573.11
217.613	2634.89
220.201	2746.22
222.789	2853.33
225.375	3022.89
227.962	3189.56
230.547	3364.22
233.13	3615.56
235.714	3849.33
238.296	4098.22
240.879	4255.11
243.459	4294.44
246.04	4191.56
248.618	4012.22
251.196	3664.89
253.774	3323.11
256.35	3010.89
258.927	2716.67
261.501	2445.56
264.074	2212.22
266.648	2064
269.22	1911.78
271.791	1792
274.362	1707.56
276.931	1624.89
279.5	1577.11
282.069	1523.11
284.635	1472.44
287.201	1435.11
289.766	1412
292.331	1386.44
294.894	1353.33
297.457	1340.44
300.018	1316.44
302.58	1301.56
305.14	1313.11
307.699	1281.56
310.257	1287.56
312.814	1265.33
315.372	1257.78
317.928	1242.44
320.482	1235.78
323.036	1251.33
325.589	1234.67
328.142	1234.22
330.693	1238.89
333.243	1223.33
335.795	1224.44
338.343	1212.89
340.891	1238
343.439	1226.44
345.985	1225.33
348.53	1230.89
351.075	1224.89
353.619	1234.22
356.162	1218.22
358.704	1237.11
361.245	1227.78
363.786	1233.11
366.325	1217.56
368.864	1215.11
371.402	1236.67
373.939	1234.67
376.475	1234.89
379.011	1243.56
381.545	1268.44
384.079	1244.22
386.612	1232
389.144	1203.56
391.674	1216.44
394.204	1201.78
396.734	1196.67
399.263	1196
401.791	1209.11
404.318	1212
406.844	1217.78
409.368	1212
411.893	1211.78
414.417	1206.22
416.94	1208.89
419.462	1207.33
421.982	1209.78
424.502	1222.67
427.022	1207.33
429.541	1214.44
432.057	1226.22
434.574	1230.22
437.091	1245.33
439.606	1239.78
442.12	1220.89
444.634	1208.67
447.147	1211.56
449.657	1203.78
452.169	1202.22
454.68	1203.33
457.188	1220.67
459.697	1229.78
462.205	1213.78
464.711	1205.78
467.217	1214.44
469.722	1197.11
472.227	1199.33
474.731	1192.89
477.232	1201.33
479.735	1202
482.235	1192.89
484.736	1211.56
487.234	1207.11
489.734	1201.78
492.23	1200.67
494.728	1195.11
497.223	1195.56
499.719	1176.67
502.213	1195.33
504.707	1185.11
507.199	1185.78
509.692	1188.67
512.182	1186.67
514.673	1181.78
517.162	1189.56
519.65	1191.56
522.139	1193.33
524.625	1173.78
527.112	1188
529.597	1182.89
532.081	1173.56
534.565	1170.22
537.047	1172.89
539.529	1181.78
542.011	1189.56
544.491	1177.56
546.97	1178.89
549.45	1207.11
551.927	1180.22
554.404	1190.22
556.88	1186.89
559.356	1194
561.831	1198
564.304	1190.44
566.777	1194.44
569.25	1193.78
571.721	1184.67
574.191	1202
576.661	1191.11
579.129	1200.22
581.599	1184
584.066	1186.89
586.532	1182.44
588.997	1188
591.462	1194.67
593.926	1195.78
596.389	1186.22
598.851	1185.11
601.314	1189.33
603.775	1176
606.235	1181.56
608.694	1187.78
611.152	1196.22
613.609	1199.56
616.066	1193.56
618.522	1182.22
620.977	1198
623.431	1205.11
625.885	1209.56
628.338	1213.78
630.79	1213.78
633.241	1203.78
635.691	1212.44
638.141	1216.22
640.589	1217.78
643.036	1222.22
645.483	1203.11
647.929	1217.56
650.375	1203.33
652.82	1209.33
655.264	1201.33
657.707	1184
660.149	1182.44
662.59	1183.11
665.031	1177.11
667.471	1204
669.91	1182.22
672.349	1176.22
674.786	1196.89
677.222	1194.22
679.658	1198.89
682.093	1183.56
684.528	1186.67
686.96	1197.78
689.393	1185.11
691.826	1184.89
694.256	1198.89
696.686	1200
699.116	1192.89
701.545	1201.78
703.972	1199.11
706.4	1194
708.826	1200.67
711.251	1213.78
713.676	1205.11
716.099	1182.67
718.523	1205.56
720.946	1210.89
723.366	1201.78
725.788	1201.56
728.207	1208.89
730.627	1204.44
733.044	1197.78
735.462	1194.22
737.88	1189.11
740.295	1196.22
742.711	1183.33
745.125	1199.56
747.539	1188.89
749.951	1190.44
752.363	1190.67
754.775	1194.22
757.185	1180.22
759.595	1182.89
762.003	1194.44
764.412	1188.67
766.819	1198.44
769.225	1170
771.632	1207.11
774.036	1213.78
776.441	1194.67
778.844	1202.89
781.246	1209.11
783.649	1208.44
786.05	1220.67
788.449	1209.11
790.85	1210.67
793.248	1207.78
795.646	1222.89
798.042	1223.78
800.44	1215.11
802.835	1217.33
805.23	1224.67
807.623	1240.67
810.018	1234
812.41	1239.56
814.801	1230.44
817.192	1220.44
819.582	1244.44
821.972	1224
824.361	1213.33
826.748	1223.78
829.135	1218.89
831.521	1203.56
833.907	1213.56
836.291	1218.89
838.675	1215.78
841.059	1220.89
843.442	1212.89
845.823	1208.44
848.204	1201.78
850.584	1214.67
852.963	1220
855.342	1232.89
857.72	1234.67
860.097	1272.22
862.473	1278
864.848	1254.89
867.223	1236
869.597	1222.67
871.97	1208.89
874.343	1200.89
876.714	1197.56
879.084	1206
881.454	1202.22
883.824	1201.33
886.192	1212
888.56	1211.33
890.927	1217.11
893.294	1187.11
895.66	1176
898.023	1200.67
900.387	1212
902.751	1206
905.114	1210.22
907.476	1196.22
909.835	1189.56
912.196	1199.56
914.555	1188.67
916.914	1191.56
919.271	1186.22
921.629	1198
923.985	1175.33
926.341	1179.78
928.695	1192.22
931.05	1180.67
933.404	1187.33
935.755	1182
938.107	1178
940.459	1186.67
942.808	1183.33
945.158	1190.89
947.508	1190.89
949.855	1194.22
952.202	1173.78
954.548	1188.67
956.894	1194.44
959.239	1193.33
961.583	1195.78
963.928	1196.44
966.27	1184
968.612	1190.67
970.953	1194.89
973.294	1200.89
975.633	1197.33
977.972	1202.67
980.31	1195.33
982.647	1209.11
984.984	1197.33
987.32	1194.67
989.656	1211.33
991.989	1206.67
994.324	1200.22
996.656	1209.11
998.988	1211.78
1001.32	1210
1003.65	1195.78
1005.98	1196.67
1008.31	1187.11
1010.64	1190
1012.97	1197.33
1015.29	1202.22
1017.62	1187.33
1019.94	1189.33
1022.27	1185.33
1024.59	1207.56
1026.92	1193.11
1029.24	1202
1031.56	1200
1033.88	1191.11
1036.2	1203.33
1038.52	1193.11
1040.84	1204.22
1043.16	1212.67
1045.48	1218.22
1047.79	1216.44
1050.11	1217.11
1052.42	1217.78
1054.74	1227.78
1057.05	1230
1059.36	1229.78
1061.67	1231.11
1063.99	1224
1066.3	1227.56
1068.61	1217.33
1070.92	1222.44
1073.22	1221.78
1075.53	1224.44
1077.84	1231.11
1080.15	1232.44
1082.45	1242.89
1084.76	1230.67
1087.06	1238.44
1089.36	1268.22
1091.66	1277.33
1093.97	1292
1096.27	1309.56
1098.57	1309.11
1100.87	1288.22
1103.17	1288
1105.46	1274.67
1107.76	1301.78
1110.06	1310
1112.35	1300.22
1114.65	1294.67
1116.94	1285.33
1119.24	1289.33
1121.53	1292
1123.82	1285.56
1126.11	1288
1128.4	1280
1130.7	1257.78
1132.98	1254.44
1135.27	1272.89
1137.56	1255.33
1139.85	1261.33
1142.13	1271.78
1144.42	1251.33
1146.71	1255.56
1148.99	1266.67
1151.27	1262.22
1153.56	1268.44
1155.84	1268
1158.12	1264.22
1160.4	1292.67
1162.68	1255.56
1164.96	1270
1167.24	1280.22
1169.51	1271.56
1171.79	1267.56
1174.07	1271.11
1176.34	1264.67
1178.62	1240.22
1180.89	1249.56
1183.17	1245.78
1185.44	1235.11
1187.71	1245.78
1189.98	1226.89
1192.25	1240
1194.52	1228.44
1196.79	1236.22
1199.06	1234.89
1201.33	1251.33
1203.59	1233.56
1205.86	1249.33
1208.12	1247.56
1210.39	1238.67
1212.65	1241.78
1214.92	1224.67
1217.18	1246.22
1219.44	1238
1221.7	1236.22
1223.96	1263.11
1226.22	1230
1228.48	1269.78
1230.74	1266.22
1233	1268.89
1235.25	1291.11
1237.51	1300.67
1239.77	1324.89
1242.02	1325.11
1244.27	1333.11
1246.53	1335.78
1248.78	1333.11
1251.03	1339.33
1253.28	1349.33
1255.53	1333.78
1257.78	1342.89
1260.03	1353.56
1262.28	1353.78
1264.53	1359.78
1266.78	1348.44
1269.02	1346.22
1271.27	1330.89
1273.51	1339.11
1275.76	1321.33
1278	1326.89
1280.24	1312.67
1282.48	1304.89
1284.72	1291.78
1286.97	1305.11
1289.21	1291.11
1291.44	1282.44
1293.68	1265.78
1295.92	1308.67
1298.16	1278.44
1300.39	1286
1302.63	1277.33
1304.86	1284.44
1307.1	1305.33
1309.33	1307.11
1311.56	1318.67
1313.8	1339.33
1316.03	1354.22
1318.26	1406.44
1320.49	1414.89
1322.72	1452
1324.95	1469.56
1327.17	1450.44
1329.4	1441.78
1331.63	1434.67
1333.85	1415.33
1336.08	1373.56
1338.3	1356.67
1340.53	1344.67
1342.75	1326.44
1344.97	1305.33
1347.19	1304
1349.41	1295.33
1351.63	1291.56
1353.85	1286.22
1356.07	1262.44
1358.29	1274.67
1360.51	1283.11
1362.72	1282
1364.94	1282.44
1367.16	1258.22
1369.37	1296.67
1371.58	1272.44
1373.8	1287.33
1376.01	1276
1378.22	1280.44
1380.43	1279.33
1382.64	1277.11
1384.85	1286.67
1387.06	1280.22
1389.27	1292
1391.48	1268
1393.68	1262.22
1395.89	1258.89
1398.1	1271.33
1400.3	1261.11
1402.51	1274.44
1404.71	1280.22
1406.91	1273.78
1409.11	1270.44
1411.32	1253.56
1413.52	1248.89
1415.72	1243.56
1417.92	1241.11
1420.11	1243.56
1422.31	1247.56
1424.51	1239.11
1426.71	1251.78
1428.9	1252.22
1431.1	1247.78
1433.29	1240.67
1435.49	1251.11
1437.68	1264.22
1439.87	1255.33
1442.06	1258.89
1444.25	1261.56
1446.45	1269.33
1448.64	1258.44
1450.82	1268.44
1453.01	1254.89
1455.2	1254.44
1457.39	1253.11
1459.57	1237.56
1461.76	1236
1463.94	1246.67
1466.13	1249.78
1468.31	1260.22
1470.5	1238.89
1472.68	1238.89
1474.86	1246.89
1477.04	1253.11
1479.22	1249.78
1481.4	1264.44
1483.58	1236
1485.76	1235.78
1487.94	1244.89
1490.11	1236.44
1492.29	1241.11
1494.46	1234.44
1496.64	1220.67
1498.81	1230.44
1500.99	1224.89
1503.16	1222.44
1505.33	1230.22
1507.5	1220.22
1509.67	1241.33
1511.84	1234.44
1514.01	1218
1516.18	1230.89
1518.35	1229.33
1520.52	1227.78
1522.68	1235.56
1524.85	1241.33
1527.02	1236.67
1529.18	1236.67
1531.35	1226
1533.51	1241.33
1535.67	1232.22
1537.83	1230
1539.99	1222.67
1542.16	1216.67
1544.31	1224.44
1546.47	1233.78
1548.63	1225.33
1550.79	1234.44
1552.95	1235.33
1555.11	1236.22
1557.26	1228
1559.42	1223.33
1561.57	1232.44
1563.73	1238.44
1565.88	1231.78
1568.03	1230.89
1570.18	1237.33
1572.34	1240.22
1574.49	1246.44
1576.64	1253.56
1578.79	1256.44
1580.93	1260
1583.08	1252.89
1585.23	1275.78
1587.38	1253.78
1589.52	1241.11
1591.67	1235.33
1593.81	1242.44
1595.96	1251.78
1598.1	1229.33
1600.24	1236.67
1602.38	1227.33
1604.53	1227.11
1606.67	1232
1608.81	1216.89
1610.95	1221.33
1613.09	1211.78
1615.22	1203.33
1617.36	1215.33
1619.5	1206.67
1621.63	1203.78
1623.77	1189.11
1625.9	1200
1628.04	1187.56
1630.17	1166.44
1632.3	1185.33
1634.44	1174.89
1636.57	1180.44
1638.7	1152.44
1640.83	1161.78
1642.96	1158.89
1645.09	1163.11
1647.22	1158.44
1649.34	1161.56
1651.47	1148.22
1653.6	1141.33
1655.72	1132.22
1657.85	1142.22
1659.97	1153.78
1662.1	1132
1664.22	1126.67
1666.34	1143.78
1668.46	1138
1670.58	1126.22
1672.7	1134.89
1674.82	1136
1676.94	1134.44
1679.06	1144
1681.18	1128.67
1683.3	1132.22
1685.41	1138.89
1687.53	1127.78
1689.64	1127.33
1691.76	1121.56
1693.87	1129.56
1695.99	1128.67
1698.1	1144.22
1700.21	1118
1702.32	1128.89
1704.43	1141.78
1706.54	1109.78
1708.65	1116.44
1710.76	1116.67
1712.87	1121.33
1714.98	1132.44
1717.08	1120
1719.19	1123.11
1721.29	1115.56
1723.4	1109.56
1725.5	1101.56
1727.61	1114.67
1729.71	1099.56
1731.81	1108.22
1733.91	1109.33
1736.02	1112
1738.12	1096.44
1740.22	1110.44
1742.31	1104
1744.41	1102.89
1746.51	1082.89
1748.61	1092.44
1750.7	1088.67
1752.8	1086.89
1754.9	1065.78
1756.99	1081.11
1759.08	1083.56
1761.18	1085.33
1763.27	1084.22
1765.36	1095.11
1767.45	1085.33
1769.54	1091.33
1771.63	1083.56
1773.72	1086.22
1775.81	1071.33
1777.9	1085.11
1779.99	1087.78
1782.08	1077.56
1784.16	1087.11
1786.25	1083.11
1788.33	1080.67
1790.42	1083.78
1792.5	1078
1794.58	1088.67
1796.67	1090.67
1798.75	1068
1800.83	1085.33
1802.91	1061.11
1804.99	1093.56
1807.07	1082
1809.15	1079.11
1811.23	1073.78
1813.3	1069.11
1815.38	1080.22
1817.46	1083.78
1819.53	1069.78
1821.61	1079.56
1823.68	1064.44
1825.75	1065.56
1827.83	1069.56
1829.9	1072.44
1831.97	1062.67
1834.04	1061.78
1836.11	1051.56
1838.18	1060.44
1840.25	1060.22
1842.32	1044.89
1844.39	1075.11
1846.46	1053.33
1848.52	1051.78
1850.59	1059.56
1852.65	1039.11
1854.72	1038.67
1856.78	1046
1858.85	1049.33
1860.91	1054.22
1862.97	1051.33
1865.03	1027.78
1867.09	1046.89
1869.16	1050.44
1871.22	1048.22
1873.27	1044.89
1875.33	1036
1877.39	1049.11
1879.45	1042.89
1881.51	1031.11
1883.56	1039.78
1885.62	1037.56
1887.67	1047.11
1889.73	1039.33
1891.78	1037.11
1893.83	1032.67
1895.89	1046
1897.94	1047.56
1899.99	1042.89
1902.04	1030.22
1904.09	1047.33
1906.14	1031.56
1908.19	1026
1910.23	1026.89
1912.28	1036.67
1914.33	1046
1916.37	1041.78
1918.42	1036
1920.46	1025.78
1922.51	1026.89
1924.55	1023.56
1926.6	1017.11
1928.64	1024
1930.68	1037.33
1932.72	1029.11
1934.76	1030.22
1936.8	1018
1938.84	1029.56
1940.88	1007.11
1942.92	1004.89
1944.96	1016.67
1946.99	1026.44
1949.03	1007.11
1951.06	1013.11
1953.1	1015.56
1955.13	995.333
1957.17	1002.44
1959.2	1005.33
1961.23	1000.67
1963.27	1005.33
1965.3	1007.56
1967.33	1008.22
1969.36	996.889
1971.39	1009.11
1973.42	1008.67
1975.44	992.444
1977.47	992.444
1979.5	992.889
1981.53	998.444
1983.55	998.667
1985.58	993.333
1987.6	982.889
1989.63	992.444
1991.65	1006
1993.67	974.444
1995.69	995.333
1997.72	990.222
1999.74	986.889
2001.76	1004.67
2003.78	990.222
2005.8	998
2007.82	989.111
2009.83	1002.44
2011.85	984
2013.87	990.445
2015.88	998
2017.9	995.778
2019.91	993.556
2021.93	1002.89
2023.94	1002.44
2025.96	983.333
2027.97	993.778
2029.98	990.444
2031.99	994.222
2034	998.445
2036.01	999.111
2038.02	993.778
2040.03	988.889
2042.04	982.444
2044.05	967.333
2046.05	975.333
2048.06	972.889
2050.07	972.667
2052.07	978.222
2054.08	976.444
2056.08	974.222
2058.08	963.333
2060.09	970.222
2062.09	973.111
2064.09	971.778
2066.09	965.556
2068.09	971.778
2070.09	967.333
2072.09	971.111
2074.09	962.667
2076.09	946.889
2078.09	951.778
2080.08	951.556
2082.08	950.222
2084.08	950.444
2086.07	938.667
2088.07	952.889
2090.06	962
2092.05	955.556
2094.05	955.778
2096.04	943.778
2098.03	945.778
2100.02	933.111
2102.01	942.889
2104	944
2105.99	948.444
2107.98	958.444
2109.97	934.667
2111.95	941.778
2113.94	942.222
2115.93	938.222
2117.91	947.556
2119.9	936
2121.88	939.111
2123.87	931.333
2125.85	924.444
2127.83	937.333
2129.81	929.111
2131.8	947.556
2133.78	931.778
2135.76	936.667
2137.74	936.889
2139.72	940.667
2141.69	928.889
2143.67	932.889
2145.65	929.333
2147.63	926.444
2149.6	928.889
2151.58	922.667
2153.55	919.111
2155.53	918.889
2157.5	931.111
2159.48	917.556
2161.45	914.444
2163.42	912.667
2165.39	914.667
2167.36	905.333
2169.33	902
2171.3	901.778
2173.27	916.667
2175.24	906.889
2177.21	902.444
2179.18	904.889
2181.14	904.889
2183.11	905.556
2185.07	895.333
2187.04	900.889
2189	894.667
2190.97	892.889
2192.93	884.444
2194.89	886.667
2196.86	885.111
2198.82	892.444
2200.78	890.222
2202.74	894.222
2204.7	887.333
2206.66	885.333
2208.62	882.445
2210.57	872.222
2212.53	879.111
2214.49	884
2216.45	881.556
2218.4	878
2220.36	881.778
2222.31	884
2224.27	872.667
2226.22	876.444
2228.17	883.111
2230.12	868
2232.08	879.556
2234.03	856.667
2235.98	872.222
2237.93	871.778
2239.88	872.667
2241.83	860.444
2243.78	870.889
2245.72	883.111
2247.67	868.667
2249.62	865.111
2251.56	845.333
2253.51	870.667
2255.45	866.222
2257.4	858
2259.34	850.889
2261.28	848.444
2263.23	841.333
2265.17	845.333
2267.11	849.333
2269.05	843.111
2270.99	850.667
2272.93	846
2274.87	831.778
2276.81	851.111
2278.75	845.556
2280.68	839.778
2282.62	831.333
2284.56	843.556
2286.49	829.556
2288.43	836.222
2290.36	842.889
2292.3	834
2294.23	834.667
2296.16	825.333
2298.09	823.111
2300.03	837.556
2301.96	830.667
2303.89	831.556
2305.82	823.111
2307.75	830.667
2309.68	831.778
2311.6	825.556
2313.53	833.778
2315.46	833.556
2317.39	824.667
2319.31	830.222
2321.24	807.333
2323.16	826.222
2325.09	822
2327.01	816
2328.93	818.889
2330.86	827.778
2332.78	816.889
2334.7	806.667
2336.62	814.222
2338.54	815.778
2340.46	808
2342.38	804.222
2344.3	825.778
2346.22	797.556
2348.14	800.667
2350.05	821.556
2351.97	811.556
2353.89	806
2355.8	799.111
2357.71	810.222
2359.63	811.556
2361.54	804.444
2363.46	798
2365.37	789.333
2367.28	792.444
2369.19	794
2371.1	785.778
2373.01	792.667
2374.92	789.556
2376.83	798.222
2378.74	791.778
2380.65	789.333
2382.56	788.667
2384.46	789.111
2386.37	782.444
2388.27	784
2390.18	776.889
2392.08	779.778
2393.99	765.111
2395.89	776.889
2397.8	787.111
2399.7	791.778
2401.6	776
2403.5	775.333
2405.4	780
2407.3	767.333
2409.2	760.444
2411.1	771.778
2413	762.667
2414.9	767.111
2416.8	769.111
2418.69	775.333
2420.59	760
2422.48	771.778
2424.38	761.556
2426.28	773.556
2428.17	766.222
2430.06	780.444
2431.96	765.111
2433.85	762.667
2435.74	758
2437.63	752
2439.52	767.778
2441.41	759.556
2443.3	763.778
2445.19	762
2447.08	752.889
