178.677	2683.33
181.278	2686.67
183.879	2719.33
186.48	2725.56
189.078	2819.33
191.677	2855.56
194.275	2950.22
196.871	3022.67
199.467	3096.22
202.061	3178.22
204.656	3284
207.248	3388.44
209.841	3426.44
212.431	3586
215.022	3684.89
217.613	3819.11
220.201	4002.89
222.789	4147.33
225.375	4404.44
227.962	4677.78
230.547	4961.78
233.13	5351.78
235.714	5671.11
238.296	5943.33
240.879	6165.78
243.459	6158
246.04	5972
248.618	5621.11
251.196	5195.11
253.774	4658.44
256.35	4163.78
258.927	3713.11
261.501	3350.89
264.074	3042.44
266.648	2721.56
269.22	2525.78
271.791	2333.56
274.362	2198.89
276.931	2047.56
279.5	1953.11
282.069	1836.89
284.635	1770.22
287.201	1691.11
289.766	1629.56
292.331	1598.89
294.894	1542.67
297.457	1509.78
300.018	1485.33
302.58	1446.89
305.14	1421.33
307.699	1401.78
310.257	1370.22
312.814	1368.44
315.372	1337.56
317.928	1342.22
320.482	1332.44
323.036	1328
325.589	1320.89
328.142	1299.78
330.693	1302.89
333.243	1297.56
335.795	1287.33
338.343	1277.56
340.891	1242.22
343.439	1281.56
345.985	1283.78
348.53	1258.22
351.075	1269.78
353.619	1264
356.162	1260.22
358.704	1253.56
361.245	1233.56
363.786	1260.44
366.325	1250.22
368.864	1245.11
371.402	1236.67
373.939	1252.67
376.475	1251.33
379.011	1263.56
381.545	1248.67
384.079	1258.44
386.612	1250.22
389.144	1253.33
391.674	1227.33
394.204	1214.44
396.734	1249.11
399.263	1272
401.791	1301.56
404.318	1325.56
406.844	1392.22
409.368	1503.56
411.893	1662.67
414.417	1886.89
416.94	2060.22
419.462	2113.33
421.982	1960.89
424.502	1757.78
427.022	1624
429.541	1526.67
432.057	1469.33
434.574	1397.11
437.091	1329.56
439.606	1280.89
442.12	1252.89
444.634	1215.56
447.147	1205.11
449.657	1192.44
452.169	1178.67
454.68	1192
457.188	1200.22
459.697	1202.89
462.205	1196.67
464.711	1194.22
467.217	1200
469.722	1213.11
472.227	1203.56
474.731	1182.89
477.232	1180.22
479.735	1166.67
482.235	1176
484.736	1166.22
487.234	1147.33
489.734	1152.44
492.23	1155.56
494.728	1140.67
497.223	1128.22
499.719	1143.78
502.213	1134.44
504.707	1140.89
507.199	1124.44
509.692	1129.33
512.182	1119.78
514.673	1132.89
517.162	1131.11
519.65	1123.11
522.139	1130.44
524.625	1120.89
527.112	1107.78
529.597	1120.22
532.081	1112.67
534.565	1106.22
537.047	1121.33
539.529	1127.78
542.011	1106.89
544.491	1107.11
546.97	1128
549.45	1132.67
551.927	1131.11
554.404	1123.56
556.88	1121.78
559.356	1127.33
561.831	1132
564.304	1123.78
566.777	1130
569.25	1125.11
571.721	1128.67
574.191	1111.33
576.661	1143.78
579.129	1130
581.599	1113.56
584.066	1137.78
586.532	1132.44
588.997	1117.11
591.462	1122.67
593.926	1130.89
596.389	1112.44
598.851	1133.56
601.314	1146
603.775	1122.44
606.235	1138.22
608.694	1148.67
611.152	1162.22
613.609	1167.56
616.066	1153.78
618.522	1147.33
620.977	1151.11
623.431	1155.78
625.885	1152
628.338	1152.67
630.79	1137.56
633.241	1143.11
635.691	1164.44
638.141	1149.56
640.589	1141.33
643.036	1133.78
645.483	1147.33
647.929	1146.44
650.375	1153.11
652.82	1138.89
655.264	1156.89
657.707	1158.22
660.149	1148.89
662.59	1143.78
665.031	1154.44
667.471	1139.11
669.91	1166.67
672.349	1138.67
674.786	1133.56
677.222	1169.56
679.658	1185.56
682.093	1216.67
684.528	1283.11
686.96	1348.89
689.393	1419.11
691.826	1458.67
694.256	1397.11
696.686	1286
699.116	1217.11
701.545	1179.11
703.972	1177.33
706.4	1166
708.826	1175.11
711.251	1166.67
713.676	1166.89
716.099	1162.22
718.523	1177.78
720.946	1171.78
723.366	1176.22
725.788	1161.78
728.207	1178.89
730.627	1183.11
733.044	1194.89
735.462	1175.33
737.88	1184.67
740.295	1170
742.711	1164.89
745.125	1150.89
747.539	1170.89
749.951	1182.22
752.363	1167.78
754.775	1167.11
757.185	1176.44
759.595	1170.67
762.003	1158.22
764.412	1172
766.819	1176.22
769.225	1166
771.632	1162.89
774.036	1163.78
776.441	1184.22
778.844	1184.44
781.246	1183.33
783.649	1172.44
786.05	1195.11
788.449	1188
790.85	1185.56
793.248	1193.33
795.646	1188
798.042	1193.33
800.44	1186.89
802.835	1184.22
805.23	1190.22
807.623	1187.56
810.018	1168.44
812.41	1188.67
814.801	1173.11
817.192	1190.67
819.582	1186.44
821.972	1194.67
824.361	1186
826.748	1184.22
829.135	1204.67
831.521	1202.67
833.907	1195.33
836.291	1193.11
838.675	1200.67
841.059	1200.22
843.442	1189.56
845.823	1195.56
848.204	1188
850.584	1208.22
852.963	1186.89
855.342	1188.22
857.72	1202.89
860.097	1198.89
862.473	1200.44
864.848	1204.67
867.223	1201.11
869.597	1199.11
871.97	1184.44
874.343	1205.11
876.714	1209.78
879.084	1190.67
881.454	1205.56
883.824	1208
886.192	1203.11
888.56	1207.56
890.927	1193.78
893.294	1212.44
895.66	1213.11
898.023	1216.44
900.387	1206.22
902.751	1204.67
905.114	1214.67
907.476	1218
909.835	1195.11
912.196	1205.33
914.555	1220.44
916.914	1188
919.271	1194.22
921.629	1212.89
923.985	1220.89
926.341	1215.33
928.695	1200.89
931.05	1211.78
933.404	1221.33
935.755	1217.56
938.107	1221.33
940.459	1220.44
942.808	1224.67
945.158	1217.11
947.508	1216.89
949.855	1219.56
952.202	1210.89
954.548	1236.22
956.894	1242.89
959.239	1242.22
961.583	1231.11
963.928	1223.11
966.27	1215.78
968.612	1233.11
970.953	1227.56
973.294	1245.56
975.633	1251.11
977.972	1262
980.31	1272.67
982.647	1289.33
984.984	1325.33
987.32	1314.89
989.656	1319.33
991.989	1369.11
994.324	1529.56
996.656	2061.11
998.988	2432.89
1001.32	2046.44
1003.65	1560.44
1005.98	1358.22
1008.31	1310.22
1010.64	1340.22
1012.97	1346
1015.29	1421.33
1017.62	1663.33
1019.94	2079.56
1022.27	2268
1024.59	1976.22
1026.92	1638.44
1029.24	1432
1031.56	1351.78
1033.88	1308
1036.2	1290.89
1038.52	1289.11
1040.84	1282.67
1043.16	1293.11
1045.48	1286.22
1047.79	1302.44
1050.11	1327.78
1052.42	1341.33
1054.74	1400.22
1057.05	1450
1059.36	1572.67
1061.67	1772.67
1063.99	2093.78
1066.3	2435.78
1068.61	2752.89
1070.92	2827.78
1073.22	2696.89
1075.53	2322.44
1077.84	1956.44
1080.15	1702.89
1082.45	1538
1084.76	1459.78
1087.06	1397.56
1089.36	1412
1091.66	1398
1093.97	1398.89
1096.27	1424.22
1098.57	1446.22
1100.87	1449.78
1103.17	1479.78
1105.46	1480.44
1107.76	1497.11
1110.06	1509.78
1112.35	1478.44
1114.65	1465.11
1116.94	1460.44
1119.24	1420.67
1121.53	1391.56
1123.82	1381.78
1126.11	1359.56
1128.4	1331.11
1130.7	1328.44
1132.98	1327.78
1135.27	1323.56
1137.56	1317.78
1139.85	1300.44
1142.13	1306
1144.42	1327.11
1146.71	1326
1148.99	1329.78
1151.27	1330.22
1153.56	1338.67
1155.84	1342.67
1158.12	1340
1160.4	1342.22
1162.68	1342.44
1164.96	1339.56
1167.24	1333.11
1169.51	1356
1171.79	1328.44
1174.07	1345.11
1176.34	1381.11
1178.62	1395.33
1180.89	1441.78
1183.17	1428.22
1185.44	1385.78
1187.71	1340.89
1189.98	1313.56
1192.25	1295.56
1194.52	1294.44
1196.79	1290.44
1199.06	1301.33
1201.33	1284.44
1203.59	1289.78
1205.86	1284
1208.12	1278.67
1210.39	1276
1212.65	1293.11
1214.92	1279.78
1217.18	1267.78
1219.44	1292.44
1221.7	1283.78
1223.96	1280.89
1226.22	1296.44
1228.48	1310
1230.74	1310.22
1233	1311.11
1235.25	1293.33
1237.51	1307.11
1239.77	1308.67
1242.02	1310.22
1244.27	1318.67
1246.53	1314.89
1248.78	1318.67
1251.03	1319.11
1253.28	1325.78
1255.53	1324.22
1257.78	1322.89
1260.03	1313.78
1262.28	1299.11
1264.53	1317.56
1266.78	1307.33
1269.02	1304
1271.27	1311.11
1273.51	1308
1275.76	1319.11
1278	1316.22
1280.24	1309.11
1282.48	1315.56
1284.72	1319.78
1286.97	1318.22
1289.21	1316.44
1291.44	1317.33
1293.68	1333.78
1295.92	1317.33
1298.16	1312
1300.39	1325.33
1302.63	1306.67
1304.86	1308.44
1307.1	1314
1309.33	1320
1311.56	1301.11
1313.8	1308.89
1316.03	1315.11
1318.26	1303.56
1320.49	1314.67
1322.72	1324.67
1324.95	1319.33
1327.17	1320.89
1329.4	1300.22
1331.63	1324
1333.85	1310.44
1336.08	1322.44
1338.3	1328
1340.53	1335.78
1342.75	1318.22
1344.97	1319.78
1347.19	1332.44
1349.41	1325.11
1351.63	1322.22
1353.85	1326.44
1356.07	1352.44
1358.29	1327.78
1360.51	1349.11
1362.72	1344.22
1364.94	1350.44
1367.16	1337.11
1369.37	1355.78
1371.58	1352.22
1373.8	1344.22
1376.01	1333.11
1378.22	1356.22
1380.43	1350.44
1382.64	1333.11
1384.85	1329.78
1387.06	1322.89
1389.27	1336.89
1391.48	1333.33
1393.68	1328.44
1395.89	1322.89
1398.1	1334.89
1400.3	1334.89
1402.51	1333.56
1404.71	1339.33
1406.91	1323.33
1409.11	1313.33
1411.32	1322.89
1413.52	1325.33
1415.72	1309.78
1417.92	1324.44
1420.11	1310.22
1422.31	1316.67
1424.51	1312.89
1426.71	1315.33
1428.9	1329.56
1431.1	1320
1433.29	1312.44
1435.49	1328.22
1437.68	1333.33
1439.87	1334.44
1442.06	1350.22
1444.25	1335.11
1446.45	1332.67
1448.64	1340.89
1450.82	1331.33
1453.01	1346.22
1455.2	1344.67
1457.39	1342.67
1459.57	1363.78
1461.76	1361.78
1463.94	1373.11
1466.13	1393.11
1468.31	1446.44
1470.5	1497.11
1472.68	1538.89
1474.86	1537.78
1477.04	1497.78
1479.22	1424
1481.4	1388.67
1483.58	1360.22
1485.76	1357.33
1487.94	1323.78
1490.11	1358.22
1492.29	1343.11
1494.46	1335.33
1496.64	1335.78
1498.81	1349.11
1500.99	1336
1503.16	1323.56
1505.33	1327.11
1507.5	1325.11
1509.67	1339.11
1511.84	1331.78
1514.01	1317.11
1516.18	1339.78
1518.35	1354.44
1520.52	1344.67
1522.68	1337.56
1524.85	1336.67
1527.02	1330.89
1529.18	1328.22
1531.35	1352.22
1533.51	1338.44
1535.67	1368.67
1537.83	1358
1539.99	1359.56
1542.16	1373.33
1544.31	1364.22
1546.47	1366
1548.63	1386
1550.79	1398.44
1552.95	1409.33
1555.11	1472.44
1557.26	1512.67
1559.42	1601.33
1561.57	1686.22
1563.73	1854.89
1565.88	2117.78
1568.03	2465.11
1570.18	2808.89
1572.34	3004.89
1574.49	2811.33
1576.64	2368
1578.79	2028.89
1580.93	1805.78
1583.08	1667.33
1585.23	1603.11
1587.38	1544.44
1589.52	1516.44
1591.67	1477.78
1593.81	1440.22
1595.96	1419.11
1598.1	1414.67
1600.24	1403.56
1602.38	1363.78
1604.53	1367.33
1606.67	1357.33
1608.81	1341.33
1610.95	1343.56
1613.09	1329.78
1615.22	1320.44
1617.36	1315.56
1619.5	1306.44
1621.63	1310
1623.77	1282.22
1625.9	1284.44
1628.04	1282
1630.17	1257.78
1632.3	1285.78
1634.44	1269.78
1636.57	1288
1638.7	1285.11
1640.83	1273.33
1642.96	1260.67
1645.09	1273.78
1647.22	1265.56
1649.34	1260.67
1651.47	1275.78
1653.6	1260
1655.72	1261.33
1657.85	1248.67
1659.97	1261.78
1662.1	1245.33
1664.22	1232
1666.34	1248.89
1668.46	1252.44
1670.58	1249.78
1672.7	1238
1674.82	1254.89
1676.94	1239.56
1679.06	1244.67
1681.18	1238.22
1683.3	1227.56
1685.41	1237.56
1687.53	1224.89
1689.64	1243.33
1691.76	1230
1693.87	1234.44
1695.99	1240.44
1698.1	1242.67
1700.21	1236
1702.32	1215.33
1704.43	1240
1706.54	1236
1708.65	1229.33
1710.76	1235.56
1712.87	1245.78
1714.98	1228.44
1717.08	1232.67
1719.19	1223.78
1721.29	1234
1723.4	1212.22
1725.5	1220.44
1727.61	1221.78
1729.71	1211.78
1731.81	1206
1733.91	1213.56
1736.02	1200
1738.12	1207.11
1740.22	1202
1742.31	1207.78
1744.41	1184.89
1746.51	1181.78
1748.61	1206
1750.7	1209.11
1752.8	1200.22
1754.9	1220.22
1756.99	1216.67
1759.08	1201.78
1761.18	1192
1763.27	1192.44
1765.36	1202.67
1767.45	1193.33
1769.54	1193.11
1771.63	1207.56
1773.72	1188.89
1775.81	1183.33
1777.9	1185.56
1779.99	1189.11
1782.08	1184.44
1784.16	1183.56
1786.25	1191.11
1788.33	1175.78
1790.42	1188
1792.5	1191.56
1794.58	1197.78
1796.67	1196
1798.75	1186.89
1800.83	1196.22
1802.91	1188.67
1804.99	1194
1807.07	1181.56
1809.15	1193.78
1811.23	1172.67
1813.3	1176
1815.38	1170.89
1817.46	1174.89
1819.53	1174.44
1821.61	1168
1823.68	1186.89
1825.75	1183.56
1827.83	1162
1829.9	1163.11
1831.97	1162.22
1834.04	1170.67
1836.11	1180.22
1838.18	1169.11
1840.25	1163.56
1842.32	1162
1844.39	1159.56
1846.46	1165.11
1848.52	1158
1850.59	1165.33
1852.65	1155.78
1854.72	1156
1856.78	1152.44
1858.85	1164
1860.91	1165.78
1862.97	1140.89
1865.03	1161.11
1867.09	1141.56
1869.16	1159.78
1871.22	1148.22
1873.27	1150.89
1875.33	1150
1877.39	1133.11
1879.45	1143.11
1881.51	1159.78
1883.56	1155.78
1885.62	1152.22
1887.67	1154.89
1889.73	1132.22
1891.78	1141.33
1893.83	1140.89
1895.89	1136.44
1897.94	1153.78
1899.99	1140.22
1902.04	1152.67
1904.09	1154
1906.14	1160.89
1908.19	1145.78
1910.23	1144.44
1912.28	1151.33
1914.33	1149.11
1916.37	1164.89
1918.42	1172.22
1920.46	1150.44
1922.51	1147.78
1924.55	1161.33
1926.6	1150
1928.64	1148.89
1930.68	1144
1932.72	1152.22
1934.76	1163.78
1936.8	1149.11
1938.84	1132.89
1940.88	1138.22
1942.92	1130
1944.96	1128.22
1946.99	1132.44
1949.03	1111.33
1951.06	1118.22
1953.1	1104.67
1955.13	1129.56
1957.17	1118.89
1959.2	1129.56
1961.23	1111.56
1963.27	1108.89
1965.3	1103.33
1967.33	1089.11
1969.36	1111.33
1971.39	1119.33
1973.42	1115.33
1975.44	1108.22
1977.47	1095.78
1979.5	1094.22
1981.53	1088.22
1983.55	1105.33
1985.58	1100
1987.6	1118.44
1989.63	1102.89
1991.65	1110.67
1993.67	1096.89
1995.69	1095.78
1997.72	1106
1999.74	1113.33
2001.76	1088.89
2003.78	1097.33
2005.8	1105.33
2007.82	1093.56
2009.83	1102.89
2011.85	1104
2013.87	1091.78
2015.88	1078.22
2017.9	1106.22
2019.91	1100.89
2021.93	1090.89
2023.94	1082
2025.96	1097.78
2027.97	1098.44
2029.98	1113.78
2031.99	1091.33
2034	1081.11
2036.01	1089.33
2038.02	1095.56
2040.03	1080.44
2042.04	1101.11
2044.05	1080.22
2046.05	1092.67
2048.06	1103.11
2050.07	1081.56
2052.07	1087.56
2054.08	1087.78
2056.08	1065.33
2058.08	1065.11
2060.09	1068.89
2062.09	1083.56
2064.09	1086.44
2066.09	1071.11
2068.09	1075.78
2070.09	1063.56
2072.09	1060
2074.09	1073.56
2076.09	1071.78
2078.09	1074.22
2080.08	1056.89
2082.08	1069.56
2084.08	1060
2086.07	1066.89
2088.07	1065.11
2090.06	1066.44
2092.05	1055.33
2094.05	1071.33
2096.04	1066.22
2098.03	1055.11
2100.02	1063.56
2102.01	1051.78
2104	1046.22
2105.99	1062.22
2107.98	1045.11
2109.97	1057.56
2111.95	1063.11
2113.94	1060.22
2115.93	1057.78
2117.91	1036.22
2119.9	1048.67
2121.88	1061.11
2123.87	1069.56
2125.85	1059.78
2127.83	1053.78
2129.81	1055.11
2131.8	1056.44
2133.78	1055.78
2135.76	1040
2137.74	1050.67
2139.72	1042
2141.69	1035.78
2143.67	1048.89
2145.65	1032
2147.63	1039.56
2149.6	1036.67
2151.58	1028.67
2153.55	1044.44
2155.53	1031.11
2157.5	1048.22
2159.48	1014.22
2161.45	1020.22
2163.42	1019.33
2165.39	1025.33
2167.36	1025.56
2169.33	1028
2171.3	1016.22
2173.27	1029.56
2175.24	1025.56
2177.21	1014.67
2179.18	1031.11
2181.14	1030
2183.11	1014.22
2185.07	1018
2187.04	1026
2189	1005.11
2190.97	1011.78
2192.93	1018
2194.89	1018.44
2196.86	1008.89
2198.82	1014
2200.78	1014.89
2202.74	1007.11
2204.7	1001.56
2206.66	1010.44
2208.62	1011.56
2210.57	1006.67
2212.53	1000
2214.49	1004.67
2216.45	994.889
2218.4	996
2220.36	1000.44
2222.31	1005.56
2224.27	991.111
2226.22	995.333
2228.17	984
2230.12	1007.11
2232.08	1010.89
2234.03	968.889
2235.98	994.667
2237.93	990.445
2239.88	984.222
2241.83	978.667
2243.78	972
2245.72	993.333
2247.67	985.111
2249.62	987.778
2251.56	966.889
2253.51	989.111
2255.45	984.444
2257.4	963.778
2259.34	978.889
2261.28	963.111
2263.23	981.333
2265.17	980.889
2267.11	959.111
2269.05	964.667
2270.99	966.222
2272.93	963.778
2274.87	965.111
2276.81	966
2278.75	962.889
2280.68	946
2282.62	966.889
2284.56	942.444
2286.49	958
2288.43	942.222
2290.36	942.889
2292.3	962.222
2294.23	952.444
2296.16	940.889
2298.09	939.778
2300.03	926.889
2301.96	944.889
2303.89	922.667
2305.82	931.778
2307.75	940.667
2309.68	945.333
2311.6	944.444
2313.53	944
2315.46	931.556
2317.39	936.667
2319.31	936.667
2321.24	927.333
2323.16	937.333
2325.09	944
2327.01	928
2328.93	937.556
2330.86	935.778
2332.78	927.556
2334.7	928.444
2336.62	931.556
2338.54	930.222
2340.46	916.444
2342.38	912
2344.3	936.222
2346.22	922.667
2348.14	924.889
2350.05	915.111
2351.97	918
2353.89	916.222
2355.8	905.778
2357.71	912.222
2359.63	899.556
2361.54	904
2363.46	912.222
2365.37	898.667
2367.28	920.222
2369.19	892
2371.1	905.111
2373.01	904.444
2374.92	894.222
2376.83	891.778
2378.74	912.889
2380.65	905.556
2382.56	900.667
2384.46	891.111
2386.37	888.889
2388.27	901.333
2390.18	896.222
2392.08	887.111
2393.99	893.556
2395.89	886.667
2397.8	893.556
2399.7	891.778
2401.6	892.667
2403.5	903.333
2405.4	886
2407.3	891.778
2409.2	880.889
2411.1	892.889
2413	893.556
2414.9	878.222
2416.8	888.667
2418.69	873.556
2420.59	880.444
2422.48	881.111
2424.38	880.667
2426.28	867.556
2428.17	879.333
2430.06	889.111
2431.96	887.111
2433.85	881.556
2435.74	869.111
2437.63	878.222
2439.52	877.333
2441.41	881.556
2443.3	875.333
2445.19	867.111
2447.08	873.111
