178.677	3156.67
181.278	3217.11
183.879	3226
186.48	3260.44
189.078	3343.56
191.677	3409.78
194.275	3536
196.871	3650.89
199.467	3722.44
202.061	3837.78
204.656	3949.56
207.248	4088.22
209.841	4161.56
212.431	4277.11
215.022	4398.22
217.613	4509.11
220.201	4682.67
222.789	4934.22
225.375	5180.89
227.962	5512.44
230.547	5878.89
233.13	6339.11
235.714	6785.33
238.296	7224.22
240.879	7459.78
243.459	7465.33
246.04	7266.67
248.618	6815.78
251.196	6264.44
253.774	5621.11
256.35	5058.22
258.927	4514.22
261.501	4062.89
264.074	3700.67
266.648	3354.89
269.22	3074.44
271.791	2854.22
274.362	2691.11
276.931	2536.22
279.5	2417.78
282.069	2328.44
284.635	2242.22
287.201	2166
289.766	2103.78
292.331	2048
294.894	2023.56
297.457	1963.56
300.018	1942.22
302.58	1939.11
305.14	1886.89
307.699	1874.22
310.257	1858.44
312.814	1828.67
315.372	1812.67
317.928	1799.33
320.482	1792.44
323.036	1778.67
325.589	1781.78
328.142	1761.78
330.693	1758.44
333.243	1742
335.795	1763.56
338.343	1736.22
340.891	1745.78
343.439	1744.22
345.985	1747.56
348.53	1743.11
351.075	1744
353.619	1733.11
356.162	1729.78
358.704	1710.89
361.245	1710.44
363.786	1712
366.325	1730.44
368.864	1719.56
371.402	1705.56
373.939	1716
376.475	1721.33
379.011	1755.33
381.545	1739.78
384.079	1717.56
386.612	1698
389.144	1682.22
391.674	1702
394.204	1686.67
396.734	1706
399.263	1718.67
401.791	1736.67
404.318	1758
406.844	1839.56
409.368	1896.67
411.893	2030.22
414.417	2213.56
416.94	2326
419.462	2323.11
421.982	2225.78
424.502	2099.78
427.022	1987.78
429.541	1945.78
432.057	1906.67
434.574	1853.56
437.091	1812.22
439.606	1746
442.12	1709.56
444.634	1708.22
447.147	1676
449.657	1667.33
452.169	1664.89
454.68	1648.44
457.188	1653.33
459.697	1674.67
462.205	1674.22
464.711	1671.78
467.217	1667.33
469.722	1668.67
472.227	1674
474.731	1662
477.232	1650.67
479.735	1639.11
482.235	1639.78
484.736	1623.11
487.234	1650
489.734	1622.67
492.23	1626.67
494.728	1631.33
497.223	1627.78
499.719	1622.67
502.213	1612.89
504.707	1620.44
507.199	1615.11
509.692	1627.56
512.182	1607.56
514.673	1625.33
517.162	1619.11
519.65	1616.22
522.139	1632
524.625	1601.33
527.112	1611.33
529.597	1599.56
532.081	1598
534.565	1606.67
537.047	1576.44
539.529	1592.22
542.011	1579.33
544.491	1583.56
546.97	1611.11
549.45	1582.44
551.927	1603.78
554.404	1609.11
556.88	1615.56
559.356	1599.78
561.831	1607.11
564.304	1620
566.777	1603.56
569.25	1600.67
571.721	1603.33
574.191	1609.11
576.661	1613.33
579.129	1602.67
581.599	1587.33
584.066	1592.22
586.532	1599.56
588.997	1587.11
591.462	1609.56
593.926	1608.89
596.389	1598.67
598.851	1615.11
601.314	1604.44
603.775	1606.44
606.235	1603.56
608.694	1610.67
611.152	1634.22
613.609	1634.89
616.066	1626.89
618.522	1630.89
620.977	1616.89
623.431	1628.89
625.885	1642.22
628.338	1618.89
630.79	1617.78
633.241	1617.11
635.691	1638.89
638.141	1652.89
640.589	1633.56
643.036	1633.56
645.483	1620.67
647.929	1642.67
650.375	1626.89
652.82	1631.11
655.264	1630
657.707	1626.44
660.149	1624.89
662.59	1616.22
665.031	1609.78
667.471	1614.22
669.91	1619.33
672.349	1631.33
674.786	1634.22
677.222	1641.11
679.658	1645.56
682.093	1682
684.528	1736.22
686.96	1793.56
689.393	1846.89
691.826	1845.33
694.256	1820.89
696.686	1751.33
699.116	1689.11
701.545	1675.33
703.972	1667.78
706.4	1661.56
708.826	1641.56
711.251	1655.56
713.676	1659.11
716.099	1650.22
718.523	1638.67
720.946	1658.67
723.366	1629.78
725.788	1658.89
728.207	1652.44
730.627	1653.33
733.044	1660.44
735.462	1658
737.88	1653.11
740.295	1654.89
742.711	1651.33
745.125	1634.44
747.539	1642.67
749.951	1643.78
752.363	1638.89
754.775	1629.78
757.185	1635.11
759.595	1640.44
762.003	1636.44
764.412	1646.89
766.819	1643.33
769.225	1644.44
771.632	1652.67
774.036	1653.56
776.441	1653.78
778.844	1656.67
781.246	1656.22
783.649	1646.44
786.05	1656.22
788.449	1655.33
790.85	1647.78
793.248	1663.33
795.646	1658.22
798.042	1663.78
800.44	1667.33
802.835	1672.44
805.23	1660.22
807.623	1656
810.018	1666
812.41	1658
814.801	1637.33
817.192	1653.11
819.582	1650
821.972	1663.33
824.361	1648.89
826.748	1667.11
829.135	1666
831.521	1661.11
833.907	1661.11
836.291	1656
838.675	1646.44
841.059	1671.56
843.442	1654.22
845.823	1674.89
848.204	1656.44
850.584	1660.44
852.963	1650.67
855.342	1682
857.72	1656
860.097	1647.11
862.473	1668.89
864.848	1656
867.223	1665.33
869.597	1669.33
871.97	1666.67
874.343	1666
876.714	1683.78
879.084	1670.67
881.454	1672
883.824	1655.78
886.192	1683.78
888.56	1682
890.927	1678.67
893.294	1675.56
895.66	1684.89
898.023	1675.78
900.387	1687.11
902.751	1688.89
905.114	1685.33
907.476	1698.22
909.835	1682.89
912.196	1707.78
914.555	1673.56
916.914	1679.33
919.271	1691.33
921.629	1673.33
923.985	1673.78
926.341	1669.11
928.695	1678.89
931.05	1681.78
933.404	1666.22
935.755	1669.78
938.107	1681.56
940.459	1670.22
942.808	1692.44
945.158	1683.11
947.508	1684.44
949.855	1684.22
952.202	1686.44
954.548	1683.33
956.894	1690.67
959.239	1685.11
961.583	1696.89
963.928	1695.56
966.27	1690.89
968.612	1694.22
970.953	1700.89
973.294	1706.89
975.633	1710.89
977.972	1721.11
980.31	1750.67
982.647	1741.78
984.984	1748.89
987.32	1785.11
989.656	1786.67
991.989	1801.78
994.324	1931.33
996.656	2304.89
998.988	2577.11
1001.32	2321.11
1003.65	1981.56
1005.98	1795.33
1008.31	1736.67
1010.64	1755.78
1012.97	1784
1015.29	1857.33
1017.62	2054.67
1019.94	2351.78
1022.27	2510.22
1024.59	2332.44
1026.92	2057.11
1029.24	1852
1031.56	1774.44
1033.88	1732.44
1036.2	1742.67
1038.52	1732.44
1040.84	1728.22
1043.16	1723.11
1045.48	1737.78
1047.79	1733.11
1050.11	1754
1052.42	1808.22
1054.74	1855.78
1057.05	1920.89
1059.36	2054
1061.67	2246.22
1063.99	2510.22
1066.3	2794.44
1068.61	2921.11
1070.92	2944.22
1073.22	2784.22
1075.53	2518.44
1077.84	2245.78
1080.15	2087.78
1082.45	1942.44
1084.76	1862.44
1087.06	1854.89
1089.36	1823.11
1091.66	1838
1093.97	1871.11
1096.27	1861.56
1098.57	1890.44
1100.87	1891.11
1103.17	1903.33
1105.46	1912
1107.76	1909.56
1110.06	1902.67
1112.35	1900
1114.65	1862.89
1116.94	1859.33
1119.24	1851.56
1121.53	1830.89
1123.82	1820
1126.11	1791.78
1128.4	1782
1130.7	1771.33
1132.98	1771.11
1135.27	1735.78
1137.56	1738.67
1139.85	1728.89
1142.13	1730.22
1144.42	1728.44
1146.71	1734
1148.99	1761.33
1151.27	1747.33
1153.56	1740.67
1155.84	1755.56
1158.12	1760.89
1160.4	1736.22
1162.68	1743.33
1164.96	1733.56
1167.24	1732.22
1169.51	1727.33
1171.79	1735.33
1174.07	1722.89
1176.34	1770.67
1178.62	1783.78
1180.89	1827.11
1183.17	1805.78
1185.44	1788.67
1187.71	1719.11
1189.98	1738.44
1192.25	1710
1194.52	1690.22
1196.79	1689.11
1199.06	1710.44
1201.33	1695.56
1203.59	1691.56
1205.86	1689.56
1208.12	1700.22
1210.39	1696.22
1212.65	1694.67
1214.92	1696.22
1217.18	1667.78
1219.44	1709.56
1221.7	1687.33
1223.96	1706
1226.22	1691.33
1228.48	1695.11
1230.74	1690.22
1233	1720.22
1235.25	1707.78
1237.51	1702.89
1239.77	1702.22
1242.02	1711.33
1244.27	1705.33
1246.53	1706.89
1248.78	1704.44
1251.03	1722
1253.28	1714.67
1255.53	1708.67
1257.78	1722.67
1260.03	1703.78
1262.28	1704.44
1264.53	1710
1266.78	1723.11
1269.02	1712.89
1271.27	1710.22
1273.51	1727.33
1275.76	1700.89
1278	1718.44
1280.24	1713.33
1282.48	1713.11
1284.72	1698
1286.97	1714.67
1289.21	1701.11
1291.44	1707.11
1293.68	1726.67
1295.92	1721.78
1298.16	1702.67
1300.39	1703.33
1302.63	1704.89
1304.86	1710.67
1307.1	1700.44
1309.33	1707.33
1311.56	1702.44
1313.8	1720.89
1316.03	1720.89
1318.26	1719.78
1320.49	1705.56
1322.72	1719.56
1324.95	1716
1327.17	1718.67
1329.4	1727.33
1331.63	1724.89
1333.85	1713.78
1336.08	1721.33
1338.3	1722.22
1340.53	1715.78
1342.75	1726.89
1344.97	1731.56
1347.19	1722.44
1349.41	1740.89
1351.63	1710.67
1353.85	1715.11
1356.07	1741.78
1358.29	1721.56
1360.51	1723.11
1362.72	1740.89
1364.94	1757.33
1367.16	1734.44
1369.37	1750.22
1371.58	1747.56
1373.8	1747.78
1376.01	1752.89
1378.22	1740.89
1380.43	1747.33
1382.64	1755.78
1384.85	1739.56
1387.06	1734.22
1389.27	1724.67
1391.48	1733.33
1393.68	1704
1395.89	1698.89
1398.1	1716.22
1400.3	1700
1402.51	1724
1404.71	1700.67
1406.91	1708.89
1409.11	1694
1411.32	1706.89
1413.52	1695.11
1415.72	1698.89
1417.92	1681.11
1420.11	1675.11
1422.31	1679.78
1424.51	1690
1426.71	1691.33
1428.9	1690.89
1431.1	1693.33
1433.29	1677.78
1435.49	1706.89
1437.68	1693.11
1439.87	1705.11
1442.06	1710.67
1444.25	1702.67
1446.45	1704.44
1448.64	1690.89
1450.82	1700.22
1453.01	1712
1455.2	1712.44
1457.39	1696.67
1459.57	1698.89
1461.76	1727.78
1463.94	1730.22
1466.13	1746.67
1468.31	1787.33
1470.5	1824.44
1472.68	1861.33
1474.86	1834.22
1477.04	1808
1479.22	1767.11
1481.4	1707.33
1483.58	1697.11
1485.76	1710.89
1487.94	1690.44
1490.11	1679.56
1492.29	1665.33
1494.46	1660
1496.64	1666.67
1498.81	1670.44
1500.99	1653.78
1503.16	1654.67
1505.33	1639.78
1507.5	1651.56
1509.67	1662.67
1511.84	1647.78
1514.01	1640.89
1516.18	1663.78
1518.35	1648
1520.52	1642
1522.68	1658.67
1524.85	1636.22
1527.02	1653.78
1529.18	1651.11
1531.35	1664.22
1533.51	1632.67
1535.67	1638.44
1537.83	1663.56
1539.99	1660.22
1542.16	1645.11
1544.31	1663.78
1546.47	1677.33
1548.63	1684.89
1550.79	1701.78
1552.95	1736.67
1555.11	1773.33
1557.26	1830.67
1559.42	1882.89
1561.57	1977.78
1563.73	2129.78
1565.88	2360
1568.03	2626
1570.18	2847.78
1572.34	2852
1574.49	2659.11
1576.64	2362
1578.79	2116.22
1580.93	1978
1583.08	1882.89
1585.23	1820.22
1587.38	1791.78
1589.52	1768.44
1591.67	1737.56
1593.81	1725.33
1595.96	1709.11
1598.1	1707.11
1600.24	1683.33
1602.38	1690.67
1604.53	1676.44
1606.67	1669.11
1608.81	1656
1610.95	1653.33
1613.09	1653.78
1615.22	1645.33
1617.36	1662.44
1619.5	1635.33
1621.63	1628.89
1623.77	1634
1625.9	1631.56
1628.04	1612
1630.17	1602.44
1632.3	1609.56
1634.44	1617.56
1636.57	1612.89
1638.7	1601.78
1640.83	1592.89
1642.96	1582
1645.09	1574.44
1647.22	1595.11
1649.34	1594.67
1651.47	1598.67
1653.6	1589.33
1655.72	1581.78
1657.85	1580
1659.97	1580
1662.1	1579.78
1664.22	1568.67
1666.34	1568.89
1668.46	1573.11
1670.58	1574
1672.7	1567.11
1674.82	1581.33
1676.94	1590
1679.06	1561.56
1681.18	1550.44
1683.3	1593.33
1685.41	1580.22
1687.53	1577.78
1689.64	1564.89
1691.76	1594.44
1693.87	1580.44
1695.99	1593.78
1698.1	1551.33
1700.21	1556.89
1702.32	1568.67
1704.43	1573.56
1706.54	1583.11
1708.65	1571.11
1710.76	1571.56
1712.87	1562.22
1714.98	1551.56
1717.08	1551.78
1719.19	1544.22
1721.29	1544.89
1723.4	1549.56
1725.5	1534.67
1727.61	1554.44
1729.71	1538.67
1731.81	1532.44
1733.91	1538
1736.02	1536.44
1738.12	1537.56
1740.22	1536.89
1742.31	1535.56
1744.41	1523.78
1746.51	1508.89
1748.61	1511.78
1750.7	1516.67
1752.8	1521.78
1754.9	1527.11
1756.99	1522.44
1759.08	1525.56
1761.18	1527.11
1763.27	1526.44
1765.36	1515.56
1767.45	1521.11
1769.54	1527.33
1771.63	1497.33
1773.72	1522.44
1775.81	1509.56
1777.9	1528.44
1779.99	1511.33
1782.08	1511.56
1784.16	1492.22
1786.25	1492.89
1788.33	1512.89
1790.42	1514.22
1792.5	1519.56
1794.58	1506.89
1796.67	1515.56
1798.75	1507.11
1800.83	1500.89
1802.91	1521.33
1804.99	1494.44
1807.07	1509.33
1809.15	1516.22
1811.23	1499.33
1813.3	1500.89
1815.38	1493.78
1817.46	1499.11
1819.53	1512.44
1821.61	1479.78
1823.68	1518.67
1825.75	1483.56
1827.83	1488.67
1829.9	1487.78
1831.97	1488.67
1834.04	1492.44
1836.11	1476.89
1838.18	1474.67
1840.25	1476
1842.32	1466.67
1844.39	1466.67
1846.46	1471.78
1848.52	1467.33
1850.59	1472.22
1852.65	1472
1854.72	1459.33
1856.78	1472.44
1858.85	1446.89
1860.91	1472.67
1862.97	1458
1865.03	1455.78
1867.09	1442.67
1869.16	1444.89
1871.22	1464.67
1873.27	1442.22
1875.33	1446.89
1877.39	1450.67
1879.45	1457.33
1881.51	1453.78
1883.56	1455.78
1885.62	1429.11
1887.67	1443.56
1889.73	1442.44
1891.78	1453.78
1893.83	1444.44
1895.89	1437.78
1897.94	1448.67
1899.99	1455.56
1902.04	1432
1904.09	1425.78
1906.14	1444.22
1908.19	1440
1910.23	1438.67
1912.28	1426.67
1914.33	1426.89
1916.37	1432.89
1918.42	1433.33
1920.46	1426.44
1922.51	1446.44
1924.55	1416
1926.6	1429.33
1928.64	1406.22
1930.68	1425.33
1932.72	1408.67
1934.76	1422.89
1936.8	1410.67
1938.84	1419.78
1940.88	1414.22
1942.92	1402.67
1944.96	1404.67
1946.99	1413.56
1949.03	1390.89
1951.06	1398.44
1953.1	1398.67
1955.13	1396.67
1957.17	1384.89
1959.2	1379.33
1961.23	1392.89
1963.27	1376
1965.3	1388.44
1967.33	1392.22
1969.36	1360.89
1971.39	1381.78
1973.42	1372
1975.44	1382.89
1977.47	1366.44
1979.5	1383.56
1981.53	1365.33
1983.55	1368.67
1985.58	1377.11
1987.6	1373.56
1989.63	1356.89
1991.65	1359.11
1993.67	1364
1995.69	1394
1997.72	1369.78
1999.74	1366.44
2001.76	1364.44
2003.78	1341.11
2005.8	1370.44
2007.82	1363.56
2009.83	1342
2011.85	1364.67
2013.87	1374.67
2015.88	1365.78
2017.9	1352
2019.91	1365.78
2021.93	1362.67
2023.94	1359.78
2025.96	1369.56
2027.97	1369.56
2029.98	1361.78
2031.99	1365.78
2034	1344
2036.01	1353.33
2038.02	1356
2040.03	1343.11
2042.04	1363.56
2044.05	1343.11
2046.05	1353.78
2048.06	1353.78
2050.07	1335.56
2052.07	1336.89
2054.08	1331.33
2056.08	1348.89
2058.08	1342.67
2060.09	1343.11
2062.09	1342.22
2064.09	1328.67
2066.09	1325.11
2068.09	1338.89
2070.09	1353.56
2072.09	1343.11
2074.09	1338.67
2076.09	1327.11
2078.09	1318.44
2080.08	1332
2082.08	1318.44
2084.08	1312.44
2086.07	1315.78
2088.07	1313.33
2090.06	1310.22
2092.05	1311.11
2094.05	1299.11
2096.04	1299.56
2098.03	1306
2100.02	1309.33
2102.01	1314.22
2104	1303.56
2105.99	1305.78
2107.98	1302.67
2109.97	1319.33
2111.95	1312.22
2113.94	1305.33
2115.93	1289.78
2117.91	1295.33
2119.9	1281.11
2121.88	1291.78
2123.87	1282.44
2125.85	1280.67
2127.83	1298.44
2129.81	1289.33
2131.8	1284.89
2133.78	1278.67
2135.76	1271.11
2137.74	1279.33
2139.72	1282.44
2141.69	1293.33
2143.67	1277.33
2145.65	1274.44
2147.63	1278.22
2149.6	1260.44
2151.58	1279.56
2153.55	1258.22
2155.53	1268.67
2157.5	1260.89
2159.48	1272.67
2161.45	1256.67
2163.42	1266.44
2165.39	1265.11
2167.36	1246
2169.33	1266.67
2171.3	1252.44
2173.27	1244.89
2175.24	1245.11
2177.21	1232
2179.18	1233.11
2181.14	1223.78
2183.11	1255.78
2185.07	1232.22
2187.04	1230.22
2189	1223.78
2190.97	1247.33
2192.93	1222.22
2194.89	1245.78
2196.86	1224
2198.82	1224.67
2200.78	1225.56
2202.74	1223.33
2204.7	1226.22
2206.66	1212.89
2208.62	1219.78
2210.57	1214.89
2212.53	1219.11
2214.49	1217.33
2216.45	1216.89
2218.4	1216.67
2220.36	1196.89
2222.31	1205.11
2224.27	1223.11
2226.22	1215.33
2228.17	1191.56
2230.12	1215.78
2232.08	1210
2234.03	1197.78
2235.98	1192.67
2237.93	1191.78
2239.88	1208.44
2241.83	1190.67
2243.78	1204.44
2245.72	1195.56
2247.67	1201.56
2249.62	1194
2251.56	1192.89
2253.51	1183.33
2255.45	1191.11
2257.4	1183.11
2259.34	1201.56
2261.28	1190
2263.23	1186.89
2265.17	1177.11
2267.11	1186.22
2269.05	1181.11
2270.99	1175.33
2272.93	1176.44
2274.87	1181.33
2276.81	1172.22
2278.75	1158.44
2280.68	1163.56
2282.62	1167.56
2284.56	1154.22
2286.49	1158
2288.43	1163.11
2290.36	1141.33
2292.3	1151.56
2294.23	1162
2296.16	1153.78
2298.09	1153.11
2300.03	1158
2301.96	1160.89
2303.89	1154.44
2305.82	1147.33
2307.75	1144
2309.68	1146.22
2311.6	1146.44
2313.53	1144.44
2315.46	1142.67
2317.39	1140.67
2319.31	1135.11
2321.24	1135.56
2323.16	1125.78
2325.09	1129.78
2327.01	1118.67
2328.93	1117.11
2330.86	1142.22
2332.78	1134.22
2334.7	1132.67
2336.62	1110.22
2338.54	1106.44
2340.46	1133.56
2342.38	1116.44
2344.3	1129.78
2346.22	1121.33
2348.14	1113.56
2350.05	1109.78
2351.97	1114.22
2353.89	1117.56
2355.8	1094.44
2357.71	1103.56
2359.63	1105.78
2361.54	1107.78
2363.46	1095.33
2365.37	1108.89
2367.28	1098
2369.19	1098
2371.1	1078
2373.01	1105.33
2374.92	1087.78
2376.83	1079.11
2378.74	1084.22
2380.65	1086.67
2382.56	1087.56
2384.46	1079.33
2386.37	1093.78
2388.27	1086
2390.18	1079.56
2392.08	1072
2393.99	1072.22
2395.89	1072
2397.8	1064
2399.7	1061.33
2401.6	1063.56
2403.5	1078.44
2405.4	1078.44
2407.3	1058
2409.2	1064.89
2411.1	1083.11
2413	1051.33
2414.9	1039.56
2416.8	1040.44
2418.69	1055.78
2420.59	1056.67
2422.48	1056
2424.38	1060
2426.28	1067.78
2428.17	1059.78
2430.06	1068
2431.96	1062.67
2433.85	1044.89
2435.74	1050.89
2437.63	1043.56
2439.52	1050.22
2441.41	1053.33
2443.3	1052.89
2445.19	1041.33
2447.08	1051.78
