178.677	2001.78
181.278	1988
183.879	2010.22
186.48	2046
189.078	2068.44
191.677	2139.11
194.275	2196.44
196.871	2277.56
199.467	2328.44
202.061	2426.22
204.656	2474.89
207.248	2603.33
209.841	2696.67
212.431	2794.67
215.022	2919.11
217.613	3042
220.201	3183.11
222.789	3336.67
225.375	3608.67
227.962	3837.11
230.547	4097.11
233.13	4456.67
235.714	4761.11
238.296	5119.33
240.879	5311.11
243.459	5371.11
246.04	5254.89
248.618	5008
251.196	4593.78
253.774	4115.11
256.35	3620
258.927	3220.89
261.501	2847.56
264.074	2525.11
266.648	2268.67
269.22	2093.11
271.791	1915.56
274.362	1817.33
276.931	1694.67
279.5	1618.44
282.069	1556.67
284.635	1502
287.201	1423.11
289.766	1377.56
292.331	1348.44
294.894	1321.11
297.457	1292.89
300.018	1260.22
302.58	1254.22
305.14	1223.78
307.699	1215.33
310.257	1208.44
312.814	1184.67
315.372	1173.33
317.928	1166.22
320.482	1158.44
323.036	1154.89
325.589	1146.44
328.142	1154.44
330.693	1137.11
333.243	1128.67
335.795	1123.56
338.343	1123.78
340.891	1115.78
343.439	1127.11
345.985	1114.89
348.53	1131.56
351.075	1115.56
353.619	1102.89
356.162	1108
358.704	1117.78
361.245	1113.56
363.786	1097.78
366.325	1115.56
368.864	1101.78
371.402	1095.78
373.939	1107.33
376.475	1112.22
379.011	1121.33
381.545	1101.11
384.079	1093.78
386.612	1103.33
389.144	1101.33
391.674	1093.33
394.204	1090.22
396.734	1082.22
399.263	1096.44
401.791	1079.11
404.318	1086.67
406.844	1092
409.368	1092.67
411.893	1097.33
414.417	1090.89
416.94	1077.33
419.462	1087.33
421.982	1095.11
424.502	1098.44
427.022	1093.78
429.541	1064.89
432.057	1085.78
434.574	1102.89
437.091	1110.44
439.606	1097.56
442.12	1080.67
444.634	1081.78
447.147	1086.44
449.657	1071.78
452.169	1076.67
454.68	1079.56
457.188	1086.44
459.697	1078.67
462.205	1066.22
464.711	1077.33
467.217	1058.89
469.722	1078.44
472.227	1063.33
474.731	1066
477.232	1062.89
479.735	1069.56
482.235	1065.33
484.736	1057.33
487.234	1074.22
489.734	1069.11
492.23	1054.67
494.728	1081.78
497.223	1054
499.719	1057.78
502.213	1052
504.707	1038.44
507.199	1047.78
509.692	1045.11
512.182	1046.67
514.673	1053.11
517.162	1045.33
519.65	1043.56
522.139	1046.44
524.625	1027.11
527.112	1026.44
529.597	1031.11
532.081	1045.11
534.565	1034.67
537.047	1041.56
539.529	1057.11
542.011	1038.67
544.491	1051.56
546.97	1052.89
549.45	1045.56
551.927	1059.56
554.404	1047.56
556.88	1046.67
559.356	1047.11
561.831	1052.44
564.304	1053.33
566.777	1047.33
569.25	1044.67
571.721	1036
574.191	1046.22
576.661	1038.22
579.129	1042.89
581.599	1034.22
584.066	1032.67
586.532	1038.67
588.997	1037.78
591.462	1049.33
593.926	1053.56
596.389	1036
598.851	1042.89
601.314	1066.44
603.775	1048.89
606.235	1053.11
608.694	1074
611.152	1066
613.609	1067.56
616.066	1058.44
618.522	1054
620.977	1055.11
623.431	1080.22
625.885	1056.89
628.338	1061.56
630.79	1053.78
633.241	1056.89
635.691	1076.89
638.141	1072
640.589	1051.56
643.036	1057.56
645.483	1067.33
647.929	1079.56
650.375	1069.56
652.82	1071.56
655.264	1063.33
657.707	1061.78
660.149	1047.33
662.59	1050.67
665.031	1050
667.471	1059.33
669.91	1056.67
672.349	1053.56
674.786	1051.56
677.222	1049.56
679.658	1043.56
682.093	1033.11
684.528	1048.22
686.96	1064.22
689.393	1044.44
691.826	1051.78
694.256	1049.11
696.686	1047.11
699.116	1046.44
701.545	1065.56
703.972	1064.44
706.4	1041.11
708.826	1051.33
711.251	1055.33
713.676	1053.78
716.099	1047.78
718.523	1056
720.946	1060.22
723.366	1060.89
725.788	1061.11
728.207	1063.78
730.627	1059.11
733.044	1053.33
735.462	1046.67
737.88	1063.78
740.295	1053.56
742.711	1073.11
745.125	1043.78
747.539	1060.22
749.951	1046.67
752.363	1060.44
754.775	1055.11
757.185	1067.33
759.595	1083.11
762.003	1114
764.412	1137.11
766.819	1162
769.225	1135.56
771.632	1119.56
774.036	1104.89
776.441	1093.11
778.844	1094.89
781.246	1102.67
783.649	1096
786.05	1091.56
788.449	1075.33
790.85	1082.67
793.248	1083.11
795.646	1082.67
798.042	1099.33
800.44	1096.44
802.835	1096.89
805.23	1081.11
807.623	1090.22
810.018	1086.22
812.41	1086
814.801	1079.33
817.192	1085.78
819.582	1093.11
821.972	1088.67
824.361	1062
826.748	1074.44
829.135	1070.44
831.521	1072
833.907	1068.22
836.291	1076.44
838.675	1063.56
841.059	1069.78
843.442	1068.89
845.823	1074.67
848.204	1079.33
850.584	1074.89
852.963	1076.67
855.342	1086.67
857.72	1084.89
860.097	1086
862.473	1080.44
864.848	1095.33
867.223	1093.33
869.597	1078.44
871.97	1095.33
874.343	1072
876.714	1094.44
879.084	1085.78
881.454	1078
883.824	1074.89
886.192	1079.11
888.56	1076.22
890.927	1084
893.294	1086.44
895.66	1080.89
898.023	1082.44
900.387	1087.56
902.751	1072.22
905.114	1069.33
907.476	1064.89
909.835	1081.11
912.196	1058.67
914.555	1065.33
916.914	1050.22
919.271	1073.78
921.629	1056.67
923.985	1075.56
926.341	1059.11
928.695	1080.22
931.05	1061.78
933.404	1068.89
935.755	1073.56
938.107	1055.33
940.459	1050.89
942.808	1070.67
945.158	1085.11
947.508	1048.44
949.855	1077.78
952.202	1070.89
954.548	1065.33
956.894	1062.89
959.239	1084.67
961.583	1069.56
963.928	1073.78
966.27	1087.11
968.612	1084.22
970.953	1064
973.294	1088.67
975.633	1076.22
977.972	1079.33
980.31	1090.22
982.647	1095.56
984.984	1107.56
987.32	1097.33
989.656	1093.56
991.989	1104.44
994.324	1107.78
996.656	1129.78
998.988	1138.89
1001.32	1190.67
1003.65	1272.67
1005.98	1458.44
1008.31	1616
1010.64	1665.33
1012.97	1529.33
1015.29	1356.67
1017.62	1246.67
1019.94	1218.22
1022.27	1199.11
1024.59	1259.78
1026.92	1349.56
1029.24	1377.11
1031.56	1371.11
1033.88	1405.56
1036.2	1401.78
1038.52	1309.56
1040.84	1219.11
1043.16	1152.67
1045.48	1129.56
1047.79	1115.11
1050.11	1131.78
1052.42	1146.89
1054.74	1176
1057.05	1189.33
1059.36	1170
1061.67	1165.78
1063.99	1152
1066.3	1138
1068.61	1134.22
1070.92	1147.11
1073.22	1125.33
1075.53	1121.11
1077.84	1102.44
1080.15	1113.56
1082.45	1109.56
1084.76	1111.33
1087.06	1118.22
1089.36	1112.44
1091.66	1100.44
1093.97	1145.33
1096.27	1150.44
1098.57	1114.89
1100.87	1110.67
1103.17	1117.11
1105.46	1120.22
1107.76	1107.11
1110.06	1107.56
1112.35	1102
1114.65	1106.22
1116.94	1121.33
1119.24	1115.56
1121.53	1123.56
1123.82	1116.89
1126.11	1098.89
1128.4	1109.78
1130.7	1099.11
1132.98	1106.44
1135.27	1104.22
1137.56	1098.89
1139.85	1100.67
1142.13	1092.89
1144.42	1099.78
1146.71	1106.22
1148.99	1092.67
1151.27	1111.56
1153.56	1104.22
1155.84	1106.22
1158.12	1087.11
1160.4	1108.44
1162.68	1103.33
1164.96	1089.56
1167.24	1089.56
1169.51	1085.56
1171.79	1083.33
1174.07	1086
1176.34	1083.56
1178.62	1095.56
1180.89	1076
1183.17	1086.22
1185.44	1072
1187.71	1086
1189.98	1091.56
1192.25	1096
1194.52	1088.89
1196.79	1100.89
1199.06	1104.89
1201.33	1098
1203.59	1098.89
1205.86	1089.56
1208.12	1100.44
1210.39	1090
1212.65	1106.44
1214.92	1109.78
1217.18	1098.67
1219.44	1109.33
1221.7	1088.22
1223.96	1102
1226.22	1096.44
1228.48	1084.67
1230.74	1097.56
1233	1091.78
1235.25	1081.56
1237.51	1085.56
1239.77	1091.56
1242.02	1101.33
1244.27	1100.89
1246.53	1086.44
1248.78	1102.44
1251.03	1074.89
1253.28	1091.78
1255.53	1074.22
1257.78	1078.44
1260.03	1083.78
1262.28	1106
1264.53	1089.11
1266.78	1083.33
1269.02	1090.89
1271.27	1087.11
1273.51	1098.67
1275.76	1096.22
1278	1099.56
1280.24	1096.22
1282.48	1120.22
1284.72	1096
1286.97	1094.67
1289.21	1086.22
1291.44	1104.89
1293.68	1103.33
1295.92	1122
1298.16	1106.44
1300.39	1126.67
1302.63	1136.67
1304.86	1134.22
1307.1	1126.44
1309.33	1110.44
1311.56	1105.56
1313.8	1104.67
1316.03	1090
1318.26	1096.67
1320.49	1100.67
1322.72	1097.33
1324.95	1084.22
1327.17	1086.44
1329.4	1085.11
1331.63	1084.22
1333.85	1081.33
1336.08	1115.56
1338.3	1096.67
1340.53	1097.33
1342.75	1095.56
1344.97	1078.89
1347.19	1086.22
1349.41	1084.89
1351.63	1092
1353.85	1087.56
1356.07	1088.89
1358.29	1087.78
1360.51	1072
1362.72	1085.33
1364.94	1083.33
1367.16	1079.56
1369.37	1101.11
1371.58	1082.44
1373.8	1094.67
1376.01	1103.56
1378.22	1087.11
1380.43	1098.44
1382.64	1096
1384.85	1082.89
1387.06	1089.56
1389.27	1071.33
1391.48	1076.22
1393.68	1065.56
1395.89	1092
1398.1	1074.44
1400.3	1059.78
1402.51	1077.56
1404.71	1078.22
1406.91	1084.67
1409.11	1063.33
1411.32	1062.89
1413.52	1066
1415.72	1078
1417.92	1070.67
1420.11	1056.67
1422.31	1073.56
1424.51	1066.44
1426.71	1061.56
1428.9	1067.33
1431.1	1064.89
1433.29	1060.67
1435.49	1048
1437.68	1063.56
1439.87	1063.56
1442.06	1068.44
1444.25	1073.33
1446.45	1066.89
1448.64	1065.56
1450.82	1073.33
1453.01	1068.89
1455.2	1065.56
1457.39	1087.33
1459.57	1083.56
1461.76	1070.22
1463.94	1065.78
1466.13	1082
1468.31	1083.78
1470.5	1079.33
1472.68	1086.44
1474.86	1084.44
1477.04	1095.11
1479.22	1085.78
1481.4	1081.78
1483.58	1090.67
1485.76	1080.44
1487.94	1071.56
1490.11	1050.67
1492.29	1062.44
1494.46	1027.78
1496.64	1048.67
1498.81	1053.78
1500.99	1046.89
1503.16	1055.11
1505.33	1048.67
1507.5	1052.89
1509.67	1031.56
1511.84	1059.11
1514.01	1025.78
1516.18	1040.22
1518.35	1036.89
1520.52	1047.33
1522.68	1033.11
1524.85	1032.89
1527.02	1034.89
1529.18	1047.11
1531.35	1023.78
1533.51	1047.33
1535.67	1031.33
1537.83	1031.78
1539.99	1037.56
1542.16	1043.56
1544.31	1025.33
1546.47	1032.22
1548.63	1042
1550.79	1036
1552.95	1029.33
1555.11	1028.44
1557.26	1044.67
1559.42	1041.56
1561.57	1042.22
1563.73	1046.22
1565.88	1042.67
1568.03	1043.11
1570.18	1055.11
1572.34	1031.33
1574.49	1055.78
1576.64	1047.78
1578.79	1048.22
1580.93	1019.78
1583.08	1042.67
1585.23	1047.78
1587.38	1049.11
1589.52	1052.44
1591.67	1056.67
1593.81	1052.89
1595.96	1073.56
1598.1	1055.11
1600.24	1069.78
1602.38	1057.33
1604.53	1036.67
1606.67	1037.78
1608.81	1034.67
1610.95	1056.44
1613.09	1030.89
1615.22	1037.33
1617.36	1042.67
1619.5	1046.89
1621.63	1043.33
1623.77	1048.89
1625.9	1050.67
1628.04	1032.89
1630.17	1050.22
1632.3	1049.78
1634.44	1041.11
1636.57	1022.44
1638.7	1032
1640.83	1017.78
1642.96	1018
1645.09	1007.33
1647.22	1011.56
1649.34	990.889
1651.47	1000
1653.6	1004
1655.72	1007.56
1657.85	1002.89
1659.97	995.778
1662.1	986.667
1664.22	987.555
1666.34	1001.11
1668.46	1000.89
1670.58	990.445
1672.7	997.333
1674.82	984.889
1676.94	992.889
1679.06	998
1681.18	982.667
1683.3	988
1685.41	981.556
1687.53	1000.22
1689.64	1004.44
1691.76	988
1693.87	992.444
1695.99	1009.78
1698.1	982
1700.21	997.333
1702.32	985.333
1704.43	975.778
1706.54	986
1708.65	990.667
1710.76	993.333
1712.87	986
1714.98	988.445
1717.08	984.445
1719.19	966.667
1721.29	979.333
1723.4	962.667
1725.5	975.111
1727.61	983.111
1729.71	992.667
1731.81	989.333
1733.91	968.889
1736.02	971.111
1738.12	972.222
1740.22	970.444
1742.31	969.333
1744.41	969.778
1746.51	940.667
1748.61	974.667
1750.7	976.667
1752.8	954
1754.9	961.333
1756.99	950.667
1759.08	951.778
1761.18	947.111
1763.27	968.667
1765.36	955.778
1767.45	961.778
1769.54	945.333
1771.63	966.889
1773.72	956.889
1775.81	952.889
1777.9	963.333
1779.99	951.333
1782.08	946.445
1784.16	964.667
1786.25	959.556
1788.33	958.444
1790.42	959.556
1792.5	945.111
1794.58	957.333
1796.67	955.778
1798.75	959.333
1800.83	939.555
1802.91	948.667
1804.99	952.444
1807.07	935.556
1809.15	946.667
1811.23	940.444
1813.3	952.444
1815.38	945.556
1817.46	944.222
1819.53	939.111
1821.61	948.667
1823.68	950.667
1825.75	943.555
1827.83	940.222
1829.9	944.667
1831.97	951.111
1834.04	925.556
1836.11	940
1838.18	944
1840.25	926.222
1842.32	932.222
1844.39	930.667
1846.46	922.889
1848.52	948.444
1850.59	923.111
1852.65	933.556
1854.72	923.778
1856.78	932
1858.85	908.222
1860.91	923.333
1862.97	914.667
1865.03	918.444
1867.09	926.222
1869.16	908.889
1871.22	918.444
1873.27	920.667
1875.33	925.778
1877.39	916.667
1879.45	913.333
1881.51	906
1883.56	909.111
1885.62	903.333
1887.67	914.444
1889.73	931.111
1891.78	905.111
1893.83	906.667
1895.89	913.333
1897.94	914
1899.99	906
1902.04	926
1904.09	916.667
1906.14	905.333
1908.19	905.111
1910.23	920.667
1912.28	910.889
1914.33	908.444
1916.37	907.556
1918.42	896.667
1920.46	907.111
1922.51	919.333
1924.55	930.444
1926.6	916.444
1928.64	907.778
1930.68	904.445
1932.72	893.333
1934.76	899.333
1936.8	914
1938.84	896
1940.88	898.667
1942.92	883.111
1944.96	886.667
1946.99	896
1949.03	877.556
1951.06	880.667
1953.1	883.111
1955.13	880.444
1957.17	877.333
1959.2	890
1961.23	887.333
1963.27	883.333
1965.3	885.333
1967.33	869.111
1969.36	883.111
1971.39	874.889
1973.42	882.889
1975.44	874.444
1977.47	873.333
1979.5	852.889
1981.53	886
1983.55	863.111
1985.58	868.889
1987.6	869.111
1989.63	881.333
1991.65	872.889
1993.67	874.222
1995.69	875.333
1997.72	871.111
1999.74	880
2001.76	871.111
2003.78	890.222
2005.8	870.222
2007.82	878.667
2009.83	872.889
2011.85	867.556
2013.87	880
2015.88	873.556
2017.9	874.667
2019.91	865.111
2021.93	863.111
2023.94	866.667
2025.96	868.889
2027.97	876.222
2029.98	875.333
2031.99	862
2034	868.667
2036.01	871.333
2038.02	864.222
2040.03	860
2042.04	879.333
2044.05	866.889
2046.05	884
2048.06	850.667
2050.07	858.889
2052.07	854
2054.08	857.111
2056.08	864.889
2058.08	849.778
2060.09	861.778
2062.09	860.444
2064.09	856.667
2066.09	854.222
2068.09	862.222
2070.09	856.444
2072.09	867.778
2074.09	845.333
2076.09	832.667
2078.09	843.333
2080.08	844.444
2082.08	850.445
2084.08	836.889
2086.07	840.889
2088.07	840.222
2090.06	841.333
2092.05	846.444
2094.05	837.778
2096.04	833.778
2098.03	838.444
2100.02	838.667
2102.01	821.111
2104	832.444
2105.99	835.778
2107.98	832.222
2109.97	827.111
2111.95	835.333
2113.94	838.667
2115.93	829.778
2117.91	823.111
2119.9	834.444
2121.88	830.889
2123.87	835.111
2125.85	818.667
2127.83	814.889
2129.81	812.889
2131.8	828.445
2133.78	828.667
2135.76	818.889
2137.74	816.667
2139.72	823.555
2141.69	814
2143.67	802.667
2145.65	812.667
2147.63	811.778
2149.6	815.556
2151.58	824.222
2153.55	810.889
2155.53	820.222
2157.5	806.889
2159.48	800.667
2161.45	806.222
2163.42	795.333
2165.39	797.778
2167.36	801.778
2169.33	795.556
2171.3	802.889
2173.27	793.556
2175.24	800.889
2177.21	795.333
2179.18	785.556
2181.14	791.333
2183.11	800.667
2185.07	792.222
2187.04	800.222
2189	788
2190.97	788.222
2192.93	779.778
2194.89	780
2196.86	776.444
2198.82	784.222
2200.78	782.222
2202.74	769.333
2204.7	773.556
2206.66	766.667
2208.62	768.667
2210.57	771.556
2212.53	767.111
2214.49	784
2216.45	782.667
2218.4	772.444
2220.36	779.111
2222.31	773.778
2224.27	775.556
2226.22	782.444
2228.17	767.333
2230.12	772.222
2232.08	761.333
2234.03	770.222
2235.98	764
2237.93	763.111
2239.88	763.556
2241.83	758.444
2243.78	773.111
2245.72	759.556
2247.67	758.667
2249.62	765.333
2251.56	764.222
2253.51	759.778
2255.45	753.333
2257.4	761.111
2259.34	752.667
2261.28	770.444
2263.23	760.222
2265.17	746.222
2267.11	750.444
2269.05	752.667
2270.99	743.111
2272.93	758.889
2274.87	747.778
2276.81	734
2278.75	739.778
2280.68	740.889
2282.62	753.111
2284.56	751.111
2286.49	747.778
2288.43	728.889
2290.36	734.667
2292.3	745.556
2294.23	743.111
2296.16	739.556
2298.09	729.556
2300.03	744.667
2301.96	746.889
2303.89	730.667
2305.82	731.333
2307.75	743.333
2309.68	734.444
2311.6	732.445
2313.53	740
2315.46	721.555
2317.39	725.111
2319.31	726
2321.24	742.222
2323.16	729.556
2325.09	727.778
2327.01	722.444
2328.93	728.889
2330.86	722.667
2332.78	711.778
2334.7	729.556
2336.62	723.556
2338.54	709.778
2340.46	716.444
2342.38	712
2344.3	716.444
2346.22	726
2348.14	726.667
2350.05	713.778
2351.97	725.333
2353.89	717.778
2355.8	712
2357.71	712
2359.63	705.778
2361.54	708.222
2363.46	710.444
2365.37	716.667
2367.28	714.889
2369.19	725.111
2371.1	704
2373.01	699.333
2374.92	702.889
2376.83	695.556
2378.74	694.889
2380.65	694.667
2382.56	704.222
2384.46	704
2386.37	691.778
2388.27	693.556
2390.18	701.111
2392.08	702
2393.99	694.667
2395.89	694
2397.8	698.444
2399.7	688
2401.6	682.222
2403.5	694
2405.4	700
2407.3	690
2409.2	676.222
2411.1	689.556
2413	686.222
2414.9	668.444
2416.8	692.667
2418.69	698.222
2420.59	682.222
2422.48	685.111
2424.38	700.667
2426.28	687.111
2428.17	678.667
2430.06	681.778
2431.96	685.778
2433.85	683.778
2435.74	688.889
2437.63	680
2439.52	685.333
2441.41	680.222
2443.3	675.111
2445.19	695.778
2447.08	681.555
