178.677	1703.56
181.278	1693.56
183.879	1714.44
186.48	1736.22
189.078	1791.56
191.677	1831.78
194.275	1880.67
196.871	1957.11
199.467	2038.67
202.061	2086
204.656	2169.78
207.248	2257.78
209.841	2330
212.431	2452.44
215.022	2556.22
217.613	2673.56
220.201	2798.89
222.789	2982.22
225.375	3168
227.962	3356
230.547	3560.44
233.13	3820.89
235.714	4092.67
238.296	4358.44
240.879	4558.89
243.459	4641.56
246.04	4544.89
248.618	4284.67
251.196	3980.89
253.774	3557.11
256.35	3137.56
258.927	2725.78
261.501	2441.11
264.074	2188.89
266.648	1963.33
269.22	1782.67
271.791	1655.11
274.362	1544.67
276.931	1442.67
279.5	1366.89
282.069	1319.78
284.635	1248.89
287.201	1202.67
289.766	1162.44
292.331	1131.56
294.894	1099.56
297.457	1088.22
300.018	1074.89
302.58	1057.33
305.14	1036.67
307.699	1017.56
310.257	1008
312.814	986.889
315.372	974.667
317.928	970.444
320.482	958.667
323.036	948.889
325.589	939.778
328.142	937.778
330.693	939.778
333.243	933.111
335.795	920.222
338.343	914.222
340.891	924.222
343.439	936.444
345.985	926
348.53	899.333
351.075	926.667
353.619	920.667
356.162	911.333
358.704	905.556
361.245	905.333
363.786	917.333
366.325	908.889
368.864	920
371.402	914.444
373.939	890.222
376.475	927.111
379.011	915.111
381.545	915.556
384.079	906.222
386.612	907.556
389.144	900.667
391.674	888.222
394.204	882.889
396.734	891.778
399.263	876.667
401.791	882.444
404.318	880.222
406.844	884.444
409.368	891.333
411.893	895.556
414.417	892.667
416.94	889.333
419.462	893.333
421.982	898.667
424.502	896.667
427.022	896.444
429.541	888.444
432.057	900.889
434.574	897.556
437.091	902
439.606	878.444
442.12	892
444.634	879.556
447.147	874.445
449.657	879.778
452.169	877.778
454.68	867.111
457.188	872.444
459.697	864
462.205	865.778
464.711	860.444
467.217	861.111
469.722	860.444
472.227	862.667
474.731	859.333
477.232	859.333
479.735	858.889
482.235	864.444
484.736	870.889
487.234	872.889
489.734	863.556
492.23	857.778
494.728	866.667
497.223	850.222
499.719	863.111
502.213	865.333
504.707	842.889
507.199	830.444
509.692	838.889
512.182	850.889
514.673	839.333
517.162	846.444
519.65	839.111
522.139	860
524.625	845.778
527.112	849.111
529.597	830.889
532.081	835.556
534.565	832
537.047	822.222
539.529	830.444
542.011	837.111
544.491	846.889
546.97	844.667
549.45	835.333
551.927	834.667
554.404	840.222
556.88	831.778
559.356	850.889
561.831	846.667
564.304	845.778
566.777	850.444
569.25	839.556
571.721	840.889
574.191	852.889
576.661	840
579.129	834.889
581.599	838
584.066	821.111
586.532	834.667
588.997	836.444
591.462	828.222
593.926	830
596.389	828.889
598.851	832
601.314	838.222
603.775	823.556
606.235	844
608.694	832.889
611.152	843.333
613.609	852.667
616.066	844.222
618.522	830.222
620.977	849.778
623.431	836.444
625.885	849.778
628.338	852.444
630.79	842
633.241	848.222
635.691	852.667
638.141	865.333
640.589	846.889
643.036	844.444
645.483	870
647.929	858
650.375	867.778
652.82	880.444
655.264	858.222
657.707	850.889
660.149	839.778
662.59	851.111
665.031	840.444
667.471	842
669.91	856.889
672.349	852.445
674.786	851.778
677.222	845.333
679.658	858.444
682.093	840.222
684.528	857.333
686.96	839.556
689.393	854.889
691.826	852.889
694.256	858.444
696.686	849.111
699.116	859.333
701.545	845.333
703.972	838.445
706.4	846.667
708.826	856.444
711.251	852.667
713.676	866.444
716.099	857.556
718.523	852.889
720.946	855.111
723.366	843.111
725.788	860
728.207	852.444
730.627	848.889
733.044	841.778
735.462	844.444
737.88	857.111
740.295	851.556
742.711	841.333
745.125	845.556
747.539	841.556
749.951	861.778
752.363	839.778
754.775	846.667
757.185	839.333
759.595	859.778
762.003	889.556
764.412	913.556
766.819	932
769.225	894.444
771.632	885.333
774.036	886.445
776.441	872
778.844	876
781.246	869.556
783.649	875.556
786.05	882.889
788.449	862.444
790.85	862.444
793.248	884.889
795.646	870.444
798.042	878
800.44	876.667
802.835	900.889
805.23	872.889
807.623	863.778
810.018	872
812.41	869.778
814.801	860.889
817.192	862
819.582	861.333
821.972	868
824.361	871.111
826.748	864.667
829.135	854.667
831.521	870.667
833.907	872.444
836.291	851.111
838.675	864.222
841.059	864.667
843.442	869.111
845.823	856.222
848.204	859.778
850.584	869.556
852.963	869.111
855.342	875.111
857.72	856.444
860.097	876
862.473	870
864.848	875.556
867.223	881.556
869.597	870.667
871.97	866.222
874.343	871.333
876.714	874.222
879.084	880
881.454	865.778
883.824	870.222
886.192	870
888.56	873.111
890.927	879.556
893.294	859.333
895.66	867.111
898.023	875.778
900.387	870.889
902.751	870.889
905.114	863.111
907.476	867.111
909.835	865.556
912.196	853.778
914.555	862.667
916.914	858
919.271	850
921.629	864
923.985	867.111
926.341	865.111
928.695	856.889
931.05	860.667
933.404	861.556
935.755	864.222
938.107	864
940.459	841.333
942.808	857.111
945.158	856.889
947.508	862.889
949.855	857.556
952.202	869.778
954.548	862.222
956.894	866.667
959.239	860.889
961.583	864
963.928	868
966.27	873.778
968.612	880.667
970.953	882.889
973.294	878
975.633	880.444
977.972	889.333
980.31	872
982.647	887.778
984.984	882.667
987.32	879.111
989.656	884.444
991.989	890.444
994.324	908.444
996.656	915.333
998.988	924.444
1001.32	977.778
1003.65	1073.11
1005.98	1226.89
1008.31	1373.11
1010.64	1416.89
1012.97	1292.22
1015.29	1116
1017.62	1025.56
1019.94	985.778
1022.27	990.222
1024.59	1048
1026.92	1090.44
1029.24	1130.22
1031.56	1130
1033.88	1170.44
1036.2	1163.11
1038.52	1114.67
1040.84	1000
1043.16	946.667
1045.48	914.889
1047.79	918
1050.11	921.556
1052.42	925.111
1054.74	944.444
1057.05	960.889
1059.36	974.445
1061.67	951.778
1063.99	926.667
1066.3	917.333
1068.61	935.111
1070.92	910.222
1073.22	909.556
1075.53	909.333
1077.84	904.445
1080.15	899.111
1082.45	905.333
1084.76	917.111
1087.06	900
1089.36	918.444
1091.66	912.889
1093.97	937.111
1096.27	924.667
1098.57	915.778
1100.87	928.444
1103.17	911.111
1105.46	911.111
1107.76	903.556
1110.06	906.889
1112.35	909.111
1114.65	923.778
1116.94	904.444
1119.24	915.333
1121.53	914.889
1123.82	907.111
1126.11	912
1128.4	896.889
1130.7	903.333
1132.98	911.111
1135.27	903.778
1137.56	894
1139.85	905.333
1142.13	902
1144.42	897.333
1146.71	901.333
1148.99	898.444
1151.27	908.889
1153.56	911.556
1155.84	915.556
1158.12	890.222
1160.4	903.778
1162.68	905.778
1164.96	885.333
1167.24	899.111
1169.51	904.445
1171.79	892.222
1174.07	878
1176.34	882.667
1178.62	882.444
1180.89	887.333
1183.17	883.333
1185.44	881.778
1187.71	872.889
1189.98	890.889
1192.25	890.222
1194.52	896.667
1196.79	904
1199.06	897.333
1201.33	904.889
1203.59	888.444
1205.86	880.667
1208.12	895.111
1210.39	906.889
1212.65	907.111
1214.92	914.222
1217.18	922
1219.44	918.889
1221.7	901.556
1223.96	888.889
1226.22	908.667
1228.48	882
1230.74	868.444
1233	889.333
1235.25	880.667
1237.51	897.556
1239.77	894.444
1242.02	892.889
1244.27	888.889
1246.53	890
1248.78	896.889
1251.03	898.667
1253.28	902.889
1255.53	909.111
1257.78	902.667
1260.03	899.333
1262.28	886.222
1264.53	894.889
1266.78	891.333
1269.02	891.556
1271.27	896.444
1273.51	892.889
1275.76	888
1278	889.111
1280.24	894.222
1282.48	881.778
1284.72	893.111
1286.97	896.222
1289.21	887.333
1291.44	895.556
1293.68	896.667
1295.92	908
1298.16	914.444
1300.39	923.778
1302.63	921.333
1304.86	917.333
1307.1	944
1309.33	918
1311.56	925.556
1313.8	900
1316.03	896
1318.26	900.222
1320.49	901.333
1322.72	886.889
1324.95	902
1327.17	882
1329.4	885.333
1331.63	897.778
1333.85	889.556
1336.08	889.333
1338.3	891.333
1340.53	880.444
1342.75	890.889
1344.97	881.333
1347.19	880.444
1349.41	906
1351.63	895.111
1353.85	888.222
1356.07	880.889
1358.29	890.222
1360.51	899.556
1362.72	896
1364.94	893.778
1367.16	890
1369.37	890.444
1371.58	910
1373.8	895.111
1376.01	891.333
1378.22	900.222
1380.43	902.667
1382.64	902.222
1384.85	881.111
1387.06	880
1389.27	870.889
1391.48	876
1393.68	881.111
1395.89	860.889
1398.1	870.444
1400.3	871.111
1402.51	877.556
1404.71	877.556
1406.91	874.222
1409.11	880
1411.32	878.444
1413.52	881.333
1415.72	871.333
1417.92	868
1420.11	884.889
1422.31	880.889
1424.51	879.556
1426.71	855.556
1428.9	880.222
1431.1	879.111
1433.29	880.222
1435.49	863.556
1437.68	887.333
1439.87	877.778
1442.06	880.444
1444.25	861.778
1446.45	882.889
1448.64	889.333
1450.82	887.778
1453.01	877.333
1455.2	890.444
1457.39	882.222
1459.57	883.778
1461.76	893.333
1463.94	898.889
1466.13	899.111
1468.31	894.889
1470.5	897.556
1472.68	888.222
1474.86	897.333
1477.04	885.333
1479.22	889.333
1481.4	896.222
1483.58	904.444
1485.76	872.667
1487.94	881.778
1490.11	858.889
1492.29	860.889
1494.46	876.667
1496.64	855.556
1498.81	860.889
1500.99	853.333
1503.16	863.333
1505.33	866.445
1507.5	860
1509.67	855.556
1511.84	858.222
1514.01	872.222
1516.18	851.556
1518.35	853.333
1520.52	865.778
1522.68	856.444
1524.85	859.111
1527.02	852.889
1529.18	861.333
1531.35	857.556
1533.51	862
1535.67	847.778
1537.83	858.444
1539.99	847.778
1542.16	847.333
1544.31	858.667
1546.47	852
1548.63	844.667
1550.79	860.667
1552.95	868.889
1555.11	854.889
1557.26	873.333
1559.42	862.222
1561.57	855.111
1563.73	874.889
1565.88	859.555
1568.03	872.222
1570.18	863.556
1572.34	878.222
1574.49	869.778
1576.64	870
1578.79	863.333
1580.93	866.889
1583.08	867.111
1585.23	869.556
1587.38	878
1589.52	864.444
1591.67	886.889
1593.81	881.556
1595.96	891.333
1598.1	885.778
1600.24	889.111
1602.38	877.556
1604.53	872.667
1606.67	868.667
1608.81	856.667
1610.95	865.333
1613.09	857.778
1615.22	864.444
1617.36	869.556
1619.5	871.556
1621.63	856
1623.77	855.778
1625.9	870.667
1628.04	878.667
1630.17	880.222
1632.3	869.111
1634.44	875.111
1636.57	861.778
1638.7	868
1640.83	858.222
1642.96	855.556
1645.09	834.222
1647.22	846
1649.34	837.333
1651.47	848.667
1653.6	857.333
1655.72	838
1657.85	850.889
1659.97	834.444
1662.1	836.889
1664.22	844
1666.34	832.667
1668.46	827.111
1670.58	831.778
1672.7	830.444
1674.82	836.667
1676.94	835.556
1679.06	833.111
1681.18	834.444
1683.3	824.222
1685.41	846.667
1687.53	830.444
1689.64	839.556
1691.76	838.889
1693.87	848
1695.99	838.889
1698.1	835.333
1700.21	846
1702.32	833.556
1704.43	822.222
1706.54	837.778
1708.65	837.778
1710.76	832.667
1712.87	843.556
1714.98	831.556
1717.08	836.667
1719.19	825.556
1721.29	834.667
1723.4	821.333
1725.5	821.111
1727.61	830
1729.71	824.444
1731.81	825.111
1733.91	819.556
1736.02	823.111
1738.12	826.667
1740.22	828.444
1742.31	822.667
1744.41	815.556
1746.51	825.333
1748.61	828.445
1750.7	816.889
1752.8	827.333
1754.9	808
1756.99	807.111
1759.08	816.222
1761.18	810.889
1763.27	796
1765.36	812.667
1767.45	815.333
1769.54	797.778
1771.63	804.889
1773.72	820
1775.81	816.889
1777.9	803.555
1779.99	801.778
1782.08	806.444
1784.16	809.111
1786.25	811.333
1788.33	820.889
1790.42	798
1792.5	806
1794.58	796.444
1796.67	816.444
1798.75	814.222
1800.83	821.111
1802.91	815.778
1804.99	789.111
1807.07	805.778
1809.15	796.222
1811.23	801.333
1813.3	810.667
1815.38	794.444
1817.46	803.111
1819.53	806.444
1821.61	808.222
1823.68	814.222
1825.75	817.556
1827.83	799.778
1829.9	800.222
1831.97	798.889
1834.04	796.667
1836.11	796.445
1838.18	781.111
1840.25	786.667
1842.32	791.556
1844.39	788
1846.46	800
1848.52	800.444
1850.59	784.222
1852.65	798.667
1854.72	780.222
1856.78	777.333
1858.85	780.667
1860.91	782.222
1862.97	789.556
1865.03	778.222
1867.09	774
1869.16	781.111
1871.22	784.222
1873.27	787.556
1875.33	791.111
1877.39	775.333
1879.45	769.556
1881.51	785.111
1883.56	769.778
1885.62	765.111
1887.67	771.333
1889.73	776.222
1891.78	763.778
1893.83	781.778
1895.89	777.111
1897.94	774
1899.99	775.556
1902.04	784.444
1904.09	782
1906.14	770.889
1908.19	768
1910.23	778.889
1912.28	772.889
1914.33	765.111
1916.37	757.555
1918.42	772.444
1920.46	763.778
1922.51	776.222
1924.55	776.444
1926.6	772.667
1928.64	776.667
1930.68	768.222
1932.72	773.778
1934.76	768
1936.8	765.556
1938.84	762.667
1940.88	758.667
1942.92	768.444
1944.96	756.222
1946.99	747.556
1949.03	768.667
1951.06	761.333
1953.1	753.333
1955.13	763.556
1957.17	761.778
1959.2	754.889
1961.23	761.111
1963.27	766
1965.3	762.222
1967.33	749.778
1969.36	749.333
1971.39	747.333
1973.42	747.111
1975.44	733.778
1977.47	741.778
1979.5	746
1981.53	739.111
1983.55	748.667
1985.58	746
1987.6	744.889
1989.63	747.778
1991.65	740.222
1993.67	744.222
1995.69	732.889
1997.72	741.111
1999.74	736.222
2001.76	750
2003.78	732.444
2005.8	749.111
2007.82	746.889
2009.83	734.444
2011.85	742.444
2013.87	730.889
2015.88	730.667
2017.9	744.222
2019.91	736.222
2021.93	744.667
2023.94	736.444
2025.96	745.333
2027.97	734.889
2029.98	731.333
2031.99	735.111
2034	735.333
2036.01	744.444
2038.02	742
2040.03	735.111
2042.04	734.667
2044.05	738
2046.05	729.778
2048.06	737.333
2050.07	724.667
2052.07	739.333
2054.08	731.111
2056.08	733.333
2058.08	733.333
2060.09	730
2062.09	729.778
2064.09	713.111
2066.09	720.222
2068.09	729.333
2070.09	718
2072.09	716.667
2074.09	711.111
2076.09	726.889
2078.09	719.556
2080.08	705.333
2082.08	715.111
2084.08	705.556
2086.07	702.667
2088.07	717.556
2090.06	721.333
2092.05	707.333
2094.05	715.778
2096.04	697.333
2098.03	720
2100.02	710.444
2102.01	702
2104	706.222
2105.99	713.778
2107.98	710
2109.97	698.667
2111.95	718.444
2113.94	693.556
2115.93	708.889
2117.91	712.444
2119.9	700.222
2121.88	699.778
2123.87	702.667
2125.85	701.778
2127.83	701.778
2129.81	709.778
2131.8	700
2133.78	704.667
2135.76	705.111
2137.74	689.778
2139.72	695.333
2141.69	694.444
2143.67	706.889
2145.65	693.333
2147.63	686.222
2149.6	682.889
2151.58	692.222
2153.55	696.889
2155.53	686
2157.5	680.889
2159.48	690
2161.45	683.333
2163.42	688.889
2165.39	678.444
2167.36	683.556
2169.33	670
2171.3	681.111
2173.27	684.222
2175.24	678.444
2177.21	675.111
2179.18	672
2181.14	672.889
2183.11	681.333
2185.07	677.111
2187.04	683.333
2189	677.333
2190.97	673.333
2192.93	676.222
2194.89	671.111
2196.86	665.556
2198.82	670.444
2200.78	670.667
2202.74	674.889
2204.7	652
2206.66	658
2208.62	666
2210.57	666.889
2212.53	665.778
2214.49	665.555
2216.45	661.556
2218.4	666.889
2220.36	665.778
2222.31	666.444
2224.27	668.889
2226.22	650.889
2228.17	678.889
2230.12	645.778
2232.08	663.111
2234.03	655.556
2235.98	666.222
2237.93	660.889
2239.88	650.667
2241.83	651.111
2243.78	657.111
2245.72	655.111
2247.67	653.556
2249.62	657.778
2251.56	651.111
2253.51	650.444
2255.45	655.111
2257.4	645.778
2259.34	647.556
2261.28	653.333
2263.23	643.333
2265.17	652
2267.11	646
2269.05	648
2270.99	656.222
2272.93	645.333
2274.87	638.444
2276.81	636.667
2278.75	636.667
2280.68	643.333
2282.62	640.222
2284.56	649.556
2286.49	621.778
2288.43	640.222
2290.36	630.667
2292.3	630
2294.23	630.889
2296.16	636.222
2298.09	621.333
2300.03	632.667
2301.96	624.667
2303.89	631.333
2305.82	636.889
2307.75	628.667
2309.68	622.444
2311.6	627.556
2313.53	621.556
2315.46	625.778
2317.39	638.444
2319.31	615.111
2321.24	618.222
2323.16	607.333
2325.09	619.333
2327.01	631.333
2328.93	620.444
2330.86	625.555
2332.78	618.667
2334.7	625.111
2336.62	612
2338.54	620.889
2340.46	613.333
2342.38	614.222
2344.3	612
2346.22	609.778
2348.14	614.222
2350.05	616.667
2351.97	615.778
2353.89	617.778
2355.8	602.667
2357.71	609.333
2359.63	609.556
2361.54	594.444
2363.46	611.556
2365.37	618.889
2367.28	600.444
2369.19	593.778
2371.1	592.445
2373.01	604.889
2374.92	607.111
2376.83	600.667
2378.74	605.778
2380.65	606
2382.56	591.778
2384.46	591.333
2386.37	599.778
2388.27	591.778
2390.18	592.222
2392.08	592.445
2393.99	588.667
2395.89	593.333
2397.8	587.111
2399.7	596.667
2401.6	589.556
2403.5	576.667
2405.4	598.889
2407.3	587.555
2409.2	590
2411.1	589.556
2413	583.778
2414.9	588.889
2416.8	588
2418.69	582.444
2420.59	592
2422.48	588
2424.38	584.889
2426.28	580
2428.17	580.222
2430.06	575.333
2431.96	577.778
2433.85	580.444
2435.74	575.778
2437.63	575.556
2439.52	580
2441.41	588.889
2443.3	583.333
2445.19	581.333
2447.08	585.778
