178.677	1392.44
181.278	1367.56
183.879	1397.33
186.48	1405.56
189.078	1435.11
191.677	1446.44
194.275	1510
196.871	1539.56
199.467	1604.22
202.061	1648.89
204.656	1698.44
207.248	1756.89
209.841	1832.22
212.431	1884.44
215.022	1954
217.613	2014.44
220.201	2102
222.789	2231.56
225.375	2316.89
227.962	2468.22
230.547	2646.89
233.13	2816.89
235.714	3054.89
238.296	3226.67
240.879	3388.44
243.459	3446
246.04	3398.44
248.618	3246.67
251.196	3012
253.774	2701.56
256.35	2416.89
258.927	2155.33
261.501	1923.33
264.074	1751.78
266.648	1586.67
269.22	1485.33
271.791	1406.22
274.362	1311.56
276.931	1252.22
279.5	1191.56
282.069	1146.67
284.635	1114
287.201	1078
289.766	1056.89
292.331	1027.78
294.894	1008.44
297.457	993.333
300.018	979.778
302.58	969.333
305.14	959.333
307.699	961.778
310.257	947.556
312.814	935.333
315.372	918.889
317.928	918.444
320.482	913.333
323.036	905.778
325.589	901.333
328.142	911.111
330.693	906.667
333.243	908.222
335.795	898.889
338.343	892
340.891	905.333
343.439	911.778
345.985	893.333
348.53	904.889
351.075	885.333
353.619	892.889
356.162	882.667
358.704	888.222
361.245	894
363.786	880.444
366.325	882.667
368.864	873.333
371.402	900.667
373.939	886.889
376.475	894
379.011	914.444
381.545	903.111
384.079	904.445
386.612	893.333
389.144	889.556
391.674	874.444
394.204	871.556
396.734	875.778
399.263	874.889
401.791	863.111
404.318	881.111
406.844	865.111
409.368	868
411.893	873.778
414.417	875.111
416.94	883.556
419.462	862.222
421.982	880.444
424.502	882.222
427.022	864.889
429.541	887.111
432.057	886.444
434.574	896.444
437.091	899.555
439.606	894.444
442.12	879.333
444.634	870.444
447.147	878.889
449.657	878.667
452.169	870.889
454.68	882
457.188	887.333
459.697	885.333
462.205	883.556
464.711	862.889
467.217	883.111
469.722	869.333
472.227	878
474.731	877.333
477.232	877.111
479.735	885.333
482.235	875.111
484.736	874
487.234	882.222
489.734	874.667
492.23	877.555
494.728	879.333
497.223	871.778
499.719	856
502.213	869.111
504.707	849.778
507.199	870
509.692	858.444
512.182	870.222
514.673	867.556
517.162	855.111
519.65	881.778
522.139	866.222
524.625	856.667
527.112	862.889
529.597	856.889
532.081	859.556
534.565	863.556
537.047	846.889
539.529	855.556
542.011	858.889
544.491	849.111
546.97	858.222
549.45	859.778
551.927	848.222
554.404	847.778
556.88	863.333
559.356	871.333
561.831	867.333
564.304	860.444
566.777	871.778
569.25	865.556
571.721	862
574.191	855.333
576.661	863.778
579.129	870.889
581.599	869.778
584.066	867.555
586.532	850.667
588.997	855.556
591.462	852
593.926	871.111
596.389	850.889
598.851	863.333
601.314	858.444
603.775	856
606.235	852
608.694	871.111
611.152	868.889
613.609	853.556
616.066	872.889
618.522	868.444
620.977	869.333
623.431	862.445
625.885	869.333
628.338	866.444
630.79	859.111
633.241	878.445
635.691	885.333
638.141	895.111
640.589	871.111
643.036	873.556
645.483	880.667
647.929	867.778
650.375	871.778
652.82	870.667
655.264	876.444
657.707	867.778
660.149	860.222
662.59	868.667
665.031	864.889
667.471	870.667
669.91	872.222
672.349	867.333
674.786	863.556
677.222	864
679.658	862.667
682.093	860.667
684.528	871.111
686.96	865.778
689.393	868.222
691.826	866.889
694.256	872.222
696.686	869.778
699.116	861.556
701.545	874.445
703.972	863.333
706.4	876.222
708.826	858
711.251	888.667
713.676	870.889
716.099	882.889
718.523	867.778
720.946	878
723.366	869.333
725.788	878.222
728.207	864.667
730.627	864.444
733.044	858.222
735.462	870.444
737.88	871.556
740.295	870.889
742.711	864
745.125	870.444
747.539	875.111
749.951	866.222
752.363	860.667
754.775	874
757.185	875.778
759.595	880.667
762.003	885.778
764.412	925.333
766.819	928.444
769.225	927.778
771.632	886.444
774.036	900.222
776.441	898.444
778.844	870
781.246	896.889
783.649	881.333
786.05	889.556
788.449	881.333
790.85	883.111
793.248	879.111
795.646	882.667
798.042	887.556
800.44	892
802.835	897.556
805.23	878.889
807.623	894.889
810.018	898.222
812.41	890.667
814.801	889.778
817.192	887.333
819.582	877.556
821.972	883.778
824.361	879.111
826.748	876.667
829.135	880.445
831.521	878.667
833.907	893.556
836.291	874
838.675	882.444
841.059	872.445
843.442	882.222
845.823	882.667
848.204	886.444
850.584	882.667
852.963	879.778
855.342	894
857.72	901.333
860.097	881.556
862.473	881.556
864.848	874.444
867.223	878.889
869.597	880
871.97	875.555
874.343	884.667
876.714	888.889
879.084	881.111
881.454	896.889
883.824	882.667
886.192	892.222
888.56	873.778
890.927	879.556
893.294	886.444
895.66	875.555
898.023	896
900.387	872.667
902.751	879.556
905.114	870.667
907.476	877.111
909.835	876.222
912.196	870.444
914.555	869.333
916.914	865.556
919.271	873.556
921.629	871.778
923.985	867.111
926.341	877.333
928.695	864.445
931.05	877.333
933.404	864.889
935.755	865.333
938.107	871.111
940.459	874.667
942.808	882.222
945.158	874.889
947.508	866.445
949.855	873.778
952.202	854.222
954.548	874
956.894	870
959.239	876.889
961.583	877.333
963.928	881.111
966.27	871.556
968.612	876.444
970.953	878.667
973.294	871.778
975.633	896.667
977.972	864.667
980.31	881.333
982.647	898.889
984.984	890.889
987.32	882.889
989.656	892.222
991.989	892.445
994.324	904.889
996.656	912.889
998.988	916.444
1001.32	938.445
1003.65	980.222
1005.98	1065.56
1008.31	1156.89
1010.64	1157.11
1012.97	1078.44
1015.29	1000
1017.62	947.111
1019.94	951.111
1022.27	944.222
1024.59	981.555
1026.92	1017.11
1029.24	1044.67
1031.56	1059.33
1033.88	1061.11
1036.2	1052.44
1038.52	1001.11
1040.84	949.778
1043.16	932.222
1045.48	914.667
1047.79	917.333
1050.11	925.333
1052.42	922.222
1054.74	939.333
1057.05	958
1059.36	940.889
1061.67	936.667
1063.99	920
1066.3	929.333
1068.61	911.778
1070.92	918
1073.22	904.889
1075.53	907.556
1077.84	914.444
1080.15	919.333
1082.45	910.667
1084.76	915.556
1087.06	915.333
1089.36	930.667
1091.66	934.222
1093.97	955.111
1096.27	963.333
1098.57	944.445
1100.87	951.778
1103.17	926.444
1105.46	905.556
1107.76	924.444
1110.06	919.778
1112.35	920.889
1114.65	927.778
1116.94	935.556
1119.24	937.333
1121.53	919.778
1123.82	926.667
1126.11	927.778
1128.4	916.667
1130.7	917.111
1132.98	904
1135.27	905.778
1137.56	891.778
1139.85	893.778
1142.13	900
1144.42	892.667
1146.71	890.889
1148.99	892.667
1151.27	908.667
1153.56	893.111
1155.84	900.889
1158.12	897.556
1160.4	897.556
1162.68	887.333
1164.96	888.667
1167.24	876.444
1169.51	881.556
1171.79	896.667
1174.07	881.333
1176.34	890.667
1178.62	880.667
1180.89	883.556
1183.17	880.889
1185.44	875.556
1187.71	881.333
1189.98	870.222
1192.25	877.778
1194.52	883.778
1196.79	892.222
1199.06	885.333
1201.33	876.667
1203.59	881.556
1205.86	881.111
1208.12	879.333
1210.39	877.111
1212.65	892.889
1214.92	889.111
1217.18	889.778
1219.44	894
1221.7	888
1223.96	874.667
1226.22	880.667
1228.48	870.222
1230.74	868.222
1233	875.333
1235.25	884.444
1237.51	874.889
1239.77	884.889
1242.02	878.667
1244.27	877.111
1246.53	872
1248.78	872.667
1251.03	886.222
1253.28	893.556
1255.53	895.111
1257.78	884.667
1260.03	878.889
1262.28	884
1264.53	868
1266.78	886.222
1269.02	864
1271.27	862
1273.51	877.556
1275.76	889.111
1278	875.111
1280.24	886.889
1282.48	889.111
1284.72	885.778
1286.97	873.333
1289.21	885.333
1291.44	880.222
1293.68	896.444
1295.92	900.667
1298.16	896.444
1300.39	892.444
1302.63	898.444
1304.86	888.667
1307.1	898.222
1309.33	891.556
1311.56	887.556
1313.8	884.667
1316.03	876.667
1318.26	872.667
1320.49	884.222
1322.72	884.444
1324.95	884.222
1327.17	888.444
1329.4	879.556
1331.63	894.444
1333.85	892
1336.08	883.556
1338.3	894.444
1340.53	888.667
1342.75	893.111
1344.97	896.889
1347.19	883.556
1349.41	864.889
1351.63	874.222
1353.85	870.222
1356.07	872.667
1358.29	873.778
1360.51	873.778
1362.72	876.444
1364.94	864.444
1367.16	865.333
1369.37	885.556
1371.58	876.222
1373.8	880.222
1376.01	880.889
1378.22	872.222
1380.43	885.778
1382.64	889.778
1384.85	884
1387.06	883.556
1389.27	868.444
1391.48	870.444
1393.68	866.222
1395.89	858.889
1398.1	852.222
1400.3	857.111
1402.51	866.444
1404.71	850.667
1406.91	861.111
1409.11	862.667
1411.32	862
1413.52	867.111
1415.72	850.667
1417.92	849.778
1420.11	859.333
1422.31	853.111
1424.51	844
1426.71	849.333
1428.9	849.111
1431.1	854.667
1433.29	853.111
1435.49	846.222
1437.68	855.556
1439.87	856
1442.06	856
1444.25	854.889
1446.45	860.667
1448.64	867.556
1450.82	867.556
1453.01	860.667
1455.2	867.778
1457.39	870.222
1459.57	868.667
1461.76	858.444
1463.94	863.111
1466.13	870.889
1468.31	867.556
1470.5	864.222
1472.68	852.222
1474.86	861.556
1477.04	867.111
1479.22	876.222
1481.4	848.444
1483.58	871.556
1485.76	855.778
1487.94	851.111
1490.11	843.778
1492.29	860.667
1494.46	837.111
1496.64	840.444
1498.81	839.555
1500.99	831.333
1503.16	842.222
1505.33	851.556
1507.5	834.889
1509.67	841.556
1511.84	829.111
1514.01	836
1516.18	828.889
1518.35	813.556
1520.52	816.889
1522.68	836.444
1524.85	827.778
1527.02	834.889
1529.18	828.222
1531.35	843.556
1533.51	826.667
1535.67	840.222
1537.83	827.778
1539.99	824.222
1542.16	836.444
1544.31	822.222
1546.47	830.444
1548.63	841.778
1550.79	821.111
1552.95	825.556
1555.11	823.111
1557.26	834
1559.42	829.778
1561.57	834.444
1563.73	817.778
1565.88	837.556
1568.03	835.778
1570.18	830.222
1572.34	820.667
1574.49	830.889
1576.64	837.778
1578.79	831.555
1580.93	839.333
1583.08	832.222
1585.23	836
1587.38	835.333
1589.52	834
1591.67	843.111
1593.81	846.667
1595.96	852
1598.1	846.667
1600.24	843.778
1602.38	836.444
1604.53	829.111
1606.67	820.889
1608.81	822.444
1610.95	816
1613.09	835.778
1615.22	816.222
1617.36	826.444
1619.5	813.333
1621.63	824
1623.77	823.333
1625.9	820.444
1628.04	839.778
1630.17	823.556
1632.3	823.556
1634.44	833.333
1636.57	824.667
1638.7	822.444
1640.83	820
1642.96	826.222
1645.09	795.333
1647.22	808
1649.34	788.222
1651.47	804.889
1653.6	797.333
1655.72	809.556
1657.85	808
1659.97	811.333
1662.1	790.889
1664.22	815.556
1666.34	794.222
1668.46	794.222
1670.58	811.333
1672.7	802.667
1674.82	800.444
1676.94	805.333
1679.06	791.778
1681.18	800.444
1683.3	785.778
1685.41	795.333
1687.53	796.444
1689.64	791.778
1691.76	808.444
1693.87	786.222
1695.99	801.556
1698.1	795.111
1700.21	797.778
1702.32	807.556
1704.43	794.222
1706.54	810
1708.65	797.111
1710.76	794.222
1712.87	808.889
1714.98	794.222
1717.08	780.222
1719.19	788.444
1721.29	792.445
1723.4	796
1725.5	789.111
1727.61	784.222
1729.71	773.556
1731.81	785.111
1733.91	773.556
1736.02	784.667
1738.12	780.444
1740.22	774.889
1742.31	765.556
1744.41	777.556
1746.51	774.667
1748.61	770.889
1750.7	780.667
1752.8	765.111
1754.9	767.556
1756.99	768.889
1759.08	788.444
1761.18	767.333
1763.27	772.444
1765.36	773.111
1767.45	777.111
1769.54	768.889
1771.63	760.445
1773.72	779.333
1775.81	787.333
1777.9	773.333
1779.99	772.222
1782.08	752.222
1784.16	757.555
1786.25	757.778
1788.33	760.667
1790.42	777.778
1792.5	767.556
1794.58	770.889
1796.67	762.444
1798.75	768
1800.83	770.444
1802.91	763.778
1804.99	764.222
1807.07	773.778
1809.15	773.333
1811.23	774.889
1813.3	763.333
1815.38	770.889
1817.46	767.333
1819.53	768.667
1821.61	750.222
1823.68	760.889
1825.75	766.222
1827.83	773.778
1829.9	768.444
1831.97	758.445
1834.04	762.222
1836.11	759.333
1838.18	753.778
1840.25	754.889
1842.32	754.222
1844.39	753.111
1846.46	750
1848.52	756.222
1850.59	743.778
1852.65	756.667
1854.72	748.444
1856.78	750.222
1858.85	751.333
1860.91	746.444
1862.97	745.778
1865.03	744.889
1867.09	749.778
1869.16	742.667
1871.22	750.444
1873.27	728
1875.33	734.445
1877.39	734.889
1879.45	744
1881.51	740
1883.56	724.444
1885.62	730
1887.67	740.889
1889.73	722.667
1891.78	741.778
1893.83	744
1895.89	745.556
1897.94	745.778
1899.99	750.667
1902.04	731.333
1904.09	733.111
1906.14	734.222
1908.19	735.556
1910.23	736
1912.28	726
1914.33	728.889
1916.37	729.111
1918.42	733.111
1920.46	730.222
1922.51	733.778
1924.55	736.889
1926.6	717.333
1928.64	725.778
1930.68	730.222
1932.72	726.667
1934.76	723.333
1936.8	724.889
1938.84	724.222
1940.88	705.778
1942.92	730.667
1944.96	715.556
1946.99	716.889
1949.03	725.778
1951.06	717.556
1953.1	724.667
1955.13	715.778
1957.17	718.444
1959.2	702.889
1961.23	716.222
1963.27	710.889
1965.3	689.778
1967.33	698.889
1969.36	703.111
1971.39	706.667
1973.42	708.222
1975.44	714.667
1977.47	705.333
1979.5	706.889
1981.53	705.111
1983.55	683.778
1985.58	705.333
1987.6	698.889
1989.63	695.778
1991.65	700.889
1993.67	703.555
1995.69	696
1997.72	700.889
1999.74	685.778
2001.76	703.556
2003.78	690.444
2005.8	698.889
2007.82	705.778
2009.83	706.444
2011.85	699.111
2013.87	697.333
2015.88	708.222
2017.9	695.556
2019.91	696.889
2021.93	692.889
2023.94	709.111
2025.96	704.889
2027.97	706
2029.98	686.667
2031.99	692.444
2034	699.778
2036.01	691.556
2038.02	694.444
2040.03	684.889
2042.04	701.778
2044.05	681.556
2046.05	694
2048.06	687.111
2050.07	689.333
2052.07	684.667
2054.08	686.889
2056.08	686
2058.08	684.222
2060.09	680.667
2062.09	688.667
2064.09	686
2066.09	692
2068.09	687.111
2070.09	686
2072.09	690.889
2074.09	678
2076.09	685.333
2078.09	671.333
2080.08	684.667
2082.08	673.556
2084.08	672.889
2086.07	680.667
2088.07	676
2090.06	665.778
2092.05	680.444
2094.05	666.667
2096.04	661.556
2098.03	664.667
2100.02	654.667
2102.01	666.222
2104	671.778
2105.99	667.111
2107.98	671.111
2109.97	667.778
2111.95	670.889
2113.94	663.111
2115.93	671.333
2117.91	675.333
2119.9	661.778
2121.88	664.444
2123.87	659.333
2125.85	660.889
2127.83	653.333
2129.81	663.333
2131.8	662.889
2133.78	664.222
2135.76	664.444
2137.74	655.556
2139.72	642.222
2141.69	653.111
2143.67	658.444
2145.65	653.556
2147.63	649.111
2149.6	652.667
2151.58	653.556
2153.55	668.222
2155.53	633.333
2157.5	647.333
2159.48	643.111
2161.45	640.889
2163.42	646.445
2165.39	654
2167.36	645.333
2169.33	638
2171.3	630.222
2173.27	639.111
2175.24	645.111
2177.21	635.778
2179.18	628
2181.14	638.445
2183.11	640.667
2185.07	626.222
2187.04	633.556
2189	636.667
2190.97	632.444
2192.93	621.778
2194.89	629.778
2196.86	627.333
2198.82	622.667
2200.78	639.556
2202.74	618.222
2204.7	614
2206.66	632.667
2208.62	626.667
2210.57	629.778
2212.53	630
2214.49	618.889
2216.45	626.889
2218.4	606.889
2220.36	625.556
2222.31	609.111
2224.27	626
2226.22	622.889
2228.17	622.667
2230.12	612.444
2232.08	617.333
2234.03	612.889
2235.98	625.333
2237.93	612.444
2239.88	605.333
2241.83	603.333
2243.78	619.778
2245.72	606.444
2247.67	611.111
2249.62	613.333
2251.56	593.111
2253.51	617.333
2255.45	601.111
2257.4	614
2259.34	593.778
2261.28	602.889
2263.23	612.889
2265.17	609.556
2267.11	603.333
2269.05	598
2270.99	595.556
2272.93	602.222
2274.87	597.556
2276.81	608.222
2278.75	601.778
2280.68	598
2282.62	600.444
2284.56	590.222
2286.49	594.222
2288.43	584.444
2290.36	591.556
2292.3	588
2294.23	588.444
2296.16	590
2298.09	591.333
2300.03	585.556
2301.96	585.556
2303.89	591.556
2305.82	588.222
2307.75	587.111
2309.68	578.889
2311.6	585.778
2313.53	566.444
2315.46	587.333
2317.39	577.778
2319.31	582.444
2321.24	574.889
2323.16	578.889
2325.09	578.444
2327.01	585.111
2328.93	574.445
2330.86	572.889
2332.78	574.889
2334.7	565.111
2336.62	572.667
2338.54	572.667
2340.46	574
2342.38	562.667
2344.3	568.889
2346.22	573.556
2348.14	580.444
2350.05	563.556
2351.97	563.333
2353.89	563.333
2355.8	556
2357.71	565.778
2359.63	562.444
2361.54	563.556
2363.46	555.778
2365.37	555.556
2367.28	566
2369.19	562.444
2371.1	560.222
2373.01	560.444
2374.92	546.667
2376.83	553.555
2378.74	554.222
2380.65	552
2382.56	541.556
2384.46	541.111
2386.37	551.333
2388.27	551.333
2390.18	549.333
2392.08	544.667
2393.99	538.444
2395.89	552
2397.8	542.444
2399.7	547.778
2401.6	546
2403.5	536.444
2405.4	536.222
2407.3	545.111
2409.2	544
2411.1	539.333
2413	528.444
2414.9	537.556
2416.8	540.444
2418.69	544
2420.59	532
2422.48	531.778
2424.38	538
2426.28	537.333
2428.17	529.778
2430.06	535.333
2431.96	531.333
2433.85	533.556
2435.74	542.667
2437.63	528.222
2439.52	529.111
2441.41	531.778
2443.3	526
2445.19	521.778
2447.08	535.111
