176.074	213.556
178.677	208.556
181.279	202.556
183.879	194.111
186.48	187.222
189.08	185.778
191.677	176.111
194.275	178.333
196.871	173.778
199.467	170
202.061	167.778
204.656	162.556
207.249	157.444
209.841	161.333
212.433	160.667
215.022	158.333
217.613	160.222
220.201	158.667
222.789	158.111
225.375	164.111
227.962	165.889
230.547	164.556
233.132	169
235.714	165.889
238.296	160.111
240.879	161.556
243.459	160.222
246.04	155.333
248.618	152
251.198	143.556
253.774	138.556
256.35	134.111
258.927	131.444
261.501	125.111
264.074	117.111
266.648	119.444
269.22	116.222
271.791	114.444
274.362	117
276.931	114.556
279.5	114.556
282.069	116.111
284.635	114.333
287.201	114.222
289.766	115.222
292.331	118.778
294.894	117.778
297.457	121.333
300.018	127.556
302.58	133.778
305.14	140.667
307.699	147.667
310.257	157.889
312.814	164.556
315.372	185.333
317.928	200.333
320.482	209.889
323.036	200.889
325.589	194.222
328.142	183.667
330.693	175.333
333.243	164.222
335.795	155.444
338.343	157.333
340.891	165
343.439	175.444
345.985	190.556
348.53	213.889
351.075	239.111
353.619	252.667
356.162	266.222
358.704	275.111
361.245	275.889
363.786	264.333
366.325	256.889
368.864	229.556
371.402	218.333
373.939	199.333
376.475	185.111
379.011	171.889
381.545	160.778
384.079	152.778
386.611	151.556
389.143	154.222
391.674	158.111
394.204	173.111
396.734	187.444
399.263	236.889
401.791	289.222
404.318	351.889
406.843	371
409.368	358.556
411.893	302.222
414.417	240
416.94	197.444
419.46	157.444
421.982	134.333
424.502	118.333
427.022	106.444
429.541	98.1111
432.057	89.5556
434.574	87.3333
437.091	86.1111
439.605	76.8889
442.12	78.7778
444.634	72.2222
447.145	73.1111
449.657	70.1111
452.169	70.7778
454.678	69
457.188	64.8889
459.697	66.3333
462.204	66.3333
464.711	64.4444
467.217	62.4444
469.722	64.3333
472.227	60.7778
474.729	60.1111
477.232	59.7778
479.735	59.4444
482.235	59
484.736	60.8889
487.234	58.7778
489.734	59.8889
492.23	60
494.728	60
497.223	60
499.719	56.7778
502.213	59.1111
504.707	58.5556
507.199	57.1111
509.69	55.8889
512.182	58.4444
514.672	55.5556
517.162	57.4444
519.65	57.1111
522.139	57.6667
524.625	56.7778
527.111	54.8889
529.597	56.5556
532.081	56
534.564	55.3333
537.047	56.3333
539.529	56.4444
542.01	55.3333
544.491	56.1111
546.97	54.3333
549.448	57
551.927	53.8889
554.404	55.1111
556.88	53
559.355	54.3333
561.831	55.3333
564.304	56
566.777	55.8889
569.249	57.1111
571.72	55.3333
574.191	55.4444
576.661	53.2222
579.129	54.8889
581.597	56.8889
584.064	58.6667
586.531	54.6667
588.997	56.5556
591.462	55.8889
593.926	56.5556
596.389	58.8889
598.851	57
601.313	58.1111
603.773	57.7778
606.233	59.1111
608.692	56.8889
611.151	56.3333
613.608	59.3333
616.065	54.6667
618.521	57.7778
620.976	59.2222
623.43	58.7778
625.883	59.5556
628.336	61
630.788	60.8889
633.239	62.6667
635.69	64.2222
638.139	68.5556
640.588	73.6667
643.036	78.4444
645.483	85.7778
647.929	105.778
650.375	129.556
652.818	186.667
655.262	333.111
657.706	648.667
660.148	902.556
662.59	866
665.031	609.111
667.471	351.222
669.909	197.222
672.347	128
674.785	96.6667
677.222	86.1111
679.656	76.6667
682.092	67.8889
684.526	69
686.96	65.4444
689.392	63.3333
691.824	62
694.256	62.8889
696.686	59.5556
699.115	60.3333
701.544	59.8889
703.972	58
706.398	57.8889
708.825	56.6667
711.25	56.7778
713.675	58.3333
716.099	57.3333
718.522	57.2222
720.944	55.4444
723.366	55.3333
725.786	54.4444
728.207	54.8889
730.625	53.2222
733.044	54.3333
735.461	53.7778
737.879	54.7778
740.294	51.7778
742.71	53.3333
745.123	54.6667
747.538	53.2222
749.95	52
752.363	51.7778
754.773	51.6667
757.185	53.3333
759.594	51.3333
762.002	50.2222
764.411	52
766.818	50.7778
769.225	52.8889
771.63	55
774.035	53.3333
776.44	50.4444
778.843	52.4444
781.245	51.7778
783.648	51.1111
786.048	50.5556
788.448	53.6667
790.848	53.1111
793.247	53.7778
795.644	54.4444
798.042	52.6667
800.438	53.3333
802.834	55.7778
805.228	54.2222
807.623	56.3333
810.016	56.2222
812.408	57.2222
814.8	55.8889
817.191	57.6667
819.58	56
821.971	55.8889
824.359	57.5556
826.747	56.7778
829.134	57.6667
831.52	56.7778
833.905	58.3333
836.29	62.6667
838.675	62.7778
841.058	63.1111
843.44	69.2222
845.822	69.4444
848.203	77.8889
850.583	87.4444
852.962	103.667
855.341	129.333
857.718	173.111
860.095	266.444
862.471	505.333
864.847	890.889
867.222	1113
869.596	921.333
871.969	548.111
874.341	284.667
876.713	164.667
879.083	118.667
881.453	96.7778
883.822	82.2222
886.191	75
888.559	71.7778
890.926	67
893.293	64.3333
895.658	62.8889
898.022	61.5556
900.386	58.8889
902.75	58.4444
905.112	57.6667
907.474	58.2222
909.834	56.7778
912.194	58.4444
914.554	55.6667
916.913	55.3333
919.27	55.7778
921.627	56.3333
923.984	56
926.34	52.7778
928.694	54.8889
931.048	52
933.402	53.5556
935.754	54
938.106	54.1111
940.458	54
942.807	52.6667
945.157	52.6667
947.505	54.8889
949.853	55.3333
952.201	54.3333
954.547	54
956.893	54.2222
959.237	55.4444
961.582	54.8889
963.925	55.2222
966.268	57.5556
968.609	54.7778
970.951	55.6667
973.291	55.4444
975.631	58.2222
977.97	58.1111
980.309	59.8889
982.645	58.1111
984.983	60
987.318	59
989.653	62.5556
991.988	63.1111
994.321	66.5556
996.655	69.1111
998.987	71.6667
1001.32	74.5556
1003.65	80.6667
1005.98	82.7778
1008.31	86.2222
1010.64	91
1012.96	88.7778
1015.29	88
1017.62	86.2222
1019.94	89.5556
1022.27	82.4444
1024.59	80.2222
1026.91	81.7778
1029.24	75.4444
1031.56	73.5556
1033.88	73.2222
1036.2	73.5556
1038.52	71.5556
1040.84	73.6667
1043.16	70.6667
1045.47	71.4444
1047.79	74
1050.1	77.3333
1052.42	80.3333
1054.74	87.5556
1057.05	91.4444
1059.36	99.2222
1061.67	104.333
1063.98	112.444
1066.29	113
1068.6	111.111
1070.91	108.889
1073.22	108
1075.53	101.778
1077.84	110
1080.14	119.667
1082.45	135
1084.75	154.889
1087.06	188.556
1089.36	222.778
1091.66	266.333
1093.96	294.667
1096.27	307.889
1098.57	296.333
1100.87	281.333
1103.16	253.778
1105.46	223.556
1107.76	188.889
1110.06	164.889
1112.35	142.778
1114.65	125.333
1116.94	113.556
1119.23	98.3333
1121.53	94.4444
1123.82	85.5556
1126.11	83.6667
1128.4	80.8889
1130.69	80.5555
1132.98	74.2222
1135.27	71.6667
1137.56	71.2222
1139.85	74.2222
1142.13	71.7778
1144.42	68.4444
1146.7	68.7778
1148.99	70.1111
1151.27	69.3333
1153.55	69.2222
1155.84	68.7778
1158.12	66.3333
1160.4	67.3333
1162.68	64.1111
1164.96	67.6667
1167.23	63.6667
1169.51	64.6667
1171.79	61.7778
1174.06	63.3333
1176.34	63.4444
1178.62	62
1180.89	62.8889
1183.16	62.3333
1185.44	62
1187.71	60.5556
1189.98	60.8889
1192.25	59.8889
1194.52	62.3333
1196.79	62.3333
1199.06	59.4444
1201.32	61.6667
1203.59	61.5556
1205.86	59.8889
1208.12	63.3333
1210.39	61.5556
1212.65	61.6667
1214.91	59.8889
1217.18	62.5556
1219.44	60.5556
1221.7	62.3333
1223.96	60.2222
1226.22	63
1228.48	61.2222
1230.74	63.5556
1232.99	63.5556
1235.25	59.4444
1237.51	62.8889
1239.76	62.5556
1242.02	63.6667
1244.27	62.6667
1246.53	62.6667
1248.78	65.2222
1251.03	64.6667
1253.28	62
1255.53	67.3333
1257.78	65.4444
1260.03	66.5556
1262.28	65.8889
1264.53	64.3333
1266.77	64.6667
1269.02	63.3333
1271.26	66.6667
1273.51	65.2222
1275.75	67.4444
1278	65.3333
1280.24	67.5556
1282.48	65.4444
1284.72	67
1286.96	66.8889
1289.2	65.2222
1291.44	68.2222
1293.68	67.8889
1295.92	68
1298.15	68.1111
1300.39	68.5556
1302.63	69.1111
1304.86	72.2222
1307.1	68.3333
1309.33	70.8889
1311.56	69.5556
1313.79	71.4444
1316.02	70.1111
1318.26	74.5556
1320.49	74.6667
1322.71	73.8889
1324.94	74
1327.17	74.6667
1329.4	76.2222
1331.62	78
1333.85	76.7778
1336.08	78
1338.3	77.3333
1340.52	78.8889
1342.75	78.8889
1344.97	82.8889
1347.19	88.8889
1349.41	83.5556
1351.63	90.2222
1353.85	92.6667
1356.07	91.7778
1358.29	94.6667
1360.5	101.444
1362.72	103.444
1364.94	104
1367.15	109.444
1369.37	119.333
1371.58	121
1373.79	134.444
1376.01	142.889
1378.22	155.333
1380.43	175.889
1382.64	202.889
1384.85	230.222
1387.06	259.778
1389.27	297.889
1391.47	312.667
1393.68	335.556
1395.89	354.111
1398.09	384.222
1400.3	451.778
1402.5	536.778
1404.71	649.778
1406.91	745.778
1409.11	809.667
1411.31	804.667
1413.51	759.556
1415.71	652.778
1417.91	549
1420.11	463.667
1422.31	377
1424.51	342.222
1426.7	319.667
1428.9	326.667
1431.1	354.222
1433.29	409.667
1435.48	493.222
1437.68	580.222
1439.87	629.667
1442.06	643.667
1444.25	605.222
1446.44	547.444
1448.63	483.222
1450.82	412.667
1453.01	360.222
1455.2	323.222
1457.39	294.889
1459.57	266.111
1461.76	247.889
1463.94	233.333
1466.13	220.333
1468.31	214.111
1470.49	198.889
1472.68	194.889
1474.86	181.889
1477.04	175.444
1479.22	171.222
1481.4	167.111
1483.58	154.556
1485.75	154.778
1487.93	157
1490.11	154.333
1492.29	158.333
1494.46	160.778
1496.64	161.333
1498.81	161.333
1500.98	154.667
1503.16	157.222
1505.33	153.444
1507.5	152.778
1509.67	149.444
1511.84	144.333
1514.01	135.556
1516.18	133.111
1518.35	125
1520.51	118.444
1522.68	105.667
1524.85	107.889
1527.01	102.111
1529.18	100.222
1531.34	98
1533.51	96.7778
1535.67	93.1111
1537.83	90.7778
1539.99	92.7778
1542.15	88.8889
1544.31	89.4444
1546.47	85.1111
1548.63	89.3333
1550.79	89
1552.95	88.2222
1555.1	89.1111
1557.26	87.2222
1559.41	85.6667
1561.57	84.2222
1563.72	84.1111
1565.88	85.6667
1568.03	86
1570.18	86
1572.33	84.6667
1574.48	82
1576.63	83.1111
1578.78	84.5556
1580.93	82
1583.08	83.7778
1585.23	82.4444
1587.37	82.1111
1589.52	81.5556
1591.66	83.2222
1593.81	81.8889
1595.95	82.1111
1598.1	85.7778
1600.24	81.5555
1602.38	83
1604.52	83.1111
1606.66	80.7778
1608.8	85
1610.94	86.3333
1613.08	84.2222
1615.22	85.3333
1617.36	84.3333
1619.49	86.5556
1621.63	85.6667
1623.77	88.2222
1625.9	88.3333
1628.03	92.7778
1630.17	92.5556
1632.3	96.4444
1634.43	97.8889
1636.56	101.111
1638.7	104.667
1640.83	109.222
1642.96	118.111
1645.08	128.778
1647.21	151.889
1649.34	179.333
1651.47	214.889
1653.59	251
1655.72	282.556
1657.84	303.778
1659.97	306.667
1662.09	300.111
1664.21	287.444
1666.34	268.444
1668.46	249.778
1670.58	235.556
1672.7	224.222
1674.82	207.556
1676.94	198.222
1679.06	186.556
1681.18	174.111
1683.29	167.444
1685.41	154.111
1687.52	138.889
1689.64	132.778
1691.76	123.556
1693.87	111.556
1695.98	103.333
1698.09	100.778
1700.21	90
1702.32	88.6667
1704.43	84
1706.54	84
1708.65	80.1111
1710.76	80.7778
1712.86	81
1714.97	78.5556
1717.08	80
1719.19	78.2222
1721.29	83.5555
1723.4	80.7778
1725.5	80.4444
1727.6	84.5556
1729.71	86.6667
1731.81	83.8889
1733.91	78.2222
1736.01	76.1111
1738.11	73
1740.21	71.4444
1742.31	72
1744.41	71.5556
1746.51	70.8889
1748.6	68.8889
1750.7	68.6667
1752.8	69
1754.89	68.3333
1756.99	68.8889
1759.08	65.1111
1761.17	68.3333
1763.27	66.6667
1765.36	67.5556
1767.45	69.3333
1769.54	69
1771.63	65.6667
1773.72	64.5556
1775.81	66.3333
1777.9	66.1111
1779.98	64.2222
1782.07	65.7778
1784.16	67.3333
1786.24	64.1111
1788.33	64.8889
1790.41	66.5556
1792.5	64.6667
1794.58	65.1111
1796.66	68
1798.74	67.1111
1800.83	65
1802.91	65
1804.99	66.4444
1807.06	64.4444
1809.14	68
1811.22	68.6667
1813.3	64.2222
1815.38	65
1817.45	66.6667
1819.53	66
1821.6	65.4445
1823.68	66.8889
1825.75	66.6667
1827.82	66
1829.9	65.2222
1831.97	63.5556
1834.04	64.7778
1836.11	66.2222
1838.18	66.4444
1840.25	63.5556
1842.32	62.6667
1844.38	62.8889
1846.45	64
1848.52	65.7778
1850.58	66.1111
1852.65	64.2222
1854.72	64.4444
1856.78	65.1111
1858.84	64
1860.91	63
1862.97	66.1111
1865.03	63.8889
1867.09	63.2222
1869.15	64.5556
1871.21	67.7778
1873.27	63.6667
1875.33	66
1877.39	65.3333
1879.44	63.6667
1881.5	65.8889
1883.56	66.6667
1885.61	65.6667
1887.67	62.6667
1889.72	66
1891.78	67.2222
1893.83	63.2222
1895.88	64.4444
1897.93	63.8889
1899.98	64.4445
1902.03	62.5556
1904.08	66
1906.13	67.2222
1908.18	64.8889
1910.23	66.3333
1912.28	66.5556
1914.32	65.2222
1916.37	66.1111
1918.41	64.4444
1920.46	63.6667
1922.5	67.2222
1924.55	66.2222
1926.59	65.1111
1928.63	63.2222
1930.68	64.1111
1932.72	66
1934.76	64.6667
1936.8	66.7778
1938.84	65.6667
1940.87	62.5556
1942.91	65.3333
1944.95	64
1946.99	64
1949.02	67.3333
1951.06	65.3333
1953.09	65.7778
1955.13	62.7778
1957.16	68.1111
1959.2	66
1961.23	65.1111
1963.26	65.5556
1965.29	67.8889
1967.32	66
1969.35	65.6667
1971.38	64.2222
1973.41	67.3333
1975.44	66
1977.47	65.8889
1979.5	65.3333
1981.52	67.5556
1983.55	67.6667
1985.57	67.2222
1987.6	67.4444
1989.62	67
1991.64	72.4444
1993.67	66.8889
1995.69	72.5556
1997.71	71.7778
1999.73	71.6667
2001.75	72.8889
2003.77	73.5555
2005.79	73.4444
2007.81	75.8889
2009.83	75.4444
2011.85	75.3333
2013.86	73.8889
2015.88	75
2017.89	73.6667
2019.91	75.5556
2021.92	74.3333
2023.94	75.3333
2025.95	71.5556
2027.96	73.6667
2029.97	71.4444
2031.99	75.4444
2034	75.2222
2036.01	73.2222
2038.02	74
2040.03	73.6667
2042.03	70.6667
2044.04	71.7778
2046.05	68.6667
2048.06	73.4444
2050.06	68.1111
2052.07	71.7778
2054.07	68.8889
2056.08	68.5556
2058.08	70.4444
2060.08	71.4444
2062.08	69.4444
2064.09	71.1111
2066.09	70
2068.09	68.3333
2070.09	70.5556
2072.09	67.5556
2074.09	65.5556
2076.08	68.6667
2078.08	71.2222
2080.08	66.8889
2082.07	70.1111
2084.07	66.8889
2086.07	68.1111
2088.06	67
2090.05	68.2222
2092.05	68.3333
2094.04	69.7778
2096.03	66.4444
2098.02	69.4444
2100.01	67
2102	69.5556
2103.99	70.8889
2105.98	69.5556
2107.97	68.4444
2109.96	68.7778
2111.95	67.4444
2113.94	71.3333
2115.92	70.5556
2117.91	68.4444
2119.89	68.6667
2121.88	68.2222
2123.86	70.3333
2125.84	71.8889
2127.83	70
2129.81	67.7778
2131.79	69
2133.77	69.3333
2135.75	67.7778
2137.73	68.4444
2139.71	69.5556
2141.69	67.4444
2143.67	68.7778
2145.64	66.3333
2147.62	67.8889
2149.6	68.1111
2151.57	68.2222
2153.55	68.8889
2155.52	68
2157.5	67.1111
2159.47	67.1111
2161.44	70
2163.41	70.3333
2165.39	69.3333
2167.36	67.2222
2169.33	68.2222
2171.3	68.4444
2173.27	67.7778
2175.24	68.4444
2177.2	68.8889
2179.17	67.7778
2181.14	68.2222
2183.1	69.6667
2185.07	69.4444
2187.03	68.5556
2189	66.4444
2190.96	66.8889
2192.93	68
2194.89	69.1111
2196.85	68.2222
2198.81	69.3333
2200.77	67.4444
2202.73	68.5556
2204.69	68.6667
2206.65	67.3333
2208.61	67.7778
2210.57	70.2222
2212.53	66.1111
2214.48	67.5556
2216.44	67.7778
2218.4	67.1111
2220.35	68.3333
2222.31	66.6667
2224.26	69.4444
2226.21	69.1111
2228.17	68.5556
2230.12	68.3333
2232.07	66.3333
2234.02	67.8889
2235.97	67.8889
2237.92	68.3333
2239.87	69.4444
2241.82	68.5556
2243.77	70.2222
2245.72	70.7778
2247.66	70.4444
2249.61	68.8889
2251.56	69.4444
2253.5	71.6667
2255.45	68.8889
2257.39	70.8889
2259.33	70.6667
2261.28	69.3333
2263.22	70
2265.16	70.3333
2267.1	68.1111
2269.04	69.8889
2270.99	67.8889
2272.92	69.2222
2274.86	69.1111
2276.8	66.2222
2278.74	67.1111
2280.68	69.6667
2282.61	71.4444
2284.55	68.7778
2286.49	70.5556
2288.42	67.1111
2290.36	71
2292.29	69.8889
2294.22	69.3333
2296.16	69.8889
2298.09	70.2222
2300.02	71.1111
2301.95	71.4444
2303.88	69.8889
2305.81	70
2307.74	70.3333
2309.67	69.6667
2311.6	68.8889
2313.53	72.4444
2315.45	68.5556
2317.38	71.6667
2319.31	70.5556
2321.23	71.3333
2323.16	71.7778
2325.08	71.1111
2327	68.3333
2328.93	71.7778
2330.85	72
2332.77	69.8889
2334.69	72.7778
2336.62	69.3333
2338.54	70.3333
2340.46	66.6667
2342.38	69.7778
2344.29	67.6667
2346.21	68.5556
2348.13	72.2222
2350.05	70.8889
2351.96	69
2353.88	69.3333
2355.79	70.2222
2357.71	70.2222
2359.62	70.8889
2361.54	69.1111
2363.45	70.5556
2365.36	69.5556
2367.27	70.7778
2369.19	67.2222
2371.1	69.1111
2373.01	68.7778
2374.92	68.6667
2376.83	69.7778
2378.73	71
2380.64	69.4444
2382.55	68.3333
2384.46	69.8889
2386.36	69.2222
2388.27	69.3333
2390.17	68.1111
2392.08	70.1111
2393.98	71.2222
2395.89	71.3333
2397.79	68.1111
2399.69	68.7778
2401.59	68.4444
2403.5	71.1111
2405.4	66.6667
2407.3	71.1111
2409.2	68.8889
2411.09	69.8889
2412.99	67.8889
2414.89	69.6667
2416.79	71.6667
2418.69	69.3333
2420.58	69.6667
2422.48	71.1111
2424.37	72.4444
2426.27	73.1111
2428.16	69.5556
2430.06	70.5556
2431.95	69.2222
2433.84	71.1111
2435.73	71.2222
2437.62	71.3333
2439.52	70.8889
2441.41	73.5556
2443.3	71.1111
2445.19	70.8889
