epoch,beta,learning_rate,train_loss,train_reconstruction_loss,train_kl_unnormalized,train_kl_normalized,mean_unclipped_gradient_norm
1,0.0,0.001,0.06867091236322113,0.06867091236322113,264.0953582913688,0.1885048952829185,0.11478513417144616
2,0.02,0.001,0.06118562700373403,0.05091784944695033,719.2577511219496,0.5133888302083865,0.13747132010757923
3,0.04,0.001,0.04942980174268229,0.04607906690641735,117.35950555694237,0.08376838369517657,0.11347271626194318
4,0.06,0.001,0.04381848871707916,0.03871503020270487,119.16576479793935,0.08505764796426792,0.07176996519168218
5,0.08,0.001,0.04161451807182826,0.03709868550970313,79.08352789718114,0.056447914273505456,0.08582850421468417
6,0.1,0.001,0.04032916546370206,0.036338595024655376,55.90789370590382,0.039905705714420994,0.07679046193758647
7,0.12,0.001,0.03847825397433859,0.0355003538091531,34.76698868997981,0.024815837751591584,0.04160952133436998
8,0.14,0.001,0.03726790125450392,0.035163600290759225,21.05804096179062,0.015030721600136061,0.03503474686294794
9,0.16,0.001,0.03605901307604286,0.03382629574684615,19.550237762794065,0.0139544880533862,0.05370319044838349
10,0.18,0.001,0.03401766964391376,0.031231597107782793,21.68493062994453,0.015478180321159551,0.038388967824478946
11,0.2,0.001,0.031020799630813386,0.027910916678858606,21.78473131844167,0.015549415644854866,0.022685003466904163
12,0.22,0.001,0.02890130536358678,0.025526192164822912,21.49333424514599,0.0153414234440728,0.018211627534280222
13,0.24,0.001,0.027953345433212397,0.0240468554868457,22.80413574047303,0.016277041927532498,0.07669638174896438
14,0.25,0.001,0.02713892991874325,0.02320083975791931,22.069058364696716,0.015752361430904152,0.08442653591434161
15,0.25,0.001,0.026014434341131973,0.022187020608715798,21.448826843433167,0.01530965513449905,0.10028132858375709
16,0.25,0.001,0.02523618187294917,0.02126508720972565,22.254015590367693,0.01588437943637951,0.09809160729249318
17,0.25,0.001,0.024277289408478845,0.020453165798039918,21.430389361435108,0.015296494904664603,0.06241723895072937
18,0.25,0.001,0.02382354432026322,0.02004701393039039,21.163676701234966,0.015106121842423244,0.03945404943078756
19,0.25,0.001,0.023047860397884014,0.019138531466380934,21.907878147082382,0.015637314880144457,0.03923236842577656
20,0.25,0.001,0.022994639414749787,0.01925126000652822,20.977899465668067,0.014973518533667428,0.06640263088047504
21,0.25,0.001,0.022752530726321628,0.018795818697368162,22.17341343740399,0.015826847564171298,0.051987893879413605
22,0.25,0.001,0.022296031330073816,0.018376639405830522,21.964271223946902,0.01567756689789215,0.02492160489782691
23,0.25,0.001,0.022052294187498895,0.01829060506117478,21.080504599581943,0.015046755602842214,0.03998451462636391
24,0.25,0.001,0.02221576919716396,0.018346973265824695,21.680732984221383,0.015475184142913193,0.07497663299242656
25,0.25,0.001,0.021537181722481598,0.01778150751684489,21.04679658439722,0.01502269563483028,0.054726152680814266
26,0.0,0.001,0.017311178022221232,0.017311178022221232,23.401142999027552,0.01670317130551574,0.04003136698156595
27,0.02,0.001,0.01656720292325435,0.015978993764251805,41.20403581254938,0.029410446689899627,0.04181323992088437
28,0.04,0.001,0.016961554253704093,0.015225497608104448,60.805399605397426,0.043401427270090956,0.031058684612313908
29,0.06,0.001,0.017658769833237938,0.014779392138039797,67.23347335986877,0.047989631234738594,0.02491351030766964
30,0.08,0.001,0.01811444696583105,0.014724746147652021,59.362136883682076,0.042371261158945094,0.020276914505908888
31,0.1,0.001,0.01812561277007119,0.015045058044992137,43.158571993367055,0.03080554746136121,0.02031997513646881
32,0.12,0.001,0.018519254129254415,0.015786156455954808,31.908914716056223,0.02277581350182457,0.020301086672892172
33,0.14,0.001,0.01872870112570484,0.015739687948665593,29.91148492191615,0.02135009630400867,0.03459879647319516
34,0.16,0.001,0.019288713363616653,0.015925364882758496,29.450318325771374,0.021020926713612685,0.06406088670094807
35,0.18,0.001,0.01951178251190132,0.01575274897341648,29.257809178213055,0.020883518328488976,0.049274999337891735
36,0.2,0.001,0.019476168192504497,0.015893680430697592,25.095326948701665,0.017912438935547226,0.03500904546429714
37,0.22,0.001,0.01971511911140399,0.016045711599708943,23.36745298578498,0.0166791241868558,0.03811182081699371
38,0.24,0.001,0.01999270353005843,0.015961235828613966,23.533692306347106,0.016797781803245614,0.04744980111718178
39,0.25,0.001,0.01983023960185185,0.01596160057220566,21.679851446258887,0.015474554922383216,0.049588833625117935
40,0.25,0.001,0.019549771892220787,0.015752445718043306,21.280215788423344,0.015189304631280046,0.05846743549530705
41,0.25,0.001,0.018946341040094246,0.014966035648929269,22.305632280499747,0.015921222184510885,0.02367876935750246
42,0.25,0.001,0.018476946488692518,0.014628821837433269,21.564890936519323,0.015392498884025212,0.044126867627104126
43,0.25,0.001,0.017850566739111805,0.013953264195765003,21.840484662002392,0.015589211036404278,0.049726733627418675
44,0.25,0.001,0.01740679783181528,0.013456900038997108,22.135227224800023,0.015799591166880816,0.03836463733265797
45,0.25,0.001,0.01688842760043198,0.012945947394277273,22.09365754716852,0.015769919733881883,0.05228192421297232
46,0.25,0.001,0.016975195398240276,0.01309090151629421,21.767584061354732,0.015537176346434499,0.05290375525752703
47,0.25,0.001,0.016462038323450626,0.012491600378678086,22.250332693035684,0.01588175067311612,0.036237668401251234
48,0.25,0.001,0.016088838699493516,0.012594676597483373,19.58128401938449,0.013976648122330114,0.03346412815153599
49,0.25,0.001,0.015979457489643873,0.012189325583533625,21.239900396111306,0.015160528476881732,0.03881234349682927
50,0.25,0.001,0.016219745034331018,0.012360351400847515,21.628043914109135,0.015437575955823794,0.049230247580756746
51,0.0,0.001,0.011972807808203643,0.011972807808203643,24.728612321146418,0.017650686881617715,0.07754146276662748
52,0.02,0.001,0.011261279098270984,0.010664058629465237,41.83530318870973,0.029861030113283175,0.04291581052045027
53,0.04,0.001,0.0113292442153344,0.009622168706290507,59.79032495048609,0.04267689147072526,0.02463542918364207
54,0.06,0.001,0.012021684045955706,0.009266129548378875,64.34220243303963,0.04592591180088482,0.018362993684907753
55,0.08,0.001,0.01241691167769807,0.00926625912778833,55.17580533831307,0.039383158699723815,0.02082848905896147
56,0.1,0.001,0.0125863699640116,0.009661551732360647,40.97670531540774,0.029248183665530152,0.02289723791182041
57,0.12,0.001,0.012892162448234773,0.010223216356270099,31.159950192055007,0.022241220693829413,0.03598567688216766
58,0.14,0.001,0.013234054659273518,0.010316187494926238,29.199512653136523,0.020841907675329424,0.0323191729063789
59,0.16,0.001,0.013544949723847127,0.010237166009257349,28.963782535510116,0.02067364920450401,0.02949106864010294
60,0.18,0.001,0.013913275914664349,0.01028911688815007,28.20803665846921,0.020134216030313498,0.04104199477781852
61,0.2,0.001,0.014072804983830853,0.01038607590821352,25.825536856490576,0.01843364515095687,0.033668920708199344
62,0.22,0.001,0.014381148465228885,0.010703688926911085,23.418731389420756,0.016715725474247507,0.04077046907817324
63,0.24,0.001,0.014747850753869234,0.01080409941797176,23.021649307079528,0.016432297863725572,0.03383108756194512
64,0.25,0.001,0.014918300794081742,0.01098897366711263,22.01994960227709,0.015717308781068588,0.03281857523446282
65,0.25,0.001,0.014702517539262772,0.01077774263332399,21.994438021370534,0.01569909923010031,0.03745126072317362
66,0.25,0.001,0.01453155515652694,0.01070859565744909,21.423865243290248,0.015291838146531227,0.029527003566424053
67,0.25,0.001,0.014362148647562842,0.010672568730758817,20.676405360189715,0.014758319314910574,0.027129418992747862
68,0.25,0.001,0.014418841287326277,0.01073839630554901,20.625214351696915,0.014721780408063465,0.022287572578837473
69,0.25,0.001,0.014239077424902595,0.010469747895605109,21.123322754763485,0.015077318168996065,0.02825854780773322
70,0.25,0.001,0.014096326717918509,0.010410568593174553,20.654988428180136,0.014743032425538998,0.02429900070031484
71,0.25,0.001,0.014149504169570596,0.010513873561547043,20.374074871620437,0.014542523106081682,0.020922211309274037
72,0.25,0.001,0.014135034336300378,0.010466278415550007,20.559708113081,0.014675023635318345,0.01575306213150422
73,0.25,0.001,0.01402657472769196,0.010424446565716455,20.18632747350114,0.014408513542827368,0.028642953063050907
74,0.25,0.001,0.013990079031817699,0.010332014694223913,20.499792098999023,0.01463225702997789,0.0396353998221457
75,0.25,0.001,0.013789265583991335,0.010120962934798739,20.557168081905065,0.0146732106223448,0.028297610270480316
76,0.0,0.001,0.009846060003122587,0.009846060003122587,22.666935888569007,0.016179111983275523,0.020395572762936354
77,0.02,0.001,0.009122017164076313,0.008558128437215692,39.50040791543682,0.028194438198027708,0.01242080812032024
78,0.04,0.001,0.009678326955253488,0.008073990955279114,56.19186997145749,0.04010840112166845,0.011391300863275925
79,0.06,0.001,0.010344099399916241,0.007803570494851034,59.32134799742967,0.04234214703599548,0.015212643581132093
80,0.08,0.001,0.01069704560416468,0.007949409012295556,48.11798794349927,0.034345458917558365,0.013556395502140125
81,0.1,0.001,0.010840542823745964,0.00837570760566532,34.53234053193853,0.024648351557415082,0.017093209084123373
82,0.12,0.001,0.011210127304611581,0.008885257825087966,27.14285098300891,0.019373912193439622,0.012488743755966425
83,0.14,0.001,0.011548820474928015,0.00886236514184582,26.883743779043133,0.019188967722371972,0.02620510555182894
84,0.16,0.001,0.011968155108978239,0.008944961064484683,26.47184408380744,0.018894963657250137,0.014856278741111359
85,0.18,0.001,0.012266933740106192,0.008946385695023483,25.844932063242023,0.01844748898161458,0.018484076640258234
86,0.2,0.001,0.012491812741153695,0.009125830710269092,23.578702648034255,0.016829909099239298,0.019090757860491674
87,0.22,0.001,0.01303878677694985,0.009534586336086975,22.31538676144032,0.01592818469767332,0.031976988073438406
88,0.24,0.001,0.013189066682806175,0.009374227898007029,22.26912211300282,0.01589516210778217,0.030060760599250596
89,0.25,0.001,0.01329632101350286,0.0096250091355001,20.57403270850021,0.014685248185938764,0.02299710192407171
90,0.25,0.001,0.013120043960012746,0.009581541485582174,19.829768212993493,0.014154010144891857,0.019961554712305467
91,0.25,0.001,0.01321828147668517,0.009662828648860535,19.92475803246659,0.014221811586343032,0.029772052075713873
92,0.25,0.001,0.013339566809826352,0.009710290197157459,20.338466558563574,0.014517106751294485,0.028317748258511227
93,0.25,0.001,0.013020987109689231,0.009412985242735804,20.219242224532568,0.014432007298024675,0.02586616451541583
94,0.25,0.001,0.012867386662139652,0.009396448720958126,19.451136921228986,0.013883752263546743,0.020391453057527542
95,0.25,0.001,0.012875306556064092,0.009361725216836071,19.690109810132657,0.014054325346275987,0.017958898873378832
96,0.25,0.001,0.012828722533382726,0.009249911204064161,20.055659497721813,0.014315245894162608,0.016239416940758627
97,0.25,0.001,0.013099496660942442,0.009582242802873757,19.710690637652792,0.014069015444434542,0.022698926118512947
98,0.25,0.001,0.012968921552548248,0.009476292187745651,19.572695657108607,0.013970517956537193,0.018360210272173088
99,0.25,0.001,0.012832048589761337,0.009370589450922576,19.39801805474785,0.013845837298178338,0.02607734827324748
100,0.25,0.001,0.012716587496858634,0.009269541003898289,19.317247990811808,0.013788185575169028,0.020192975644022226
101,0.25,0.001,0.012642968592516492,0.009228215071508724,19.136278731099676,0.013659014083582924,0.021888950373977423
102,0.25,0.001,0.012702244919923585,0.009332698707081628,18.88293774208326,0.013478185397632592,0.02140275078515212
103,0.25,0.001,0.0125159253523256,0.00911100943353069,19.081149047680114,0.013619663845596085,0.029181222741802532
104,0.25,0.001,0.01253490372864383,0.009183928904154997,18.7788634568118,0.013403899683662955,0.02292970133324464
105,0.25,0.001,0.0125776765491353,0.009274512623551856,18.510931165030833,0.013212656077823577,0.03295793787886699
106,0.25,0.001,0.01239019815464703,0.008950101096559776,19.27830336067114,0.013760387837738143,0.021777013937632244
107,0.25,0.001,0.012369933276531402,0.008998445601443226,18.89381809448928,0.013485951530684711,0.01620855073754986
108,0.25,0.001,0.01246526814327481,0.009082903290230237,18.954773827884974,0.013529460262587419,0.02419553774719437
109,0.25,0.001,0.012417629068152289,0.009045758431128571,18.89596347594529,0.013487482852209343,0.03187550402556857
110,0.25,0.001,0.012367884931939372,0.009040237509049056,18.6481362889322,0.013310589785105067,0.03046566030631463
111,0.25,0.001,0.012416547980536236,0.009105373990167392,18.555818407723073,0.013244695508724535,0.026358921856929857
112,0.25,0.001,0.012227787018826838,0.00891135230116295,18.5852997169066,0.01326573855596474,0.015445146554460129
113,0.25,0.001,0.012199489316076374,0.008879356033932627,18.60602721739351,0.013280533345748401,0.017794670537114143
114,0.25,0.001,0.01226646557785152,0.008950737273592628,18.581341947062633,0.013262913595333785,0.028425342869013548
115,0.25,0.001,0.012202419330146206,0.008819278748182769,18.959120139647066,0.013532562555065714,0.024768597912043333
116,0.25,0.001,0.012138042996606131,0.008779817763088124,18.819494268867405,0.01343290097706453,0.0246189230432113
117,0.25,0.001,0.012076717068891176,0.008793145250738337,18.401135819681574,0.013134286809194557,0.03306100486467282
118,0.25,0.001,0.012073250351410903,0.008820435963571072,18.228771852643302,0.013011257567910993,0.028881097522874672
119,0.25,0.001,0.012146321596221978,0.008903525236031313,18.17263016004241,0.012971184982185874,0.031397638376802206
120,0.25,0.001,0.012088836306768857,0.008880111137718966,17.98169592525182,0.012834900731800014,0.017522820737212896
121,0.25,0.001,0.011986131643813647,0.008674343011938455,18.55926344367895,0.013247154492276196,0.0122858591688176
122,0.25,0.001,0.012013610473342156,0.00874245022371244,18.33158199438888,0.013084640966730107,0.014146272093057632
123,0.25,0.001,0.011942657893209646,0.008672778599299071,18.32440333419971,0.01307951701227674,0.016068517540891964
124,0.25,0.001,0.012124436478433984,0.008832328879598821,18.448970816108616,0.013168430275595016,0.02116115391254425
125,0.25,0.001,0.011849687937019246,0.008497160179226587,18.78756533847766,0.013410110876857716,0.016876417212188244
126,0.25,0.001,0.01180830823906352,0.008538036397919896,18.326603214392502,0.01308108723368487,0.017396613645056885
127,0.25,0.001,0.011886548972950222,0.008723643461891105,17.72492168726546,0.012651621475564211,0.028487498716761667
128,0.25,0.001,0.01172772700783242,0.00854784632206298,17.820051793302042,0.012719523050179902,0.013689595429847637
129,0.25,0.001,0.011870558656166109,0.008623605363824394,18.195926216211213,0.012987813145047261,0.020543761551380157
130,0.25,0.001,0.011849840265813838,0.008632987486512473,18.027243732066637,0.012867411657435145,0.021321368558953207
131,0.25,0.001,0.011661755119900355,0.00847539860817991,17.856341094113468,0.01274542547759705,0.017775602638721466
132,0.25,0.001,0.011725848352306344,0.008457453638901201,18.31608431526784,0.013073579097264696,0.01562306952352325
133,0.25,0.001,0.011671014454508766,0.008503432458873545,17.751131057739258,0.012670329091890977,0.012310930372526249
134,0.25,0.001,0.011667155357224217,0.008432088524438022,18.129315086964812,0.012940267728026277,0.01636579477538665
135,0.25,0.001,0.011486852625280285,0.008220608513593004,18.304031864980633,0.013064976349022579,0.018516458260516327
136,0.25,0.001,0.011540396139025688,0.008484546607883458,17.12498146228576,0.012223398616906325,0.01745165333462258
137,0.25,0.001,0.011623408561677075,0.00839315109959479,18.102363114946343,0.01292103006063265,0.02036549647649129
138,0.25,0.001,0.0117177338852139,0.008477591585074917,18.15775764122438,0.01296056933706237,0.026064550504088402
139,0.25,0.001,0.011688955358407471,0.008476389519702853,18.00322022598781,0.012850264258378166,0.033518035585681595
140,0.25,0.001,0.011654307542557127,0.00850120469341787,17.66998839646243,0.012612411417888957,0.02419574387992422
141,0.25,0.001,0.011593509182919947,0.008380965654099926,18.003094298116277,0.012850174374101554,0.023872018015633028
142,0.25,0.001,0.011441880523153905,0.008306277957692575,17.5719170945414,0.012542410488609138,0.018246658612042665
143,0.25,0.001,0.011525008387947351,0.008321159058826024,17.954372556022044,0.012815397970037147,0.0269740535877645
144,0.25,0.001,0.011490797268205814,0.00829501108925664,17.909187081154812,0.01278314566820472,0.019449545070528984
145,0.25,0.001,0.01156659298733379,0.008392657911970039,17.786732427189857,0.01269574049049954,0.033621082392831646
146,0.25,0.001,0.011524222456337361,0.00832140471869975,17.948590975129203,0.012811271217080087,0.02433166808138291
147,0.25,0.001,0.011451470027311464,0.008271286274526226,17.82174916213818,0.012720734591105053,0.019089066113034885
148,0.25,0.001,0.011492752920040924,0.008366765224196937,17.518035095729186,0.012503950817793852,0.0261006827155749
149,0.25,0.001,0.011424439080226957,0.008249760856538007,17.790897369384766,0.012698713325756434,0.02413359936326742
150,0.25,0.001,0.011407535062747056,0.008280279910129107,17.52513819062308,0.01250902083556251,0.017660583679874737
151,0.25,0.001,0.011445807722093684,0.008270363396640574,17.795190789726345,0.012701777865614806,0.020697593378523987
152,0.25,0.001,0.011353869932923423,0.008120702328474333,18.118671224358376,0.012932670395687634,0.017818201798945665
153,0.25,0.001,0.011318688657595201,0.008116669209904216,17.94411691387048,0.012808077740093134,0.010777454900865754
154,0.25,0.001,0.01122611995493428,0.008121234061342946,17.399782373664085,0.012419544877704558,0.015354119474068284
155,0.25,0.001,0.011297283840648244,0.008133646697224526,17.729023451215767,0.012654549215714322,0.015989950702836115
156,0.25,0.001,0.01136819323462047,0.008225914090871811,17.609333188346262,0.012569117193680417,0.017230871133506298
157,0.25,0.001,0.01131198275834322,0.008132060801380136,17.820281510942436,0.012719687017089533,0.020511819670597713
158,0.25,0.001,0.01128757344244906,0.008099750416834703,17.86456018083551,0.012751292063408644,0.017629081072906654
159,0.25,0.001,0.01134264511003923,0.008224171638656198,17.475925102662504,0.012473893720672737,0.01468014344573021
160,0.25,0.001,0.011157992641242702,0.007976863193168733,17.827049319663743,0.01272451771567719,0.012125231248016158
161,0.25,0.001,0.011249137477258617,0.008091390509618802,17.6960135899233,0.01263098757310728,0.01583168717722098
162,0.25,0.001,0.011204138262134589,0.008113705500792922,17.31878563527311,0.01236173135993798,0.015297848576058945
163,0.25,0.001,0.011214286319158051,0.00808675814252556,17.52666809853543,0.012510112846920366,0.012737683020532131
164,0.25,0.001,0.01115479122512461,0.008022645048880846,17.552546554736878,0.01252858426462304,0.011561056599020958
165,0.25,0.001,0.01114435140252783,0.008017152390871824,17.5248234352369,0.012508796170761527,0.011491124207774797
166,0.25,0.001,0.011190870567486527,0.00811374043062162,17.24423794264204,0.012308521015447566,0.017152944579720497
167,0.25,0.001,0.011056090370239167,0.00793390456335933,17.496730461549223,0.0124887440839038,0.011110438499599695
168,0.25,0.001,0.011195196058559283,0.008086022115155552,17.423811430341743,0.01243669623864507,0.010885808927317461
169,0.25,0.001,0.011124664833873844,0.007927299634124457,17.918034199918253,0.012789460528135798,0.016421379055827856
170,0.25,0.001,0.011194930077017693,0.008013745366982865,17.827358910207,0.012724738693937901,0.011913212637106577
171,0.25,0.001,0.011007374937363555,0.007836654185830207,17.768719598148646,0.012682883367700676,0.01191952886680762
172,0.25,0.001,0.011132506664130794,0.00800683010327682,17.51629053608755,0.012502705593210242,0.012039605683336655
173,0.25,0.001,0.011118155203006241,0.007984815385150775,17.559236205026004,0.012533359175607425,0.01582808994377653
174,0.25,0.001,0.011100340843870399,0.007932937536597922,17.750128392423136,0.012669613413578255,0.016973407628635567
175,0.25,0.001,0.011113933632882792,0.008022116769230767,17.32654252213039,0.012367268038636966,0.012818115918586651
176,0.25,0.001,0.011148333999464351,0.007928871434558643,18.04186833842417,0.012877850348625389,0.013322170202930769
177,0.25,0.001,0.01103275731791941,0.007888008934560787,17.623170616921414,0.012578994016360753,0.013266628763327995
178,0.25,0.001,0.01102630320015583,0.007874297344366486,17.663841633314497,0.012608024006648464,0.01096806318188707
179,0.25,0.001,0.01093098305668054,0.007781174274559101,17.65152798341901,0.01259923482042756,0.014517068242033323
180,0.25,0.001,0.011072158803012265,0.007966770063248578,17.402599377578564,0.012421555587136734,0.020307643028597038
181,0.25,0.001,0.011002211685009887,0.007904010662662515,17.362317417444807,0.012392803295820704,0.016971734818071127
182,0.25,0.001,0.010991120449361506,0.00787483767888854,17.46364921398377,0.012465131487497338,0.020698176696896553
183,0.25,0.001,0.01101167577454883,0.007928857637380951,17.27611213855529,0.012331272047505561,0.011274911230430007
184,0.25,0.001,0.010970754224514023,0.0078023483537221225,17.75574765580424,0.012673624308211447,0.013518475461751223
185,0.25,0.001,0.010952596856134662,0.007863383447186331,17.311951819430575,0.012356853547059654,0.011804694775491953
186,0.25,0.001,0.010856620486030418,0.00771672660589553,17.595965481875986,0.0125595756473062,0.01099353462147216
187,0.25,0.001,0.010932761244475842,0.007861302673732966,17.2124557709426,0.012285835668053248,0.012451381733020147
188,0.25,0.001,0.010862433581790898,0.00775776556536053,17.398560052507378,0.01241867241435216,0.012248791909466187
189,0.25,0.001,0.010980540028448855,0.007884208050169301,17.35184517335356,0.012385328460637801,0.02839873715614279
190,0.25,0.001,0.010938523075637523,0.007815918947957206,17.49907343575124,0.012490416442363482,0.018938057745496433
191,0.25,0.001,0.011049212144917987,0.00789314058473271,17.686625598521715,0.012624286651335985,0.027936756300429504
192,0.25,0.001,0.011138205029321521,0.007909600465987505,18.09310055850597,0.012914418671310471,0.0324704876790444
193,0.25,0.001,0.011111399765764729,0.008024037554022971,17.301577107290203,0.012349448327830267,0.026862839081635077
194,0.25,0.001,0.010979580787125598,0.007955318363906626,16.947966243443865,0.01209704942429969,0.013904753917207321
195,0.25,0.001,0.010913763467348023,0.007750675814707627,17.725944561904736,0.012652351578804236,0.015000350618114075
196,0.25,0.001,0.010926483157143164,0.007835117037920804,17.32401687107729,0.012365465289848172,0.01504512627919515
197,0.25,0.001,0.010950739014098484,0.00790703288289938,17.056928591781787,0.012174824119758593,0.015332926685611406
198,0.25,0.001,0.010858423202141617,0.007702084509341904,17.688122524304337,0.01262535512084535,0.015332723191628853
199,0.25,0.001,0.010862122070086137,0.007738827884699521,17.502940938713845,0.012493176972672266,0.014226465951651335
200,0.25,0.001,0.010933701702383128,0.007818078648382694,17.459952493731894,0.012462492857767233,0.01625417871400714
201,0.25,0.001,0.01081775307780906,0.0077224536798894405,17.346059006251647,0.01238119843415535,0.015259753136585156
202,0.25,0.001,0.010910875687187307,0.007883232563022482,16.966912451754794,0.012110572770702922,0.021696409055342276
203,0.25,0.001,0.010872354521677735,0.007644018786174528,18.091593131590425,0.012913342706345771,0.018712915014475584
204,0.25,0.001,0.010874675879820009,0.0076773607098821845,17.91775551270903,0.012789261607929356,0.02103603584691882
205,0.25,0.001,0.010842196413137939,0.0078381687570154,16.834571131159752,0.012016110728879195,0.019405611790716648
206,0.25,0.001,0.010704653777098387,0.00759122356395708,17.44766366079952,0.012453721385295874,0.01303196419030428
207,0.25,0.001,0.010752405155073391,0.007660352420898971,17.32786347892847,0.012368210905730528,0.017116981248060863
208,0.25,0.001,0.010761804470604056,0.0076686764826600475,17.333889607633097,0.012372512211015773,0.015774273003141086
209,0.25,0.001,0.01089606574328428,0.0077510231666350635,17.624818223246027,0.01258017003800573,0.016280314574639004
210,0.25,0.001,0.010719585075472177,0.007606118818054374,17.447864425316286,0.012453864686164372,0.013046711683273315
211,0.25,0.001,0.010668880641041847,0.007585287936492248,17.28045484992895,0.012334371770113456,0.017284626451631386
212,0.25,0.001,0.010711877910273799,0.0075353230297398035,17.80141313960043,0.012706219228836853,0.018626187928020954
213,0.25,0.001,0.010764516042440796,0.00768890641001838,17.235716380430073,0.012302438529928674,0.014982397047181925
214,0.25,0.001,0.010768094403522738,0.0076675860608896515,17.37524859824877,0.01240203326070576,0.015279038343578577
215,0.25,0.001,0.010749025333128619,0.007639755296070924,17.424349666981215,0.01243708041897303,0.01116601082806786
216,0.25,0.001,0.010692013040436118,0.007611925834057371,17.260808751824197,0.012320348859260668,0.012094257088998953
217,0.25,0.001,0.010767955594601926,0.007652541486483612,17.458780374419824,0.012461656227280389,0.011609956777344147
218,0.25,0.001,0.010729932163454843,0.007626046745755365,17.39417389001739,0.012415541677385719,0.012250610161572695
219,0.25,0.001,0.010662204429004968,0.007512428536174003,17.65134492081203,0.012599104154755196,0.01167651933307449
220,0.25,0.001,0.010622401711311234,0.0075603675180941484,17.159639658552877,0.01224813680125116,0.011742042688031992
221,0.25,0.001,0.010610681550388926,0.00753306420624591,17.246968087185635,0.012310469726756342,0.010143037730207046
222,0.25,0.001,0.010654888879717066,0.007541529860431224,17.44726331046458,0.012453435624885496,0.01247725123539567
223,0.25,0.001,0.010754186806551526,0.007614184673247712,17.596572704529493,0.012560009068186648,0.012338600121438503
224,0.25,0.001,0.010604686344440064,0.007531464811456338,17.222334593869327,0.012292886933525572,0.016983814847966034
225,0.25,0.001,0.010791251707947655,0.007655529441374741,17.57258837410573,0.012542889631767118,0.019898899365216494
226,0.25,0.001,0.01078166767661826,0.00759971004732874,17.831690563244766,0.012727830523372424,0.015289900824427605
227,0.25,0.001,0.010669499834518084,0.00759940046105492,17.204837799072266,0.012280398143520532,0.017727099359035492
228,0.25,0.001,0.010788309963399105,0.00770607538353861,17.272843285892787,0.012328938819338178,0.021963415046532948
229,0.25,0.001,0.010833386645725604,0.007699079549965564,17.564656889840457,0.012537228329650575,0.01957285435249408
230,0.25,0.001,0.010657646504931905,0.007472829485123747,17.84771454200316,0.01273926805282167,0.016050633663932484
231,0.25,0.001,0.010663238113348404,0.007669793117498414,16.77526604727413,0.011973780190773825,0.0194911138775448
232,0.25,0.001,0.010716614878495758,0.00767402316370372,17.05068386806531,0.01217036678662763,0.0184570774435997
233,0.25,0.001,0.010734700922215923,0.007614324622777071,17.486589860380366,0.012481505967437806,0.024110362244149048
234,0.25,0.001,0.010734291318176168,0.007721320417280612,16.884688881006134,0.012051883569597526,0.022482316320141155
235,0.25,0.001,0.010665767104103325,0.007545056491253081,17.48846240525835,0.012482842544795395,0.015436252889533838
236,0.25,0.001,0.01070311213477274,0.0076442339478500106,17.141953714777916,0.012235513001269033,0.016885331521431606
237,0.25,0.001,0.010595228481158781,0.00753423667334941,17.153798435511213,0.012243967477167175,0.013704632719357809
238,0.25,0.001,0.010570657889494735,0.007458103574770555,17.44275348106127,0.012450216617459865,0.012355677162607511
239,0.25,0.001,0.010600255184880133,0.007486704255590278,17.448340640978866,0.012454204597415322,0.014819796662777662
240,0.25,0.001,0.010636721936504492,0.007598872212797738,17.02410991540116,0.012151398940329164,0.02033408995096882
241,0.25,0.001,0.010709321251913402,0.007532303896471021,17.804005419270375,0.012708069535524892,0.029345836179951828
242,0.25,0.001,0.010729594166610347,0.007617170367850347,17.442021809267192,0.01244969436778529,0.02668522670865059
243,0.25,0.001,0.010732832615881155,0.007755417272113682,16.685434587885826,0.011909660662302517,0.03552242989341418
244,0.25,0.001,0.010782100239329124,0.007747702509834526,17.00476599275396,0.01213759171502781,0.027850203216075897
245,0.25,0.001,0.010637178661280803,0.007500376939522416,17.57863756244102,0.0125472073964604,0.018421092846741278
246,0.25,0.001,0.010593721957019206,0.0074479995776763125,17.62862846288788,0.012582889695137675,0.018594513181596994
247,0.25,0.001,0.010649868852218216,0.00754758987701341,17.38517086157638,0.01240911553288821,0.01784147322177887
248,0.25,0.001,0.010599536549174384,0.0075308911272146725,17.196689262818754,0.012274581914931302,0.015768356310824554
249,0.25,0.001,0.010476643240518784,0.007409632723945915,17.18752745296178,0.01226804243608978,0.01291655097156763
250,0.25,0.001,0.010593385205426242,0.007520599212246329,17.219892137506037,0.012291143567099242,0.012631696804116169
251,0.25,0.001,0.010434314367895046,0.007335503930958469,17.36573373601678,0.012395241781596558,0.01164318419372042
252,0.25,0.001,0.010489348541903361,0.007487508892133999,16.822309536880322,0.012007358698701159,0.012254793973018726
253,0.25,0.001,0.010545068294898178,0.007448762236686235,17.351699014727988,0.012385224136137036,0.014812089192370573
254,0.25,0.001,0.010416826651839729,0.007366189586647441,17.095769217844758,0.012202547621587978,0.012900004473825296
255,0.25,0.001,0.010582249370937267,0.007496669182156244,17.291591365685623,0.01234232074638517,0.012278987715641657
256,0.25,0.001,0.010460700672329142,0.007276700359633129,17.843139112665412,0.012736002221745476,0.01106539989511172
257,0.25,0.001,0.01050508903402291,0.007470952985243181,17.003297998664085,0.01213654389626273,0.013978905354936918
258,0.25,0.001,0.01053658261727751,0.007447507431249271,17.31117797165774,0.012356301193188967,0.01197235107732316
259,0.25,0.001,0.010433381904711884,0.007313512846450793,17.483746389324747,0.012479476366398819,0.013040642874936262
260,0.25,0.001,0.01053811265469602,0.007524935042046094,16.88584803463368,0.012052710945491561,0.01892268331721425
261,0.25,0.001,0.010495512819524561,0.00732819771059276,17.749634239111053,0.012669260698865849,0.01671430127074321
262,0.25,0.001,0.010545037812396381,0.007463366588514843,17.26968741684817,0.012326686236151442,0.018698154172549646
263,0.25,0.001,0.010544615127983388,0.007484149726714646,17.15084853868806,0.012241861911982913,0.019690562815715868
264,0.25,0.001,0.010429352061467225,0.00734816144712353,17.26699319046535,0.01232476316235928,0.016151920271416504
265,0.25,0.001,0.010488677916399548,0.00741690429178684,17.21421985411912,0.012287094828065039,0.015992888637507956
266,0.25,0.001,0.010394972853697417,0.007348659301825454,17.07154083251953,0.012185253984667759,0.010495908092707396
267,0.25,0.001,0.010390532652983505,0.007384455192499281,16.84605774182952,0.012024309594453619,0.013268829012910524
268,0.25,0.001,0.010399259480365207,0.007235447965101914,17.730000056577534,0.012655246293060338,0.01477190169195334
269,0.25,0.001,0.010495128423980113,0.007480888344933477,16.891800848285804,0.012056959920261102,0.01619275597234567
270,0.25,0.001,0.010438218022162995,0.0073480951976491495,17.31704812639215,0.012360491168017239,0.018084666691720486
271,0.25,0.001,0.010457928700560934,0.0074439345534597886,16.89042117086689,0.012055975139805062,0.014226990131040415
272,0.25,0.001,0.010484512539559536,0.0073557598830273985,17.533528874429425,0.012515009903232994,0.018313462225099403
273,0.25,0.001,0.010468404164558716,0.007393767727601729,17.230261599079945,0.01229854503860096,0.015419047325849533
274,0.25,0.001,0.010384988228089354,0.0073088653950711315,17.238592190688916,0.012304491213910718,0.012331440423925718
275,0.25,0.001,0.010382406193804875,0.0072925827005522305,17.31537030252178,0.012359293577817117,0.01758869457989931
276,0.25,0.001,0.010373077428575312,0.007348961547393812,16.947145847792036,0.012096463845675972,0.012167176386962334
277,0.25,0.001,0.01041590537499176,0.007316773616070493,17.367535816149765,0.012396528062919175,0.015772081445902586
278,0.25,0.001,0.010456560001698104,0.00737337718895647,17.278156859151434,0.012332731519736927,0.01409665293370684
279,0.25,0.001,0.010313959405077308,0.007325860540895315,16.745306175746276,0.011952395557277855,0.012584564431260029
280,0.25,0.001,0.010497645412184549,0.007411546649390392,17.29449640766958,0.012344394295267366,0.013942686220010122
281,0.25,0.001,0.01039423823900772,0.007253282876120189,17.601911994848358,0.01256382012480254,0.014897705210993687
282,0.25,0.001,0.010492523734489183,0.007504839376870836,16.742982757225466,0.011950737157191624,0.013960609212517738
283,0.25,0.001,0.010374804728486564,0.0072157988534047365,17.70306889394696,0.012636023478905752,0.01270499670257171
284,0.25,0.001,0.010341209778038974,0.0072642331315058,17.243376463986515,0.012307906112766963,0.013319408365835747
285,0.25,0.001,0.010426417652391986,0.007443720391124822,16.715035052781694,0.011930788760015484,0.01851191868384679
286,0.25,0.001,0.010476211378915926,0.0073418365896083,17.565035466397745,0.012537498548463772,0.023143431016554434
287,0.25,0.001,0.01041590887006749,0.007336246038085959,17.258430330940847,0.012318651199815022,0.018902651499956846
288,0.25,0.001,0.010456346686971322,0.007448731722791543,16.85467566800921,0.01203046086224783,0.02986914354066054
289,0.25,0.001,0.010471949489850007,0.007377331694483422,17.34223916557398,0.012378471924035673,0.025393849704414606
290,0.25,0.001,0.010299222606621432,0.007238727968102426,17.151011756296906,0.01224197841277438,0.014903553916762272
291,0.25,0.001,0.010348986373858506,0.007347441874863057,16.82065445117736,0.01200617733845636,0.01391249243170023
292,0.25,0.001,0.010319108562020774,0.0072379003414947,17.26709082957064,0.012324832854797031,0.010522956028580666
293,0.25,0.001,0.010361300383725862,0.0072709125403858975,17.318533543790323,0.012361551423119432,0.01094526230978469
294,0.25,0.001,0.010297842208672775,0.007210892122866732,17.299269301168035,0.012347801071497527,0.01247431617230177
295,0.25,0.001,0.010286378245172876,0.007314878406024046,16.65228515796447,0.011885999398975354,0.013059462575862804
296,0.25,0.001,0.010403895959927795,0.0073392326640111675,17.174373262383966,0.012258653292208398,0.015950908418744802
297,0.25,0.001,0.010320475115702393,0.007172171486897415,17.643093452024996,0.01259321445540685,0.011446621424208084
298,0.25,0.001,0.010345492156201534,0.007292034564895577,17.111576316061985,0.012213830346939318,0.01278373117869099
299,0.25,0.001,0.010264510623692127,0.007224467164428716,17.036404727550035,0.01216017468062101,0.021371046391626198
300,0.25,0.001,0.010273177323214124,0.0073362288190826274,16.458659804269168,0.011747794292840234,0.022139656202246744
301,0.25,0.001,0.010371390447606531,0.007399898189842031,16.65224124608415,0.011885968055734582,0.023621710017323494
302,0.25,0.001,0.010416860671274447,0.007335556974488028,17.267625401529035,0.01232521441936405,0.02427413733676076
303,0.25,0.001,0.010372372794101078,0.007299709233214681,17.219206584973282,0.012290654236240744,0.02608503680676222
304,0.25,0.001,0.010391179241993453,0.007278268481866362,17.444751568054883,0.01245164280375081,0.02418361014376084
305,0.25,0.001,0.010323669426561741,0.007348269485774335,16.67414097303755,0.011901599552489327,0.013670419808477163
306,0.25,0.001,0.010287059889583106,0.007209689994708875,17.24558071607954,0.012309479454732007,0.011220879076669613
307,0.25,0.001,0.010432632451646783,0.007291313998526737,17.603947650180775,0.012565273126467363,0.015951641990492742
308,0.25,0.001,0.01037451649984617,0.007227077065140344,17.638249643732994,0.012589757061907918,0.018137368373572826
309,0.25,0.001,0.01021070322126485,0.0071496464092326295,17.15416201045004,0.012244226988187038,0.01459873483205835
310,0.25,0.001,0.01025217350865348,0.007308048865852061,16.49887539295668,0.011776499209819187,0.014813785751660665
311,0.25,0.001,0.010200324855493695,0.0071190157225041574,17.267656819204266,0.01232523684454266,0.013355897118647894
312,0.25,0.001,0.010276647483448633,0.0071593592770062804,17.469283607568634,0.01246915318170495,0.013897012608746687
313,0.25,0.001,0.010367191365260757,0.007341748893553956,16.95457949263326,0.012101769802022313,0.017224678304046392
314,0.25,0.001,0.010322912648487627,0.0072026723692340125,17.485826620894873,0.01248096118550669,0.01644018990918994
315,0.25,0.001,0.01027903567706601,0.0071889801850814495,17.31667124287466,0.012360222157655002,0.018717549586047728
316,0.25,0.001,0.010299178384495586,0.007230569723616825,17.196483354889946,0.012274434942819375,0.025443466069797676
317,0.25,0.001,0.01029633278592249,0.007197647726979483,17.365031681703716,0.012394740672165392,0.018588115150729816
318,0.25,0.001,0.010258362094840308,0.007249824870168493,16.859842407569456,0.012034148756295115,0.015264373117436966
319,0.25,0.001,0.01019735692927007,0.007194595976491992,16.827472343873442,0.012011043785776904,0.016437171182284754
320,0.25,0.001,0.010299596516938691,0.00722102572346169,17.252311492234135,0.012314283720366977,0.016561289473126333
321,0.25,0.001,0.010195560366166442,0.00715274792792422,17.05192231596186,0.01217125076085786,0.011768966913223267
322,0.25,0.001,0.010282796535515384,0.007267411269791676,16.89821903357345,0.012061541066076696,0.014725349843502045
323,0.25,0.001,0.0102493292809035,0.007149654492903291,17.370578755153698,0.01239870003936738,0.011961691391964754
324,0.25,0.001,0.010306792898794239,0.007241921572621619,17.175538780983914,0.012259485211266177,0.012104511260986328
325,0.25,0.001,0.010329840150190873,0.007212970353495539,17.466938104522363,0.012467479018217247,0.016648882534354925
326,0.25,0.001,0.010218092449679134,0.007124176013461324,17.338308612952073,0.012375666390401194,0.011944370421891412
327,0.25,0.001,0.010266434547773907,0.007234538737893774,16.990745780173313,0.012127584425534127,0.014895088970661163
328,0.25,0.001,0.0101729439822643,0.0070718726655991555,17.378403267163907,0.012404284987269027,0.011165776678050557
329,0.25,0.001,0.010204187698997138,0.007081531778270944,17.499363867084632,0.012490623745242421,0.011264330707490444
330,0.25,0.001,0.010268672693813785,0.007255576755014363,16.885389724474276,0.0120523838147568,0.013961999056239923
331,0.25,0.001,0.010194107555271534,0.007143237219935053,17.097078687689276,0.012203482289571218,0.014131154865026474
332,0.25,0.001,0.010150988481603982,0.0070783114374688505,17.219282321715625,0.012290708295300231,0.01282929473867019
333,0.25,0.001,0.010222430142124048,0.007215874520747849,16.84873750236597,0.01202622234287364,0.013112325997402271
334,0.25,0.001,0.010314372326299715,0.00726721202431435,17.07628631591797,0.012188641196229814,0.023277059352646273
335,0.25,0.001,0.010183483152911904,0.0070587563422623645,17.510969697759393,0.012498907707180151,0.021845759668697912
336,0.25,0.001,0.010293364074876469,0.007271598752462462,16.933972969483793,0.012087061362943465,0.01783693286900719
337,0.25,0.001,0.010205608279852386,0.007136278670657886,17.200522347782435,0.012277317878502808,0.015051953339328369
338,0.25,0.001,0.01027186673260137,0.007183822614841916,17.305400055445983,0.01235217705599285,0.021816075934718054
339,0.25,0.001,0.010248221561647532,0.007180902238391088,17.189258296837966,0.01226927787069091,0.0239225624439617
340,0.25,0.001,0.010181677559118592,0.007146970384618204,17.00649953692147,0.012138829077031742,0.022087045945227146
341,0.25,0.001,0.010196464429243227,0.007221971884411708,16.669057160281064,0.011897970849593906,0.025659222931911547
342,0.25,0.001,0.010258411580508345,0.007194743334744754,17.168797482265514,0.012254673434879026,0.023549714280913275
343,0.25,0.001,0.010192679565692886,0.007158202527279264,17.005209483457417,0.012137908267992445,0.01819989279222985
344,0.25,0.001,0.010155369998531396,0.007106282382031505,17.087086902575546,0.012196350394415094,0.011825087325026592
345,0.25,0.001,0.01030088114562664,0.007174105027669601,17.522453200951052,0.012507104354711671,0.01736126731460293
346,0.25,0.001,0.010135753729035345,0.007045942562726441,17.31530206658867,0.012359244872654298,0.012610727921128273
347,0.25,0.001,0.010279073369469536,0.00719774876501453,17.26774372143692,0.012325298873259756,0.018510668072849512
348,0.25,0.001,0.010307281204823698,0.007224071917406628,17.27830396073588,0.012332836517298986,0.021757630320886772
349,0.25,0.001,0.010358895091444588,0.007302762270810899,17.126568954982115,0.01222453173089373,0.024662166212995846
350,0.25,0.001,0.01032883876913719,0.007237703262127183,17.322722917192436,0.01236454169678261,0.021983228934307892
351,0.25,0.001,0.010175721510575058,0.007181111702255988,16.781794280148624,0.011978439885901944,0.01436073441679279
352,0.25,0.001,0.010164680221023854,0.007134253834112642,16.982509977362128,0.01212170590818139,0.013750590228786072
353,0.25,0.001,0.010241279043675808,0.0072202122341213605,16.930057525634766,0.012084266613586556,0.016529764669636886
354,0.25,0.001,0.010328472905865546,0.0071914652519430335,17.57979052254323,0.012548030351565475,0.02305644191801548
355,0.25,0.001,0.010251486129807622,0.007167537890249089,17.282446764828116,0.012335793550912287,0.01685520090783636
356,0.25,0.001,0.010242316871881485,0.007205073889135645,17.020709777146244,0.012148972003673266,0.014983263953278462
357,0.25,0.001,0.01016731287112062,0.007158461283222678,16.861603811885534,0.012035406004200952,0.014407418357829252
358,0.25,0.001,0.010200492179628168,0.007035346304097872,17.73747761329908,0.012660583592647453,0.012396897034098705
359,0.25,0.001,0.010120299738946925,0.007073579063073972,17.073821174964475,0.012186881638090275,0.012018381773183743
360,0.25,0.001,0.010057886497358257,0.007079554114783748,16.690576403328542,0.01191333076611602,0.011059025069698691
361,0.25,0.001,0.01017192659083377,0.007140359234357818,16.988903281394016,0.0121262692943569,0.011565650968501965
362,0.25,0.001,0.01017458453314023,0.007084807349641001,17.315111781773943,0.012359109051944286,0.015903851948678493
363,0.25,0.001,0.01016517003391231,0.007074985606072659,17.31739374225059,0.012360737860278794,0.01730000243211786
364,0.25,0.001,0.01013062425543753,0.0071001619602857014,16.982710656155362,0.012121849147862499,0.016074490267783403
365,0.25,0.001,0.010092353804057904,0.007019673154971907,17.2193030239491,0.012290723072055032,0.018715539947152138
366,0.25,0.001,0.01009191076658415,0.007007873229933589,17.282947679583945,0.012336151091780118,0.0222124089486897
367,0.25,0.001,0.010135569253915481,0.007158131364816695,16.68556170517139,0.011909751395554169,0.026437798359741766
368,0.25,0.001,0.010123739301572355,0.0070659264325677006,17.135984270760183,0.01223125215614574,0.021720997989177704
369,0.25,0.001,0.010144092037938954,0.007020123041329089,17.506722375248255,0.01249587607084101,0.016164140154918034
370,0.25,0.001,0.010161167648987154,0.007141054000998481,16.924717570958514,0.01208045508276839,0.016640448632339638
371,0.25,0.001,0.010198965626821089,0.00706891885048218,17.540783035621214,0.012520187748480524,0.016979545975724857
372,0.25,0.001,0.010097813279776092,0.007051357947122515,17.07233555397291,0.012185821237668029,0.012802952667698264
373,0.25,0.001,0.010132307385544428,0.007039919893225927,17.329738981268378,0.012369549594053088,0.011035266797989607
374,0.25,0.001,0.010164803521854154,0.007141108143279392,16.944788236296578,0.012094781039469362,0.014218706171959639
375,0.25,0.001,0.010103222307110771,0.007064712584395422,17.027808221538415,0.012154038702025992,0.011630525502065817
376,0.25,0.001,0.010097874652887329,0.0070465052123652415,17.099874217858474,0.01220547767156208,0.01475561053181688
377,0.25,0.001,0.010143118596562509,0.007165338739417912,16.687478161929697,0.01191111931615253,0.01381722434113423
378,0.25,0.001,0.010127557598556696,0.0070098959683869665,17.471376590514453,0.012470647102437154,0.015376511340339979
379,0.25,0.001,0.010113409542468157,0.007084670717294296,16.97305160693908,0.012114954751562513,0.012816906906664371
380,0.25,0.001,0.010079340360472712,0.007070157990864153,16.863458119081645,0.012036729563941218,0.012814806929479042
381,0.25,0.001,0.010084218220010903,0.007060835718731867,16.943034611391216,0.012093529344319212,0.01385154559587439
382,0.25,0.001,0.010153088059401913,0.007133259103120713,16.923122148835258,0.012079316308947366,0.020539237186312675
383,0.25,0.001,0.010135955480712184,0.007113064325341348,16.94028147150961,0.012091564219492942,0.01494458100448052
384,0.25,0.001,0.010125196580722761,0.0070659972811013124,17.143752751725444,0.012236797110439289,0.017701960168778896
385,0.25,0.001,0.010176617306855958,0.00712340430283312,17.110206625434788,0.012212852694814267,0.02011609636247158
386,0.25,0.001,0.010073786758388697,0.007030041051212322,17.057152651668936,0.012174984048300454,0.014048807322978973
387,0.25,0.001,0.010132113618127415,0.007067505730671829,17.17406337180834,0.01225843209979182,0.014595325415333113
388,0.25,0.001,0.010078660861243692,0.007010049626147479,17.196498913711377,0.012274446048330747,0.012552023399621248
389,0.25,0.001,0.010064460075554553,0.0070108157174473395,17.11262321472168,0.012214577597945524,0.01257999629403154
390,0.25,0.001,0.009979204253785396,0.00699727756253789,16.7107170190704,0.011927706651727625,0.011419353075325489
391,0.25,0.001,0.01010256206219116,0.007036239175607314,17.183674673016153,0.012265292414715313,0.016526556108146906
392,0.25,0.001,0.010123926005587819,0.0070393694606557325,17.285854811079048,0.01233822613210496,0.01932387410973509
393,0.25,0.001,0.010129780330684748,0.007082119155047315,17.079092368650972,0.012190644088972857,0.019276416394859552
394,0.25,0.001,0.010072056308723567,0.00702822914744696,17.05760713641563,0.012175308448547915,0.01841218862682581
395,0.25,0.001,0.010029969234647376,0.007047075809638822,16.716132817643413,0.011931572318089516,0.01660013571381569
396,0.25,0.001,0.009987071334394845,0.006874627454645848,17.442135307226287,0.012449775379890284,0.012787128643443188
397,0.25,0.001,0.010106330413078323,0.006979084390560898,17.525085834974654,0.012508983465363778,0.011656781192868948
398,0.25,0.001,0.009958122417414457,0.006911070619741183,17.075678536061492,0.012188207377631328,0.014734423719346523
399,0.25,0.001,0.009985069315252679,0.006994450872952349,16.75942558117127,0.011962473648230743,0.013861448814471563
400,0.25,0.001,0.010077643762813525,0.007005789620655306,17.214670631322967,0.012287416581957865,0.012837328016757965
401,0.25,0.001,0.01002328766488962,0.0069385768500355525,17.28672024373258,0.012338843857053949,0.013074704601118961
402,0.25,0.001,0.009996390786398662,0.007020075020662854,16.679274505443786,0.011905263744071224,0.0146590539564689
403,0.25,0.001,0.010140905533446355,0.007058918345301004,17.271456043371995,0.012327948639094928,0.01433854674299558
404,0.25,0.001,0.009942375929251816,0.006828269476510501,17.45145356253292,0.012456426525719428,0.01474901381880045
405,0.25,0.001,0.010127040212241452,0.007126451490886426,16.81529865907819,0.012002354503267802,0.017654963458577793
406,0.25,0.001,0.010039805602073,0.006956548743954535,17.27857122528419,0.012333027284285645,0.018040788049499195
407,0.25,0.001,0.009997116087862615,0.006898358024740487,17.365440818700897,0.012395032704283295,0.01791123254224658
408,0.25,0.001,0.01005451384345802,0.007023135901250866,16.98784108108349,0.012125511121401493,0.015127919459094604
409,0.25,0.001,0.00996925543700711,0.006925082346947675,17.05954660994283,0.012176692797960622,0.010243766009807587
410,0.25,0.001,0.010064509069400557,0.0070583424949495314,16.84655656707421,0.012024665643878808,0.01446450330937902
411,0.25,0.001,0.01001158140055584,0.006881747509907471,17.539588606759402,0.012519335193975304,0.012474450593193373
412,0.25,0.001,0.00998122106944577,0.006967468616249186,16.889069225011248,0.01205501015346984,0.011125929187983274
413,0.25,0.001,0.010054083174785202,0.00703038147577409,16.94482451878237,0.012094806937032384,0.015292749895403782
414,0.25,0.001,0.010042858561186979,0.006940278465325913,17.38686051529445,0.012410321566948216,0.014912791394939026
415,0.25,0.001,0.010043503528230645,0.006998464109355144,17.06440098366041,0.012180157732805431,0.014379099477082491
416,0.25,0.001,0.00994037894343727,0.006911481751568532,16.973940602849037,0.012115589295395458,0.014053418301045895
417,0.25,0.001,0.010009344133517046,0.007044054154474079,16.61748609650001,0.011861160668451113,0.014439568389207125
418,0.25,0.001,0.010000126101495175,0.006939831838597742,17.149889378065474,0.01224117728627086,0.017727279104292393
419,0.25,0.001,0.010008833255995525,0.007033019504520331,16.67645969819487,0.01190325460256593,0.016051296299944322
420,0.25,0.001,0.010083560695808924,0.007005854541163766,17.24746639808912,0.012310825409057188,0.013079467539985975
421,0.25,0.001,0.010038941512616832,0.006944997947704926,17.338460107867636,0.012375774523817013,0.01223319893081983
422,0.25,0.001,0.01006991079265482,0.007002379499333963,17.190445032012597,0.012270124933627835,0.0173960003691415
423,0.25,0.001,0.009997288340681724,0.006917914208234026,17.256813092178174,0.012317496853803123,0.013268199283629656
424,0.25,0.001,0.010015243978312846,0.006963614641238799,17.10132995348298,0.012206516740530322,0.014062700017044941
425,0.25,0.001,0.009975063059939428,0.006891388017056363,17.280914606672994,0.012334699933385434,0.014029703413446745
426,0.25,0.001,0.00991875906422567,0.006872638981538207,17.070456236935733,0.01218447982650659,0.013489555101841688
427,0.25,0.001,0.010015198688828544,0.006938802957367362,17.240122591511586,0.012305583577096064,0.016062470929076273
428,0.25,0.001,0.009932231053375127,0.0068470809106411555,17.289182352216056,0.012340601250689547,0.013405107737829288
429,0.25,0.001,0.01007394805508718,0.007034953683614731,17.030524886056277,0.012155977791617614,0.013188842994471392
430,0.25,0.001,0.010051360123612907,0.006972715488812896,17.252724893977135,0.012314578796557556,0.014198819175362587
431,0.25,0.001,0.010010959392183282,0.006935291123063712,17.2360445944111,0.012302672801149965,0.012846622771273056
432,0.25,0.001,0.009984425488817558,0.006943605997170625,17.04075221801072,0.012163277814425924,0.01668476654837529
433,0.25,0.001,0.010020183169105079,0.0069615685673995635,17.140475776758088,0.012234458084766657,0.015937879371146362
434,0.25,0.001,0.010027611397960212,0.0069271428824475645,17.375026188539653,0.012401874510021166,0.014865245204418898
435,0.25,0.001,0.009973867116182039,0.006992668112258563,16.70664028639204,0.011924796778295532,0.018440916668623686
436,0.25,0.001,0.010021921613494331,0.006993729019474783,16.96999168395996,0.01211277065236257,0.019928504712879658
437,0.25,0.001,0.00994921580291866,0.006868128847916809,17.266410977652903,0.012324347592900003,0.020852283264199894
438,0.25,0.001,0.009994205631566852,0.007010922484685865,16.71831964642814,0.011933133223717444,0.02108535449951887
439,0.25,0.001,0.009992709383368492,0.007050025093714508,16.490802357705793,0.01177073687202412,0.019802323697755735
440,0.25,0.001,0.009943870764769864,0.006865906220431743,17.24891446145733,0.012311859001753982,0.019935472247501213
441,0.25,0.001,0.00994914166336314,0.006912179966195581,17.019133171338712,0.012147846660484449,0.014342522869507471
442,0.25,0.001,0.009946882567797483,0.006899544854093803,17.077281073238073,0.012189351230005762,0.013188141708572706
443,0.25,0.001,0.010031326286745875,0.0069392577881056275,17.327952117062686,0.012368274173492282,0.013791726902127266
444,0.25,0.001,0.00997238297517715,0.006958283960107672,16.891010563025315,0.012056395833708291,0.012522302102297544
445,0.25,0.001,0.009911443169615912,0.006846259091719148,17.17729249161281,0.012260736967603719,0.012122051790356636
446,0.25,0.001,0.009912023823080438,0.0068000877652777715,17.43929001454557,0.01244774447861925,0.011093334139635166
447,0.25,0.001,0.009987361017572745,0.0068995170295238495,17.304277720076314,0.012351375960083023,0.013165794933835665
448,0.25,0.001,0.010015768438493937,0.007039903176508927,16.676748907967898,0.011903461033524552,0.016313406483580668
449,0.25,0.001,0.009937611607353338,0.006821568804175666,17.462303868840248,0.012464171212591184,0.01411845488473773
450,0.25,0.001,0.00984577587648724,0.00678068520815185,17.176769631632258,0.012260363762763925,0.01585369013870756
451,0.25,0.001,0.009999170763355292,0.00698294590509842,16.90292366970791,0.012064899121847187,0.016568440323074658
452,0.25,0.001,0.00996825329205963,0.006871064251100414,17.356648498706605,0.01238875695839158,0.015384027579178413
453,0.25,0.001,0.009878688690702566,0.00684960318854853,16.97499461656206,0.012116341624955075,0.010030921548604965
454,0.25,0.001,0.009915731679857447,0.006838835079976347,17.242927251237163,0.012307585475544013,0.013458089592556158
455,0.25,0.001,0.00994379682403602,0.0069152605144327944,16.971917013104044,0.012114144905855849,0.01665169574941198
456,0.25,0.001,0.009950922812554943,0.006877703100359172,17.222324092736404,0.012292879438070238,0.01588770793750882
457,0.25,0.001,0.010027179766571923,0.006958810884631082,17.195137924022887,0.01227347460672583,0.01866145757958293
458,0.25,0.001,0.009886434322662568,0.0067878837875101,17.36427733603488,0.01239420223842604,0.01580034599949916
459,0.25,0.001,0.009916291603546463,0.0068888322063041536,16.96588299783428,0.012109837971330679,0.012682292455186447
460,0.25,0.001,0.009984944193634424,0.006880151971211929,17.399256352628214,0.012419169416579738,0.018930887958655756
461,0.25,0.001,0.010029713508118404,0.006940409169647466,17.312462110197945,0.01235721778029832,0.016743233893066645
462,0.25,0.001,0.009939584933388769,0.00682894577366415,17.432022673360418,0.012442557225810435,0.015042044843236605
463,0.25,0.001,0.009959856215655134,0.006859458669015531,17.37462740265921,0.012401589866280665,0.016593856116135914
464,0.25,0.001,0.009946152128362924,0.006938249940115414,16.856283262874303,0.012031608324678304,0.014137941257407268
465,0.25,0.001,0.009894564287381226,0.006803789850994108,17.320699284585675,0.012363097276649304,0.011054922671367725
466,0.25,0.001,0.00996269221846642,0.0069340607046746135,16.972451027859464,0.012114526072704827,0.015795583526293438
467,0.25,0.001,0.009959746905592051,0.006921739767441589,17.024991581948957,0.012152028252640225,0.014086094840119282
468,0.25,0.001,0.009955569170415401,0.006882594291413768,17.22095275193118,0.012291900608087922,0.0161940084459881
469,0.25,0.001,0.009834939948795886,0.006776023525326105,17.14216795932041,0.012235665923854683,0.019869954325258732
470,0.25,0.001,0.010008316215002136,0.007019310315882557,16.750389409868905,0.01195602384715839,0.016303112264722586
471,0.25,0.001,0.010006489158932413,0.006919866532422184,17.297434217474432,0.012346491233029574,0.021492929197847843
472,0.25,0.001,0.009906707572217068,0.006865560841024592,17.042586465899863,0.012164587056316819,0.014866480914254984
473,0.25,0.001,0.009944509348591393,0.006969726377616773,16.670683464307462,0.01189913166617235,0.017045236347864073
474,0.25,0.001,0.009865620592085834,0.0068241834818396005,17.04421371288514,0.012165748545956558,0.013229829724878073
475,0.25,0.001,0.009898325700438424,0.006835940205021186,17.161609478211133,0.012249542811000096,0.011232108809053898
476,0.25,0.001,0.009937328715505225,0.006852927272406857,17.284987353207022,0.01233760696160387,0.014522284579773745
477,0.25,0.001,0.009837037475591295,0.006828638023874733,16.85907074574674,0.012033597962702884,0.0141732442813615
478,0.25,0.001,0.0098852196478107,0.006822706524575694,17.162324648224907,0.012250053282102004,0.01283558520178
479,0.25,0.001,0.009858927093027683,0.006809474607364515,17.089130680212815,0.012197809193585164,0.012654535161952177
480,0.25,0.001,0.009888993094811279,0.006877401686702552,16.87695793623335,0.012046365407732584,0.011124557194610437
481,0.25,0.001,0.009896916808204705,0.006834391221990076,17.162392755572714,0.012250101895483737,0.014851149637252092
482,0.25,0.001,0.009856128447762366,0.006822075998264082,17.002829101648224,0.012136209208885243,0.015707381069660187
483,0.25,0.001,0.009950548389487052,0.006941464588339074,16.862906466709095,0.012036335807786649,0.011821347754448652
484,0.25,0.001,0.009842062954989713,0.006682222866024194,17.70774457695779,0.01263936086863511,0.014365145936608315
485,0.25,0.001,0.00984791816955202,0.006755958002562938,17.32734519444155,0.0123678409667677,0.012064201446870962
486,0.25,0.001,0.009853747223367851,0.006880620609592186,16.661401984396946,0.011892506769733724,0.015048439614474773
487,0.25,0.001,0.009852872387077032,0.006762128752352816,17.320527773224907,0.012362974855977807,0.014595074113458395
488,0.25,0.001,0.0098662744747119,0.006729228427277857,17.580006567279945,0.012548184559086328,0.012502466328442097
489,0.25,0.001,0.009816398488336734,0.006783662698744388,16.99545052346219,0.012130942557788857,0.01138439184675614
490,0.25,0.001,0.009869953094238645,0.006885235830932186,16.726355156201993,0.01193886877673233,0.014506312552839518
491,0.25,0.001,0.009911825315336163,0.006838372814353932,17.22362805484386,0.012293810174763642,0.01584973419085145
492,0.25,0.001,0.009866424951325642,0.006713506305234485,17.668956670868262,0.012611674997050865,0.012375441690286001
493,0.25,0.001,0.00984012477853325,0.006789389940167076,17.096317655584784,0.012202939083215406,0.013849313060442606
494,0.25,0.001,0.010022737064890647,0.0069424904610836105,17.261702269650577,0.012320986630728463,0.01591500515739123
495,0.25,0.001,0.009876939164621106,0.0067557559788143364,17.491110748119567,0.012484732868036807,0.015646088868379593
496,0.25,0.001,0.009912189776391795,0.006921532584793782,16.75964282603746,0.011962628712375061,0.01714041627322634
497,0.25,0.001,0.009881883754991414,0.006822195913893788,17.14649028992385,0.012238751099160493,0.01715647118786971
498,0.25,0.001,0.009852687242242057,0.006905363108753488,16.516804577259535,0.011789296629021796,0.01749224852149685
499,0.25,0.001,0.00984793369857113,0.006815458213638389,16.993992473302264,0.012129901836761074,0.01221195717031757
500,0.25,0.001,0.009854755971287743,0.006801780689968152,17.108871609977122,0.012211899792988666,0.012100791869064173
