epoch,beta,learning_rate,train_loss,train_reconstruction_loss,train_kl_unnormalized,train_kl_normalized,mean_unclipped_gradient_norm
1,0.0,0.001,0.08177537339353802,0.08177537339353802,71.63349053113147,0.05113025733842361,0.1360126371894564
2,0.02,0.001,0.05772973457821692,0.048944757065989754,615.3877033272175,0.43924889602228234,0.14513441920280457
3,0.04,0.001,0.04301051370272733,0.035908485000783745,248.74859688498756,0.17755074724124736,0.10152271177087512
4,0.06,0.001,0.03609581555079932,0.03165977668355812,103.58152085121232,0.07393399061471258,0.07860623619386128
5,0.08,0.001,0.034278771416707474,0.03090244292686082,59.127947720614344,0.04220410258430717,0.05702836385795048
6,0.1,0.001,0.03241127434026713,0.029739004211744878,37.43850511493105,0.02672270172371952,0.0370403275425945
7,0.12,0.001,0.03129343244463506,0.029232514326018515,24.06122107457633,0.01717431911104663,0.024143206354762827
8,0.14,0.001,0.030421590075047328,0.028354169349327232,20.688972588741418,0.014767289499458542,0.03784496882664306
9,0.16,0.001,0.029447238704170844,0.02740118976193245,17.91571582447399,0.012787805727675938,0.05473611916282347
10,0.18,0.001,0.02774098532443697,0.02521403188431504,19.668120374583236,0.014038629817689675,0.03500693530908653
11,0.2,0.001,0.026088684947803767,0.022957352545074743,21.93498384109651,0.015656662270589945,0.021068222022482326
12,0.22,0.001,0.0252121106128801,0.02182541157335344,21.567115687360666,0.01539408685750226,0.024458019861153195
13,0.24,0.001,0.024843917482278564,0.021485972961392066,19.602002904872702,0.013991436762935548,0.04793060743915183
14,0.25,0.001,0.024029823471650932,0.020498646648995804,19.788715690073342,0.014124707844449209,0.04282612034252712
15,0.25,0.001,0.023247176122785818,0.020135833458466965,17.435965489859534,0.012445371513104592,0.07102641237101384
16,0.25,0.001,0.022441853082390748,0.018925074798365433,19.708027772229126,0.01406711475533842,0.05744001881352493
17,0.25,0.001,0.022399561197468727,0.01876859348079171,20.347943045876242,0.014523870839312093,0.1034059322306088
18,0.25,0.001,0.021405951637360785,0.017834411689428366,20.014909397472035,0.014286159455725936,0.052707201934286525
19,0.25,0.001,0.02121733281422745,0.017725803654151735,19.566531094637785,0.01396611784056944,0.08407009579241276
20,0.25,0.001,0.02073551785915789,0.017292239881976687,19.296131789082228,0.013773113339816009,0.07917757651635579
21,0.25,0.001,0.02009609132779367,0.01693561701386264,17.71129770953246,0.012641897008945368,0.07205127073185784
22,0.25,0.001,0.01968284812991065,0.01633880562101952,18.740014008801392,0.013376169884940323,0.05057640187442303
23,0.25,0.001,0.019581952480354693,0.016251379511121548,18.664529858213484,0.013322291119352951,0.045199926277356486
24,0.25,0.001,0.019292405401967992,0.01590744268638317,18.969332088123668,0.013539851597518679,0.04129851582859244
25,0.25,0.001,0.01896881741104704,0.015646123750643295,18.620376914438577,0.013290775813303766,0.03253901789763144
26,0.0,0.001,0.015165230137004394,0.015165230137004394,21.310858061819367,0.015211176346766143,0.027745666514549936
27,0.02,0.001,0.014479220440291395,0.013950267063472608,37.05318832397461,0.026447671894343047,0.035986985745174546
28,0.04,0.001,0.014577255255044108,0.013086132451214573,52.2265730193167,0.03727806782249586,0.02739685328145112
29,0.06,0.001,0.015111706097318668,0.012598829334507686,58.67566996873027,0.04188127763649555,0.02028851623513869
30,0.08,0.001,0.015366524015788478,0.012505273212387103,50.10765711466471,0.03576563676992485,0.01652893384120294
31,0.1,0.001,0.015516343517134887,0.012835787355222485,37.55459309587575,0.026805562523822806,0.014542120309280497
32,0.12,0.001,0.015734368483677055,0.013283042096053108,28.619237360328135,0.02042772117082665,0.023641910603536025
33,0.14,0.001,0.016166237493356068,0.013448356641362411,27.198221091068152,0.01941343404073387,0.032530284486711025
34,0.16,0.001,0.01634593078433865,0.013202921628500477,27.520974515664456,0.019643807648582767,0.028867809368031367
35,0.18,0.001,0.016473678363995117,0.013148787930005729,25.87873402990476,0.01847161600992488,0.020807291381061077
36,0.2,0.001,0.0168924027621144,0.01358013346113942,23.202448334356752,0.016561347847506604,0.02227740947689329
37,0.22,0.001,0.017088613105994282,0.013700470046112032,21.57631028300584,0.015400649738048422,0.027075085655919144
38,0.24,0.001,0.017054931138350507,0.013482882490739076,20.85183509672531,0.014883536828497723,0.019589573544050966
39,0.25,0.001,0.017167602562242083,0.013618053172272866,19.891674850926254,0.01419819760951196,0.01704292624656643
40,0.25,0.001,0.017164972940027112,0.013800753431037219,18.853086606420653,0.013456878377173914,0.04596096623156752
41,0.25,0.001,0.01712308316068216,0.013724473606080118,19.045809678357056,0.013594439456357642,0.027362475836915628
42,0.25,0.001,0.017025061121041126,0.013518468664977887,19.65094502766927,0.014026370469428458,0.0262817010017378
43,0.25,0.001,0.01686172496828467,0.01353092004328665,18.66583047731958,0.013323219469892634,0.024244213609823158
44,0.25,0.001,0.016661110117730468,0.01320897519701358,19.345765585851186,0.013808540746503345,0.01943422308457749
45,0.25,0.001,0.016707569793468775,0.013484723245104155,18.060832514907375,0.012891386520276498,0.022977454255201986
46,0.25,0.001,0.016463130317402607,0.013036327502417445,19.20380287941056,0.013707211191584983,0.017360969446599483
47,0.25,0.001,0.016675722192634235,0.013428968857183601,18.19480445168235,0.01298701245658983,0.028652803972363472
48,0.25,0.001,0.0165226569568569,0.013086546927389472,19.25595955896859,0.013744439371141035,0.02318830056382077
49,0.25,0.001,0.016556667069895097,0.01334140637908319,18.01832152857925,0.012861043203839578,0.029492134228348732
50,0.25,0.001,0.016293907519241774,0.012995313918876528,18.48531888711332,0.013194374651758259,0.02797886809068067
51,0.0,0.001,0.012497993261374608,0.012497993261374608,21.632359379469747,0.015440656230884902,0.01805848814547062
52,0.02,0.001,0.011896327025059498,0.011368609861367278,36.96658856940992,0.026385859078807937,0.010150271600910596
53,0.04,0.001,0.012214385810298751,0.010720346311126092,52.328729494653565,0.03735098465000254,0.008747632482222148
54,0.06,0.001,0.012855725193565542,0.010503204680527702,54.931355678673945,0.03920867643017412,0.012240661175123282
55,0.08,0.001,0.013168316814258244,0.010589215133075763,45.16651700723051,0.03223877016932941,0.013925940596631594
56,0.1,0.001,0.013358521115298222,0.01097047964882369,33.45645883348253,0.02388041315737511,0.014165910360004221
57,0.12,0.001,0.013663944026285952,0.011354846108441402,26.958721160888672,0.019242484768657152,0.017932927768145288
58,0.14,0.001,0.0140207102428181,0.011519100422961543,25.033967586478802,0.017868642103125484,0.021978641926710094
59,0.16,0.001,0.014211983956170805,0.011334155968418627,25.19898154518821,0.017986425085787447,0.012933810441089528
60,0.18,0.001,0.01445853633034711,0.011383900080214848,23.930916545367,0.017081310881775162,0.0170580173975655
61,0.2,0.001,0.014804345988339246,0.01173683466634365,21.48791615649907,0.0153375561431114,0.024785302712449005
62,0.22,0.001,0.015063583559234334,0.01180518695125074,20.750060881027068,0.014810892848698834,0.01592124586126634
63,0.24,0.001,0.015458368216500137,0.011976040927975468,20.32808654476898,0.01450969774787222,0.01766020551856075
64,0.25,0.001,0.015327404130889911,0.011784618315898408,19.853770169344816,0.014171142162273245,0.019432488695851395
65,0.25,0.001,0.015342723606436542,0.011970476811808167,18.89807015235978,0.013488986547009122,0.023973788933030198
66,0.25,0.001,0.015252940939983936,0.011962819910335421,18.43783943099205,0.013160484961450428,0.01754105051181146
67,0.25,0.001,0.015133489675895131,0.011871046104440184,18.28273323328808,0.013049773899563227,0.0175344016669052
68,0.25,0.001,0.0149910564750734,0.011884897966125999,17.406912832549125,0.012424634427229925,0.01860807623182024
69,0.25,0.001,0.015059710602567654,0.011963458609475631,17.351395944152216,0.012385007811671817,0.01946779979126794
70,0.25,0.001,0.014916251404116851,0.011631018792589506,18.410443777989858,0.013140930605274702,0.023662525495248183
71,0.25,0.001,0.014783169660303328,0.011746671530559208,17.0165357108068,0.012145992655822127,0.016902807700846876
72,0.25,0.001,0.014760074102216296,0.011766343368123275,16.776866421555027,0.011974922499325502,0.01934243685432843
73,0.25,0.001,0.014857197631940697,0.011807043058327351,17.09306597468829,0.012200618111840322,0.02269669089998518
74,0.25,0.001,0.014604674106595493,0.011450802502833833,17.67429715936834,0.0126154869088996,0.014838532677718572
75,0.25,0.001,0.014706318313726272,0.011679594724843598,16.961759952583698,0.012106895041101854,0.02168276160955429
76,0.0,0.001,0.01131156316459781,0.01131156316459781,20.14079485035906,0.014376013454931521,0.028259911574423313
77,0.02,0.001,0.010813574156150071,0.010306822173673697,35.49796919389205,0.025337593999922945,0.017711276188492775
78,0.04,0.001,0.011210790223846532,0.009823110170963437,48.60350337172999,0.03469200811686652,0.02560162278158324
79,0.06,0.001,0.01167064563681682,0.009583505209196697,48.7347289191352,0.03478567374670607,0.015324236625539405
80,0.08,0.001,0.011884366641893532,0.009678597816012123,38.628529365616615,0.027572112323780595,0.011937909560011966
81,0.1,0.001,0.012101254614088872,0.010059896339144971,28.59942962184097,0.02041358288496857,0.012115318195096083
82,0.12,0.001,0.012324682069998798,0.010259804061867973,24.10744919439759,0.017207315627692784,0.01719791455460446
83,0.14,0.001,0.012670838631539031,0.010298145840866397,23.743877025565716,0.016947806584986236,0.016397085706038133
84,0.16,0.001,0.012949012887824064,0.010375807438083369,22.531630101830068,0.016082533977037877,0.011910725384950638
85,0.18,0.001,0.013168561385210716,0.010460862278411484,21.074923929542003,0.015042772255204855,0.01266940071114472
86,0.2,0.001,0.013533777218650688,0.010654270517254117,20.17094508084384,0.014397533962058414,0.01829217281192541
87,0.22,0.001,0.013685876390699184,0.010724792764945463,18.856719546847874,0.013459471482403907,0.012905636868838753
88,0.24,0.001,0.014160786858863302,0.010964617133140564,18.65764047641947,0.013317373644839023,0.024538756614284857
89,0.25,0.001,0.0141239482815368,0.01089194223209463,18.112162040941644,0.012928024297602887,0.017520697521311895
90,0.25,0.001,0.014141687398983372,0.010967695078991278,17.787052347202494,0.01269596884168629,0.016812972059207305
91,0.25,0.001,0.013883018762701087,0.010808586199401003,17.229119156346176,0.01229772959053974,0.008675107399799995
92,0.25,0.001,0.013911012371983191,0.010859269742863347,17.10196500835997,0.01220697002738042,0.01586342097393104
93,0.25,0.001,0.013978794405255655,0.010815190311257888,17.728836984345406,0.01265441612016089,0.013924186517085348
94,0.25,0.001,0.014004566161093688,0.010927773043137006,17.24234858426181,0.012307172437017708,0.014717378387493747
95,0.25,0.001,0.013946483636067973,0.01095086263699664,16.787460596874507,0.01198248436607745,0.018630764979336942
96,0.25,0.001,0.013753652045823107,0.010843159358082997,16.310400808700408,0.011641970598644117,0.018533272801765373
97,0.25,0.001,0.013879452258197948,0.010926252569664608,16.549730955952345,0.011812798683763273,0.016924561134406498
98,0.25,0.001,0.013710105810502563,0.010713183518612024,16.794752718222263,0.011987689306368496,0.01578589595322098
99,0.25,0.001,0.013893890599108706,0.010898715242592975,16.784963260997426,0.011980701827978177,0.020097420417836735
100,0.25,0.001,0.013931293040513992,0.010983995632315524,16.516655353584675,0.011789190116762794,0.022255575683500086
101,0.25,0.001,0.013964317362717908,0.010845523543956907,17.47772128172595,0.012475175789954284,0.03017037415078708
102,0.25,0.001,0.013778365057225178,0.010788002117264151,16.757995297210385,0.011961452746045957,0.021084249950945377
103,0.25,0.001,0.013667040560958963,0.010756926582843968,16.308278420958857,0.011640455689478128,0.01534080711592521
104,0.25,0.001,0.013701260710755983,0.010704872518251038,16.791759490966797,0.011985552812967022,0.021050832234323025
105,0.25,0.001,0.013744932044335086,0.01080198779777445,16.4922595168605,0.011771776957073876,0.0173046292204942
106,0.25,0.001,0.013794770135045653,0.01090584999194952,16.189509016094785,0.011555680953672223,0.017254778516611884
107,0.25,0.001,0.013596942008595275,0.010549801665198321,17.076174032808556,0.012188561051255214,0.018883590320391313
108,0.25,0.001,0.013560198887129022,0.010747897711516631,15.760134841456559,0.011249204026735588,0.017089974667344774
109,0.25,0.001,0.01366029598872469,0.010780919296196614,16.136027731076634,0.01151750730269567,0.02097813891513007
110,0.25,0.001,0.013807237289394394,0.01063352996351743,17.785456744107332,0.012694829938691886,0.029297049157321453
111,0.25,0.001,0.013654171931322175,0.010635055902630391,16.919126780346186,0.012076464511310626,0.017476140521466732
112,0.25,0.001,0.013624840632382066,0.010679419726283864,16.506139042401553,0.011781683827552857,0.012039064695792539
113,0.25,0.001,0.013532473498748409,0.01061057017156572,16.374346684927893,0.011687613622361094,0.016385759892208234
114,0.25,0.001,0.013462679357164435,0.010485116618149208,16.68626278578633,0.011910251809983105,0.014923423927809511
115,0.25,0.001,0.013334863320595086,0.010490557517517696,15.939489499487058,0.011377223054594616,0.01127278951129743
116,0.25,0.001,0.013295206476492112,0.010517701572465777,15.565137458570076,0.011110019599264866,0.010256613338632243
117,0.25,0.001,0.013270574217342367,0.01037096158798897,16.249430107347894,0.011598451182974942,0.012323493204478706
118,0.25,0.001,0.013202137643038625,0.01033680619803643,16.057318099821458,0.011461326266824738,0.018075520172715187
119,0.25,0.001,0.013365888328413771,0.010500685189559001,16.056598721128523,0.01146081279166918,0.01875967638833182
120,0.25,0.001,0.013178679292475936,0.010286142795600674,16.209775076972115,0.011570146378995085,0.013569742507700409
121,0.25,0.001,0.01315400738156203,0.010311191083129608,15.931142286820846,0.011371265015575192,0.010037098878196307
122,0.25,0.001,0.013179037230785447,0.010414136018641669,15.494506913002091,0.011059605219844462,0.012220489659479685
123,0.25,0.001,0.01310618884033627,0.010145104302074572,16.593917538421323,0.01184433800030073,0.012597784266940184
124,0.25,0.001,0.013165960549329869,0.010157277299599215,16.860660379583184,0.012034732604984428,0.010460310083414828
125,0.25,0.001,0.01303688349258719,0.010200609057915934,15.894482718573677,0.011345098300195344,0.010456889069506101
126,0.25,0.001,0.013091627611882158,0.010360316994289557,15.306265262642292,0.010925242871265018,0.012325887302202838
127,0.25,0.001,0.013193346033192645,0.010267021651897166,16.399122450086807,0.011705297965800719,0.01527164936331766
128,0.25,0.001,0.013056973860871911,0.010306029157205061,15.416292749270044,0.011003777836738076,0.01505235762202314
129,0.25,0.001,0.013141916547384527,0.01037227971046561,15.521044663708619,0.011078547226058971,0.02429662591644696
130,0.25,0.001,0.013120544622793343,0.010312871494791423,15.734199678054964,0.011230692132801545,0.021695676924926893
131,0.25,0.001,0.013112049211155285,0.010308600416538692,15.710526408571186,0.011213794724176435,0.02282062598637172
132,0.25,0.001,0.013035745745656467,0.010287193619091101,15.402887209497317,0.010994209285865322,0.01296434218862227
133,0.25,0.001,0.013003266595228755,0.010139694211609436,16.04745928446452,0.011454289282273033,0.014877635054290295
134,0.25,0.001,0.013021373895533157,0.01028934433454215,15.310292677445846,0.010928117542787899,0.012328148420367922
135,0.25,0.001,0.012962307272986933,0.010110907764597372,15.979241534917042,0.011405597098441857,0.014743619332356113
136,0.25,0.001,0.012862437310619186,0.010074003815951974,15.626380997474747,0.011153733759796393,0.01321598854182022
137,0.25,0.001,0.012914842925965786,0.010156197981400923,15.4594463001598,0.011034579800256817,0.013809131591447763
138,0.25,0.001,0.012859044464850667,0.010084642652384561,15.547747082180447,0.011097606768151639,0.011430161739034312
139,0.25,0.001,0.012904176469704117,0.010083055603459026,15.809561161079792,0.011284483341241821,0.014068726982389177
140,0.25,0.001,0.012781844239192779,0.009931075810031458,15.975705869270094,0.011403073425603207,0.013160160609654017
141,0.25,0.001,0.012841106420665077,0.010129292636658207,15.197004144841975,0.01084725492137186,0.013769267991717373
142,0.25,0.001,0.012819081554283398,0.010027829096699603,15.642179864825625,0.011165010610153908,0.016378814886723245
143,0.25,0.001,0.01291726530538966,0.010066972245847938,15.97304151515768,0.011401171673916974,0.01642320478068931
144,0.25,0.001,0.012820347099367416,0.010029554903281458,15.639598595975626,0.0111631681627235,0.015093619802168437
145,0.25,0.001,0.012663338446255886,0.009966967815552095,15.110460994219538,0.010785482508365123,0.012377792969346046
146,0.25,0.001,0.012858823731993183,0.009934573321405685,16.38750051247953,0.011697002507123147,0.01671237578349454
147,0.25,0.001,0.012826242644076396,0.009941030632365833,16.16872864540177,0.011540848426410972,0.01660143264702388
148,0.25,0.001,0.012851458550854162,0.010145330246575553,15.165142406116832,0.010824512780954199,0.014149675411837441
149,0.25,0.001,0.01276658938238115,0.009934592935623545,15.870508136171283,0.011327985821678288,0.016087207277970656
150,0.25,0.001,0.012772052492381948,0.009963891487756763,15.736935162785077,0.01123264465580662,0.01107257850734251
151,0.25,0.001,0.012724939827816655,0.009929616135930774,15.66499382558495,0.011181294664942863,0.01241520153624671
152,0.25,0.001,0.012619741016415635,0.009876014504845093,15.375843491217102,0.0109749061322035,0.011047033526535546
153,0.25,0.001,0.012651677365706425,0.009908697125737113,15.371661301815148,0.010971920986306316,0.012233294280511993
154,0.25,0.001,0.012598454519504249,0.009873498071248482,15.270656682024098,0.010899826325498999,0.010335221287927457
155,0.25,0.001,0.01263109240869079,0.009888924968739351,15.367105773001006,0.01096866935974376,0.01119311898946762
156,0.25,0.001,0.012559928884259377,0.009710982987525487,15.965493789826981,0.011395784289669508,0.010606880432793073
157,0.25,0.001,0.012604279020293192,0.009833019019828903,15.53014206163811,0.011085040729220634,0.013426135028047221
158,0.25,0.001,0.012590746348253403,0.009771467346434642,15.799239466888736,0.011277115964945565,0.011969252090368952
159,0.25,0.001,0.01252665962421834,0.009798205749254035,15.290256403913402,0.010913816134128052,0.01170536277017423
160,0.25,0.001,0.012656129106427685,0.009863932193680243,15.647471726542772,0.011168787813378139,0.0108421157513346
161,0.25,0.001,0.012595895066330529,0.009802934690143424,15.651751277422663,0.011171842453549368,0.019166560045310428
162,0.25,0.001,0.012523575977544592,0.009808955761143054,15.212730831570095,0.010858480250942252,0.013545746781996318
163,0.25,0.001,0.012532344388991895,0.009767240468375009,15.495642459753787,0.011060415745720049,0.015418221375771932
164,0.25,0.001,0.012522933063934547,0.009733935535857172,15.629542264071377,0.011155990195625538,0.012613498672310795
165,0.25,0.001,0.01253075882641956,0.009867697869512167,14.923793455567022,0.010652243722745912,0.015370223671197891
166,0.25,0.001,0.012482314681013426,0.009646898408354533,15.889672404587872,0.011341664814124106,0.01271655417180487
167,0.25,0.001,0.012481482718328033,0.00966096045731595,15.806206789883701,0.011282089072008353,0.014228299127093383
168,0.25,0.001,0.01236880761618265,0.009648093793804597,15.246879587269794,0.010882854808900638,0.013519118606512035
169,0.25,0.001,0.01241346454304276,0.009777343229889268,14.772823314474087,0.010544484878282717,0.01405210087874106
170,0.25,0.001,0.01253162660269123,0.009684570801604276,15.954900356254193,0.011388222952358452,0.010073036886751652
171,0.25,0.001,0.012525358877022458,0.009695314952746184,15.859565985323202,0.011320175578389153,0.008809951799256461
172,0.25,0.001,0.012426090887700669,0.00971021903020264,15.219746329567649,0.010863487744159635,0.011698376121265548
173,0.25,0.001,0.012355432836244804,0.009599221324679828,15.445811396897442,0.011024847535258703,0.01720128328140293
174,0.25,0.001,0.012345855669918084,0.009577825430291469,15.512040494668364,0.01107212026742924,0.010849226931376117
175,0.25,0.001,0.012416082810648162,0.009689405127757728,15.28030127708358,0.010906710404770578,0.013108376945768083
176,0.25,0.001,0.012472166397580595,0.009667996843956937,15.714565161502723,0.011216677488581529,0.012596606343452419
177,0.25,0.001,0.012458335805797216,0.009617929873668184,15.917635541973691,0.01136162422696195,0.015820237807929516
178,0.25,0.001,0.012363053670134207,0.009628329294348004,15.325394620799054,0.010938896945609603,0.01542509174240487
179,0.25,0.001,0.012380838469423429,0.009589948804315292,15.640144328878383,0.011163557693703342,0.012339507096580096
180,0.25,0.001,0.012429913440060735,0.00965813124044375,15.533066316084428,0.011087127991494953,0.011457601163004125
181,0.25,0.001,0.012503985560151061,0.009705076455091588,15.685087040217235,0.011195636716786035,0.010541347188076802
182,0.25,0.001,0.01237406109393847,0.009570928177598751,15.708757207851217,0.011212531911385595,0.0125715560945017
183,0.25,0.001,0.012394394010606439,0.00969554004588663,15.124378570402511,0.010795416538474312,0.012137779500335455
184,0.25,0.001,0.012335426710320242,0.009545437126147627,15.635101722948479,0.011159958403246593,0.010264903440007142
185,0.25,0.001,0.01239557552969817,0.009574002623934336,15.812095661355992,0.01128629240639257,0.014718740513282163
186,0.25,0.001,0.012426890404612728,0.009567145070042273,16.026013316530168,0.011438981667758863,0.01025672463167991
187,0.25,0.001,0.012373377982940938,0.009487878220776716,16.17034065362179,0.011541999038987715,0.013696060782032353
188,0.25,0.001,0.012354227648389459,0.009660824851104708,15.093828837076822,0.010773610875857832,0.017709519314978803
189,0.25,0.001,0.012497309557717256,0.009744525068637096,15.426605051214045,0.011011138509074979,0.016447689783360277
190,0.25,0.001,0.012379383244975046,0.009607501017550627,15.533628829801925,0.011087529500215507,0.01373048618968044
191,0.25,0.001,0.012333027811514007,0.009573888626288284,15.462216020834566,0.011036556760053223,0.015547963790595531
192,0.25,0.001,0.012342558138900332,0.009542484344406561,15.691615249171402,0.011200296394840402,0.014020382825817381
193,0.25,0.001,0.012307435650416094,0.009530510546432601,15.561887808520385,0.011107700077459233,0.012524643846388375
194,0.25,0.001,0.01228663268865961,0.009585296255395268,15.138289885087447,0.010805346099277264,0.0122848048007914
195,0.25,0.001,0.012318803505464033,0.009573305900575537,15.385770017450506,0.010981991447145258,0.011308085306414537
196,0.25,0.001,0.012308545043748436,0.00946433406624228,15.938958986841067,0.011376844387466858,0.012332591228187084
197,0.25,0.001,0.012195252230146317,0.009398115290836855,15.675155148361668,0.011188547571992625,0.011695045046508312
198,0.25,0.001,0.012288928812727182,0.009553883271762218,15.327194830383917,0.010940181891780098,0.013611387062285627
199,0.25,0.001,0.012248768104296742,0.0095227515381394,15.276597495030876,0.010904066734497413,0.01475519547238946
200,0.25,0.001,0.012193350657594927,0.009410952161433119,15.592561432809541,0.011129594170456489,0.010607760266533919
201,0.25,0.001,0.012269241095642851,0.00945990275817387,15.743532007390803,0.011237353324333193,0.01274363590138299
202,0.25,0.001,0.012177571287435112,0.009374163452197205,15.710297960223574,0.011213631663257369,0.012557300007236856
203,0.25,0.001,0.012222443970691676,0.009586384218901095,14.772479510066486,0.010544239478991068,0.012893198590193476
204,0.25,0.001,0.012189095331863924,0.009414389202691088,15.54945419773911,0.011098825266052183,0.013368653665695871
205,0.25,0.001,0.012136777994608638,0.009443164756051217,15.095008233580927,0.010774452700628784,0.015117349568754435
206,0.25,0.001,0.01214920999388201,0.009314287830181796,15.886902433453184,0.01133968767555545,0.014110332088811057
207,0.25,0.001,0.01220376861065325,0.009484809710446632,15.237045538545859,0.01087583550217406,0.012060343221362149
208,0.25,0.001,0.01225620350151351,0.009509222478502326,15.394081905634716,0.010987924272401653,0.011130992522729295
209,0.25,0.001,0.01218351489403332,0.009371309362427152,15.759599435209024,0.011248821866673107,0.012153388599732093
210,0.25,0.001,0.01221545155376497,0.009419668070746191,15.667570422394107,0.011183133777583232,0.012456970222826515
211,0.25,0.001,0.012238002419848033,0.00943992356534558,15.680433639372238,0.011192315231529077,0.01095062680542469
212,0.25,0.001,0.012126963312803494,0.00934831922252973,15.571520795725812,0.011114575871324634,0.012351955686296736
213,0.25,0.001,0.01210461300092213,0.009386984518531597,15.229589645308678,0.010870513665459443,0.010323553545666593
214,0.25,0.001,0.012193115559792278,0.009454718038364493,15.345978794675885,0.010953589432316835,0.015120538616819041
215,0.25,0.001,0.012278407868562323,0.009489499427603952,15.629042981850981,0.011155633820022114,0.01654438461576189
216,0.25,0.001,0.012273400325817292,0.009503836771755508,15.520633697509766,0.011078253888301045,0.018616856341915473
217,0.25,0.001,0.012177733836149928,0.00937032810591086,15.732700704324126,0.011229622201516149,0.01248239419822182
218,0.25,0.001,0.01224672771764524,0.009522996259608655,15.263791768237798,0.01089492631565867,0.016235973286841596
219,0.25,0.001,0.012050493206414912,0.009303996000777592,15.391370869646169,0.010985989200318465,0.009343821887991257
220,0.25,0.001,0.01208808192174242,0.009285700102948179,15.70454953896879,0.011209528578849957,0.013975938316434622
221,0.25,0.001,0.012125027093170869,0.009359527162906497,15.497861457593514,0.011061999612843336,0.015274315540279661
222,0.25,0.001,0.012084960457727764,0.00934641733953748,15.346796112831193,0.010954172814297782,0.011499680512185608
223,0.25,0.001,0.012088751984816608,0.009393210805049448,15.105813305787366,0.010782165100490626,0.012292836992336171
224,0.25,0.001,0.012098362932753081,0.00928745035909944,15.752354564088764,0.011243650652454506,0.013937095047107764
225,0.25,0.001,0.012114298586366755,0.009366069798066158,15.401074505815602,0.010992915421709923,0.014649599258388792
226,0.25,0.001,0.012112800709225914,0.009327951376561564,15.606295855358393,0.011139397469920338,0.0107301861446883
227,0.25,0.001,0.01206852938754089,0.009248092836427569,15.805727968312274,0.011281747300722537,0.011109486954020602
228,0.25,0.001,0.012221508744088087,0.009466267397834195,15.440372833097824,0.011020965619627282,0.01143178649778877
229,0.25,0.001,0.012082529903361292,0.009260136022636986,15.816695473410867,0.011289575641264002,0.01357692520001105
230,0.25,0.001,0.012086931691326276,0.009300456118929868,15.615409629513518,0.011145902662036772,0.012485993227788381
231,0.25,0.001,0.01210527110731963,0.009479401379146359,14.715373578697744,0.01050347864289632,0.016060423239001205
232,0.25,0.001,0.012143422002819452,0.009384003496079735,15.463781087085454,0.011037673866584908,0.016100769729486535
233,0.25,0.001,0.012073931707577272,0.009257127653167706,15.785369603320806,0.011267215990949897,0.01316183406327452
234,0.25,0.001,0.01204266988042027,0.009271924891932444,15.527254374340327,0.011082979567694736,0.01131076751542943
235,0.25,0.001,0.012042008415617124,0.009309013797478243,15.315702303491458,0.01093197880334865,0.010768855389739786
236,0.25,0.001,0.012045826113811045,0.009287650791006257,15.456815180152354,0.011032701770272916,0.01584137310939176
237,0.25,0.001,0.012088550282924465,0.009316446325468897,15.534870735322587,0.01108841594241441,0.012252588623336383
238,0.25,0.001,0.01198128057700215,0.009299988058781383,15.025962839222919,0.0107251697638993,0.011911670078656502
239,0.25,0.001,0.012044227155245314,0.00927692943374918,15.50793597674129,0.011069190561556952,0.01371948394392218
240,0.25,0.001,0.011966992404801076,0.009261124146481356,15.163686444060971,0.01082347355036472,0.012594281695783138
241,0.25,0.001,0.012026652467973305,0.009307239072942975,15.239592658148872,0.01087765357469584,0.01484398078173399
242,0.25,0.001,0.012080124344187553,0.009355488176824469,15.26886188622677,0.010898545243559436,0.01155893930367061
243,0.25,0.001,0.011984838878340794,0.009181570035941673,15.709520060606676,0.011213076417278142,0.010828523231404168
244,0.25,0.001,0.012123955526586735,0.009454862656767923,14.957597135293364,0.010676371973799689,0.012977546080946922
245,0.25,0.001,0.011985002555931457,0.009072495191687286,16.32169155159382,0.01165002965852521,0.011991439653294427
246,0.25,0.001,0.011909352370885888,0.009199656865964032,15.185134049617883,0.010838782333774364,0.01081869365381343
247,0.25,0.001,0.01203567896866136,0.009337664619464465,15.119672929397737,0.010792057765451632,0.01641570044947522
248,0.25,0.001,0.012049434603088431,0.009212003870293348,15.900962685093734,0.011349723543964121,0.018229536579123566
249,0.25,0.001,0.011903493853304723,0.009264673557922695,14.78794854096692,0.010555280900047766,0.014452272493924414
250,0.25,0.001,0.011983985561087276,0.009245278191461105,15.347715869094387,0.010954829314128755,0.016536713045622622
251,0.25,0.001,0.01194695561108264,0.009229574832275059,15.228203031751844,0.010869523934155492,0.011160651621009623
252,0.25,0.001,0.011889227835292166,0.00915880584054523,15.301284645542953,0.010921687826940009,0.010797700312520777
253,0.25,0.001,0.01202759040387893,0.009287217406160904,15.357049460362907,0.010961491406397506,0.015303469263017178
254,0.25,0.001,0.011964837907615936,0.00919324682668002,15.531996987082742,0.011086364730251779,0.011458554970366614
255,0.25,0.001,0.01196952944978921,0.009246648110524572,15.259028155394274,0.010891526163736098,0.012806584992046868
256,0.25,0.001,0.011895584394082878,0.009129722771996801,15.49988873799642,0.011063446636685525,0.009991482166307313
257,0.25,0.001,0.011929898692125624,0.009225262968678666,15.15677927961253,0.010818543383021078,0.014145656887974058
258,0.25,0.001,0.011849492223876896,0.009124565399204842,15.270490068377871,0.010899707400697982,0.012392205319234304
259,0.25,0.001,0.011896477513617337,0.009101233379256845,15.664547486738725,0.01118097607904263,0.014827952054994447
260,0.25,0.001,0.012045803658588969,0.009396574873891141,14.846278200245868,0.010596915203601618,0.020634152394320284
261,0.25,0.001,0.011984353593428327,0.009209442093516842,15.550603269326567,0.011099645445629242,0.013165667120899473
262,0.25,0.001,0.01196969918568026,0.009255679390120387,15.209367858039009,0.0108560798415696,0.011718228858496462
263,0.25,0.001,0.011907781182666017,0.009171618562605646,15.333455577041164,0.010944650661699617,0.01062049004914505
264,0.25,0.001,0.011816628380782075,0.009039191665560609,15.564754832874645,0.01110974649027455,0.009349300060421228
265,0.25,0.001,0.011843149747812387,0.009119972436114995,15.260686363836731,0.01089270975291701,0.010977025675986494
266,0.25,0.001,0.011921630269198707,0.009139395055521016,15.591646685744777,0.011128941246070504,0.011895198907170976
267,0.25,0.001,0.01193633596553947,0.009197327261320267,15.349404113461272,0.010956034342227888,0.011665051470377616
268,0.25,0.001,0.011843139794890326,0.008992221149982828,15.97654808892144,0.011403674581671264,0.01386391810540642
269,0.25,0.001,0.011963296295943284,0.00923737482816884,15.276065248431582,0.010903686829715618,0.018262875000280992
270,0.25,0.001,0.012053537079029612,0.009321974947898075,15.307672683638756,0.010926247454417386,0.018714158396635736
271,0.25,0.001,0.011854398487643763,0.00902374100523314,15.863005821150963,0.01132263085021482,0.015541347608502423
272,0.25,0.001,0.011911731787176446,0.009321731910335295,14.514358674636995,0.010359999053987863,0.014687291479536466
273,0.25,0.001,0.011873837090050332,0.009096632495221465,15.56345390551018,0.01110881791970748,0.01050051035625594
274,0.25,0.001,0.0118886660408191,0.009101019457283647,15.62197168908938,0.011150586501848237,0.013137599120714836
275,0.25,0.001,0.012010501236701854,0.00915408893629457,16.007334699534407,0.01142564932158059,0.014186154984469925
276,0.25,0.001,0.012019076826747018,0.009245990841376662,15.54037462099634,0.011092344483223654,0.016871205930198942
277,0.25,0.001,0.011917984602276725,0.009171013870850356,15.394024839304913,0.0109878835398322,0.01655782333442143
278,0.25,0.001,0.011922145996129873,0.009191354689649258,15.303353704587378,0.010923164671368578,0.014815039200974362
279,0.25,0.001,0.011801731688055124,0.00897106040984091,15.863082327023902,0.011322685458261171,0.011552933337432998
280,0.25,0.001,0.011926076459613714,0.009265796648281994,14.908207614012438,0.010641118925062412,0.015423963777720928
281,0.25,0.001,0.011816949715292213,0.009062607593909658,15.435333309751568,0.011017368529444375,0.0136561727683459
282,0.25,0.001,0.01193521593255226,0.009100854208674094,15.883763496321862,0.01133744717795993,0.015171769208141736
283,0.25,0.001,0.011855453770193789,0.009204745537253341,14.85457003237021,0.010602833713326345,0.017082923158471073
284,0.25,0.001,0.011991417750415175,0.00913409497400727,16.012437955297607,0.011429291902425129,0.0184383469500712
285,0.25,0.001,0.012024834375790876,0.00919117648718935,15.879819629168269,0.011334632140733953,0.021271283073084696
286,0.25,0.001,0.011920140567000467,0.009269213068741138,14.855798172228264,0.010603710329927383,0.014031207055917807
287,0.25,0.001,0.011922781054645476,0.00916764254898134,15.439796736746123,0.011020554415950123,0.016822496562131813
288,0.25,0.001,0.011874884197657759,0.009054168974134054,15.807288979039047,0.011282861512518949,0.016067185771784613
289,0.25,0.001,0.011889073066413403,0.009211057063305017,15.007600437511098,0.010712063124561811,0.018167363878871714
290,0.25,0.001,0.011796989515800067,0.009022291175870582,15.54941029018826,0.011098793925901684,0.02064056894076722
291,0.25,0.001,0.01193333769010173,0.009157113589797958,15.557960144197098,0.011104896605422625,0.020394421980849335
292,0.25,0.001,0.012052405606767144,0.009390365407623426,14.918073500045622,0.010648160956492236,0.020854057478053228
293,0.25,0.001,0.011869217937040811,0.009072291100341263,15.673979412425648,0.011187708360046858,0.015259517090661185
294,0.25,0.001,0.011938726266074663,0.009292668846407623,14.828504234853417,0.010584228575912503,0.019348607265523503
295,0.25,0.001,0.011853368021547794,0.009021454471906628,15.870044053202928,0.011327654570451769,0.014052678564829486
296,0.25,0.001,0.011824053241824261,0.009063618389343974,15.469476430103033,0.011041739065027147,0.014985820012433189
297,0.25,0.001,0.011863821374271253,0.009208190555900636,14.882155177569148,0.010622523324460491,0.013470275726701533
298,0.25,0.001,0.011843001112492398,0.009132665224523858,15.188721627900094,0.010841343060599638,0.011098709157002824
299,0.25,0.001,0.011739627260601881,0.008966962957397254,15.538011165580365,0.011090657505767569,0.010958872203316008
300,0.25,0.001,0.011795151442515127,0.009132221952607536,14.9230579414753,0.010651718730531976,0.011546735385698932
301,0.25,0.001,0.011759760394466646,0.00895002263250074,15.745770560370552,0.011238951149443649,0.012799019127019815
302,0.25,0.001,0.011728480420630388,0.009046591084563372,15.02930731725211,0.010727556971628915,0.01166074603263821
303,0.25,0.001,0.011722019139790174,0.00902954050142205,15.088651493342235,0.010769915412806735,0.01646504830569029
304,0.25,0.001,0.011781743633551429,0.008966439930402269,15.776962569265654,0.011261215252866278,0.015510086502347673
305,0.25,0.001,0.011733970520171251,0.00899834581885976,15.330441031793152,0.010942498952029374,0.015994384618742124
306,0.25,0.001,0.011707590667135788,0.008955837453179287,15.420824898613823,0.011007012775598731,0.01237722033900874
307,0.25,0.001,0.011744904999781137,0.00896245205417426,15.592867379236703,0.011129812547635048,0.01044368211712156
308,0.25,0.001,0.01172081051827079,0.00897066437667518,15.411818802958788,0.011000584441797849,0.011320118925401143
309,0.25,0.001,0.011785821405926137,0.009009089057493692,15.560807603778262,0.011106929053374919,0.012581352077956711
310,0.25,0.001,0.01187810715701845,0.009145455218550532,15.313782219934945,0.010930608294029226,0.01281409723950284
311,0.25,0.001,0.011767146478623453,0.0089470897095673,15.803597402090977,0.011280226553955016,0.011173677165061235
312,0.25,0.001,0.011787962224898916,0.009053807310534246,15.32220436828305,0.010936619820330513,0.018507580805037702
313,0.25,0.001,0.011660597691632281,0.008999909815199748,14.910494341994777,0.010642751136327464,0.009587798600218125
314,0.25,0.001,0.011706920980353547,0.008998206976537753,15.179633631850734,0.010834856268273187,0.009737060139221805
315,0.25,0.001,0.011624852957373316,0.008855158143272304,15.521370011146622,0.011078779451211008,0.011645027037177767
316,0.25,0.001,0.011724161821408103,0.009089501010197582,14.764639401676678,0.010538643398769934,0.014033398857074124
317,0.25,0.001,0.011727635598167627,0.009021723755832874,15.163931047073518,0.010823648142093875,0.011227198344256197
318,0.25,0.001,0.011758541744766813,0.009067425363217339,15.081016251535127,0.010764465561409798,0.010590206565601485
319,0.25,0.001,0.011798767278892825,0.008989751926914912,15.741722299595072,0.01123606159856893,0.013091099448502064
320,0.25,0.001,0.011711298177639643,0.00903104953091554,15.020113867942733,0.010720994909309589,0.014364941045641899
321,0.25,0.001,0.01173692454367575,0.009047511513486053,15.071469355111171,0.010757651217067217,0.010015017153429133
322,0.25,0.001,0.011733225321002079,0.009011226875538176,15.254078508627535,0.010887993225287319,0.01067662684779082
323,0.25,0.001,0.011658364361283756,0.008919627706736627,15.3478793134593,0.010954945976773234,0.013913797214627266
324,0.25,0.001,0.011606462487969735,0.008926547856794463,15.018241708928889,0.010719658607372512,0.010469839708613498
325,0.25,0.001,0.011717261897042544,0.009067923921828319,14.846889534381905,0.010597351559159104,0.010400562680193357
326,0.25,0.001,0.011760416337185435,0.009023390136508628,15.338295445297703,0.010948105242896291,0.012350024322846107
327,0.25,0.001,0.01169602655702167,0.008817202896067891,16.132927990923026,0.011515294782957193,0.010113336611539125
328,0.25,0.001,0.011659884242096333,0.00898581552272192,14.985480973214814,0.010696274784593016,0.010421195267034429
329,0.25,0.001,0.011716133472744864,0.008973431444228297,15.370101678251016,0.01097080776463313,0.011798177579683917
330,0.25,0.001,0.011709271083501253,0.00902105469933965,15.064763772367227,0.010752864933880961,0.011645515183252948
331,0.25,0.001,0.011646388474889476,0.008892437386693377,15.433143240032773,0.011015805310515898,0.010471251460590534
332,0.25,0.001,0.01165864546077721,0.00895316455739014,15.161514532686484,0.010821923292424328,0.012102486100047827
333,0.25,0.001,0.01161510359044328,0.00890223832913872,15.202896599817757,0.010851460813574416,0.010291615301477057
334,0.25,0.001,0.011651492677628994,0.008932132828943055,15.239292164041538,0.010877439089251633,0.013782145588525705
335,0.25,0.001,0.0116586648492199,0.008996405516459484,14.919300965588501,0.01064903709178337,0.014752750151923724
336,0.25,0.001,0.01173345237556431,0.008990835925244321,15.369622172731342,0.010970465505161557,0.011258051065461976
337,0.25,0.001,0.011723168993914368,0.00898444889621301,15.347786643288352,0.010954879831040936,0.014572478963860444
338,0.25,0.001,0.011721898500591216,0.008972968341726246,15.405004597673512,0.01099572062646218,0.017487556939678534
339,0.25,0.001,0.011707009587700318,0.008950887191476244,15.445309667876273,0.011024489413187918,0.01820689466382776
340,0.25,0.001,0.011803152820452897,0.009149502473648149,14.87105722138376,0.010614601871080485,0.021694933463420187
341,0.25,0.001,0.011845965446396307,0.009099718032762258,15.389970548225172,0.010984989684671785,0.02661244717559644
342,0.25,0.001,0.011776261323253916,0.009013301509460716,15.48362747346512,0.011051839738376245,0.020288329172347273
343,0.25,0.001,0.011740106242624197,0.009054921341664864,15.047776867644956,0.010740740091109889,0.014959191105195455
344,0.25,0.001,0.0117704737555198,0.009057561989233952,15.203157916213527,0.010851647334913296,0.018534764514437745
345,0.25,0.001,0.011724268133291091,0.00892799034376036,15.670339960040469,0.011185110606738378,0.016374409464853152
346,0.25,0.001,0.011711093380746215,0.008899586632697269,15.755682646626173,0.01124602615747764,0.014751568702714784
347,0.25,0.001,0.011800667910714342,0.009113943100803427,15.056406444973415,0.010746899675213003,0.01845570241234132
348,0.25,0.001,0.011679271875758363,0.008803607641973278,16.11522227585918,0.011502656870706052,0.011643843060093266
349,0.25,0.001,0.011602115187079015,0.008833370538371983,15.516044308440854,0.011074978093105535,0.00945750723725983
350,0.25,0.001,0.011603360995650291,0.008892429691523013,15.192059526539813,0.01084372557211978,0.012676800202046121
351,0.25,0.001,0.011582473499907387,0.008910415769375936,14.97421145198321,0.010688230872222135,0.011489173863083124
352,0.25,0.001,0.011706256608695093,0.009070181682931654,14.772564146253798,0.01054429989025967,0.014195465482771397
353,0.25,0.001,0.01163636984284779,0.008720990881850623,16.337784391460996,0.011661516339372588,0.013742876638259207
354,0.25,0.001,0.011680614692394179,0.009016522178144165,14.929573116880475,0.010656369105553514,0.01727648651493447
355,0.25,0.001,0.011635160816814562,0.008894713567287632,15.357465686220111,0.01096178849837267,0.012130273306476218
356,0.25,0.001,0.011633026949835546,0.008922637825963474,15.18902003163039,0.010841556053983148,0.013328104612550564
357,0.25,0.001,0.01153580675070936,0.008743226006062645,15.649622300658564,0.011170322841298047,0.010945626734090703
358,0.25,0.001,0.011557913658143295,0.008854029116907506,15.152568277686534,0.010815537671439354,0.012988173935030187
359,0.25,0.001,0.011701043008478603,0.009010196522329792,15.079504610312105,0.010763386588374094,0.010891815647482872
360,0.25,0.001,0.011577673858464366,0.008849001310841001,15.291479727234503,0.010914689312801215,0.012305121735802718
361,0.25,0.001,0.01148650496069229,0.008805228909947957,15.025870679604887,0.010725103982587357,0.011289044815514768
362,0.25,0.001,0.011622459655909828,0.008926905860955065,15.10588316483931,0.01078221496419651,0.011548715843153852
363,0.25,0.001,0.011592419987375086,0.00884426249699159,15.400675002974694,0.010992630266220339,0.010198196795369898
364,0.25,0.001,0.011635225040443016,0.008953710020792604,15.02721109293928,0.010726060737287138,0.01410153800887721
365,0.25,0.001,0.011704632241015483,0.008892253285857162,15.760571238970515,0.011249515516752687,0.0161770665352898
366,0.25,0.001,0.011646594127847089,0.008841947911100255,15.71723720280811,0.01121858472720065,0.012879329999642712
367,0.25,0.001,0.011576311305315808,0.008882938300946145,15.093663071141098,0.010773492556132119,0.014087990458522524
368,0.25,0.001,0.011596105616502088,0.008900346742434935,15.107033161201862,0.010783035803855718,0.013893856533936091
369,0.25,0.001,0.011675716876381576,0.008976174452614904,15.128235788056344,0.010798169727377833,0.013165798570428575
370,0.25,0.001,0.01174392897372294,0.008939218462792912,15.717598366014885,0.011218842516784358,0.015014986507594585
371,0.25,0.001,0.011701004636107069,0.008911052314244737,15.634893552221433,0.011159809816003879,0.011713274089353425
372,0.25,0.001,0.011744454935795129,0.009007203449128252,15.339558013761886,0.010949006433805772,0.01073642261326313
373,0.25,0.001,0.011626300091544787,0.008833751458712298,15.649442268140389,0.011170194338429971,0.013153117948344775
374,0.25,0.001,0.011630994484129579,0.008894488864550085,15.33537685509884,0.010946022023625154,0.012477416478629624
375,0.25,0.001,0.011552073578867648,0.008882654595630939,14.959424028492938,0.010677675966090606,0.010938291970108236
376,0.25,0.001,0.011613856455442882,0.008918367820142797,15.105518543359006,0.01078195470618059,0.012440581140773637
377,0.25,0.001,0.011586839765912354,0.008873163609567917,15.207441156560725,0.010854704608537276,0.012404755423111575
378,0.25,0.001,0.01154040584735798,0.008855042866233623,15.048774343548398,0.010741452065345039,0.01615120896271297
379,0.25,0.001,0.011631574773351954,0.00897059157829393,14.912151490799104,0.010643933969164243,0.01444866947297539
380,0.25,0.001,0.011640797472662397,0.008840016042343293,15.695578257242838,0.011203125094391747,0.011132594064942427
381,0.25,0.001,0.011569850099733983,0.008822044639876394,15.398703228343617,0.01099122286105897,0.012324785813689232
382,0.25,0.001,0.011581007729877125,0.008865591477264057,15.217193179660374,0.010861665367352159,0.010263960475900344
383,0.25,0.001,0.011471021045563799,0.008744413343568644,15.279910848598288,0.010906431726337108,0.011190214061311312
384,0.25,0.001,0.011461948176300285,0.00881974229758436,14.806922546540848,0.010568824087466702,0.013674977435065168
385,0.25,0.001,0.011497518085319586,0.00879807508729323,15.12767777298436,0.010797771429681913,0.011401875875890255
386,0.25,0.001,0.011551955357344464,0.008844243757652514,15.174016875450057,0.01083084716306214,0.01188672214214291
387,0.25,0.001,0.01149300794408779,0.008750541135668755,15.368784143467142,0.01096986734009075,0.01463011559098959
388,0.25,0.001,0.011497370644726536,0.008832399714549985,14.934498025913431,0.010659884386804734,0.01458304641502244
389,0.25,0.001,0.011601892582169085,0.00885393355756697,15.399563124685576,0.010991836634322323,0.015254720646355833
390,0.25,0.001,0.011638279430417701,0.008834967972955318,15.709757756705235,0.011213246079018725,0.014957029638545854
391,0.25,0.001,0.01165928091439936,0.008848555555397814,15.75130474206173,0.011242901314819222,0.013110248505004815
392,0.25,0.001,0.011694064909460568,0.00902060963062927,14.982043430058644,0.010693821149221017,0.012860083819500037
393,0.25,0.001,0.011705586329253033,0.008795070471336144,16.31053140428331,0.011642063814620492,0.010508701205253601
394,0.25,0.001,0.011605320479532685,0.008907500165279466,15.118584729204274,0.010791281034407048,0.010888013589595045
395,0.25,0.001,0.011614068439512543,0.008847384878217873,15.504494888613923,0.011066734395870038,0.0137547781424863
396,0.25,0.001,0.011691218825301738,0.008914357474581762,15.56153249258947,0.011107446461519965,0.01574248181922095
397,0.25,0.001,0.011589065655087582,0.008873519779305266,15.217920322610874,0.010862184384447448,0.018755391240119934
398,0.25,0.001,0.011579089562850768,0.00886952354939598,15.184408900713679,0.010838264739981212,0.012327973597816058
399,0.25,0.001,0.01155168077710903,0.008797683310930175,15.433402022930107,0.011015990023504715,0.011126919250403131
400,0.25,0.001,0.011524189404691711,0.008857529864392498,14.943959679266419,0.0106666378866998,0.014065473606543881
401,0.25,0.001,0.011534368656951972,0.008921323325296845,14.643508121220753,0.010452182813148289,0.016451575128095492
402,0.25,0.001,0.011504706785534367,0.00882568805845398,15.013222222376351,0.010716075818969557,0.0138258800974914
403,0.25,0.001,0.011513187239567438,0.008707614827223799,15.72242800394694,0.011222289795822227,0.011628374989543642
404,0.25,0.001,0.011526167251621231,0.00882494720545682,15.137637398459695,0.010804880370064022,0.011427396509264196
405,0.25,0.001,0.011534967074039006,0.008834244909160065,15.13484791071728,0.01080288930101162,0.012562519205468041
406,0.25,0.001,0.011446209135230142,0.008674324499537247,15.53364169958866,0.011087538686358787,0.010606883825468165
407,0.25,0.001,0.011523678992884328,0.008904884484681215,14.675724626791597,0.010475178177581439,0.013266579913241523
408,0.25,0.001,0.011463827453553677,0.00874438150926973,15.239774414987275,0.010877783308342095,0.013643910775759391
409,0.25,0.001,0.011591276737174602,0.008856848362043049,15.323736210062046,0.010937713212035722,0.015121656403477703
410,0.25,0.001,0.011558782309293747,0.008741876420875391,15.785939939094312,0.01126762308286532,0.011895823425480298
411,0.25,0.001,0.011631134765768292,0.008917077124645614,15.209579930160984,0.010856231213533893,0.010551694248403822
412,0.25,0.001,0.011453817974813658,0.008707149565746688,15.392330343073064,0.010986674049302687,0.011450633207069976
413,0.25,0.001,0.011533391962975564,0.008785965701922624,15.396576004798966,0.010989704500213394,0.014656876080802508
414,0.25,0.001,0.011543476276777008,0.008806897440191471,15.335787426341664,0.010946315079472994,0.0110595863578575
415,0.25,0.001,0.011521932433801467,0.008784697268797893,15.339464524779657,0.010948939703625737,0.012597276829183102
416,0.25,0.001,0.011477419908976915,0.008798790851024666,15.011037893969604,0.010714516698051109,0.010731409769505262
417,0.25,0.001,0.011468245299777599,0.008797338665133774,14.967761126431553,0.010683626785461494,0.013483264416988407
418,0.25,0.001,0.01157268091584697,0.008763430997578784,15.743036905924479,0.011236999932851162,0.013860739235367094
419,0.25,0.001,0.011516438815930877,0.008737524863181993,15.573033207594746,0.011115655394428797,0.012590409921748298
420,0.25,0.001,0.011494994464546743,0.008800079989613909,15.10230195401895,0.010779658782311885,0.00965769256332091
421,0.25,0.001,0.011361886323852972,0.008699127708119576,14.922098891903655,0.010651034184085407,0.010553265256541116
422,0.25,0.001,0.011409216014800048,0.008637941456540968,15.530222979458896,0.01108509848640892,0.010245891021830695
423,0.25,0.001,0.011490392508079308,0.00872517324457265,15.496287740842261,0.011060876331793191,0.01056413199486477
424,0.25,0.001,0.011427613238644118,0.008707373760490104,15.244221099699386,0.010880957244610554,0.01107132328408105
425,0.25,0.001,0.011491241629677589,0.008804418711048183,15.056955250826748,0.010747291399590827,0.018575002705412253
426,0.25,0.001,0.011547860905829103,0.00870979345883384,15.904530929796623,0.011352270470946911,0.013120088859328203
427,0.25,0.001,0.011456253232829498,0.008763559595352471,15.089854539042772,0.010770774117803548,0.01320580073765346
428,0.25,0.001,0.011516761429833643,0.008827899215799389,15.068383669612384,0.010755448729202272,0.011225559216524874
429,0.25,0.001,0.01147628024295725,0.008719638037034358,15.44822286355375,0.011026568781979836,0.012452527082392148
430,0.25,0.001,0.011488334887256526,0.008781518777738315,15.168998718261719,0.01082726532352728,0.01447973054434572
431,0.25,0.001,0.011424602602015842,0.0086797805164348,15.381983217566905,0.010979288520747256,0.012514698718275343
432,0.25,0.001,0.011535779986944463,0.00884421846142622,15.083510543360855,0.010766245926738655,0.011993615222828729
433,0.25,0.001,0.011475620245692706,0.008717069515224659,15.458917868257773,0.0110342026183139,0.011306940710970334
434,0.25,0.001,0.011422788376233192,0.008674585693186581,15.400928160156866,0.010992810963709397,0.011531701577561242
435,0.25,0.001,0.011454958111198262,0.008792637273518726,14.919646301654854,0.010649283584336084,0.012777866263474737
436,0.25,0.001,0.011428750900909154,0.008709693957835135,15.237595538900356,0.010876228079157998,0.011810461591397012
437,0.25,0.001,0.01150678831971053,0.00880068088082051,15.16502469958681,0.010824428764872813,0.012031853664666414
438,0.25,0.001,0.011454580878519048,0.00870073577295048,15.432548224323927,0.01101538060265805,0.012555703520774841
439,0.25,0.001,0.011399701820931049,0.008724816246993013,14.990059476910215,0.010699542810071532,0.011897380796394177
440,0.25,0.001,0.011448016644201496,0.00868874111429158,15.462979788732047,0.011037101919152068,0.013048903085291386
441,0.25,0.001,0.011606286157562274,0.008916062462811519,15.076012890748304,0.010760894283189368,0.015239078418484755
442,0.25,0.001,0.011467422368098992,0.008773581124842167,15.096287197536892,0.010775365594244747,0.015749022364616394
443,0.25,0.001,0.011449715066136736,0.008744834781144604,15.158149044923109,0.010819521088453325,0.011204298851745469
444,0.25,0.001,0.011424764369924864,0.008641967879175538,15.594791527950402,0.011131185958565598,0.01691587402352265
445,0.25,0.001,0.011409119552358835,0.00875720650785499,14.861320900194572,0.010607652319910474,0.011092737982315677
446,0.25,0.001,0.011374204748808736,0.008755509299461287,14.67516936677875,0.010474781846380263,0.010012883227318525
447,0.25,0.001,0.011432709473401609,0.008710733182126224,15.253955205281576,0.010887905214333745,0.012844782987875598
448,0.25,0.001,0.011490831490267406,0.008844362656501207,14.830812955143475,0.010585876484756227,0.012318653187581472
449,0.25,0.001,0.011532203962255006,0.008743153631009838,15.629839271005958,0.011156202192009962,0.015267000799732549
450,0.25,0.001,0.011437332897324754,0.008724214828977681,15.204314646094737,0.010852472980795672,0.011459498599703823
451,0.25,0.001,0.011428321674089841,0.008828017663097742,14.572103953120685,0.010401216240628612,0.012465527946395534
452,0.25,0.001,0.011475143455570996,0.008718239482153545,15.449690539427477,0.011027616373609906,0.01224441294159208
453,0.25,0.001,0.011461252064415903,0.008775010733216099,15.053697123672023,0.010744965827032136,0.010477400517889432
454,0.25,0.001,0.011440640776371113,0.008716850889602093,15.264119061556729,0.010895159929733568,0.010070233539279019
455,0.25,0.001,0.011429331321833712,0.008673829506292488,15.441832417189472,0.011022007435538524,0.009310051532728332
456,0.25,0.001,0.011391124706903491,0.008722811429338022,14.953227206914113,0.01067325282434983,0.010762918940080064
457,0.25,0.001,0.011448031667657572,0.008734220394281426,15.208199183146158,0.010855245669626094,0.011926782583551747
458,0.25,0.001,0.011353175221669554,0.008614901904806946,15.34528377802685,0.010953093346200465,0.011598498161349977
459,0.25,0.001,0.011457559887808983,0.008814679533995763,14.8107020927198,0.010571521836345325,0.013789301139435597
460,0.25,0.001,0.01157337905030058,0.008832567277355026,15.359509073122583,0.010963247018645669,0.01789629552513361
461,0.25,0.001,0.011455711410051644,0.008735668440960874,15.243120598070549,0.010880171733098179,0.015299061313271523
462,0.25,0.001,0.011392959487633874,0.008670266426046087,15.257972803982822,0.010890772879359616,0.01077163512153285
463,0.25,0.001,0.011373894016324269,0.008699289203216934,14.988485278505268,0.010698419185228599,0.012447181290813856
464,0.25,0.001,0.011375302420646854,0.008664491116022221,15.191386078343246,0.01084324488104443,0.010495046153664589
465,0.25,0.001,0.011494710721602344,0.008782692893285943,15.19814768704501,0.010848071154207715,0.0149399105991636
466,0.25,0.001,0.011559674045955292,0.008789064785973593,15.52649513398758,0.011082437640248095,0.0165376840159297
467,0.25,0.001,0.011474348153128769,0.008791886759225768,15.032513396908538,0.010729845393939,0.014768599133406366
468,0.25,0.001,0.011445490210646331,0.008754235381881395,15.08179298555008,0.010765019975410479,0.012716761457600765
469,0.25,0.001,0.011417184119122197,0.008758955992607757,14.896710655905984,0.010632912673737319,0.01437054933714015
470,0.25,0.001,0.011394983928914021,0.008688378241853882,15.167818213954117,0.010826422708032917,0.010454277507960796
471,0.25,0.001,0.011462620732308639,0.008720468118260003,15.367024739583334,0.010968611520045206,0.014728008503360408
472,0.25,0.001,0.011428227215403259,0.008718352134555879,15.18614027235243,0.01083950055128653,0.013523487241140433
473,0.25,0.001,0.011466432795530617,0.00873242003015346,15.321408531882547,0.010936051771507886,0.01062809762411884
474,0.25,0.001,0.01143285504194221,0.008756972830554452,14.995644280404756,0.010703529108069062,0.01021494869408863
475,0.25,0.001,0.011362959536714385,0.008621962797461134,15.360545919399069,0.01096398709450326,0.011210010586572545
476,0.25,0.001,0.01138384115289558,0.008705362776350794,15.010192659166124,0.010713913389840204,0.012637688246156489
477,0.25,0.001,0.011422527549468507,0.008756867595807169,14.938359038998382,0.01066264028479542,0.01173025875219277
478,0.25,0.001,0.011382127999130524,0.008574613473481603,15.733310641664447,0.011230057560074553,0.011737555132380553
479,0.25,0.001,0.011492951519109985,0.008792214490699045,15.134930967080473,0.010802948584639881,0.013658131871904646
480,0.25,0.001,0.011537190855979318,0.008835653765032989,15.139414064811938,0.010806148511643068,0.013068482612392731
481,0.25,0.001,0.011404807378321585,0.008585924160375137,15.7970214323564,0.011275532785407851,0.01059096253343991
482,0.25,0.001,0.01141873300263677,0.008860684526764383,14.335304645576862,0.010232194607835018,0.013000931457749434
483,0.25,0.001,0.011352754517862893,0.008600586648992818,15.42314777952252,0.011008670791950406,0.01235156592779926
484,0.25,0.001,0.011376489988631673,0.008699104697866873,15.004066659946634,0.010709540799390889,0.014084127066390855
485,0.25,0.001,0.011420900434857667,0.008715257236752847,15.162424087524414,0.010822572510724065,0.014732752926647663
486,0.25,0.001,0.011534815428383423,0.008815978634914364,15.23636245727539,0.010875347935242963,0.015839053317904472
487,0.25,0.001,0.011496736404645925,0.008665777592345922,15.864693632029523,0.011323835568900445,0.0141702141346676
488,0.25,0.001,0.011481386129603241,0.008751424800867985,15.29870447486338,0.010919846163357158,0.014126348974449294
489,0.25,0.001,0.0114196478718459,0.00869419922901675,15.273413378782946,0.010901793989138434,0.020065097537423884
490,0.25,0.001,0.011455278222759565,0.008736066200365924,15.238464018311163,0.010876847978808824,0.011350620138858045
491,0.25,0.001,0.011414272249723323,0.008630554793835288,15.59995265922161,0.011134869849551471,0.010647862351366453
492,0.25,0.001,0.011415714435655661,0.008716876590342232,15.1242882121693,0.010795352042947395,0.014303479343652725
493,0.25,0.001,0.011438762317552711,0.008734468060235182,15.154866093336933,0.01081717779681437,0.012217414166246141
494,0.25,0.001,0.011394492359926003,0.008667694385906663,15.280975149135397,0.010907191398383581,0.01040084713271686
495,0.25,0.001,0.011428257854975234,0.008685667392317995,15.369477320199062,0.010970362112918674,0.0125862514999296
496,0.25,0.001,0.01142261801005313,0.008728437445530987,15.098187880082564,0.010776722255590695,0.017478197813034058
497,0.25,0.001,0.01142388681006251,0.008729280819269743,15.100572075506653,0.010778424036764206,0.014468068789158548
498,0.25,0.001,0.011373441609920877,0.00860691669331205,15.503606545804727,0.01106610031820466,0.012653636613062449
499,0.25,0.001,0.011382735720036006,0.00874199883805381,14.79868944726809,0.010562947499834469,0.010800457226910762
500,0.25,0.001,0.011415405951515592,0.008554400001285654,16.033077952837704,0.01144402423471642,0.013843253920120853
