epoch,beta,learning_rate,train_loss,train_reconstruction_loss,train_kl_unnormalized,train_kl_normalized,mean_unclipped_gradient_norm
1,0.0,0.001,0.0630072425426868,0.0630072425426868,89.22872585451542,0.06368931181621372,0.10501257489834513
2,0.02,0.001,0.04998658782788339,0.04542614476102863,319.4590420795576,0.22802215708747867,0.09815994969436101
3,0.04,0.001,0.03950383557659115,0.037493845863920176,70.39988619421945,0.05024974032421088,0.0886487742619855
4,0.06,0.001,0.036853057686901336,0.03267043208712854,97.6643139214685,0.06971043106457424,0.06306080466934613
5,0.08,0.001,0.035787897288496726,0.032242434449153506,62.08991994712559,0.04431828690016102,0.043828608468174934
6,0.1,0.001,0.034342053918366505,0.031879103728357304,34.50593402300994,0.024629503228415377,0.030741157276289805
7,0.12,0.001,0.0335271519225866,0.031620496392325705,22.260203259850517,0.015888796045574957,0.02825145290366241
8,0.14,0.001,0.03236092491841256,0.030300766721292196,20.616296129178274,0.014715414795987347,0.024837089702486992
9,0.16,0.001,0.03072946028887923,0.028521217679992546,19.335923364319775,0.013801515606223965,0.03229912796190807
10,0.18,0.001,0.02863995379149006,0.02585257569015934,21.695089911446352,0.01548543177119654,0.031623845653874535
11,0.2,0.001,0.027232375203958017,0.023721177915706854,24.595935802169258,0.0175559855832757,0.06730083589042936
12,0.22,0.001,0.026081325429572068,0.022497328697954337,22.823543829361196,0.016290894953148605,0.06892715886767421
13,0.24,0.001,0.025035276990100212,0.02127122197319106,21.97267343550164,0.01568356419379132,0.030370702434863363
14,0.25,0.001,0.02451322246626549,0.020944407578501,19.999638155632212,0.014275259211728916,0.016505817350532328
15,0.25,0.001,0.02414284591671779,0.020569232240470532,20.026530348104874,0.014294454209924964,0.030327100439795425
16,0.25,0.001,0.02385711021305341,0.020497533071994176,18.8270704685734,0.013438308685634118,0.045354004949331284
17,0.25,0.001,0.023427552472667645,0.02010186609391331,18.637146199415177,0.013302745324350591,0.02433866262435913
18,0.25,0.001,0.023110026540943813,0.019928438919903663,17.829619209173366,0.012726352040808969,0.029290356673300266
19,0.25,0.001,0.023008618929286295,0.019775839238829418,18.11650016707212,0.012931120747374819,0.03534948213824204
20,0.25,0.001,0.02274732747431939,0.01952912753003503,18.034791258991067,0.012872798900065001,0.02648215481479253
21,0.25,0.001,0.022294031153551212,0.01893548879224032,18.82127099593884,0.013434169161983468,0.021083195294652666
22,0.25,0.001,0.02200810378653749,0.01881573990289935,17.890008611727488,0.012769456539420049,0.05556505186749356
23,0.25,0.001,0.02122838919046264,0.01800772119408029,18.048622721947993,0.012882671464630973,0.03322087574218001
24,0.25,0.001,0.02096686495212734,0.017507261998459773,19.387614690712866,0.01383841162791782,0.03844953075583492
25,0.25,0.001,0.02078721091756361,0.01744476038262929,18.731093363108368,0.01336980254326079,0.04704178310930729
26,0.0,0.001,0.01681441236003704,0.01681441236003704,22.077681478510048,0.015758516401506103,0.047046176557029994
27,0.02,0.001,0.015856988586220644,0.015304420351376993,38.70739438207016,0.02762840426985736,0.01670211287481444
28,0.04,0.001,0.01601402716815169,0.014511956960946171,52.61001044723588,0.037551756207877145,0.019233839719423225
29,0.06,0.001,0.016527452907964663,0.014156782063584642,55.355169170399,0.03951118427580229,0.017641399055719376
30,0.08,0.001,0.016804497537727888,0.014177366897350338,46.00762846506186,0.03283913523559019,0.020107466195310866
31,0.1,0.001,0.017052016036613337,0.014500439635047756,35.74758188857645,0.025515761519326517,0.027060353995433876
32,0.12,0.001,0.01726957813359154,0.014639215534411106,30.70948302564282,0.021919688098246126,0.022239329559462413
33,0.14,0.001,0.017519685264847,0.014689760358276101,28.319465511341384,0.020213751257202987,0.017446285113692284
34,0.16,0.001,0.017702557780037678,0.014630940667150287,26.89584820161616,0.019197607567177845,0.013646357892347234
35,0.18,0.001,0.018221072493319584,0.015078162954089605,24.462311952852357,0.017460608103392117,0.025508290422814234
36,0.2,0.001,0.01823703551352932,0.014939585809364234,23.0986386410476,0.01648725099289622,0.01815685902589134
37,0.22,0.001,0.018534538416466132,0.014977656115735243,22.650876853671775,0.016167649431600126,0.01680769638291427
38,0.24,0.001,0.018825622426752512,0.015425227563544579,19.849805609223807,0.014168312354906358,0.02434325510902064
39,0.25,0.001,0.018852613875784244,0.01526364024615076,20.112608188299962,0.014355894495574563,0.020512467516320094
40,0.25,0.001,0.018740746027170706,0.01538934641834443,18.78124272883846,0.013405597950634162,0.021115693396755626
41,0.25,0.001,0.018574307715227157,0.015178156184590407,19.03203477230169,0.013584607260743533,0.0281626930726426
42,0.25,0.001,0.01845978715735946,0.015204731682268194,18.24133005481081,0.01302022130964369,0.021728916559368372
43,0.25,0.001,0.018570809393440406,0.014983656083418027,20.10240672929638,0.014348612940254376,0.035307995442833216
44,0.25,0.001,0.01849154986176394,0.015136916994065197,18.7993639544182,0.013418532444267096,0.024792463119540895
45,0.25,0.001,0.018369985101413605,0.0149215514993834,19.325021821230195,0.013793734347773158,0.024777278570192202
46,0.25,0.001,0.018261498918161173,0.015074108949470037,17.862135872623035,0.012749561650694529,0.02569687832146883
47,0.25,0.001,0.018270697274486426,0.014861707830905612,19.103976719270502,0.013635957686845468,0.02709288416164262
48,0.25,0.001,0.018198941725537862,0.01479193909557035,19.092840891804187,0.013628009201858806,0.03255233767309359
49,0.25,0.001,0.018315587287324336,0.015043273317594516,18.338048208788567,0.013089256394567143,0.02481401219431843
50,0.25,0.001,0.018280456655748605,0.014874462255744765,19.087193842466714,0.01362397847428031,0.027391346969774792
51,0.0,0.001,0.014348615112189714,0.014348615112189714,21.829345645033165,0.015581260274827384,0.02848948964050838
52,0.02,0.001,0.013758085138604121,0.013228937515487827,37.06678684834901,0.026457378192968603,0.023926593496331146
53,0.04,0.001,0.014028781571137119,0.012597411785860957,50.13372829843899,0.03578424575191934,0.010873987871621336
54,0.06,0.001,0.014561460343979035,0.012354499305867907,51.5325444797574,0.03678268699483041,0.012810038402676582
55,0.08,0.001,0.014923788304558865,0.01247446318417031,42.89380461794471,0.030616562896463032,0.01156554976478219
56,0.1,0.001,0.015158915159476892,0.012841797674897359,32.46281555098326,0.023171174554591903,0.012698233327163118
57,0.12,0.001,0.015514882271967564,0.013089265333970791,28.319075550524715,0.020213472912580098,0.021731041837483644
58,0.14,0.001,0.01589426455953097,0.013197699736633579,26.984912533445407,0.01926117953850493,0.021252944067652737
59,0.16,0.001,0.016223303841304052,0.01321173152947789,26.370085430629363,0.018822330785602685,0.020976525066154345
60,0.18,0.001,0.016530327338176935,0.01352476904896764,23.39326326012006,0.016697546937987195,0.02461880591831037
61,0.2,0.001,0.016861969850919572,0.013755854020642146,21.7583422878672,0.015530579791482656,0.01525288208254746
62,0.22,0.001,0.017006175025238605,0.013686639894991358,21.139405206980438,0.015088797435389321,0.015118114051542111
63,0.24,0.001,0.017359901739634233,0.013642842763193368,21.69833274299118,0.015487746426117902,0.020459836082799093
64,0.25,0.001,0.017417366819711507,0.013984801904842031,19.236095689880063,0.013730261020613893,0.015647075538124357
65,0.25,0.001,0.017549195076305854,0.014217347128855699,18.67167889164184,0.013327393926939214,0.032365831546485424
66,0.25,0.001,0.017484574696890593,0.014165650046227244,18.599254850203614,0.013275699393435841,0.04086368930126939
67,0.25,0.001,0.01748299731064569,0.014337226228438658,17.628901254102058,0.012583084406925094,0.02760796235608203
68,0.25,0.001,0.017478114410024607,0.013946979599744837,19.788480342342165,0.014124539858916606,0.02086177228816918
69,0.25,0.001,0.0173786100907828,0.014190639737936748,17.865386110877022,0.012751881592346198,0.02834402530321053
70,0.25,0.001,0.01721836162286664,0.013993308780157022,18.073195985126013,0.012900211267042123,0.022077907675078938
71,0.25,0.001,0.01709743759353754,0.013852420679014649,18.185074694870693,0.012980067590914128,0.020943999157420227
72,0.25,0.001,0.017126451875201336,0.0139969622782493,17.53765949500999,0.0125179582405496,0.02739960527313607
73,0.25,0.001,0.017065047272268284,0.013941488961504801,17.50442334480092,0.012494235078373246,0.018191634411258355
74,0.25,0.001,0.017032254033433603,0.013664916602109894,18.870559614927032,0.013469350189098525,0.014871213119477034
75,0.25,0.001,0.01680902799184855,0.013703113327247237,17.40554292068869,0.012423656617193924,0.010834799347711461
76,0.0,0.001,0.013138329293484312,0.013138329293484312,21.812654485557285,0.015569346527878149,0.017682434458817755
77,0.02,0.001,0.012796363727128142,0.012263569304823573,37.32224827490482,0.026639720396077676,0.015543171736810888
78,0.04,0.001,0.013259250509935587,0.011841697599455185,49.64979923074016,0.035438828858486905,0.014847115746566228
79,0.06,0.001,0.013664039490073164,0.011558376082460287,49.16723900034948,0.03509438900810099,0.014014183011438166
80,0.08,0.001,0.01385609414144821,0.011693115180670307,37.87917411145825,0.027037240622025872,0.010016083983438355
81,0.1,0.001,0.014126327489195439,0.012108643709440824,28.267747443339545,0.020176836147993964,0.012316231017134019
82,0.12,0.001,0.014515407463809863,0.012308768148009245,25.76251230385098,0.01838865974578942,0.01716339973998921
83,0.14,0.001,0.014879946459822243,0.012243984862783839,26.378441341032232,0.0188282950328567,0.012730485892721586
84,0.16,0.001,0.015191389318687964,0.012454587110521527,23.96412274317088,0.01710501266464731,0.01353957670341645
85,0.18,0.001,0.015507715272003321,0.012626770344860663,22.423356128828175,0.01600525062728635,0.015992825717798302
86,0.2,0.001,0.015811466777385187,0.012749283286142471,21.450595061791123,0.015310917246103586,0.014128770413143294
87,0.22,0.001,0.01583459686847205,0.012752897337759812,19.62482283926252,0.01400772508155783,0.015306425081299884
88,0.24,0.001,0.016298421748398524,0.013073679367033056,18.824433525201634,0.013436426499073258,0.014883370471319981
89,0.25,0.001,0.01625534916665348,0.012979469947554738,18.3580269305234,0.013103516724142329,0.013977503004883016
90,0.25,0.001,0.016169182937308617,0.012844226176514843,18.63305855281462,0.01329982766082414,0.011040205335510629
91,0.25,0.001,0.01624511221073908,0.013146297627974889,17.36575782117505,0.012395258973001462,0.014622787678880351
92,0.25,0.001,0.016172348299456126,0.012927479550318064,18.18424584054705,0.01297947597469454,0.01512007401990039
93,0.25,0.001,0.016175790836438914,0.013002778999129225,17.781558975955555,0.012692047805821238,0.016864393704703877
94,0.25,0.001,0.01622585892715127,0.013047227361783159,17.813052893895183,0.012714527404636104,0.015304845624736376
95,0.25,0.001,0.016089184370440275,0.012914274724644756,17.792194947373442,0.012699639505619873,0.015112035907804966
96,0.25,0.001,0.016100216387454326,0.012917928142369096,17.83354233485188,0.012729152273270436,0.01764860576284783
97,0.25,0.001,0.016076374387718396,0.012778802250091195,18.479592458850842,0.01319028726541816,0.027858480678073
98,0.25,0.001,0.0160693461784554,0.01309499818226559,16.668246990533046,0.011897392569973624,0.024818808638623784
99,0.25,0.001,0.01613156199644362,0.012963807867452276,17.752094123569236,0.01267101650504585,0.019146963621356657
100,0.25,0.001,0.015926958463594394,0.012903990380012142,16.94071666117247,0.012091874847375068,0.015162443742156029
101,0.25,0.001,0.01591366652853144,0.012739970698612293,17.78539097006551,0.012694782990767673,0.015577426845473903
102,0.25,0.001,0.015865197027017018,0.012842662358268869,16.93828390092414,0.01209013840180167,0.012057763856968709
103,0.25,0.001,0.015913629535642373,0.012779120535490476,17.565788162541267,0.012538035804811753,0.012580182403326035
104,0.25,0.001,0.015872357536088393,0.012762455997733296,17.427888197342153,0.012439606136575413,0.014585127787930625
105,0.25,0.001,0.01589394131968469,0.01273850753884479,17.683052246945763,0.01262173607919041,0.014032688257949693
106,0.25,0.001,0.015849560451916028,0.012725869694790864,17.50516341059341,0.012494763319481378,0.019163048160927638
107,0.25,0.001,0.015754621854137042,0.012788751124768391,16.620738489373686,0.011863482148018334,0.01743540952780417
108,0.25,0.001,0.015710790116850493,0.012635726642411978,17.23265711789204,0.012300254902135646,0.012551532393055303
109,0.25,0.001,0.015631280839443207,0.012653761302229716,16.68602105445668,0.01191007926799192,0.010155339326177324
110,0.25,0.001,0.01572794636456192,0.012822669377635577,16.281172854041085,0.011621108389750954,0.012467410016272749
111,0.25,0.001,0.015701537185967875,0.012662870213767599,17.028689389301437,0.012154667658316515,0.02187325632465737
112,0.25,0.001,0.01561820958055518,0.012605335705247023,16.88414497181849,0.012051495340341535,0.012639122482921396
113,0.25,0.001,0.015617144185350026,0.012545829378824851,17.211648742559596,0.012285259630663523,0.01732309748019491
114,0.25,0.001,0.015699974029575507,0.012851967065013604,15.960229941431036,0.011392027081678113,0.02000399911776185
115,0.25,0.001,0.015412815983601029,0.01241689895842281,16.789118979788068,0.011983668079791626,0.016606408703540052
116,0.25,0.001,0.015545165605918707,0.012650080261572364,16.224059569654127,0.011580342305249198,0.017656135971524885
117,0.25,0.001,0.015536303215939079,0.012682394105657406,15.993306610184877,0.011415636409839313,0.022458495306117193
118,0.25,0.001,0.015490958192929399,0.01245888287608091,16.99174922613928,0.012128300661055875,0.017602255834000453
119,0.25,0.001,0.015458837269715548,0.012590807493832814,16.072439590686468,0.01147211962218877,0.022311335961733545
120,0.25,0.001,0.015530127942146081,0.012567750178277493,16.60116635240274,0.0118495120288385,0.02151265021945749
121,0.25,0.001,0.01544862631992035,0.01247741050810227,16.650694726082275,0.011884864187068005,0.016194443085363934
122,0.25,0.001,0.01539095951631892,0.012395193365397792,16.78827540402485,0.011983065955763634,0.015540225298276969
123,0.25,0.001,0.015290954788475473,0.01253542226507579,15.442004300616114,0.011022130121781666,0.015189262905291148
124,0.25,0.001,0.015418204828756412,0.012522451948317779,16.227800194987186,0.011583012273367013,0.01186261891520449
125,0.25,0.001,0.015280339266480831,0.012295574696762913,16.72662094038755,0.01193905848707177,0.012792954354413919
126,0.25,0.001,0.01526987993248223,0.012442191008497314,15.846367647200067,0.011310754923055008,0.010016658742512976
127,0.25,0.001,0.015291859069602743,0.012370947965888808,16.368786279320112,0.011683644738986518,0.012718922192496913
128,0.25,0.001,0.015225218306413761,0.012231124385359324,16.77890223779049,0.011976375615839037,0.009643301966467075
129,0.25,0.001,0.015181676044984518,0.0122633039866229,16.354557255197903,0.011673488404852179,0.011923748467649733
130,0.25,0.001,0.015159078112562296,0.012220970794634165,16.465153277828005,0.011752429177607427,0.016118347378713743
131,0.25,0.001,0.015303935761076545,0.012420775226983927,16.15723268150678,0.011532642884730037,0.01810763869434595
132,0.25,0.001,0.015245580506808867,0.012363457135137567,16.151418458386726,0.011528492832538704,0.016125781328550408
133,0.25,0.001,0.015251796153671851,0.012295793552840422,16.56543893862497,0.0118240106628301,0.011404525155999832
134,0.25,0.001,0.015112493206099205,0.012124617990616917,16.74405302251051,0.011951501086731271,0.01241790350260479
135,0.25,0.001,0.015092683147620125,0.012233279754176055,16.024096348564033,0.011437613382272685,0.016052132339349816
136,0.25,0.001,0.015202504615795793,0.012203452182073278,16.806690230587414,0.0119962100146948,0.012173027997570378
137,0.25,0.001,0.015075099753773757,0.012167678758275085,16.293187964386142,0.011629684485643214,0.01372928504965135
138,0.25,0.001,0.015115940446970124,0.01214372682938267,16.656285397292393,0.011888854673299353,0.014481464267841406
139,0.25,0.001,0.01519917216397784,0.012316060011383845,16.156962060686297,0.01153244972211727,0.028480472176202705
140,0.25,0.001,0.015149219231065457,0.012147738309908035,16.82029887746433,0.012005923538518438,0.014503569009580783
141,0.25,0.001,0.015078567913946161,0.012197013277806304,16.148232232495612,0.011526218581367318,0.014769715390035085
142,0.25,0.001,0.015031136109063469,0.012164373953027774,16.06533448950288,0.01146704817237893,0.013265768997371197
143,0.25,0.001,0.014985862585153375,0.01218118919957864,15.717391038304052,0.011218694531266275,0.01775558539001005
144,0.25,0.001,0.014981907243996406,0.012269731833207124,15.19903088584164,0.010848701560201028,0.01341275345267994
145,0.25,0.001,0.014936991560693622,0.011985430626321566,16.540547598437005,0.011806243824723058,0.013385654759726353
146,0.25,0.001,0.014949820562251631,0.01203760858341522,16.320036331409124,0.011648848202290596,0.014168331000421728
147,0.25,0.001,0.014890135251704207,0.012054668588157232,15.8899555496758,0.011341866916256818,0.009640684218278952
148,0.25,0.001,0.014876447376903846,0.012014786277892929,16.036749747803974,0.011446645073378996,0.012405562281076397
149,0.25,0.001,0.014875432996429162,0.011999845088738475,16.114795587994724,0.011502352311202516,0.01469034468755126
150,0.25,0.001,0.015031012451172178,0.012037941448503944,16.773169890273042,0.011972284004477547,0.016090342242802893
151,0.25,0.001,0.014922557975435015,0.011920597007129398,16.822988829636937,0.012007843561482467,0.011198720628661769
152,0.25,0.001,0.014835927370689847,0.012001075895342427,15.886508462392738,0.011339406468517301,0.015268619837505477
153,0.25,0.001,0.014885373862677721,0.012070357241681989,15.77535305894571,0.011260066423230342,0.016289331684155122
154,0.25,0.001,0.014814485999079524,0.01196091270386265,15.991425272171872,0.011414293556154084,0.018750482105783055
155,0.25,0.001,0.01482449092802965,0.011984372719517213,15.916022954253377,0.011360473200751875,0.017877603215830668
156,0.25,0.001,0.014740574428915675,0.012025547473866322,15.21501099155639,0.010860107774130186,0.014235643803008966
157,0.25,0.001,0.014820657613767585,0.011921841003530219,16.244968559536233,0.011595266637784606,0.015411382408014365
158,0.25,0.001,0.01482056051511601,0.01191562302126951,16.27927168250689,0.011619751379376797,0.016160691356552497
159,0.25,0.001,0.014843411450534303,0.011994048366843141,15.96783032877191,0.011397452054797938,0.015474275818892888
160,0.25,0.001,0.014804139766407194,0.011954534917048693,15.969185490293551,0.011398419336397967,0.014645122922956944
161,0.25,0.001,0.014768429871100157,0.012029914833075807,15.346638422932116,0.01095406025905219,0.02154629604358758
162,0.25,0.001,0.014811493730560172,0.011988738901572784,15.818718164705382,0.011291019389511336,0.017999589842345034
163,0.25,0.001,0.014768761095737442,0.01201473592974359,15.433557200552848,0.011016100785548072,0.013804386502930097
164,0.25,0.001,0.014685316597522818,0.01183577865683639,15.96880892448619,0.011398150552809558,0.014199727880103248
165,0.25,0.001,0.014711332133956973,0.011981816905631026,15.296204397521043,0.010918061668466126,0.019448693309511458
166,0.25,0.001,0.014776233786972343,0.011899362663327135,16.1219853435071,0.011507484185229906,0.012208509258925915
167,0.25,0.001,0.014809295336531504,0.011952741118857099,16.008129211851788,0.011426216425304631,0.013219774434609073
168,0.25,0.001,0.014645497186988743,0.01182025428010425,15.832660587911073,0.011300971154825892,0.01423820573836565
169,0.25,0.001,0.01469697460986031,0.011876066995378073,15.80836679487664,0.011283630831460842,0.018156250273542746
170,0.25,0.001,0.014621617310316429,0.011876871336610789,15.381556796543489,0.010978984151708414,0.016445284842380455
171,0.25,0.001,0.014770457350890043,0.011865773640081363,16.277847943572223,0.011618735148873821,0.019217491815132753
172,0.25,0.001,0.014775720637688783,0.011989371539069916,15.61469963964472,0.011145395888397372,0.015929625369608402
173,0.25,0.001,0.01465551920594449,0.011794677089313565,16.032160492717917,0.011443369373817215,0.014034283147858722
174,0.25,0.001,0.014689434395374986,0.01187947342351911,15.747020939279935,0.011239843639742994,0.013930401498717921
175,0.25,0.001,0.014668916683020023,0.01189494836924191,15.545319455529228,0.011095873986816008,0.01276072786588754
176,0.25,0.001,0.014718597556280001,0.011853561939926921,16.055659511972806,0.011460142406832838,0.012750808615237474
177,0.25,0.001,0.01446317020463308,0.011674242656734692,15.629151702532308,0.01115571142222149,0.01277369593403169
178,0.25,0.001,0.014600022024649956,0.011924718634277432,14.992399593295179,0.01070121312869035,0.012449926829763822
179,0.25,0.001,0.014537442825394233,0.011678235137334026,16.022999579531287,0.01143683053499735,0.014364388372216905
180,0.25,0.001,0.01456918769284402,0.011800149157832418,15.517691510582939,0.011076153826254775,0.01479191133486373
181,0.25,0.001,0.014657236110929608,0.011914444226903964,15.370605812460033,0.010971167603468975,0.017423177271017005
182,0.25,0.001,0.014746322424203007,0.011976662919227847,15.521172315336122,0.011078638340711008,0.02153468198542084
183,0.25,0.001,0.014606896386042161,0.01173920257650505,16.0705570666318,0.011470775921935617,0.01404177164658904
184,0.25,0.001,0.014526059075736153,0.011784142053444979,15.365703142233912,0.01096766819574155,0.01081954182258674
185,0.25,0.001,0.014524755276134473,0.011776190728592087,15.40295657530654,0.010994258797506453,0.015069958088653428
186,0.25,0.001,0.014543041322134473,0.011729898427608352,15.764854561858977,0.011252572849292632,0.01246550093804087
187,0.25,0.001,0.014521704565941682,0.011728877707521625,15.651001630095662,0.011171307373373063,0.01042429983083691
188,0.25,0.001,0.014479667879641056,0.011740315417158725,15.3513290918418,0.010957408345354604,0.011689962686172553
189,0.25,0.001,0.014425041054748945,0.011652108206210402,15.53951603264978,0.01109173164357586,0.013102803379297256
190,0.25,0.001,0.014513569397067055,0.01173143763908275,15.591066946232985,0.011128527441993566,0.011678250639566354
191,0.25,0.001,0.014504530689286702,0.011726052679953539,15.570591665161443,0.011113912680343643,0.01718001826001065
192,0.25,0.001,0.014495198846544106,0.011714231615252604,15.584540236419832,0.011123868833989888,0.01789330318570137
193,0.25,0.001,0.014483322829083742,0.01168136431027185,15.702175769709088,0.011207834239621049,0.017086296741451536
194,0.25,0.001,0.014578724199631795,0.011814011922720725,15.49344808317078,0.011058849452655803,0.010422621521034412
195,0.25,0.001,0.014575704166353657,0.011658303600353033,16.349112602659893,0.01166960214322619,0.009856966723288809
196,0.25,0.001,0.014556199680957092,0.011677685822478405,16.131191515075376,0.011514055328390704,0.016784948829029287
197,0.25,0.001,0.014488458141760172,0.011651691375536665,15.89724074523461,0.011347066913086802,0.019142186801348413
198,0.25,0.001,0.014496771032510675,0.01176405039516651,15.31416757941851,0.010930883354331556,0.011485594723905836
199,0.25,0.001,0.014324983180060907,0.011463858329024412,16.03374400840798,0.011444499649113475,0.013264109314020191
200,0.25,0.001,0.014368104677514981,0.011658880254490122,15.182493350227473,0.010836897466258011,0.012490995960044009
201,0.25,0.001,0.014407733597126104,0.011647949931282682,15.465828135533986,0.011039135000381147,0.018006179348698685
202,0.25,0.001,0.014454738421337253,0.011765921847696231,15.068128353448083,0.010755266490683856,0.015298763423093728
203,0.25,0.001,0.014393994929788984,0.011595234463965227,15.684252932592091,0.011195041350886574,0.013957737213266748
204,0.25,0.001,0.014501308904119253,0.011766732807465012,15.324565442080425,0.0109383050978447,0.016070428171328137
205,0.25,0.001,0.014516520120090035,0.011731681187027299,15.606237731004125,0.011139355982158547,0.014875371940433979
206,0.25,0.001,0.014493723532307875,0.011698305871583483,15.665520624460907,0.01118167068127117,0.015581584801631314
207,0.25,0.001,0.01441753498718218,0.011674942235996577,15.369489451955417,0.010970370772273674,0.011349972736622607
208,0.25,0.001,0.014394525291993835,0.011576860088873939,15.790197420846388,0.011270661970625545,0.010467361525765486
209,0.25,0.001,0.014441636234975708,0.011785193748280482,14.886703578348692,0.01062576986320392,0.01247419569907444
210,0.25,0.001,0.014483638017953653,0.011737379403832146,15.390034941852395,0.010985035647289362,0.019759362297398702
211,0.25,0.001,0.014393547710579664,0.011589136948515922,15.715918211767516,0.011217643263217355,0.01688503154686519
212,0.25,0.001,0.014443512887783765,0.011758522395290396,15.046685601248958,0.01073996117148391,0.016601629488702332
213,0.25,0.001,0.014476581174067131,0.01154824235679837,16.410411273162378,0.011713355655362153,0.01218721130862832
214,0.25,0.001,0.014444820663234607,0.011561593267745173,16.157607790177245,0.011532910628249283,0.014132724409656865
215,0.25,0.001,0.01428855466774575,0.011488937706625098,15.689053312776052,0.011198467746449716,0.013040653230356318
216,0.25,0.001,0.014270218046675175,0.011472701066679459,15.677284695775375,0.011190067591559869,0.01243756538523095
217,0.25,0.001,0.014387070451896203,0.011641308343803822,15.387250992247296,0.010983048531225763,0.014037680279995714
218,0.25,0.001,0.014223223684478533,0.01140609764621645,15.787174457220862,0.01126850425212053,0.0097727069764265
219,0.25,0.001,0.014280331978186738,0.011470031475430818,15.748924531307317,0.011241202377806793,0.009989652183971234
220,0.25,0.001,0.014208048738085377,0.011562914015526699,14.823335933201204,0.010580539566881658,0.015668551304510663
221,0.25,0.001,0.014387586555883364,0.01158019227595045,15.732637434441425,0.011229577041000303,0.02987991739064455
222,0.25,0.001,0.014325699768960476,0.011598348508820619,15.28407632759985,0.010909404944753641,0.025434208501662527
223,0.25,0.001,0.014406717406009054,0.011644450980735006,15.479741517662397,0.011049066036875372,0.02305320929735899
224,0.25,0.001,0.014284844283336007,0.011511594274549316,15.541293691257534,0.011093000493402951,0.015600160828658513
225,0.25,0.001,0.014214370281525373,0.011460441533419383,15.433017643575136,0.01101571566279453,0.01086785744077393
226,0.25,0.001,0.014287090335551858,0.011402258186170898,16.16660037258555,0.011539329316620663,0.013977981771209411
227,0.25,0.001,0.014226369332843625,0.011546048231725463,15.02051998758074,0.010721284787709307,0.013495731300541334
228,0.25,0.001,0.014240552141770797,0.011366434747513933,16.106553532750475,0.0114964693310139,0.016648212846900736
229,0.25,0.001,0.014232429151002526,0.011481489711984766,15.416264137035698,0.011003757414015488,0.016116893517651727
230,0.25,0.001,0.014193361535252351,0.011523809655082559,14.960168528677848,0.010678207372361062,0.013430032413452864
231,0.25,0.001,0.014194508825386237,0.011415802925673839,15.571867221503089,0.011114823141686716,0.015447781820382391
232,0.25,0.001,0.014178758969312998,0.011373490946093186,15.720721056013543,0.011221071417568554,0.017739676537790468
233,0.25,0.001,0.014191333828541227,0.011486944643222741,15.155396756786985,0.01081755657158243,0.013763563308332647
234,0.25,0.001,0.014207297378233846,0.011410870754779293,15.671174596408902,0.011185706350042042,0.011926333553024701
235,0.25,0.001,0.014184925369540144,0.011452286040911518,15.313711219632687,0.010930557615726401,0.01611330213823489
236,0.25,0.001,0.014264608378791567,0.011518949203117548,15.386674924550324,0.010982637348001659,0.01519182404237134
237,0.25,0.001,0.0142532813594426,0.011506268877517148,15.394256669252657,0.010988049014455858,0.015776511148682663
238,0.25,0.001,0.014233766095287304,0.011424668407455313,15.742184300108004,0.011236391363389012,0.0156483832480652
239,0.25,0.001,0.014072403845939841,0.011338374714560921,15.321500202120863,0.010936117203512393,0.0098036438492792
240,0.25,0.001,0.01410580386270575,0.011396048287979237,15.185470881195842,0.010839022756028438,0.009282911196351051
241,0.25,0.001,0.014144394707483084,0.011358407311860075,15.612673241474907,0.011143949494271882,0.00995654785739524
242,0.25,0.001,0.014192675500351765,0.01136501512589491,15.846208398112186,0.011310641254898062,0.013006928775991713
243,0.25,0.001,0.014139396634879451,0.011353438044070895,15.612510719880234,0.011143833490278539,0.01445876993238926
244,0.25,0.001,0.01412215477640405,0.011387436211033521,15.325362665399076,0.010938874136616043,0.012410403162773167
245,0.25,0.001,0.014124019345656264,0.011362108491777163,15.477748502934645,0.011047643471045428,0.015943621950490133
246,0.25,0.001,0.014134346994424835,0.011342166270587952,15.647380930518136,0.011168723005366263,0.011096643949193614
247,0.25,0.001,0.014121491641638242,0.011404304396417844,15.227117480360311,0.010868749093761822,0.012775394932499953
248,0.25,0.001,0.014125826560565966,0.011404988781411938,15.247575120877494,0.010883351264009631,0.010242017185581582
249,0.25,0.001,0.014068376736214317,0.011310486586263336,15.455216877351557,0.011031560940293759,0.011692459428949016
250,0.25,0.001,0.014101502201921747,0.011399689882161654,15.1409553537514,0.010807248646503497,0.010082982746618134
251,0.25,0.001,0.014097051959730647,0.011360676254755652,15.334650029990879,0.0109455032333982,0.010443870842989002
252,0.25,0.001,0.0141419475415939,0.011409597906288762,15.312086942837324,0.010929398246136562,0.0125660722010902
253,0.25,0.001,0.01409128827378532,0.01132886375532235,15.480627427851488,0.01104969837819521,0.01122085570490786
254,0.25,0.001,0.014035678771206268,0.011252736119638541,15.59561013449267,0.011131770260166074,0.011807187061224664
255,0.25,0.001,0.014134278407481117,0.011457193193739744,15.002385028122646,0.010708340491165343,0.012666287632392985
256,0.25,0.001,0.014128213658512849,0.011277810386783884,15.973659123260962,0.011401612507680915,0.016185441985726357
257,0.25,0.001,0.014270920632643446,0.011548144213363604,15.258438241058196,0.010891105097115057,0.012981294388217586
258,0.25,0.001,0.01411122139921497,0.011238956620661439,16.096172463470303,0.011489059574211494,0.013571928654398237
259,0.25,0.001,0.014112195969195232,0.011371609386113393,15.358245651128934,0.010962345218507448,0.012177908260907446
260,0.25,0.001,0.014058641928631037,0.011319068964892232,15.352568084213335,0.01095829270821794,0.014407306709992034
261,0.25,0.001,0.01405271722788587,0.011299895288110687,15.426813735574635,0.011011287462936926,0.01742545355643545
262,0.25,0.001,0.014036510943383129,0.01125051519185834,15.612719734308078,0.011143982679734531,0.01287991287452834
263,0.25,0.001,0.0140249466873365,0.011270686917876834,15.434871838177521,0.01101703914216811,0.014065603193427836
264,0.25,0.001,0.014088343734366035,0.01134069327756687,15.39783245415857,0.010990601323453654,0.01926095231569239
265,0.25,0.001,0.014009705574492815,0.011256940279931283,15.426497512662472,0.0110110617506513,0.011296223915581192
266,0.25,0.001,0.013947819184682091,0.011175434842592267,15.53644192884416,0.011089537422444083,0.009257842254425799
267,0.25,0.001,0.014050824388029612,0.011407201901683348,14.81486132665334,0.010574490597182969,0.014550039677747659
268,0.25,0.001,0.013985761219096667,0.011137770110656163,15.960142726220456,0.011391964829564921,0.011476148119462388
269,0.25,0.001,0.01395442023835509,0.011223136953215309,15.306112342679562,0.010925133720684913,0.010755118049149002
270,0.25,0.001,0.01402796837997618,0.01130084744961885,15.282785870702133,0.010908483847753128,0.013712372763880662
271,0.25,0.001,0.014053052962582729,0.011340816037228264,15.19937528813551,0.010848947386249471,0.014203239897532123
272,0.25,0.001,0.013986476663935004,0.011354525358449233,14.749455185711081,0.010527805271742385,0.01255290343293122
273,0.25,0.001,0.014020023971493474,0.011263069474530703,15.449972564193803,0.011027817676084085,0.012171945401600428
274,0.25,0.001,0.014005645116800584,0.011293956844448136,15.196301934682777,0.010846753700701484,0.011598652627851282
275,0.25,0.001,0.013969717802583869,0.011262307983591471,15.1723256474219,0.010829640005297573,0.013319185269730431
276,0.25,0.001,0.014024023377918048,0.011266274590442327,15.454425090460608,0.011030995781913354,0.015041754714080266
277,0.25,0.001,0.01396207080274669,0.01114624677708155,15.779877178560053,0.011263295630663849,0.011980980235551084
278,0.25,0.001,0.013962635779895153,0.011142355470260993,15.804851062406744,0.011281121386443072,0.010574663057923317
279,0.25,0.001,0.013949232535238193,0.011240825747248485,15.177912257044449,0.010833627592465702,0.012334196828305721
280,0.25,0.001,0.014014502183586209,0.011247302864106173,15.507386033305057,0.011068798025199897,0.014537269781742777
281,0.25,0.001,0.014050791408809913,0.01122732358857006,15.822713822882793,0.011293871393920624,0.015590556498084749
282,0.25,0.001,0.013954631520936333,0.011196618209484265,15.45590604985426,0.011032052854999471,0.014188564515539579
283,0.25,0.001,0.013933566115267084,0.011228715684170347,15.157981538530533,0.010819401526431502,0.013024111012262958
284,0.25,0.001,0.014032131391884712,0.01126950467714501,15.481760489759106,0.01105050713044904,0.012547903561166354
285,0.25,0.001,0.013895212388999269,0.011176371129068928,15.23638703496323,0.01087536547820359,0.010480248302753483
286,0.25,0.001,0.013874152949467528,0.011209506820414574,14.932676746155405,0.010658584401252965,0.010752221902034112
287,0.25,0.001,0.013940069380069748,0.011164349480177546,15.555134894279053,0.011102880010192044,0.012066862612430538
288,0.25,0.001,0.01396309682711732,0.011232446831873225,15.302564141714027,0.010922601100438278,0.014593182264694146
289,0.25,0.001,0.013890398623714894,0.011180410166341944,15.18677578359691,0.010839954163880736,0.01012490689754486
290,0.25,0.001,0.013951031528980598,0.011258963656228811,15.086347584797041,0.010768270938470407,0.010973435760076557
291,0.25,0.001,0.013952549967706809,0.0111180617838039,15.884471147798644,0.011337952282511523,0.017735092767647335
292,0.25,0.001,0.013937570428863394,0.011215389408360277,15.255103087062158,0.01088872454465536,0.011936350858637266
293,0.25,0.001,0.013955792336521415,0.01122017188215165,15.330416761679093,0.01094248162860749,0.011103411604251181
294,0.25,0.001,0.01408639934084137,0.011143951095300277,16.48947973783851,0.011769792817871886,0.011584682057478599
295,0.25,0.001,0.014003331323868128,0.01124932150342289,15.433470435554002,0.011016038854785155,0.010535521964941705
296,0.25,0.001,0.014009291083944327,0.011226379019468267,15.59543900562422,0.011131648112508365,0.009776916354894638
297,0.25,0.001,0.013929942603870697,0.011164506987153273,15.497500932761255,0.011061742278915957,0.012700258488101619
298,0.25,0.001,0.013945824594288914,0.011193226493403392,15.425558956746523,0.011010391832081743,0.01717983784952334
299,0.25,0.001,0.013989649741404552,0.011148277131207099,15.923052952374299,0.011365491043807494,0.018650284569178308
300,0.25,0.001,0.013946269421370198,0.01122500569687277,15.24996097680881,0.01088505423041314,0.011561389081180096
301,0.25,0.001,0.013925522608389408,0.011165803511092809,15.46546615561858,0.011038876627850521,0.01373355429885643
302,0.25,0.001,0.013920142008038946,0.011119101201255007,15.69703209581714,0.01120416280929132,0.012577212282589503
303,0.25,0.001,0.013881339743582126,0.01112386815457931,15.45287140976959,0.011029886802119622,0.01257143375862922
304,0.25,0.001,0.013956877152402389,0.011200532331344137,15.446556313993968,0.011025379239110612,0.012913191691040993
305,0.25,0.001,0.013934900672151352,0.011147409701143121,15.621099486568857,0.011149963944731518,0.013501301939998354
306,0.25,0.001,0.01392023222814054,0.011193644267218519,15.279798304369002,0.010906351394981443,0.015121905133128166
307,0.25,0.001,0.013969820158244087,0.011145280135161986,15.828722624609313,0.011298160331626918,0.018312477839312384
308,0.25,0.001,0.013962846277707119,0.011149359238215813,15.766781952175393,0.011253948574000994,0.014794056436845235
309,0.25,0.001,0.013928391739045302,0.011173157645436712,15.440331856006294,0.011020936371167947,0.010985246260783501
310,0.25,0.001,0.01390944571153918,0.011124316773136255,15.607862830767171,0.011140515939162864,0.010315676020192248
311,0.25,0.001,0.013915296265770337,0.01108010538243854,15.8884092902169,0.01134076323355953,0.009776258508541755
312,0.25,0.001,0.013831259020920937,0.011027649971585589,15.711424827575684,0.011214435993986926,0.010246378502675466
313,0.25,0.001,0.013897721537478685,0.011162590684586672,15.327672193498175,0.010940522622054373,0.010172755790076085
314,0.25,0.001,0.013780308414609903,0.011013751164040892,15.503787123007218,0.011066229209855259,0.009618952271661587
315,0.25,0.001,0.013866297702120646,0.011103956832498462,15.48015848150108,0.011049363655603911,0.010817399980234248
316,0.25,0.001,0.013864961972809987,0.01105604039476759,15.741197460193925,0.011235686980866471,0.017287034408322403
317,0.25,0.001,0.013822099071014957,0.011086161659680648,15.332192832443315,0.010943749345070175,0.012631316403193133
318,0.25,0.001,0.013891127773650407,0.011216862609392496,14.98658171523041,0.010697060467687659,0.01753967714362911
319,0.25,0.001,0.013884814697209046,0.011129443023145804,15.441102589447485,0.011021486502103843,0.0197190594460283
320,0.25,0.001,0.01392040542104674,0.01117226082434509,15.400602093807937,0.010992578225416086,0.01864423935434648
321,0.25,0.001,0.013906673636987124,0.011125775167557793,15.58415593471624,0.011123594528705382,0.012175026482769422
322,0.25,0.001,0.01392543507824997,0.011211889904692088,15.206706957163544,0.010854180554720589,0.018466401978262832
323,0.25,0.001,0.013942805757074793,0.011053580147814629,16.19121980425065,0.011556902072984047,0.015821794380566905
324,0.25,0.001,0.013835892208903878,0.011076508165540429,15.463589038945697,0.01103753678725603,0.011999917615737234
325,0.25,0.001,0.013807978065032039,0.011145192869763992,14.922249566479987,0.010651141731962875,0.014500326410468136
326,0.25,0.001,0.013814948773399222,0.011102850908214973,15.198597327101654,0.010848392096432301,0.011440356195505177
327,0.25,0.001,0.013873220095174566,0.01106883983983455,15.71574727653852,0.011217521253774818,0.012890183233789035
328,0.25,0.001,0.013880031883035819,0.011042310974470854,15.902587890625,0.01135088357646324,0.014661819407982486
329,0.25,0.001,0.013782117057232385,0.011029251884234132,15.427056598179231,0.011011460812404875,0.014583891390689782
330,0.25,0.001,0.013848942964512685,0.011055656864785301,15.65357534534435,0.011173144429225089,0.0158080557095153
331,0.25,0.001,0.013921684438958385,0.011240620686091142,15.02468225798631,0.01072425571590743,0.016874435623841628
332,0.25,0.001,0.013800547718245366,0.011129973673729728,14.965896296622184,0.01068229571493375,0.013965159455048186
333,0.25,0.001,0.013926244156463497,0.011039738302227809,16.175979977331792,0.01154602425219971,0.015386666570390974
334,0.25,0.001,0.013868645268497128,0.01108029974520509,15.62588943926816,0.011153382897407681,0.016584089158901145
335,0.25,0.001,0.013882675808547112,0.011157469313383708,15.27205681195719,0.010900825704466231,0.014668581142489399
336,0.25,0.001,0.01380188554657746,0.011032588037704755,15.519142460702035,0.011077189479444707,0.013451676948794298
337,0.25,0.001,0.013791232629854062,0.011017340968178614,15.544889086999264,0.01109556680014223,0.012670453238700117
338,0.25,0.001,0.013815184090721426,0.011087925622457175,15.283556405662885,0.010909033837018476,0.012244487314351968
339,0.25,0.001,0.01383428736518936,0.011002904910424034,15.867067574244466,0.011325530031580633,0.018259333579667976
340,0.25,0.001,0.01386432889565296,0.011032812755914206,15.86781740430648,0.01132606524218878,0.013799999707511492
341,0.25,0.001,0.013803524073913012,0.01105762292456052,15.388029785930808,0.010983604415368171,0.010211339353450708
342,0.25,0.001,0.013785556261309513,0.011099799616536513,15.050979464187234,0.010743026027257126,0.014082922600209713
343,0.25,0.001,0.013772839500668085,0.010959259097270553,15.767305136937175,0.011254322010661795,0.01352217114929642
344,0.25,0.001,0.013793208678891212,0.011037750632932343,15.441587452961103,0.01102183258598223,0.014035065392298358
345,0.25,0.001,0.013773778491289482,0.01099007267051088,15.599888448182702,0.01113482401726103,0.01196057376052652
346,0.25,0.001,0.013811306351899798,0.011029211284242911,15.590861610954788,0.01112838087862583,0.01219782858554806
347,0.25,0.001,0.013776683031113316,0.01105157773336632,15.271491810755077,0.01090042242023917,0.014212320425680705
348,0.25,0.001,0.01381662920079558,0.011022516242630289,15.658209548988923,0.011176452211983528,0.018492809230727807
349,0.25,0.001,0.013751698430949056,0.010981062105691372,15.526646260682702,0.011082545510837045,0.013406231201120786
350,0.25,0.001,0.013916576489201051,0.01116040464831034,15.445589026823868,0.011024688812865002,0.013422510387109858
351,0.25,0.001,0.013812472571046824,0.011023932774811228,15.626977499366411,0.011154159528455682,0.014178673603704997
352,0.25,0.001,0.013661329568302268,0.010893102995294907,15.513142435683816,0.011072906806341053,0.01152486154543502
353,0.25,0.001,0.013730783658433082,0.01103249350609967,15.121216919216408,0.010793159828134481,0.01521322171070746
354,0.25,0.001,0.013695786726013355,0.010874969643649413,15.807859561164973,0.011283268780274785,0.0101526525270726
355,0.25,0.001,0.013866116864805295,0.011032298968414667,15.880716009188424,0.011335271955166612,0.010805266776255198
356,0.25,0.001,0.013783559543529743,0.010988719165703367,15.662286100048703,0.01117936195578066,0.012681672349572182
357,0.25,0.001,0.013785589098703437,0.011080111547132131,15.161496196301455,0.010821910204355072,0.012100306073469775
358,0.25,0.001,0.01378057091993275,0.01097412442854667,15.727326286625742,0.011225786071824227,0.012862634578985828
359,0.25,0.001,0.013764051157924426,0.01101440754317239,15.409003175454696,0.010998574714814201,0.012171638464289052
360,0.25,0.001,0.013703659503025755,0.01089408621664731,15.744849519681205,0.011238293732820275,0.01239650949303593
361,0.25,0.001,0.013718520716626935,0.01094708375651673,15.531131860568438,0.011085747223817586,0.011472842057368584
362,0.25,0.001,0.013748293203599563,0.010971093181577431,15.563429512953395,0.011108800508888933,0.015445504736687456
363,0.25,0.001,0.013887381549867881,0.011008938883199607,16.13079268557166,0.011513770653512962,0.013235599733889103
364,0.25,0.001,0.013756575540351082,0.010954065598207077,15.705266003681318,0.0112100399740766,0.011028690330152
365,0.25,0.001,0.013719554111210223,0.01096645714289646,15.428355580053958,0.011012387994328307,0.011160261197281736
366,0.25,0.001,0.013782943608381119,0.010980295811585968,15.706039283481346,0.011210591922542002,0.00996282191148826
367,0.25,0.001,0.013757617132464036,0.01089842895490264,16.022890110306328,0.011436752398505588,0.01241645310074091
368,0.25,0.001,0.013811602181551723,0.01093908554879088,16.097583025240052,0.011490066399172057,0.013762696579630886
369,0.25,0.001,0.013737598041705976,0.010911202209476892,15.839122026704894,0.011305583173950674,0.013097852601536683
370,0.25,0.001,0.013816650479389023,0.010987147131017621,15.856537944774336,0.01131801423609874,0.014866567083767481
371,0.25,0.001,0.01376782678218965,0.011002062219502357,15.499344239985277,0.011063057987141526,0.013637977984866925
372,0.25,0.001,0.01366807315214939,0.010888546913257104,15.57646424637228,0.011118104387132248,0.010225360281765461
373,0.25,0.001,0.013686432167509486,0.010959884794759872,15.279569824334933,0.010906188311445348,0.012146897614002228
374,0.25,0.001,0.013686838673266965,0.0110121873977977,14.988746657589365,0.010698605751312894,0.012490454861628158
375,0.25,0.001,0.013721211307544999,0.010916920336256474,15.715245813282614,0.011217163321400866,0.013606656276221787
376,0.25,0.001,0.013609385760831955,0.010791027152598812,15.794081867043742,0.011273434594606526,0.008775703276374511
377,0.25,0.001,0.013700590284569615,0.011007452218174027,15.092346283384991,0.010772552664800136,0.01237549725919962
378,0.25,0.001,0.013705946211963136,0.010978690745677743,15.283541079100013,0.010909022897287662,0.011461419785129172
379,0.25,0.001,0.013666269700350193,0.010906401998008871,15.466299797677753,0.011039471661440222,0.009488275806818689
380,0.25,0.001,0.01363051137154175,0.010883602956640842,15.393675717000429,0.010987634344754053,0.010313643674765314
381,0.25,0.001,0.013665082533536526,0.010862416332483594,15.706141762321975,0.011210665069466079,0.010504890033709151
382,0.25,0.001,0.013616444925933623,0.010949988386163555,14.942822858161733,0.010665826451221794,0.015499179251492023
383,0.25,0.001,0.013768969557536434,0.010952692753091681,15.78241523994407,0.011265107237647445,0.01741616946778127
384,0.25,0.001,0.013684032702355216,0.010848120809887266,15.892450201934968,0.011343647538854367,0.010969137639871665
385,0.25,0.001,0.013633776938325258,0.010972816255983665,14.91202321512445,0.010643842409082406,0.012860412975507123
386,0.25,0.001,0.0136274122183925,0.010881598878103464,15.38753784005412,0.010983253276269892,0.011493774530078684
387,0.25,0.001,0.013754212548058045,0.010973920024515409,15.580759324398137,0.011121170110205665,0.012639083101281099
388,0.25,0.001,0.013552711510718777,0.010754104008718493,15.683397249521942,0.01119443058495499,0.009459471596138818
389,0.25,0.001,0.013628641096165942,0.010864755441316494,15.488815617440316,0.011055542910378528,0.011461598798632622
390,0.25,0.001,0.01356021692115946,0.010870856391313263,15.071175643030157,0.010757441572469776,0.010810976914529289
391,0.25,0.001,0.013636118935676395,0.010791772437579741,15.939718672466762,0.011377386632738589,0.010988862852432899
392,0.25,0.001,0.013625586400668936,0.010862914223677767,15.482016713486106,0.011050690016763816,0.011337051434176309
393,0.25,0.001,0.01375314514838197,0.010980411182124603,15.538400727480196,0.011090935565653244,0.01305354612746409
394,0.25,0.001,0.01374053463415446,0.0109925057483733,15.399954166509174,0.01099211575054188,0.013062246010771819
395,0.25,0.001,0.013720108489245932,0.010904475914191473,15.778805877956643,0.01126253096213893,0.01843031362763473
396,0.25,0.001,0.013706090893161478,0.01085857555818588,15.957476398061374,0.011390061668851802,0.019683105471943105
397,0.25,0.001,0.013672861511710332,0.010927999935817294,15.382206423028471,0.01097944783942075,0.01722560011382614
398,0.25,0.001,0.013750726744759507,0.010965903530719922,15.606150326995076,0.011139293595285564,0.01976719937686409
399,0.25,0.001,0.013839363087403593,0.01096530749372722,16.106207678160693,0.011496222468351672,0.019581354888422147
400,0.25,0.001,0.013714926596258194,0.011072742105059817,14.806801495818318,0.010568737684381383,0.01470661283071552
401,0.25,0.001,0.013643160831126464,0.010834042848026389,15.742298261768322,0.01123647270647275,0.015915585748319114
402,0.25,0.001,0.013693512346463155,0.01087074810497198,15.81877035537952,0.011291056641955403,0.012901104720575469
403,0.25,0.001,0.013623260193253835,0.010735138598356755,16.18503369171607,0.011552486575100693,0.012805095075496606
404,0.25,0.001,0.013663188819088004,0.01096167248026066,15.13929734012197,0.010806065196375425,0.01185123442805239
405,0.25,0.001,0.01360737836829902,0.01077784963311429,15.85667922896177,0.011318115081343161,0.012702851822333676
406,0.25,0.001,0.013575386634181598,0.010817549813084948,15.4549183143577,0.011031347833231763,0.011541068420878478
407,0.25,0.001,0.013643729476834917,0.010788025764682269,16.00336389493216,0.011422815057053648,0.012161944859794207
408,0.25,0.001,0.013644188595226573,0.010814453867561927,15.857832777923738,0.011318938456762125,0.011749053640025002
409,0.25,0.001,0.013538280081211915,0.010757074152417292,15.585878338305479,0.011124823938833319,0.012100382441920894
410,0.25,0.001,0.013531132653204318,0.010794890411009039,15.333901545723078,0.010944968983385496,0.012187793252191373
411,0.25,0.001,0.013571915193106318,0.010866231748333134,15.162650398796584,0.010822734046250239,0.009960589331707783
412,0.25,0.001,0.013659241382354104,0.01080944525257585,15.970258296443726,0.011399185079545843,0.012455482435013567
413,0.25,0.001,0.013585356976553269,0.010703272975716493,16.151198493647698,0.011528335827014773,0.0154065608179995
414,0.25,0.001,0.013526423536430155,0.010819946236076391,15.167099231390784,0.010825909515625114,0.011542377128664936
415,0.25,0.001,0.013558563298834156,0.010701865232005942,16.008935715341327,0.011426792088038063,0.011573550557451589
416,0.25,0.001,0.013524529807799055,0.010760090124750803,15.491920287233924,0.011057758948775106,0.00916095623480422
417,0.25,0.001,0.013554670706126593,0.010801993679198516,15.426002299119979,0.011010708279172004,0.009400891007057257
418,0.25,0.001,0.013519389488672847,0.01075490153758659,15.49219076282482,0.011057952007726494,0.01100776284666998
419,0.25,0.001,0.013675835219963553,0.010968842434928502,15.1699878673263,0.010827971354265739,0.01120885501482657
420,0.25,0.001,0.013607927224584643,0.01070119165886326,16.289347033815336,0.01162694292206662,0.009658838821841138
421,0.25,0.001,0.01343925107213749,0.010644782556759828,15.660203314069564,0.011177875313397262,0.009556446956204516
422,0.25,0.001,0.013514949509940172,0.010789225104874766,15.274959733643508,0.010902897739931127,0.010667407885193825
423,0.25,0.001,0.013563293349092382,0.01073661688620669,15.840694533991934,0.011306705591714443,0.01156790301735912
424,0.25,0.001,0.013555499271201301,0.01068875983092688,16.065209398414883,0.011466958885378218,0.011929255244987351
425,0.25,0.001,0.013460410664302444,0.010704654495841659,15.443257806264809,0.011023024843872098,0.011727372716580118
426,0.25,0.001,0.013542693609437967,0.010714901592298813,15.846946832492266,0.011311168331543374,0.015208256297877856
427,0.25,0.001,0.013702671469052128,0.010970708112785508,15.309923593162885,0.01092785409933111,0.015606254206172057
428,0.25,0.001,0.013736530434018767,0.0109278189803138,15.740018283050073,0.011234845312669575,0.014250801344002997
429,0.25,0.001,0.01367715317850488,0.010880197724563822,15.674138601661333,0.01118782198548275,0.012451652570494584
430,0.25,0.001,0.013626355162542786,0.010832339912879891,15.657661418624336,0.011176060969753274,0.019829806871712208
431,0.25,0.001,0.013530756531254894,0.010765980536751638,15.493803929556444,0.011059103447220874,0.011530050874820777
432,0.25,0.001,0.013560269420333018,0.010823076675991116,15.339228344447722,0.010948771123802799,0.00988080512200083
433,0.25,0.001,0.013552245386133943,0.010761974842717804,15.636677030379397,0.011161082819685508,0.011034285383565086
434,0.25,0.001,0.013619615289803386,0.010795473738048737,15.826488974130699,0.011296566005803498,0.011607961463076728
435,0.25,0.001,0.013517326363338734,0.010815531629974466,15.14085789985463,0.01080717908626312,0.01212564150669745
436,0.25,0.001,0.013502177493977668,0.010760531368367562,15.36418492176811,0.010966584526601078,0.014522451774350234
437,0.25,0.001,0.013622303526413622,0.010783807558910495,15.906931068691506,0.01135398363218523,0.017248937860131264
438,0.25,0.001,0.013541151178518528,0.010742057904336355,15.68611884238151,0.011196373192278024,0.013087394780346326
439,0.25,0.001,0.013599077551649307,0.010775859897890067,15.821312163686994,0.011292870923402564,0.015008473436215095
440,0.25,0.001,0.013651363821085637,0.010712644586405778,16.468583266747178,0.011754877420947307,0.013076632283627987
441,0.25,0.001,0.01357233053460944,0.010845383619747791,15.281810276399408,0.010907787492076666,0.012509682481842381
442,0.25,0.001,0.013535968122559453,0.010750587433954786,15.60927463182943,0.01114152364870052,0.012168435779001032
443,0.25,0.001,0.013584203394082598,0.010832020190312777,15.423235409150873,0.011008733339865006,0.012587846922022956
444,0.25,0.001,0.013508603823026122,0.010672571255735636,15.893126763668157,0.011344130452297043,0.011236037925950118
445,0.25,0.001,0.01356117062384102,0.010774885663564132,15.614340932236106,0.011145139851703144,0.009694474749267101
446,0.25,0.001,0.013407484850453847,0.010493324894628247,16.330951676150868,0.011656639312027742,0.008840798466865505
447,0.25,0.001,0.013451818130948217,0.010687304027189459,15.492336791178902,0.011058056239242614,0.009824039214955909
448,0.25,0.001,0.013456746311811022,0.010713395638968134,15.373737194816472,0.010973402708648446,0.010424362495541573
449,0.25,0.001,0.013423379226989553,0.010596534336543628,15.841640109338131,0.011307380520583962,0.014891523601753371
450,0.25,0.001,0.013460086989523796,0.010744334141804179,15.219077947781171,0.010863010669365576,0.013429129496216774
451,0.25,0.001,0.013511271263250543,0.010723824381147544,15.620852010504244,0.011149787302287112,0.014669481930988175
452,0.25,0.001,0.013484203119568413,0.010667487250896274,15.784875133921048,0.011266863050621733,0.01426169861640249
453,0.25,0.001,0.013536033962810706,0.01074449535988763,15.643783666155665,0.01116615536485058,0.011569229819412743
454,0.25,0.001,0.013624640838786733,0.01073318513271016,16.20371789496562,0.011565822908612149,0.013990882518036025
455,0.25,0.001,0.013447174017653248,0.01070278200325627,15.379573115237474,0.010977568247849732,0.014013816536005055
456,0.25,0.001,0.01348991912368893,0.010748342199600892,15.36379707646249,0.010966307691978936,0.012752015276678972
457,0.25,0.001,0.013515527081217258,0.010656648556593106,16.02115664022223,0.011435515089380607,0.013651706012231963
458,0.25,0.001,0.013486353902685159,0.010724933335775046,15.47500133998503,0.011045682612409015,0.011806593808744634
459,0.25,0.001,0.013428021127802467,0.010620268978897085,15.734643190645324,0.011231008701388524,0.010715016962162085
460,0.25,0.001,0.01348826806368259,0.010751206163071134,15.338496343738537,0.010948248639356558,0.011705998730446612
461,0.25,0.001,0.013430956325630851,0.010679103152798063,15.421385537549323,0.011007412946145127,0.011185355484485626
462,0.25,0.001,0.013354252347826655,0.010584396196690006,15.522274210973439,0.011079424847233005,0.010833505408040114
463,0.25,0.001,0.01345996028237839,0.010676003538715053,15.601293602570664,0.011135826982562928,0.012295160708682877
464,0.25,0.001,0.013568593652417816,0.01072962482360565,15.909581102090439,0.011355875162091677,0.01647162756749562
465,0.25,0.001,0.013428651193525586,0.01059009183462955,15.907286721437716,0.011354237488535129,0.013496957985418183
466,0.25,0.001,0.013679811106947474,0.010827362858855785,15.985119882573937,0.01140979292118054,0.016497556918433735
467,0.25,0.001,0.013536449143577954,0.010772009791456504,15.491918510591923,0.011057757680650909,0.011450271720864944
468,0.25,0.001,0.0134879291851811,0.010660384852571536,15.845558156821934,0.011310177128352557,0.011641819296138627
469,0.25,0.001,0.013518710493058117,0.010605387039822976,16.326264507274338,0.011653293723964552,0.010928759550941842
470,0.25,0.001,0.01351770131286177,0.010635650589078815,16.151013688992727,0.011528203917910583,0.011435374484530516
471,0.25,0.001,0.013529299271439537,0.010623708561176273,16.282930630717786,0.011622363048335322,0.010269049821155412
472,0.25,0.001,0.013508130659155433,0.010712015035982967,15.669433070923471,0.011184463291165932,0.012380693506981646
473,0.25,0.001,0.01352694992751337,0.010718200989256655,15.740229330692195,0.011234995953384863,0.013914120383560658
474,0.25,0.001,0.013589456545066107,0.010727769331202895,16.03689336534684,0.011446747584116233,0.011655992695263453
475,0.25,0.001,0.013459769886005954,0.010589982694969868,16.082287328497408,0.011479148699855394,0.011846927194190877
476,0.25,0.001,0.013476582631695695,0.010712921080477347,15.487559149107957,0.011054646073595973,0.014057087179805552
477,0.25,0.001,0.013437599695386923,0.01070006488619117,15.341144895795638,0.010950139111916944,0.011659551677959306
478,0.25,0.001,0.013479325688694636,0.010605126869897855,16.10701040083987,0.011496795432433883,0.011472993131194795
479,0.25,0.001,0.013354564624540696,0.010560823041888965,15.656128389581205,0.01117496673060757,0.010777480035488094
480,0.25,0.001,0.013424085245141524,0.010588332566286102,15.891558225989947,0.011343010867944288,0.01255160862846034
481,0.25,0.001,0.013449842261557047,0.010574054086420136,16.11591650386752,0.011503152393909722,0.012938529585621186
482,0.25,0.001,0.013403265543168572,0.010568916391070724,15.883692673620233,0.01133739662642415,0.01280405864651714
483,0.25,0.001,0.013449655959221917,0.010704142027321806,15.385860070359284,0.01098205572473896,0.014341083222201892
484,0.25,0.001,0.013397943984887322,0.01052679026943778,16.089944423152712,0.01148461414928816,0.013580994414431708
485,0.25,0.001,0.013416300300830209,0.010740266351719496,14.996493121694186,0.010704134990502632,0.012657164063836848
486,0.25,0.001,0.01343281123654794,0.010522027726895011,16.31203164424993,0.01164313464971444,0.016701725577669486
487,0.25,0.001,0.013466452163299026,0.010682915810136324,15.598937925348427,0.011134145556993881,0.013959553358810288
488,0.25,0.001,0.013507964637905812,0.010658829572237082,15.966553470204929,0.011396540663957837,0.013530307715492589
489,0.25,0.001,0.013486618596852431,0.010661922102122743,15.829599535404729,0.011298786249396666,0.00951781143833484
490,0.25,0.001,0.013385513750127124,0.010496279763691316,16.19126862075728,0.011556936917028752,0.012550023517438344
491,0.25,0.001,0.013462659576671377,0.010677465927895858,15.608225188279516,0.011140774581213073,0.013880298339894839
492,0.25,0.001,0.013387047203475146,0.010456066328067767,16.42521713953938,0.011723923725581285,0.011299301071890764
493,0.25,0.001,0.013400606735406188,0.010507064833669796,16.215408252580517,0.011574167203840482,0.010643361402409417
494,0.25,0.001,0.013401335341676238,0.010589953894882941,15.754981287844895,0.011245525544500283,0.01408568796302591
495,0.25,0.001,0.013442640329904968,0.010610170426026818,15.873160749522562,0.011329879193092479,0.011571290769747325
496,0.25,0.001,0.01357467097187708,0.010799191457214695,15.55378726049123,0.011101918101706803,0.015415378979274206
497,0.25,0.001,0.013471387719102015,0.010547559018138097,16.385135529610107,0.011695314439407642,0.011207417252340488
498,0.25,0.001,0.013495263080987228,0.010816428186324648,15.012190397620806,0.010715339327352467,0.014935548018131937
499,0.25,0.001,0.013540758368403173,0.01061576074887502,16.391686967181677,0.011699990697488706,0.01745278893836907
500,0.25,0.001,0.013399915055839847,0.010507304547590956,16.210189504671824,0.011570442187488811,0.011819203118128436
