epoch,beta,learning_rate,train_loss,train_reconstruction_loss,train_kl_unnormalized,train_kl_normalized,mean_unclipped_gradient_norm
1,0.0,0.001,0.07391234200971186,0.07391234200971186,59.99896728893942,0.04282581533828652,0.13717552150289217
2,0.02,0.001,0.054153219758232764,0.04760060126870132,459.0109390805247,0.3276309343900961,0.11604933440685272
3,0.04,0.001,0.04260966132495029,0.03725467698222678,187.55833170236636,0.1338746122072565,0.09533922125895818
4,0.06,0.001,0.034222995487783237,0.030752713799722924,81.03108564224453,0.05783803400588475,0.09393215489884217
5,0.08,0.001,0.03207829010675433,0.02817751203994613,68.31237637438393,0.048759726177290456,0.08186405835052331
6,0.1,0.001,0.030830184367200558,0.027594605932838332,45.33045346809156,0.03235578406002253,0.05571468609074751
7,0.12,0.001,0.0298164592281025,0.027788676259931453,23.674365508654887,0.016898190941224044,0.032035035702089466
8,0.14,0.001,0.02923653993150091,0.02737137785094172,18.664944273052793,0.013322586918667233,0.028340694028884172
9,0.16,0.001,0.02883267950153712,0.026696099897143596,18.70842536947287,0.013353622676283277,0.034678883384913206
10,0.18,0.001,0.02865706896281111,0.0266299712684611,15.77757815946889,0.011261654646301848,0.040507668163627386
11,0.2,0.001,0.028064420144009526,0.02603267256386024,14.232391617514871,0.010158737771245447,0.03998868027701974
12,0.22,0.001,0.027303104876404624,0.02512109324274477,13.895447287020932,0.009918235037131287,0.043831611362596355
13,0.24,0.001,0.02645200781380506,0.024200147885018473,13.145232360881879,0.009382749722256873,0.0427920970444878
14,0.25,0.001,0.025274977293224702,0.022643600059442284,14.746239633271188,0.010525510087987999,0.04044363213082155
15,0.25,0.001,0.024386371929742415,0.02162447037077804,15.47769690216737,0.011047606639662649,0.06567214732058346
16,0.25,0.001,0.023569056861738855,0.020612168077061326,16.57040593381099,0.01182755598416202,0.06128510553389788
17,0.25,0.001,0.022833960284748354,0.01997444400507392,16.024727298536906,0.01143806373914126,0.05715172924101353
18,0.25,0.001,0.022416613251997092,0.01954515720140343,16.091640136130255,0.011485824508301396,0.05609742303689321
19,0.25,0.001,0.021582407286754982,0.018765960627597226,15.783366158645672,0.01126578598047514,0.05766374338418245
20,0.25,0.001,0.021221764159925056,0.0182875617107084,16.44326983995674,0.011736809307606524,0.08776500448584557
21,0.25,0.001,0.020826287136590186,0.01785186718194938,16.668648212737615,0.011897678952703508,0.07096642752488454
22,0.25,0.001,0.020782343637885798,0.017681715881693132,17.375920726576457,0.012402513009690547,0.08715860483547051
23,0.25,0.001,0.019888727969333487,0.016895977703254086,16.771372787223374,0.011971001275676926,0.04545457296383878
24,0.25,0.001,0.019864503586710977,0.01700817080363426,16.006892532684915,0.011425333713550975,0.05076198295379678
25,0.25,0.001,0.01970129936276717,0.01659618963592637,17.40103762340283,0.012420440844684388,0.06867216574028134
26,0.0,0.001,0.01589814464743801,0.01589814464743801,19.814328106966887,0.014142989369712268,0.048396083215872444
27,0.02,0.001,0.015446581084989319,0.014992811273239532,31.78656768798828,0.022688485144888138,0.06493476421261828
28,0.04,0.001,0.015841050986867635,0.014598253439629538,43.52898665499096,0.031069940510343296,0.08205117161075275
29,0.06,0.001,0.01609575416451479,0.013844558671527328,52.56541973565892,0.03751992843373228,0.05734539901216825
30,0.08,0.001,0.016365421689615762,0.013652379314104715,47.51216212711387,0.03391303506574866,0.04010017247249683
31,0.1,0.001,0.01648364037008489,0.013807677851153471,37.4902361036989,0.0267596260554596,0.01992186422770222
32,0.12,0.001,0.016784900163118177,0.014392763668717432,27.92819041522738,0.019934468533352876,0.033593129366636276
33,0.14,0.001,0.01700509263628442,0.0145516933837377,24.55151810133753,0.017524281300026787,0.05571330711245537
34,0.16,0.001,0.017104681288777304,0.014482137695796397,22.96364800529375,0.016390897933828516,0.0248022706558307
35,0.18,0.001,0.017405002513905532,0.014444415693584388,23.043228711635283,0.01644770072208086,0.02428389573469758
36,0.2,0.001,0.01771941836461548,0.014585420135254702,21.95365329879046,0.015669988079079558,0.02789844557022055
37,0.22,0.001,0.017828944075041896,0.014653638928882346,20.22092128259748,0.014433205769163083,0.020879178618391354
38,0.24,0.001,0.017879250261819725,0.014459248160117257,19.96426159356908,0.014250008275209908,0.032113876193761826
39,0.25,0.001,0.01795059633402785,0.014797101915908911,17.672182713658355,0.012613977668564137,0.03237200792257985
40,0.25,0.001,0.01781477507193555,0.01471547456843055,17.36848103441811,0.01239720273691514,0.04042729735374451
41,0.25,0.001,0.018002336978214503,0.015069663067946092,16.434703800632278,0.01173069507539777,0.044986216661830745
42,0.25,0.001,0.017583778520568836,0.014395218345108275,17.86869069564441,0.012754240325227987,0.02859427547082305
43,0.25,0.001,0.017591143119310544,0.014661251900835635,16.419110455788857,0.011719564922047721,0.0515380073338747
44,0.25,0.001,0.017696359489862257,0.014831492261699409,16.05471710856624,0.011459469742017302,0.055625508849819504
45,0.25,0.001,0.017486143333852785,0.014619512465518203,16.06460063188201,0.011466524362513924,0.05720263129721085
46,0.25,0.001,0.017530390433453988,0.014448103412842127,17.273138240677593,0.012329149350947604,0.06026618337879578
47,0.25,0.001,0.01727826750680763,0.014402886811572,16.11363690483997,0.011501525271120607,0.01927831411982576
48,0.25,0.001,0.01713117864752604,0.014184298453026403,16.514317299708846,0.011787521270313238,0.025198426252851885
49,0.25,0.001,0.017121941010280417,0.014183614672400242,16.46637931802713,0.011753304295522576,0.02794407618542512
50,0.25,0.001,0.01708355317656823,0.014203140199102317,16.141832477790263,0.011521650590856719,0.0310359513387084
51,0.0,0.001,0.013763653822551089,0.013763653822551089,19.380563189503903,0.013833378436476734,0.02792948391288519
52,0.02,0.001,0.013268120771597239,0.012834320319482938,30.387734604932717,0.021690031837924853,0.02155499889825781
53,0.04,0.001,0.013466211153866503,0.012209092215545085,44.03058361547381,0.03142796831939601,0.019439545925706625
54,0.06,0.001,0.014025179648735963,0.011890331940012202,49.84869695826339,0.03558079725786109,0.019428535209347803
55,0.08,0.001,0.014508075683734306,0.011977859605976044,44.3104081692446,0.03162770033493548,0.027679288449386757
56,0.1,0.001,0.01453193881838857,0.012208045614221372,32.5577433825196,0.023238931750549318,0.03147926523039738
57,0.12,0.001,0.014779427707113182,0.012689824521377395,24.396116997584823,0.01741335974131679,0.022350239334627986
58,0.14,0.001,0.014996532917782131,0.012827664326373538,21.70417712082876,0.0154919180020191,0.02111634922524293
59,0.16,0.001,0.015328886574929574,0.012834035445097064,21.845544688957784,0.015592822761568726,0.03110373392701149
60,0.18,0.001,0.015507409621040354,0.012867300509482869,20.5488506191033,0.014667273818060884,0.02022685281311472
61,0.2,0.001,0.01575086917471623,0.012927416139910865,19.778287987406916,0.014117264801860754,0.01437139130818347
62,0.22,0.001,0.01597474208075974,0.013083145815170994,18.414212528995904,0.013143620648819345,0.01765661376218001
63,0.24,0.001,0.016033329341570864,0.012979944780489465,17.824134290710955,0.012722437038337584,0.024059413156161707
64,0.25,0.001,0.016261887713527875,0.013178841636795807,17.27739210102512,0.012332185653836631,0.02726536135499676
65,0.25,0.001,0.016130773530190313,0.013128137156962528,16.82677599483942,0.012010546748636273,0.02017055933053295
66,0.25,0.001,0.016217383435483478,0.013327039408782297,16.197487539496304,0.011561375831189368,0.018320000497624278
67,0.25,0.001,0.015919990242348556,0.013031947136582093,16.184592126157987,0.011552171396258379,0.01274089600580434
68,0.25,0.001,0.01603959981075003,0.013090934088715344,16.52432231535268,0.011794662609102556,0.03192766259113947
69,0.25,0.001,0.015819726301454645,0.012963107407359873,16.008492469787598,0.011426475710055388,0.023727844702079892
70,0.25,0.001,0.015782039425240896,0.013020071957886382,15.478065971500618,0.011047870072448692,0.01586338800067703
71,0.25,0.001,0.015776201487408523,0.012954925715451234,15.810430274522009,0.011285103693448971,0.025603374078248937
72,0.25,0.001,0.0157131570322085,0.012864066690678603,15.966301090461164,0.011396360521385556,0.014941017686699828
73,0.25,0.001,0.015546831192022841,0.012657494805034855,16.191840946838546,0.011557345429577835,0.012974925339221954
74,0.25,0.001,0.015586786462153121,0.0128452994734993,15.363292394590772,0.01096594746223467,0.012763018098970255
75,0.25,0.001,0.015477446295300464,0.012759777717292309,15.229813914653683,0.010870673743507269,0.0209856277021269
76,0.0,0.001,0.012344527920354004,0.012344527920354004,18.45167808953067,0.013170362662049016,0.01800246334945162
77,0.02,0.001,0.012082646765102205,0.011678792554218087,28.289988777854226,0.02019271147598446,0.010635878037040433
78,0.04,0.001,0.012295792495046766,0.011129159285345682,40.86133063660509,0.029165832003287002,0.009495722517992059
79,0.06,0.001,0.012747537098393952,0.010849597804843559,44.316878925670274,0.03163231900476108,0.011338752694427967
80,0.08,0.001,0.013037718540011359,0.01091784863032339,37.124223399096614,0.026498375017199583,0.011514438161005577
81,0.1,0.001,0.013153185116091214,0.011212862856152465,27.183915109345406,0.01940322277612092,0.011677750231077274
82,0.12,0.001,0.013432213608124204,0.011601581171503901,21.372635518223785,0.015255271604727897,0.01769111390846471
83,0.14,0.001,0.013694106896225742,0.011686093438180683,20.09447812377257,0.01434295369291404,0.017010950793822605
84,0.16,0.001,0.014023430589022058,0.011701790385009828,20.32886231897948,0.014510251476787635,0.02530197783683737
85,0.18,0.001,0.01412457649495976,0.011542829597681842,20.094595407323077,0.014343037407082853,0.019332722760736942
86,0.2,0.001,0.014357576603403433,0.011858036900683211,17.50927464298637,0.012497697817977422,0.014715751943488916
87,0.22,0.001,0.014639032578747463,0.011908247091963928,17.390138841529193,0.012412661557122907,0.012015693665792545
88,0.24,0.001,0.0148115479964609,0.011964673553554973,16.618630351442278,0.011861977410023039,0.015994116353491943
89,0.25,0.001,0.014819942373710558,0.011969150144083441,15.975839283840715,0.011403168653705007,0.021200306092699368
90,0.25,0.001,0.014744491216318666,0.011979059629224385,15.497479509716191,0.011061726987663235,0.011697707697749138
91,0.25,0.001,0.01477792137366599,0.012038707143060103,15.35055662318038,0.010956856975860371,0.01437328903314968
92,0.25,0.001,0.014691025031520151,0.011918033729756338,15.539843012807125,0.011091965034123573,0.01194742190030714
93,0.25,0.001,0.014580981526267266,0.011921580349795582,14.903283983551109,0.010637604556424774,0.009808337160696587
94,0.25,0.001,0.014525239848462511,0.011887741157112863,14.780541932287296,0.010549994241461311,0.013434585959961018
95,0.25,0.001,0.014441798951671801,0.011819019636585692,14.698055748111946,0.010491117593227656,0.014575374002257982
96,0.25,0.001,0.014705338938669725,0.012045210240198397,14.907363229546664,0.010640516223802044,0.019917880029728014
97,0.25,0.001,0.014669533369975478,0.011891203103766625,15.569762463740409,0.01111332081637431,0.027216628193855286
98,0.25,0.001,0.014375449473823397,0.011763531068139824,14.637190406315911,0.010447673380668031,0.01442943528915445
99,0.25,0.001,0.014501699369616252,0.011933213325612473,14.393796970693204,0.01027394501833919,0.02246282637740175
100,0.25,0.001,0.014432144692531958,0.011712670141507772,15.239935197120856,0.010877898070750075,0.015127882982293764
101,0.25,0.001,0.014400148482033701,0.01175299550845357,14.834644291354934,0.010588611200110587,0.012218989276637634
102,0.25,0.001,0.01425885828340185,0.011686842514012143,14.413576044655372,0.010288062844150871,0.010897218249738216
103,0.25,0.001,0.01431683941998265,0.011695925954513806,14.68759929247139,0.01048365402745995,0.010349966818466783
104,0.25,0.001,0.014286726882511919,0.011696317620554904,14.516653898990516,0.010361637329757685,0.013012577313929796
105,0.25,0.001,0.014162754524529966,0.011619738103006004,14.251063499240507,0.010172065309950398,0.01369964083035787
106,0.25,0.001,0.014289120586778834,0.01171139550469713,14.4455726166402,0.01031090122529636,0.01350335218012333
107,0.25,0.001,0.014185386119774714,0.01158296160102301,14.583988068845974,0.010409698835721608,0.01465866380992035
108,0.25,0.001,0.01420116872775571,0.011692610564167014,14.057959990067916,0.010034232683845764,0.014395307128628096
109,0.25,0.001,0.014134524728764187,0.011588942069693702,14.265445112853667,0.01018233055878206,0.014073951945950588
110,0.25,0.001,0.014146553026640547,0.011583341998830644,14.364235060930909,0.010252844440350399,0.015212742456545433
111,0.25,0.001,0.014133355028660501,0.011582358747967019,14.295785076362042,0.01020398649276377,0.017131357919424772
112,0.25,0.001,0.01420936025627799,0.011580125659642634,14.734230742966833,0.01051693843181073,0.01807788573205471
113,0.25,0.001,0.01415686992307504,0.011607416751525126,14.287135943893558,0.010197812950673488,0.01415292810027798
114,0.25,0.001,0.014043266035760072,0.011469803891624466,14.421682678306727,0.01029384916367361,0.02245770301669836
115,0.25,0.001,0.014016638438091627,0.011502162312201069,14.091124492571701,0.01005790470561863,0.01841163681820035
116,0.25,0.001,0.013967324548577967,0.011430724249439464,14.215108784762295,0.010146401702185791,0.01285200558292369
117,0.25,0.001,0.01390473166167654,0.011325041042543312,14.456586462078672,0.01031876264245444,0.016037636746962864
118,0.25,0.001,0.013875478460420098,0.011313895374208113,14.355110772713486,0.010246331743549953,0.018246598386516173
119,0.25,0.001,0.01394639214239091,0.011470647290164282,13.874074239704562,0.009902979471594976,0.02467076511432727
120,0.25,0.001,0.014006747430595812,0.011544840882427108,13.796524016325138,0.009847625993094317,0.02155928003291289
121,0.25,0.001,0.013935570312617732,0.01138066879368436,14.317668323674479,0.010219606226748378,0.02082602803905805
122,0.25,0.001,0.013867729376827061,0.01134418428826759,14.141946695396067,0.010094180367877278,0.01958103058859706
123,0.25,0.001,0.013885171619595411,0.011422088092639426,13.803119969433661,0.009852334025291693,0.02435134785870711
124,0.25,0.001,0.01380929957367172,0.011311548359220021,13.997399046401346,0.009991005743327157,0.020489453648527462
125,0.25,0.001,0.013897979106066476,0.01143260119282756,13.815978646606782,0.009861512238834249,0.018615967749307554
126,0.25,0.001,0.013746279091689705,0.01123272737657482,14.085944548782894,0.01005420738671156,0.022745748981833458
127,0.25,0.001,0.013740727175078444,0.01120599826474574,14.204620815834067,0.010138915642993624,0.013736445301522812
128,0.25,0.001,0.01371238602340714,0.011205319289538815,14.049601870134842,0.0100282668594824,0.014668078472216925
129,0.25,0.001,0.013713300938797555,0.01123703700379974,13.876983237989021,0.009905055844389023,0.020195046594987314
130,0.25,0.001,0.01373558269798263,0.011166884930747929,14.394982984243345,0.010274791566197962,0.015298604033887386
131,0.25,0.001,0.013654077743736837,0.011098473512416208,14.321606286629502,0.010222417049699858,0.011895926669239998
132,0.25,0.001,0.01361137373788544,0.011194396576749227,13.544740587555015,0.009667909056070675,0.017187301767989993
133,0.25,0.001,0.013689788399628535,0.011224878538841222,13.813355839942112,0.009859640142713856,0.015480864948282639
134,0.25,0.001,0.013705300911234758,0.011162898613565881,14.247621961861602,0.010169608823598575,0.020776829682290554
135,0.25,0.001,0.013594140344845854,0.01106956161394428,14.147739392009976,0.010098315054967864,0.022634137732287247
136,0.25,0.001,0.013652052868865738,0.011160565760838428,13.96229383768129,0.009965948492277867,0.01812125990788142
137,0.25,0.001,0.013709732169701049,0.011199025560385925,14.069999579227332,0.010042826252125148,0.015435423081119856
138,0.25,0.001,0.013612490357733627,0.01105773428675639,14.316852640514531,0.010219024011787673,0.012773227877914906
139,0.25,0.001,0.01361700794954602,0.011057037144345193,14.3460765239621,0.01023988331474811,0.014477980711186925
140,0.25,0.001,0.013532838999670891,0.011026375962949817,14.04621873545581,0.010025852059568744,0.013791261706501245
141,0.25,0.001,0.013574431437393522,0.011073441480699485,14.015548685037071,0.01000396051751397,0.012911994320650896
142,0.25,0.001,0.013542356444189206,0.011075955310184765,13.821711448270099,0.009865604174354104,0.017166844103485346
143,0.25,0.001,0.013577324594820006,0.01105070298860881,14.159189082374258,0.010106487567718956,0.022736880307396252
144,0.25,0.001,0.013503176568091408,0.010997852823663678,14.03983521789887,0.010021295658742949,0.024760130637635786
145,0.25,0.001,0.013502480005511895,0.01108128182877358,13.568393883297922,0.00968479220792143,0.02030629649137457
146,0.25,0.001,0.013521730497007363,0.011063356968489561,13.776725480050752,0.009833494275553713,0.018502136847625177
147,0.25,0.001,0.013513538652912972,0.01096675416439279,14.272180163170681,0.01018713787521105,0.021508657994369667
148,0.25,0.001,0.013388778865542622,0.010830383409153332,14.337248134875757,0.010233581823608678,0.013917062586794296
149,0.25,0.001,0.013469349172161303,0.01099662165370444,13.857166455796927,0.009890911103352553,0.014706509498258432
150,0.25,0.001,0.013401201756840403,0.010871959177997815,14.17387571413655,0.010116970531146716,0.012489872829367718
151,0.25,0.001,0.013455532147413114,0.010952681662212062,14.025974265800034,0.010011402045538926,0.014266025895873705
152,0.25,0.001,0.013353643441167417,0.01090576327033854,13.717920009098105,0.009791520349106428,0.010444313598175844
153,0.25,0.001,0.01332224400575496,0.010861866155603372,13.787957832504567,0.009841511657747729,0.016318891973545153
154,0.25,0.001,0.013336378873195037,0.010872204159450597,13.809235680530222,0.009856699272327067,0.017187212438633043
155,0.25,0.001,0.013318320395060644,0.0108323317334138,13.93148126680989,0.009943955222562377,0.01703794626519084
156,0.25,0.001,0.013294895769663915,0.01081674259422814,13.887570410063773,0.009912612712393843,0.012593632563948631
157,0.25,0.001,0.013320710712700015,0.010797210296836602,14.141697092818163,0.010094002207578988,0.01113316408979396
158,0.25,0.001,0.013291820747772689,0.01083735772985811,13.754810349015164,0.009817851783736734,0.012741718829299012
159,0.25,0.001,0.013310372980809244,0.010857185931265683,13.74766035053684,0.009812748287321085,0.010413132297496
160,0.25,0.001,0.013345931123008248,0.01078554960968327,14.34837878045957,0.010241526609892627,0.009299842097486058
161,0.25,0.001,0.01317410932510024,0.010660537120888713,14.086057852122408,0.01005428825990179,0.010169528579960266
162,0.25,0.001,0.013220733113730577,0.010786039503316906,13.644023170155927,0.009738774568276893,0.01148530274319152
163,0.25,0.001,0.013208558942004012,0.010757877147620538,13.733620562172462,0.009802727025105255,0.015085967568059763
164,0.25,0.001,0.013317880207883097,0.01081028347193538,14.052572239857403,0.01003038703772834,0.01217352218615512
165,0.25,0.001,0.013300604346020983,0.010750969787212935,14.288152657921321,0.010198538656617646,0.01295949937775731
166,0.25,0.001,0.013203347360935914,0.010705716815615489,13.99672145948594,0.009990522098134147,0.011561643642683824
167,0.25,0.001,0.013178836600470149,0.010678478059956685,14.012009460407183,0.01000143430435916,0.012425838503986597
168,0.25,0.001,0.013119086992642111,0.010622547382678703,13.990607132924819,0.009986157839346765,0.012846149348964294
169,0.25,0.001,0.01313259551614605,0.010714950553108182,13.548482253860179,0.009670579767209263,0.009995562257245183
170,0.25,0.001,0.013182512584550322,0.010672807852550315,14.064385697861349,0.010038819199044502,0.01122057344764471
171,0.25,0.001,0.013158540551861128,0.010606720268767399,14.300401230488927,0.010207281392211939,0.011609592009335756
172,0.25,0.001,0.01308984715830196,0.010604973941446171,13.925230743471255,0.009939493749801038,0.010974040332560739
173,0.25,0.001,0.013116123182981304,0.010683235014498891,13.633905739166849,0.00973155299012623,0.011439201344425479
174,0.25,0.001,0.013113546028692203,0.010621364325921234,13.966185890281825,0.009968726545525927,0.012035624822601676
175,0.25,0.001,0.013075119169228825,0.010546133850929494,14.172434186804065,0.010115941603714537,0.012672555865719914
176,0.25,0.001,0.013124127164175195,0.01066170003234355,13.799441878789056,0.009849708692925807,0.012042262901862463
177,0.25,0.001,0.013166737932578427,0.010731747894760826,13.645684678364063,0.009739960512750938,0.01736577631284793
178,0.25,0.001,0.013183705980784308,0.010663711293998172,14.1220496784557,0.010079978357213205,0.020973327569663525
179,0.25,0.001,0.013225319179560035,0.010758708816114043,13.822884333691977,0.009866441351671647,0.0179793662391603
180,0.25,0.001,0.013144782197869513,0.010610223160261294,14.20366788764302,0.010138235465840842,0.020405281335115433
181,0.25,0.001,0.013118537617513791,0.010629615954254285,13.947916847943603,0.009955686543856961,0.016227860779811937
182,0.25,0.001,0.013111113722002538,0.010547450705131224,14.366769354533886,0.010254653357982788,0.017539935031284887
183,0.25,0.001,0.013117985730636711,0.01072009445037231,13.437782936516543,0.009591565265179545,0.015649954167505104
184,0.25,0.001,0.013055465304736592,0.010596083125648584,13.78237775797358,0.009837528735170293,0.01916427630931139
185,0.25,0.001,0.01313109507594391,0.01064403910066717,13.937462798820054,0.009948224695803037,0.01596168940886855
186,0.25,0.001,0.013055382132242862,0.010528333110544965,14.161581958949402,0.010108195545288651,0.012928285480787357
187,0.25,0.001,0.012986154272413451,0.010524953884834593,13.79256657004028,0.00984480126341205,0.011624156963080168
188,0.25,0.001,0.013096853908531101,0.010597823239021394,14.004567338087014,0.009996122296992873,0.014853067385653654
189,0.25,0.001,0.013029547721229637,0.01052231613043747,14.050525696809627,0.010028926264674966,0.013163915680100521
190,0.25,0.001,0.012991103654106459,0.010497574984370513,13.97373506057361,0.009974114961151756,0.008421555161476135
191,0.25,0.001,0.013006840932590902,0.01058155226652041,13.591317618188778,0.0097011546168371,0.011079133410627643
192,0.25,0.001,0.013006305611966891,0.010515798522113276,13.95680140660814,0.00996202812748618,0.011448093845198551
193,0.25,0.001,0.01301123171316116,0.01048186984292896,14.174545395801218,0.010117448533762468,0.01548201140637199
194,0.25,0.001,0.013016128892043077,0.010582447667752416,13.638350268697607,0.009734725388078236,0.014531657720605532
195,0.25,0.001,0.012954460713530047,0.010447522307189372,14.048882938941977,0.010027753703741597,0.011440457000086704
196,0.25,0.001,0.012951115928795548,0.01046880589639024,13.910866611260028,0.009929240978772326,0.012255140580236912
197,0.25,0.001,0.01299834956694651,0.010479085970947072,14.11795325581364,0.010077054429560058,0.008592832911138734
198,0.25,0.001,0.012983996985536633,0.010414878932692459,14.397338234031825,0.010276472686675107,0.011663090592871109
199,0.25,0.001,0.01291077163265428,0.010403196227328836,14.05245120466248,0.010030300645726253,0.009867935829485456
200,0.25,0.001,0.012919292990477452,0.010449327654192434,13.841687121010352,0.009879862327630516,0.019916668844719727
201,0.25,0.001,0.012992695897571311,0.010487863845281694,14.037078471223184,0.010019327959474078,0.015410683893909058
202,0.25,0.001,0.012910310186692014,0.01043921884292988,13.847995166936197,0.009884364858626836,0.010438526902968684
203,0.25,0.001,0.0128917209701433,0.010448785727079085,13.690208779222052,0.00977174074177163,0.011101870487133661
204,0.25,0.001,0.012930769091035873,0.01042738608174416,14.028957866111734,0.010013531667460196,0.008681293887396654
205,0.25,0.001,0.012846526761664995,0.010331222189708354,14.095766138439336,0.010061217800456343,0.012229453151424726
206,0.25,0.001,0.012898516417904333,0.010417540981010958,13.903385383038481,0.009923901058557089,0.010831866335744659
207,0.25,0.001,0.012946342264325165,0.010434484175988794,14.076452977729566,0.010047432532283773,0.009968709123010436
208,0.25,0.001,0.012833362293863265,0.010339780513084295,13.974032591197115,0.009974327331332702,0.01142725550259153
209,0.25,0.001,0.012894509252437875,0.010362021235066668,14.192062703702732,0.010129951965526575,0.012192249375705918
210,0.25,0.001,0.012912331449160399,0.01042770348314822,13.923855550361402,0.009938512170136618,0.009259182183692852
211,0.25,0.001,0.012826268379024895,0.010321183207113881,14.038499172725626,0.01002034202193121,0.011744976664582888
212,0.25,0.001,0.012805198645090925,0.010318959265249492,13.932886065858783,0.009944957934231823,0.009863308708493909
213,0.25,0.001,0.012835084535078898,0.010326362004601101,14.058880798087632,0.010034889934395169,0.01532719749957323
214,0.25,0.001,0.012869903458585095,0.01031478132395787,14.3189047637393,0.01022048876783676,0.014526937467356523
215,0.25,0.001,0.012911488548352206,0.010383855638712563,14.164855224041899,0.010110531922942112,0.014861177342633406
216,0.25,0.001,0.012894302401332488,0.010403689818030875,13.957393386147238,0.009962450668199313,0.0135828855757912
217,0.25,0.001,0.012919143576062086,0.010421907472791094,13.994511859147673,0.00998894493872068,0.013821517117321491
218,0.25,0.001,0.012850417606737824,0.010290589273365897,14.345277886088558,0.010239313266301613,0.01680879636357228
219,0.25,0.001,0.012759759483381736,0.010286031011235451,13.862775006570107,0.009894914351584658,0.015885885028789442
220,0.25,0.001,0.01280265042850794,0.010358418692057291,13.697475590981728,0.009776927616689314,0.01331907557323575
221,0.25,0.001,0.012718321342462514,0.010240620150956897,13.885037030727082,0.00991080444734267,0.01265182338344554
222,0.25,0.001,0.01279336710770925,0.010286284259138193,14.049691991044142,0.010028331185613235,0.013803891061494747
223,0.25,0.001,0.012802390076384236,0.01031527086353499,13.937815637299508,0.009948476543397223,0.014136937369282046
224,0.25,0.001,0.012902324388096156,0.010386450857580857,14.09895591893472,0.010063494588818502,0.02220241803055008
225,0.25,0.001,0.012788493222154204,0.010314037315239591,13.866850366933944,0.009897823245491752,0.022303514493008453
226,0.25,0.001,0.012749578562608764,0.010302706057149353,13.712274191464932,0.009787490500688745,0.013339652679860592
227,0.25,0.001,0.012784061730215865,0.010308208444332782,13.874681165395689,0.00990341268051084,0.010082101294149956
228,0.25,0.001,0.01271444267642071,0.010167458692447541,14.273298126935302,0.010187935850774663,0.010588220786303282
229,0.25,0.001,0.012771121508470087,0.010319857398874175,13.736884030428799,0.009805056410013419,0.013386260252445936
230,0.25,0.001,0.012790241394161192,0.010283898482658482,14.045544994764091,0.01002537115971741,0.012924850142250458
231,0.25,0.001,0.01272690437795702,0.0101963195144186,14.181398312907573,0.01012233998066208,0.013917947808901468
232,0.25,0.001,0.012740944093991246,0.010320043663389098,13.56672553648305,0.009683601382214883,0.012853346454600493
233,0.25,0.001,0.012727166502928931,0.010207861074382445,14.11818840878069,0.010077222276074724,0.010340767912566662
234,0.25,0.001,0.012741950951188227,0.010220794243219799,14.12856309538702,0.01008462747707853,0.011112672897676626
235,0.25,0.001,0.012703093007391641,0.010219803387837961,13.916354707449921,0.009933158249428923,0.010300317391132316
236,0.25,0.001,0.012676901679188423,0.010149331930152477,14.164500796105251,0.010110278940831729,0.010135124747951826
237,0.25,0.001,0.012661816370121868,0.010183608834182756,13.887874921162924,0.009912830065069895,0.01270399351293842
238,0.25,0.001,0.012772461142873304,0.010312266804318947,13.78692930394953,0.009840777518879035,0.010261488379910588
239,0.25,0.001,0.012678904091995773,0.010124421645130336,14.315320251401792,0.010217930229408844,0.01129254597860078
240,0.25,0.001,0.012706953031588192,0.010212712287492333,13.9777250289917,0.009976962904348107,0.012805190403014421
241,0.25,0.001,0.012813387207748475,0.010296243971557493,14.106071080714875,0.010068573219639453,0.010544472839683294
242,0.25,0.001,0.012680461324915578,0.010142709672471543,14.221560851273129,0.010151007031601092,0.013018239522352815
243,0.25,0.001,0.012705797334676274,0.010237547825539572,13.832069026537178,0.0098729971638381,0.010887827491387725
244,0.25,0.001,0.012646834750867579,0.010188990041675153,13.773761980461352,0.009831379001043078,0.013779970662047466
245,0.25,0.001,0.012714067425260695,0.010194226075733497,14.121190591291947,0.010079365161521733,0.01402458781376481
246,0.25,0.001,0.012695584376919861,0.010185918373058322,14.06416979440316,0.010038665092364854,0.01240237553914388
247,0.25,0.001,0.012662956665575341,0.010159867654038856,14.027311104388277,0.010012356248671146,0.009908130702873072
248,0.25,0.001,0.012681189996316084,0.010220663211521366,13.788792158289718,0.009842107179364538,0.009478279389441013
249,0.25,0.001,0.012731280760228962,0.01021802513385525,14.084285539043837,0.010053023225584466,0.011622709998240074
250,0.25,0.001,0.012737573919812674,0.010159895126771993,14.445312539408029,0.010310715588442562,0.01337868549550573
251,0.25,0.001,0.012624496855765334,0.01016378532017558,13.789826574404378,0.009842845520631248,0.013524946911881367
252,0.25,0.001,0.012546093536658885,0.010110443904380168,13.649381104251242,0.009742598932370623,0.013258454545090595
253,0.25,0.001,0.012595862747983334,0.010117736075473718,13.887421037868362,0.009912506094124456,0.010231238634636005
254,0.25,0.001,0.012706972848490579,0.010137904073642798,14.397061718396904,0.010276275316486012,0.015187496086582541
255,0.25,0.001,0.012621567122761376,0.010064664553368552,14.32888148967228,0.010227609914112977,0.011901261284947395
256,0.25,0.001,0.012660607721235798,0.010162499730703588,13.999396923159765,0.009992431779557292,0.01073052283997337
257,0.25,0.001,0.01261646284390826,0.010106070672698093,14.06823852896362,0.010041569256933348,0.008544882837062081
258,0.25,0.001,0.012717289601249964,0.010152561436137877,14.372736762706241,0.010258912749968766,0.015363130097587904
259,0.25,0.001,0.012644681325259288,0.010081875125156618,14.361965857261469,0.010251224737517108,0.013337749987840652
260,0.25,0.001,0.012592467787283018,0.010067057995941521,14.152397752136567,0.010101640080040376,0.015662502342214186
261,0.25,0.001,0.012790041960283252,0.01025557890534401,14.203132090818126,0.010137853026993666,0.020515996652344864
262,0.25,0.001,0.012691696443833595,0.010132951084678331,14.33920906529282,0.010234981488431705,0.019237074224899214
263,0.25,0.001,0.012629380298280684,0.010118458191697427,14.071207151596868,0.010043688188149085,0.01573607496296366
264,0.25,0.001,0.012594283853475384,0.010124300739961387,13.841785123525572,0.009879932279461507,0.011028139541546503
265,0.25,0.001,0.01258760342533513,0.010067287078204234,14.123852440805146,0.010081265125485472,0.0086471662701418
266,0.25,0.001,0.01253573414061434,0.010040482852515603,13.98338729553643,0.00998100449360202,0.011735416172693173
267,0.25,0.001,0.012496655737627144,0.010039388525399788,13.770524926093655,0.009829068469731373,0.013197490014135838
268,0.25,0.001,0.012619331635575813,0.010091818422694836,14.16418439691717,0.010110053102724604,0.010242031266291937
269,0.25,0.001,0.012598028221775678,0.010047681781029733,14.292141310111221,0.01020138566032207,0.010296257212758064
270,0.25,0.001,0.01262460705200749,0.010137433124598394,13.938122284313865,0.00994869542063802,0.014880575550099214
271,0.25,0.001,0.012659996563245443,0.010217650973086679,13.686905627079904,0.009769383031463172,0.017975856860478718
272,0.25,0.001,0.012701537180435395,0.010130259269956221,14.409441301645327,0.01028511156434356,0.018279555719345808
273,0.25,0.001,0.012602850971820434,0.010097508580416194,14.039939704348562,0.010021370238649937,0.014215803860376278
274,0.25,0.001,0.012729373734865143,0.010250845151766108,13.889673855679094,0.009914114101127119,0.017645975730071466
275,0.25,0.001,0.012704919646532574,0.010084101206753866,14.687066687696893,0.010483273867021336,0.021402709341297548
276,0.25,0.001,0.012673683079683092,0.010163987314549195,14.064335376434746,0.01003878328082423,0.020152970527609188
277,0.25,0.001,0.012613801870587443,0.01013156599762847,13.910450294326488,0.00992894382178907,0.015249220809588829
278,0.25,0.001,0.012607469621111866,0.010086377779889041,14.12819890739504,0.010084367528476117,0.01420400757342577
279,0.25,0.001,0.012471469244906889,0.009938613845153453,14.19412250623887,0.010131422202882847,0.010713027867799004
280,0.25,0.001,0.012475860366705527,0.009953414549224961,14.135786899850387,0.010089783654425687,0.011217501480132341
281,0.25,0.001,0.012503236447545614,0.009999304086216226,14.032037516927588,0.010015729847914052,0.013714073070635399
282,0.25,0.001,0.012525502171562395,0.010044187284267146,13.905288583319377,0.009925259517001697,0.011088853081067404
283,0.25,0.001,0.012445834462759252,0.00991496990740135,14.182966100939707,0.01012345902993555,0.011437048359463612
284,0.25,0.001,0.012556084944833245,0.010059280862349288,13.992090093859629,0.009987216341084675,0.011896748250971237
285,0.25,0.001,0.012543414806634106,0.010058808766469647,13.923731454476181,0.009938423593487638,0.013714047381654382
286,0.25,0.001,0.012538791369882825,0.01005948757747645,13.894018698658169,0.009917215345223532,0.016043190533916157
287,0.25,0.001,0.012470380428757713,0.009970600819394772,14.008765231150898,0.00999911865178508,0.016643474499384563
288,0.25,0.001,0.012564871886093426,0.01012881537617156,13.65166059604361,0.009744225978617852,0.01856158790178597
289,0.25,0.001,0.012598749722248923,0.010066844594790587,14.188796902491042,0.010127620915411166,0.011550582945346832
290,0.25,0.001,0.012617391577765305,0.010042371135974719,14.430414155166668,0.010300081481203902,0.01695623939546446
291,0.25,0.001,0.012497137972864402,0.009968994136581573,14.167717542201691,0.010112574976589359,0.0160004625407358
292,0.25,0.001,0.012592450471866886,0.01014695366582841,13.70456525839393,0.00978198805024549,0.015109209499011437
293,0.25,0.001,0.012583712390405908,0.010062219659713182,14.130445947988632,0.010085971411840564,0.015905453513065975
294,0.25,0.001,0.01256557538612815,0.010012079520310089,14.309790884496095,0.01021398350071099,0.011778481770306826
295,0.25,0.001,0.012483252987224537,0.009983919350527863,14.006266139427163,0.009997334860404827,0.013461372504631678
296,0.25,0.001,0.012490591362693421,0.010058698416289875,13.628327012390473,0.009727571029543521,0.012731790930653611
297,0.25,0.001,0.012538382701432082,0.010039327725172863,14.00470359529017,0.009996219554097196,0.01488898570338885
298,0.25,0.001,0.01239551940917476,0.00990190160955936,13.97423391105715,0.009974471028591827,0.012975519988685846
299,0.25,0.001,0.012522495751969578,0.01006322834107091,13.781735094454007,0.00983707001745468,0.014127177962412437
300,0.25,0.001,0.012545696372479282,0.009954896773475918,14.518840876492588,0.010363198341536465,0.012233753455802798
301,0.25,0.001,0.012431926065773674,0.009919453322497445,14.07989682967341,0.01004989067071621,0.01331060907493035
302,0.25,0.001,0.012496119113664654,0.010044551798278472,13.738582768716103,0.009806268928419773,0.016543393799414236
303,0.25,0.001,0.012521034014249637,0.010067659956159342,13.748708354540108,0.009813496327294866,0.014216270142545303
304,0.25,0.001,0.012467778080012187,0.009908647135351643,14.341369071939432,0.01023652324906455,0.012923705081144968
305,0.25,0.001,0.012418805639523777,0.009897018515969275,14.132094903425736,0.01008714839644949,0.013872730390479168
306,0.25,0.001,0.012383332622260594,0.009919450628589172,13.807595478930093,0.009855528535995783,0.012953956766674915
307,0.25,0.001,0.012446920218115503,0.009952677295802381,13.977736651733231,0.009976971200380607,0.009224412807573875
308,0.25,0.001,0.01237649442345807,0.009799532027858677,14.441297749185694,0.01030784992804118,0.009127848781645298
309,0.25,0.001,0.012453484928784456,0.009967342970928706,13.932339284702438,0.00994456765503386,0.012005206119890014
310,0.25,0.001,0.01237182076199406,0.009814444975542628,14.331533668455014,0.010229502975342622,0.015274309863646826
311,0.25,0.001,0.01247555441312882,0.009997785986803944,13.885414512361049,0.009911073884626016,0.01663594056541721
312,0.25,0.001,0.012488726875424057,0.009954937620822227,14.199356131645603,0.010135157838433693,0.012371902043620745
313,0.25,0.001,0.012433172478122487,0.009899423650104152,14.199128484594592,0.010134995349460808,0.011338036973029375
314,0.25,0.001,0.012393994341519747,0.009875865617238458,14.111593149253489,0.010072514738938963,0.010638415347784758
315,0.25,0.001,0.012382695908060416,0.009894543632700752,13.943605149744627,0.009952608957704945,0.010637409208963314
316,0.25,0.001,0.012370369037916017,0.009854499679110102,14.098931454429941,0.010063477126645211,0.011936673273642858
317,0.25,0.001,0.012388807254491922,0.009923421816269228,13.81602021682361,0.009861541910652112,0.01284378720447421
318,0.25,0.001,0.012507495490870036,0.01001289652881133,13.979733974152031,0.009978396840936496,0.014695412013679743
319,0.25,0.001,0.012481781613009856,0.009883663406693081,14.559853606316013,0.010392472238626705,0.014214172959327698
320,0.25,0.001,0.012355157033060536,0.009826494634828785,14.170624575339072,0.010114649946708831,0.008802776457741857
321,0.25,0.001,0.012407738787247786,0.009933404929771732,13.866167856642038,0.009897336086111376,0.010863072083642086
322,0.25,0.001,0.012373981150713835,0.009846545953416464,14.163747784848384,0.010109741459563443,0.013314140029251575
323,0.25,0.001,0.0123484300721447,0.009825681431152275,14.137483441796842,0.010090994605136933,0.010156909159074226
324,0.25,0.001,0.012456789561457541,0.010009987649223036,13.711879217920224,0.009787208578101517,0.011203233851119876
325,0.25,0.001,0.01240131464727818,0.009879296907216064,14.13338875836249,0.010088071918888287,0.015852633708467085
326,0.25,0.001,0.012433708807037881,0.009939706340411643,13.976391124988062,0.00997601079585158,0.016578161002447207
327,0.25,0.001,0.012407162183120888,0.009933326639666045,13.863374862460722,0.009895342514247481,0.013188247724125782
328,0.25,0.001,0.012391488383377879,0.009819649275361506,14.412586020372459,0.010287356188702683,0.010623789547632137
329,0.25,0.001,0.01236660328768091,0.009837175814368179,14.174912413289725,0.010117710501991239,0.009961530566215515
330,0.25,0.001,0.012414018762074718,0.009930407502701296,13.918157732519564,0.009934445205224528,0.012361908021072546
331,0.25,0.001,0.012369503816153557,0.009787568778887432,14.469164470010552,0.01032774052106392,0.011463441886007786
332,0.25,0.001,0.012388170465888563,0.009853224098148754,14.205840134423626,0.01013978596318603,0.01097122129673759
333,0.25,0.001,0.012401944662626454,0.009859855669055432,14.245866796530311,0.010168356028929558,0.01110337736705939
334,0.25,0.001,0.01240251948107701,0.009852645072070036,14.289496813267059,0.010199498082274846,0.014662427362054586
335,0.25,0.001,0.01235740853488938,0.009786779676710279,14.405805419627628,0.01028251635947725,0.014021500013768673
336,0.25,0.001,0.012290838436215869,0.00980107762822599,13.95261974439805,0.009959043357885831,0.012750701978802681
337,0.25,0.001,0.012351678063472113,0.009932297317839687,13.55820934306163,0.009677522728809158,0.012922916638975343
338,0.25,0.001,0.012435634864222249,0.009916004137272021,14.120010788447273,0.010078523046714685,0.010318458856393894
339,0.25,0.001,0.012473239150339578,0.009911307036240402,14.357067247396001,0.01024772822797716,0.009806895162910223
340,0.25,0.001,0.012362799658529851,0.009765567175900313,14.554889991592113,0.01038892933018709,0.012237949607272943
341,0.25,0.001,0.012405767598120142,0.009901869970248094,14.03184170105569,0.010015590079268872,0.010679867817088962
342,0.25,0.001,0.012333665556241002,0.009825605768248561,14.055167213944364,0.01003223926762624,0.011519101758797964
343,0.25,0.001,0.012339372423890537,0.009811337159808017,14.167109486813716,0.010112140961323138,0.01212680603687962
344,0.25,0.001,0.012337324081229934,0.009883852921857322,13.749252272046302,0.009813884562488438,0.010978488639617959
345,0.25,0.001,0.012369547403589424,0.009821527355322332,14.27910379929976,0.01019207979964294,0.012774951911220947
346,0.25,0.001,0.012292554637945716,0.009718983924175426,14.422290260798347,0.010294282841397821,0.010476818153013786
347,0.25,0.001,0.01235955543097714,0.009905761279699395,13.751063136686636,0.009815177113980469,0.010509668849408627
348,0.25,0.001,0.012241290877098552,0.009776149619853037,13.8146501415032,0.009860563983942328,0.010763750489180287
349,0.25,0.001,0.012389205745100646,0.009883487450867152,14.042045427747995,0.01002287325321056,0.014373354303340117
350,0.25,0.001,0.012287267429892682,0.009705011932995201,14.47096120293147,0.010329022985675567,0.0137673228358229
351,0.25,0.001,0.012308177435591037,0.009844164392261795,13.808329075164375,0.009856052159289346,0.01174648959810535
352,0.25,0.001,0.012233071742430535,0.009693551416054737,14.231470890938414,0.010158080578828275,0.01134904349843661
353,0.25,0.001,0.012338301967367652,0.009827209108049876,14.072164404162363,0.01004437145193602,0.01306027639657259
354,0.25,0.001,0.012350138276815414,0.00986451117870893,13.929454280653603,0.009942508408746326,0.013769502906749645
355,0.25,0.001,0.012304538730070117,0.009758995145497737,14.265226616347132,0.010182174601247061,0.011393839648614327
356,0.25,0.001,0.012282856011419421,0.009781336986534194,14.018512970159861,0.010006076352719388,0.012175068957731128
357,0.25,0.001,0.012304788660617242,0.009784461994534846,14.123910741044142,0.010081306738789538,0.009364681007961432
358,0.25,0.001,0.012229590874278185,0.00970049761235714,14.173039375914687,0.010116373573101132,0.011311006421844164
359,0.25,0.001,0.012339077964322463,0.009854227881724676,13.925100594512687,0.009939400852614338,0.009478507408251366
360,0.25,0.001,0.012274322579755928,0.009798828561177102,13.872669419638052,0.009901976744923664,0.010485624273618063
361,0.25,0.001,0.012248087687207483,0.009707388917071432,14.238076609356673,0.010162795581268147,0.011386174708604813
362,0.25,0.001,0.012271592337073702,0.009713109816134633,14.33773629790167,0.010233930262599335,0.011400797249128422
363,0.25,0.001,0.012201752995984942,0.009697609891494116,14.033217771651003,0.010016572285261245,0.010036985777939359
364,0.25,0.001,0.012258160238464674,0.009770271583837418,13.942128751560348,0.009951555140300035,0.0115564054188629
365,0.25,0.001,0.012364248727184024,0.009836042525641846,14.168066468777408,0.010112824031961034,0.013290921847025553
366,0.25,0.001,0.01229852813324242,0.009742828209168655,14.322142193796878,0.010222799567306836,0.01283153798431158
367,0.25,0.001,0.012311886139111414,0.009757159072546592,14.316690781228141,0.010218908480534005,0.011689207827051481
368,0.25,0.001,0.012261445151729196,0.00976771248899626,13.974877777835227,0.00997493060516433,0.013030642798791328
369,0.25,0.001,0.012259064652744076,0.009747185775132712,14.076569699058847,0.010047515845152639,0.012313186811904112
370,0.25,0.001,0.012287309136724012,0.009726004426164897,14.353551417999688,0.010245218713775652,0.01150842538724343
371,0.25,0.001,0.012270996536926133,0.009809829433225403,13.7923806298206,0.009844668543769166,0.012231000311051806
372,0.25,0.001,0.012245257028452949,0.009704372453049195,14.239116881504533,0.010163538102430073,0.013988868488619724
373,0.25,0.001,0.01221245263521008,0.00971042038487994,14.021388526790398,0.010008128855667665,0.014974631989995638
374,0.25,0.001,0.012316138747843501,0.009831204209938523,13.925573409424668,0.009939738336491555,0.013322015603383383
375,0.25,0.001,0.012252901370326677,0.009673001603851962,14.457758325518984,0.010319599090306199,0.011747764268269142
376,0.25,0.001,0.012218797109897964,0.00966655528403757,14.302763952039818,0.010208967845852832,0.010888191405683756
377,0.25,0.001,0.012183408027119709,0.009725036802534887,13.7767124990458,0.009833485010025553,0.016237351888169844
378,0.25,0.001,0.01225066845903055,0.009749951002703717,14.01402123243684,0.010002870258698672,0.010924121520171562
379,0.25,0.001,0.012271075496660448,0.00973419150075883,14.21669784787601,0.010147535937099222,0.011875487631186843
380,0.25,0.001,0.012269251253815065,0.00975838194270272,14.070912303346576,0.010043477732581425,0.012823477387428284
381,0.25,0.001,0.01219899178105445,0.009662322774426833,14.215493241617501,0.010146676118213778,0.012924005587895712
382,0.25,0.001,0.012302710477149847,0.009781718184817429,14.127640322220227,0.010083968823854551,0.012602264527231455
383,0.25,0.001,0.012294476415664368,0.009733582018122857,14.351252232701325,0.010243577610778962,0.015570035359511772
384,0.25,0.001,0.012303899604180627,0.009712698084325337,14.521093920242688,0.010364806509809199,0.012716447934508324
385,0.25,0.001,0.012254492264271768,0.009682960921164715,14.41086263367624,0.010286126076856703,0.009245987127845487
386,0.25,0.001,0.01229342584275017,0.009784968888012502,14.05739388058665,0.010033828608555782,0.0110667801151673
387,0.25,0.001,0.012257693940901888,0.00966758533193635,14.514969431664333,0.010360434997619081,0.012646068663646778
388,0.25,0.001,0.012227957134363409,0.0096905114560211,14.219846084426585,0.010149783072395849,0.009372799036403498
389,0.25,0.001,0.01220218423938702,0.009662322130454473,14.233387051206646,0.010159448287799177,0.009219889994710684
390,0.25,0.001,0.012187120697099315,0.009584833536882047,14.583217623476811,0.010409148910404576,0.008457351010292768
391,0.25,0.001,0.01214287844140175,0.00965277917590762,13.954515541223783,0.009960396531922757,0.01032972972219189
392,0.25,0.001,0.012176136342557172,0.009704747445080892,13.849663558413503,0.00988555571621235,0.013269825683285793
393,0.25,0.001,0.012187312503368401,0.00962751191981732,14.345122881172117,0.010239202627531847,0.012811199218655625
394,0.25,0.001,0.012178761815298195,0.009685572819173665,13.971830559827737,0.009972755574466622,0.012579918062935272
395,0.25,0.001,0.012219799985241956,0.009677910774474137,14.244747821292929,0.010167557331401091,0.011340586934238672
396,0.25,0.001,0.012174286759014628,0.00961075099467328,14.366054721443449,0.010254143270123804,0.014192956344534954
397,0.25,0.001,0.012183897931015852,0.009706443060220274,13.883656898477518,0.009909819342239485,0.013979049089054266
398,0.25,0.001,0.012239035978379657,0.009679534144124874,14.343449873700942,0.010238008475161273,0.014466301693270603
399,0.25,0.001,0.012151289810798549,0.009623690823878138,14.164665395563299,0.010110396427953817,0.01040554124241074
400,0.25,0.001,0.012193517508010891,0.009757761022501905,13.649977951995597,0.009743024947891218,0.010642237961292267
401,0.25,0.001,0.012192340567708015,0.009641136268548893,14.296948249018225,0.010204816737343487,0.011008415215959152
402,0.25,0.001,0.012197528886236764,0.009615095137277254,14.471957913443406,0.010329734413592724,0.009103900752961636
403,0.25,0.001,0.012181173612366203,0.00967367027293552,14.052048867070642,0.010030013466859845,0.012110095315923294
404,0.25,0.001,0.01215497177535509,0.00962332946045668,14.187323099982311,0.010126568950736839,0.011165480750302473
405,0.25,0.001,0.012188257829134786,0.009663622023296585,14.148058618067381,0.010098542910826111,0.017789430761088926
406,0.25,0.001,0.012123805227030078,0.00962329179063932,14.012877409123192,0.010002053825212843,0.014227164986853799
407,0.25,0.001,0.012228165104082136,0.009727750902292486,14.012321364452688,0.010001656933941961,0.011426476296037436
408,0.25,0.001,0.012225013911293065,0.009631131585820811,14.536116983608109,0.01037552960999865,0.011773370982458195
409,0.25,0.001,0.012122029923518334,0.009657980278955347,13.80853370004449,0.00985619821559207,0.009205729545404514
410,0.25,0.001,0.012150381204284749,0.009657826053989491,13.96827869047475,0.009970220335813525,0.009561170047769943
411,0.25,0.001,0.012090271964833428,0.00957656164779315,14.086833396890604,0.010054841825046826,0.012141814455389977
412,0.25,0.001,0.01212349496576576,0.009603133384066508,14.124106701412149,0.010081446610572555,0.01031973926971356
413,0.25,0.001,0.012148549138842864,0.009629118979777678,14.11888719458882,0.010077721052525924,0.015258950646966696
414,0.25,0.001,0.012141822590992963,0.009659386942927667,13.911569135576569,0.009929742423680634,0.01383155956864357
415,0.25,0.001,0.012131869987925878,0.009630746911113092,14.01629380417921,0.010004492365581163,0.010677685650686422
416,0.25,0.001,0.012238043201343252,0.009693481061433137,14.259725631104356,0.010178248130695471,0.014313277167578539
417,0.25,0.001,0.01214730435566715,0.009616241664638533,14.184075442227451,0.010124250850983191,0.01002712439124783
418,0.25,0.001,0.012072937437345995,0.009542874152933763,14.178476359890183,0.010120254361092209,0.009008166225006184
419,0.25,0.001,0.012150426071968453,0.009613009918860825,14.219678805222525,0.010149663672535707,0.012044571340084076
420,0.25,0.001,0.01212647541351719,0.009627424744945583,14.004680544220054,0.009996203100799468,0.012186891088883081
421,0.25,0.001,0.012111846626974827,0.009559288618383165,14.304534609981149,0.010210231698773125,0.012121936461577812
422,0.25,0.001,0.0120866743811809,0.009555720847315532,14.183463792827176,0.010123814270397699,0.01201621008416017
423,0.25,0.001,0.012073258730806103,0.009610443463236012,13.801616870995725,0.009851261149889882,0.010700933480014404
424,0.25,0.001,0.012105845420341682,0.009568760520457893,14.217824084699647,0.010148339817772767,0.009507358772680163
425,0.25,0.001,0.012148183531874468,0.00957502151221119,14.42000018926363,0.010292648243585747,0.010410913421461979
426,0.25,0.001,0.012176735136791366,0.009660862429842312,14.098951253024014,0.010063491258404007,0.011806723040839037
427,0.25,0.001,0.012092471199710507,0.009532269634326955,14.347369929647314,0.010240806516521995,0.01025922386907041
428,0.25,0.001,0.012200353646614991,0.009691756031381032,14.058182259236485,0.010034391334215907,0.019759531132876873
429,0.25,0.001,0.012195605358760547,0.009635610411010334,14.346211283660132,0.010239979502969402,0.014500490855425596
430,0.25,0.001,0.012196644055387697,0.009664723041567428,14.188885016218032,0.010127683808863691,0.016055877941350143
431,0.25,0.001,0.012137478779354864,0.009612182704295666,14.151758417281894,0.010101183738245463,0.011973178324600061
432,0.25,0.001,0.012154104167559587,0.00964635745275858,14.053412179973172,0.010030986566718894,0.010724378128846487
433,0.25,0.001,0.01210505363708439,0.009528199020906585,14.440693550530215,0.01030741866561757,0.011229117478554448
434,0.25,0.001,0.012126556333390477,0.009577600849848805,14.284347155862603,0.010195822381058246,0.010185373481363058
435,0.25,0.001,0.012109834259535,0.009599769146748647,14.066404854955753,0.010040260424665062,0.010185550898313522
436,0.25,0.001,0.012117796523635052,0.009526286394779183,14.522823281196194,0.0103660408859359,0.012865539640188217
437,0.25,0.001,0.01216793718642604,0.009586504910695405,14.466345802811551,0.01032572862441938,0.011813596434270343
438,0.25,0.001,0.01205588658609666,0.009491517952548406,14.370722437036267,0.010257474972902404,0.013072001126905283
439,0.25,0.001,0.01203900398866122,0.00952047059317594,14.113861814346524,0.01007413405734941,0.009709572652354836
440,0.25,0.001,0.012087403321972235,0.009534900305028132,14.304228845706655,0.010210013451610746,0.010565208736807108
441,0.25,0.001,0.012058224682965555,0.009470174160911688,14.503434115533329,0.010352201367261477,0.012985107333709797
442,0.25,0.001,0.01205914284643966,0.009570527370228912,13.946201742188004,0.009954462342746613,0.012460086417074004
443,0.25,0.001,0.012038911141188349,0.009521087623886332,14.109882312701096,0.010071293585082866,0.009869565721601248
444,0.25,0.001,0.012047111013129394,0.009534119053669377,14.082808074215555,0.0100519686468348,0.013174364265675345
445,0.25,0.001,0.012174712232321748,0.009563171471528114,14.635073538325706,0.010446162411367385,0.015077789934972921
446,0.25,0.001,0.012153217168755767,0.009576842727616799,14.43800086029305,0.010305496688289114,0.016310282982885838
447,0.25,0.001,0.012006493690667402,0.009490722328547604,14.098383501541516,0.01006308601109316,0.010822794555375973
448,0.25,0.001,0.012040265181586763,0.00953630993486518,14.032164904696883,0.010015820774230466,0.011808788248648247
449,0.25,0.001,0.012082863224480435,0.00949973784151074,14.475834783443736,0.010332501629867048,0.011611342119673887
450,0.25,0.001,0.01213209324364984,0.009580549699338999,14.298848808961138,0.010206173311178542,0.014675893277550736
451,0.25,0.001,0.012025003003331092,0.009474224395557377,14.294563346001071,0.010203114451107118,0.010241920982177058
452,0.25,0.001,0.01212868225547811,0.009547692690219104,14.463865498209131,0.01032395824283307,0.011490543760980168
453,0.25,0.001,0.012141924433553842,0.009555801502929246,14.492633086590727,0.010344491853383816,0.017619118094444275
454,0.25,0.001,0.012070293540838007,0.009526184064749187,14.257189543122431,0.01017643793227868,0.01616669213399291
455,0.25,0.001,0.01211937398395755,0.00962621855393011,13.971642728022635,0.0099726215046557,0.015008616416404644
456,0.25,0.001,0.012065374908183725,0.009440148305712324,14.7117708248212,0.01050090708409793,0.012315287409971157
457,0.25,0.001,0.01205972639571865,0.009441653222933452,14.671682292108036,0.010472292856608162,0.0107845407910645
458,0.25,0.001,0.012031781353754281,0.009512669794240931,14.117101422354539,0.010076446411387965,0.011422171102215847
459,0.25,0.001,0.012099772117026253,0.009578564512150839,14.128848370113321,0.010084831099295732,0.010267454277103146
460,0.25,0.001,0.012108509274861536,0.009498791497190465,14.624856898935702,0.010438870020653607,0.011059066203112403
461,0.25,0.001,0.011978408213981911,0.009431946925182644,14.270369918550013,0.0101858457662741,0.008184449591984352
462,0.25,0.001,0.012032440648037048,0.009536827691207247,13.985415642583337,0.009982452278788963,0.012071409573157629
463,0.25,0.001,0.011970619796762453,0.009360373338309858,14.627822213921664,0.01044098659095051,0.014398080762475729
464,0.25,0.001,0.011920700362850156,0.009400392228291055,14.123807381664097,0.01008123296335767,0.011097935028374195
465,0.25,0.001,0.012012115107546496,0.009545716877831735,13.82169632872274,0.009865593382385967,0.010775614141797027
466,0.25,0.001,0.012038190415534434,0.009439293110419897,14.564221248153812,0.010395589755998438,0.014096606988459826
467,0.25,0.001,0.012097641838504099,0.009545155657203893,14.304131788984146,0.010209944174863773,0.0172757338732481
468,0.25,0.001,0.012060360770067072,0.009501223606326856,14.341405416651535,0.010236549191043208,0.011712905019521713
469,0.25,0.001,0.01208945109506366,0.009499420588913043,14.514531542775387,0.010360122443094495,0.011140814206252495
470,0.25,0.001,0.011958833491383505,0.009392611718333785,14.381106825899487,0.010264887099143102,0.010553564255436262
471,0.25,0.001,0.011964160972082418,0.009443398842141648,14.12634998773412,0.010083047814228493,0.00870340682255725
472,0.25,0.001,0.011954108604612265,0.009402014723063007,14.301933693163322,0.010208375227097303,0.010313869609187046
473,0.25,0.001,0.011970314784770826,0.009425020525257614,14.263829538644838,0.010181177400888535,0.011140155838802457
474,0.25,0.001,0.012009395086321949,0.009515715937435464,13.974578786487422,0.00997471719235362,0.0116841367756327
475,0.25,0.001,0.012001154220793859,0.009425308873502347,14.435037739020734,0.010303381683812087,0.011723410493383804
476,0.25,0.001,0.011941484527113352,0.009359969677962876,14.466808342736615,0.010326058774258826,0.00919230553942422
477,0.25,0.001,0.012014771362679392,0.009463209281714001,14.298954096707432,0.010206248463031715,0.009891866085429987
478,0.25,0.001,0.011946900842644622,0.009392171348996727,14.316703867321172,0.0102189178210715,0.011633295798674226
479,0.25,0.001,0.012089806016195904,0.009549798651729242,14.234200832272364,0.010160029145090909,0.015455574728548527
480,0.25,0.001,0.01200255773417631,0.009448126597283793,14.315032055226895,0.010217724521932117,0.016205820875863235
481,0.25,0.001,0.012063904006044398,0.009448867878740648,14.654663466881786,0.010460145229751453,0.014320149707297484
482,0.25,0.001,0.012110650913979724,0.009521937831600014,14.507149065821624,0.010354853009151765,0.015725412406027317
483,0.25,0.001,0.012045933693113735,0.009469707614483092,14.437170483192466,0.010304903985148084,0.014492614970852932
484,0.25,0.001,0.012023470813495725,0.009466084423308202,14.33159403367476,0.010229546062580128,0.013700864277780056
485,0.25,0.001,0.01205484548547708,0.009535797556077153,14.116745602000844,0.010076192435403886,0.012490006939818462
486,0.25,0.001,0.012031235231840905,0.009352630532805913,15.01090095982407,0.01071441895776165,0.010661632443467775
487,0.25,0.001,0.012015111205622184,0.009457592962735612,14.332332238021305,0.01023007297503305,0.012815711554139853
488,0.25,0.001,0.011978858514860805,0.009421012841534517,14.334166915620326,0.01023138252364049,0.01215509658989807
489,0.25,0.001,0.01197467025718331,0.009414175468863863,14.349013115748885,0.010241979383118405,0.009097123596196374
490,0.25,0.001,0.011912308741083816,0.009368685535963409,14.254463944553343,0.010174492465776834,0.00989420541251699
491,0.25,0.001,0.011970285865024102,0.009465065969477507,14.039252467720305,0.010020879705724699,0.012116043828427792
492,0.25,0.001,0.011938938298891234,0.009325431885592865,14.646090360384013,0.010454025953164891,0.010799262827883164
493,0.25,0.001,0.011941379341540586,0.009426928918100586,14.090979915019894,0.010057801509650174,0.012518979919453463
494,0.25,0.001,0.011920319033719947,0.009329770263233133,14.51743587252194,0.010362195483598815,0.010439200171579918
495,0.25,0.001,0.0119605716215267,0.009412471430771278,14.279552908968334,0.010192400363289318,0.00978432052458326
496,0.25,0.001,0.011944510540399012,0.009409174305122581,14.208024421670878,0.010141345054725822,0.009502709299946824
497,0.25,0.001,0.011984857404732836,0.009389223410304091,14.54593376811214,0.01038253659394157,0.012649713084101677
498,0.25,0.001,0.011977921722369582,0.009377835836702798,14.570882308581643,0.010400344260229582,0.010350051413600644
499,0.25,0.001,0.011915407951705712,0.00929889304578797,14.662949102312409,0.010466059316425701,0.010210311428333322
500,0.25,0.001,0.012046136767616285,0.009469839995701286,14.43756743764746,0.010305187321661285,0.0130854492696623
