epoch,beta,learning_rate,train_loss,train_reconstruction_loss,train_kl_unnormalized,train_kl_normalized,mean_unclipped_gradient_norm
1,0.0,0.001,0.07648825998916182,0.07648825998916182,141.47585579628168,0.10098205267400548,0.15513947925397328
2,0.02,0.001,0.05604886651732201,0.04801367680693781,562.865161416697,0.4017595727456795,0.12575479916163854
3,0.04,0.001,0.04246105324736861,0.03851104009636613,138.34921211420104,0.0987503298459679,0.1291785974587713
4,0.06,0.001,0.03865602964232134,0.032321453475674916,147.91236174827398,0.10557627533781155,0.09675871527620725
5,0.08,0.001,0.03649637730315674,0.032492443893191426,70.11889992647393,0.05004917910526333,0.06920613774231502
6,0.1,0.001,0.034290849278832594,0.031051825783973516,45.3787098906761,0.03239022833024704,0.061510946069444926
7,0.12,0.001,0.03290145948182705,0.030528690908537354,27.70206986360772,0.019773069138906293,0.033129332454076836
8,0.14,0.001,0.03159958727137987,0.029323150104908057,22.780627955946812,0.016260262638077668,0.022568828293255398
9,0.16,0.001,0.029944851414062255,0.027520042259332744,21.232236862182617,0.015155058431250977,0.027583521391664232
10,0.18,0.001,0.027730006863211476,0.02505266725323921,20.83862489212391,0.01487410770315768,0.026317850686609745
11,0.2,0.001,0.026263073814469715,0.023196392679630324,21.482100597647733,0.015333405137507304,0.019098161586693356
12,0.22,0.001,0.025601661993667136,0.022489318459532982,19.81996851189192,0.014147015354669463,0.04423215413200004
13,0.24,0.001,0.02565221811623074,0.022396671018281647,19.004255365770916,0.0135647789905574,0.08647587895393372
14,0.25,0.001,0.024374100773833517,0.02100137560520061,18.900751628432165,0.013490900519937305,0.056930185960871835
15,0.25,0.001,0.02328647453078004,0.01981031849633816,19.48037654078284,0.013904622798560199,0.02373697967933757
16,0.25,0.001,0.022617755050576012,0.01889094187943048,20.88506067852641,0.014907252447199437,0.02182737471801894
17,0.25,0.001,0.022005021901324737,0.01841667693888032,20.10908526930698,0.014353379920989994,0.044703076859670024
18,0.25,0.001,0.0214708658758291,0.01804723568953747,19.186025486436,0.01369452211737045,0.024517591510500227
19,0.25,0.001,0.021157270721917927,0.017644451082099315,19.685842496295308,0.014051279440610498,0.03307302562253816
20,0.25,0.001,0.020821900405856065,0.01726484811583231,19.933721906085346,0.014228209783073051,0.05019247531890869
21,0.25,0.001,0.020344430416129357,0.016810387563566828,19.804776338089344,0.014136171547529866,0.02679530837173973
22,0.25,0.001,0.019872458426411763,0.01628288529206847,20.1159676840139,0.014358292422565238,0.03285582709525313
23,0.25,0.001,0.019623269123393437,0.016105252660291138,19.714964622674987,0.014072066111830825,0.034474516952676434
24,0.25,0.001,0.019191902806592543,0.015528513499817183,20.52963252400243,0.014653556405426432,0.03298130724579096
25,0.25,0.001,0.018985575992007588,0.015411210714211298,20.03074097744254,0.014297459655562127,0.04578753693827561
26,0.0,0.001,0.014766337254712748,0.014766337254712748,23.10209418008494,0.016489717473294033,0.04905412984745843
27,0.02,0.001,0.01391948596249486,0.013334445096552372,40.982111944154255,0.029252042786691117,0.032966876668589454
28,0.04,0.001,0.01410445329668217,0.01242446970021309,58.84142427666243,0.04199958906257133,0.03546359496457236
29,0.06,0.001,0.014634530237594316,0.011992554981694666,61.69011684683866,0.044032917092675705,0.03391014172562531
30,0.08,0.001,0.01477133418584979,0.011927176388197167,49.808315986810726,0.035551974294654336,0.01912920828908682
31,0.1,0.001,0.014981108219471089,0.012392574401442395,36.265360996335055,0.025885339754700254,0.02942756949258702
32,0.12,0.001,0.015409079432314218,0.012798368432667366,30.48005293025527,0.021755926431302832,0.03717657897089209
33,0.14,0.001,0.01565173639114513,0.012813596453431041,28.401674785170446,0.020272430253512094,0.03893227316439152
34,0.16,0.001,0.016304969111847322,0.013029694578848606,28.679125231365823,0.02047046768834106,0.06206304952502251
35,0.18,0.001,0.01605485426478608,0.01263595534012068,26.610429125053937,0.01899388231624121,0.032256986014544964
36,0.2,0.001,0.016340693173020386,0.012906096979629161,24.059345617959664,0.017172980455360216,0.03085375896521977
37,0.22,0.001,0.016570057243455286,0.012951358273452104,23.044532784750295,0.016448631538008775,0.017846367454954555
38,0.24,0.001,0.01672959511363229,0.012879022249822007,22.47772057111873,0.016044054654617224,0.021071421913802624
39,0.25,0.001,0.016599141061306,0.012962862208139065,20.377706926922464,0.014545115579530667,0.017194427084177732
40,0.25,0.001,0.016605239482813103,0.01300134587773057,20.196220513277275,0.014415574955943809,0.02098319892372404
41,0.25,0.001,0.01641815387492263,0.01286353541234898,19.920080903519032,0.014218473164538925,0.02197805792093277
42,0.25,0.001,0.016356674295871756,0.012890523815051068,19.4243073840474,0.013864601987185867,0.03548258915543556
43,0.25,0.001,0.016491582911721495,0.013012577346417793,19.496347329782886,0.013916022362443173,0.03168076556175947
44,0.25,0.001,0.0163911146393349,0.012869239009396974,19.736592173021894,0.014087503335490288,0.036531148478388786
45,0.25,0.001,0.01624175435755142,0.012688004628343637,19.915214325660884,0.014214999518673008,0.03140246468995299
46,0.25,0.001,0.01606433302337347,0.012625130820412968,19.27329082045444,0.013756810007462128,0.022121500822582414
47,0.25,0.001,0.015964789194769638,0.012588548725254315,18.920450849311298,0.013504961348544823,0.021645152808300087
48,0.25,0.001,0.01584769832186921,0.01246666296623474,18.947322650288427,0.013524141791783318,0.02292891844574894
49,0.25,0.001,0.015744554667278778,0.012382357472250628,18.84175456734591,0.01344878984107488,0.015521939577800887
50,0.25,0.001,0.015587294422263323,0.01222471906695255,18.843872735666675,0.013450301738520111,0.027193160727620125
51,0.0,0.001,0.012123608415903047,0.012123608415903047,22.540383201421694,0.016088781728352385,0.04267387517860958
52,0.02,0.001,0.011387750471747199,0.010804152960867383,40.88100637391556,0.029179876069889765,0.024951455582465445
53,0.04,0.001,0.011837819331260614,0.010186155214039393,57.849539805567545,0.04129160585693615,0.020971280921782767
54,0.06,0.001,0.01245104410620623,0.009993817328020583,57.376247352777526,0.04095378112261065,0.02044464009148734
55,0.08,0.001,0.01260499806944714,0.010071139384147733,44.37420093625091,0.03167323407298423,0.016251272255820886
56,0.1,0.001,0.012766271335787551,0.010490588072774022,31.882323056598043,0.022756833016843715,0.012875185015478305
57,0.12,0.001,0.013150161578384943,0.010898910181293653,26.283362144647644,0.01876042979632237,0.017637633652027165
58,0.14,0.001,0.013431532802276833,0.01081927479353062,26.141239317073378,0.01865898595080184,0.021136602253786156
59,0.16,0.001,0.013754104251085326,0.010833961066118506,25.569504706804143,0.018250895579446213,0.028386810927518775
60,0.18,0.001,0.014000856148642164,0.010984680381451927,23.47590191863304,0.01675653241872451,0.02008818701973983
61,0.2,0.001,0.014273471164322177,0.011049926021071367,22.580934143066408,0.01611772601218159,0.021322550119033883
62,0.22,0.001,0.014576903756621271,0.011290321906292162,20.92955250407374,0.014939009638882042,0.017709155034806048
63,0.24,0.001,0.014873514597325823,0.011325849137853745,20.70949917283169,0.01478194087996552,0.02507287809359176
64,0.25,0.001,0.01491801485765812,0.01144981466580269,19.43579389882642,0.01387280078431579,0.017921247453029667
65,0.25,0.001,0.014853585966277954,0.011504672692958698,18.767309863068338,0.013395653007186537,0.021563996693917682
66,0.25,0.001,0.01481971038115579,0.01135124456310688,19.437282792911972,0.013873863520993556,0.018349642333175455
67,0.25,0.001,0.014681479222206183,0.0113199093010883,18.838238614104515,0.013446280238475742,0.022003913830433573
68,0.25,0.001,0.014559807706364366,0.011233239183418972,18.642090358290563,0.01330627434567492,0.02297055548323052
69,0.25,0.001,0.014693497303266858,0.011468245855770831,18.074309974492984,0.012901006405776577,0.030176014240298952
70,0.25,0.001,0.014579020219660083,0.011271803349603053,18.53364405077557,0.013228867987705619,0.0279975968546101
71,0.25,0.001,0.014404929485605207,0.01114939428259467,18.244018953900003,0.013022140580942186,0.01780717447400093
72,0.25,0.001,0.014421890671689842,0.011092360460654248,18.658687999636626,0.013318121341639276,0.014539288756038462
73,0.25,0.001,0.014470905602671379,0.01123561552877343,18.130566388507223,0.012941160876878818,0.01346870425290295
74,0.25,0.001,0.014249433932262797,0.011006651485208855,18.17255331527355,0.01297113013224379,0.01880081303949867
75,0.25,0.001,0.014239441040296888,0.01098138159357531,18.25816631760708,0.013032238627842313,0.014496589611683573
76,0.0,0.001,0.010599383226660795,0.010599383226660795,22.012097221197084,0.015711703940897277,0.025425220440540994
77,0.02,0.001,0.010192112572664438,0.009642832873519077,38.477051987758905,0.02746399142595211,0.021020264763917242
78,0.04,0.001,0.010631491936916529,0.009150810097885686,51.86088952352834,0.03701705176554486,0.017617140297910998
79,0.06,0.001,0.011111434713699096,0.008966736486831377,50.078705348524934,0.03574497169773371,0.01588718593120575
80,0.08,0.001,0.011267176772965942,0.009127259540349939,37.47530210628066,0.026748966528394473,0.009237998431282384
81,0.1,0.001,0.011649295951911184,0.009712358468840289,27.136492334410203,0.019369373543476235,0.013955679322992052
82,0.12,0.001,0.011870517915244712,0.009781550096217976,24.38870146108228,0.017408066710265725,0.015671564798269953
83,0.14,0.001,0.01232005950323371,0.009804694510476534,25.17161766761957,0.017966893410149586,0.022780319010572776
84,0.16,0.001,0.012606306980515635,0.009884647396934588,23.83153332555017,0.017010373537152155,0.01763707904943398
85,0.18,0.001,0.012920146526465582,0.01010432944221552,21.916441682327626,0.015643427325001874,0.016570735456688062
86,0.2,0.001,0.013159356101654297,0.010155517802855302,21.041887726894643,0.015019191810774192,0.015945461711713245
87,0.22,0.001,0.013398898544526378,0.010230401292616544,20.177566412992256,0.014402260109202182,0.012229241962943758
88,0.24,0.001,0.01362515251303828,0.010349243641072927,19.123118174353312,0.01364962039568402,0.013459460277642523
89,0.25,0.001,0.013737315368340459,0.010351410685756872,18.97461114040641,0.013543619657677666,0.0158356601106269
90,0.25,0.001,0.013626826182007789,0.010361463437939799,18.299093619058297,0.013061451548221482,0.013936404537941729
91,0.25,0.001,0.013675414454625097,0.010446571281483007,18.094437506032545,0.012915372952200245,0.0187206594273448
92,0.25,0.001,0.013729899740496347,0.010416887878158757,18.566118799253953,0.013252047679695898,0.019491600804030895
93,0.25,0.001,0.013755432000860225,0.010537859684852666,18.031276214954463,0.012870289946434306,0.020576260052621365
94,0.25,0.001,0.013575346048834713,0.01031713986032924,18.258987479986146,0.013032824753737435,0.02098331627036844
95,0.25,0.001,0.013669306161098701,0.010429690392731235,18.15480587981468,0.012958462440981214,0.019847416318953037
96,0.25,0.001,0.01352696362016506,0.010286931862491508,18.157137795381768,0.012960126906054081,0.015176966254200255
97,0.25,0.001,0.013398563679914141,0.010199689960410428,17.92648864568666,0.012795495107556502,0.019400473018842086
98,0.25,0.001,0.013582579323718714,0.010477001133353212,17.403659323758855,0.012422312151148363,0.01763874851167202
99,0.25,0.001,0.013466299871026084,0.010283985824952291,17.833688310135244,0.012729256466905956,0.022531505807169845
100,0.25,0.001,0.013440117859389892,0.010321870376897413,17.474659019292787,0.012472990020908485,0.022293504194489548
101,0.25,0.001,0.01349438700045264,0.010290417655609375,17.955044023380722,0.012815877247238204,0.026221885345876217
102,0.25,0.001,0.01329958089735619,0.010195170823744564,17.39711438112481,0.012417640528997008,0.018704452951039587
103,0.25,0.001,0.013327869677612948,0.010285085244754025,17.051763286147008,0.012171137249212712,0.02157053630799055
104,0.25,0.001,0.013372032249043155,0.010236343780402528,17.572398873262628,0.012542754370637137,0.027247041729944094
105,0.25,0.001,0.013303416477906149,0.01020730520750201,17.350608284528864,0.012384445599235449,0.019739685047950064
106,0.25,0.001,0.013227665476327718,0.010174975007079368,17.107276783433072,0.01221076144427771,0.015095882649932588
107,0.25,0.001,0.013216231156920277,0.01009352972167869,17.499619860981785,0.012490806467510196,0.01290727366826364
108,0.25,0.001,0.013099751391902913,0.010052959248423577,17.07422210338504,0.012187167811124226,0.014151774546397584
109,0.25,0.001,0.013171812116579954,0.010114649176424326,17.132341659900753,0.012228652148394541,0.015953710036618367
110,0.25,0.001,0.013131669952079306,0.009965289921261543,17.744393344258153,0.01266551987455971,0.011292978189885616
111,0.25,0.001,0.013058831884937231,0.010042256649670213,16.904888295018395,0.012066301423996,0.011600707325020007
112,0.25,0.001,0.013100824340484863,0.009973852423041366,17.523550184382948,0.012507887355019948,0.01233742106705904
113,0.25,0.001,0.013093440715483455,0.010003274284996266,17.317292661445084,0.01236066571123846,0.011054308153688908
114,0.25,0.001,0.012967555493462917,0.009853630634241326,17.450436791708302,0.012455700779235048,0.013183460171733583
115,0.25,0.001,0.013077655976075072,0.010056381754923698,16.931221522841344,0.012085097446710453,0.015508269026343311
116,0.25,0.001,0.013029059221924738,0.009947096612737622,17.271319296193678,0.012327851032258157,0.020521306299737523
117,0.25,0.001,0.013021490679577339,0.00994439998771562,17.24401635458303,0.012308362851236996,0.023694391761507307
118,0.25,0.001,0.012980535284204538,0.009948314527092978,16.9925645872604,0.012128882646153034,0.021799804642796516
119,0.25,0.001,0.012942220539201138,0.009975506235347239,16.62546598744947,0.011866856522090985,0.01821763999760151
120,0.25,0.001,0.012893910212225692,0.009845238386891608,17.0847578093063,0.012194687943830336,0.012293573735015733
121,0.25,0.001,0.01287046674812256,0.009774139298256053,17.351818909755973,0.01238530971431547,0.015559341159782239
122,0.25,0.001,0.012801624128465042,0.009749436304839544,17.104460951339366,0.012208751571262931,0.012522316271705287
123,0.25,0.001,0.012846008250706418,0.009815487486505231,16.983038498634517,0.012122083153914717,0.011828731745481491
124,0.25,0.001,0.012880153863062693,0.009901860222047152,16.690358184104742,0.011913175006498746,0.015175880465124334
125,0.25,0.001,0.012774195933584557,0.009677842952484307,17.351961091507313,0.012385411200219352,0.011411387406821762
126,0.25,0.001,0.012859295187301414,0.009826848794554555,16.99383008202841,0.012129785925787588,0.012536776917321342
127,0.25,0.001,0.01280282169233921,0.009749643071446308,17.110014032763104,0.012212715226811638,0.009537814185023308
128,0.25,0.001,0.0128629750507169,0.009811431147851223,17.10085187512775,0.012206175499734295,0.016660014832658426
129,0.25,0.001,0.01279206185839897,0.009652955916731857,17.591550135058025,0.012556424079270538,0.01696448360702821
130,0.25,0.001,0.012713688624979451,0.009698784719546175,16.895521119583485,0.012059615360159518,0.016010242381266186
131,0.25,0.001,0.012694965025713278,0.009662544276825218,16.993687252665676,0.012129683977634316,0.02255680026220424
132,0.25,0.001,0.012700136430388273,0.009701094715747722,16.806629801905434,0.011996166882159482,0.018342850064592704
133,0.25,0.001,0.012670351300648478,0.00967113263471875,16.807621481252273,0.011996874718952371,0.011224754354251283
134,0.25,0.001,0.012671302137679832,0.009661355463051519,16.867742032782974,0.012039787318189133,0.012200705307934965
135,0.25,0.001,0.01262778912692569,0.009580677479159,17.076013591677643,0.012188446532246712,0.013693996305976595
136,0.25,0.001,0.012668393491659054,0.009749340118710384,16.358374848476675,0.011676213310832744,0.018803969956934452
137,0.25,0.001,0.01281741191741339,0.009780910065354302,17.016556398258654,0.012146007422026163,0.018895824705915793
138,0.25,0.001,0.012634223764545696,0.009534530488904132,17.370681186055027,0.012398773152073538,0.015699635791991438
139,0.25,0.001,0.012630818654284922,0.009638643801905388,16.76814825368482,0.011968699681430993,0.011465235081102167
140,0.25,0.001,0.012631191984685354,0.009569459399858187,17.15794924358989,0.012246930223832898,0.012173358683607407
141,0.25,0.001,0.012477430463010489,0.009517020225351632,16.590139238224474,0.011841641140774071,0.014982860668429307
142,0.25,0.001,0.012607490028752838,0.009594555948536063,16.88448327530262,0.012051736813206725,0.01857221339430128
143,0.25,0.001,0.012524572586597399,0.009497629725482576,16.96298768686694,0.012107771368213375,0.017019922246358225
144,0.25,0.001,0.012496823670212612,0.009474925761825816,16.934716211363327,0.0120875918710659,0.014651584572025709
145,0.25,0.001,0.012586680158626202,0.009594185217175373,16.769940975100496,0.011969979282726978,0.02023984252342156
146,0.25,0.001,0.01255432635459096,0.009564970793245836,16.752348975248115,0.011957422537650331,0.018981634506157467
147,0.25,0.001,0.012490806620308133,0.009476021049154359,16.894858178427054,0.012059142168755928,0.013123286355819021
148,0.25,0.001,0.0124614194945194,0.00949063501212486,16.648275091481764,0.011883137110265356,0.015532013960182667
149,0.25,0.001,0.012462115071194116,0.009400590314248274,17.156785139926644,0.012246099314722802,0.011977414467505046
150,0.25,0.001,0.012451188595489014,0.009487969003791032,16.605883043865823,0.011852878689411723,0.014012064385626997
151,0.25,0.001,0.01243130130649999,0.009518066135256789,16.325769451052643,0.011652940364777048,0.017367649357765913
152,0.25,0.001,0.012487802580865317,0.009440065218612206,17.07952125017033,0.01219095021425434,0.021337466846619333
153,0.25,0.001,0.01250760848958825,0.009488741299787233,16.91773175527883,0.012075468776073397,0.02017688804439136
154,0.25,0.001,0.012472353862641856,0.009504804777544599,16.630146248396052,0.011870197179440437,0.022607708482870033
155,0.25,0.001,0.012466151150333327,0.009456148921230504,16.8680528685104,0.012040009185232263,0.014610526551093374
156,0.25,0.001,0.012365433058246623,0.009460654248331868,16.278380983929303,0.011619115620220773,0.013389617869896548
157,0.25,0.001,0.012390213797605316,0.009404273478444233,16.733209920483965,0.011943761542101331,0.01123849581927061
158,0.25,0.001,0.012385258680686007,0.009360621432059032,16.950067049957987,0.0120985489293062,0.010087995789945126
159,0.25,0.001,0.012474576557098433,0.009570662261441697,16.273534828008607,0.01161565655104112,0.016921882783727988
160,0.25,0.001,0.012395869256105535,0.009335505338602288,17.150278872112896,0.012241455297725122,0.015614244155585766
161,0.25,0.001,0.012377818704171236,0.009418396980956544,16.58459885175838,0.011837686546579856,0.011814043990203313
162,0.25,0.001,0.01222685659520848,0.009262750908559145,16.610849016766217,0.011856423281060825,0.01290234737098217
163,0.25,0.001,0.012300530249296233,0.00938753564733752,16.32442257903343,0.011651979000023863,0.013005052360572986
164,0.25,0.001,0.012269653033378512,0.009355457218060659,16.331153816400573,0.011656783594861223,0.016843775952500955
165,0.25,0.001,0.012309398042947747,0.009374359449328379,16.447955961005633,0.011740154147755626,0.012120744945215327
166,0.25,0.001,0.012270326973047368,0.00926736740958552,16.828585682358852,0.012011838459927803,0.010737225413322449
167,0.25,0.001,0.012307213277144487,0.009407217791953752,16.251575323592785,0.011599982386575863,0.01958601176738739
168,0.25,0.001,0.012276947281734889,0.009328847595079001,16.521151560406352,0.01179239940071831,0.01927343968834196
169,0.25,0.001,0.012292473226092582,0.00936089403234249,16.428569926772006,0.011726316864219847,0.015537270078701633
170,0.25,0.001,0.012243811725530513,0.009305541962385177,16.466063938584437,0.011753079185285108,0.019370339810848236
171,0.25,0.001,0.012291730247264685,0.009352925207552522,16.469062672104947,0.01175521960892573,0.014227152003773622
172,0.25,0.001,0.012260457301555679,0.009210189904064633,17.09369871450025,0.012201069746252855,0.013978032262197562
173,0.25,0.001,0.01227866137443587,0.009349614944915438,16.414376156829125,0.011716185693668182,0.017529314583433524
174,0.25,0.001,0.01218907035194164,0.009158114889679953,16.98547509215599,0.012123822335586003,0.012137039298457759
175,0.25,0.001,0.012222715657810832,0.009328083226154017,16.221521129164586,0.011578530427669226,0.012237539381853171
176,0.25,0.001,0.0121264657308889,0.00916785103550484,16.580076794291653,0.011834458811057567,0.009636672280196632
177,0.25,0.001,0.012179209049357924,0.00924414347337429,16.44810807871264,0.011740262725704954,0.020922432919698104
178,0.25,0.001,0.012261248483907345,0.009330789432969205,16.422292869035587,0.011721836451845529,0.01967914522226368
179,0.25,0.001,0.012169130519032479,0.009227437530319358,16.485247261579648,0.011766771778429441,0.019622554470385824
180,0.25,0.001,0.012250762363505918,0.00939600779566654,15.998044426496639,0.011419018148819871,0.018233792590243474
181,0.25,0.001,0.01221089010495086,0.009245097221330155,16.620303690710735,0.011863171799222508,0.017842298639672145
182,0.25,0.001,0.01220056943941948,0.00928042719010697,16.364477042264717,0.011680568909539413,0.01662429315703256
183,0.25,0.001,0.012160777413221293,0.009181505164434743,16.695842547749365,0.011917089612954578,0.01828906831464597
184,0.25,0.001,0.012187351572305657,0.00931211752860352,16.112811509952987,0.011500936124163445,0.017511697352996895
185,0.25,0.001,0.012240250109759874,0.009245910456534043,16.78027890227562,0.01197735824573563,0.01644556610179799
186,0.25,0.001,0.012194578709124132,0.009263919818020144,16.423411817328873,0.011722635130141951,0.013228672822671277
187,0.25,0.001,0.012138452952684358,0.009194107154427573,16.500114822387694,0.011777383884645035,0.014786564345870699
188,0.25,0.001,0.01211567492939012,0.009152539355983568,16.605412088438523,0.01185254253278981,0.015700343331055983
189,0.25,0.001,0.012071032336978026,0.009090082888859648,16.705240755302963,0.01192379782676871,0.010953519959002733
190,0.25,0.001,0.012094642130961251,0.009142403841711754,16.544343992721203,0.011808953599372736,0.012361024639436178
191,0.25,0.001,0.012089056227096292,0.009106709543875484,16.71307074081066,0.011929386681520814,0.015919305118066922
192,0.25,0.001,0.011977936171515043,0.0090897033034369,16.18565727056459,0.011552931670638537,0.013356696548206466
193,0.25,0.001,0.01204716298555912,0.009111452436204566,16.451723081012105,0.011742843027132124,0.010032999329268932
194,0.25,0.001,0.012101710973264172,0.009081374260402003,16.925967558040174,0.01208134729339056,0.01026935941938843
195,0.25,0.001,0.012062529448506444,0.009100634119538374,16.598462694744732,0.011847582223229645,0.010984984093478747
196,0.25,0.001,0.011987127545614575,0.009049390875842682,16.463076941911563,0.01175094713912317,0.01173273507239563
197,0.25,0.001,0.011939477929195693,0.009045294849851797,16.219001397421195,0.011576731903940896,0.013655958830245904
198,0.25,0.001,0.012093874656183775,0.00911981879278671,16.666610034676484,0.011896224150375792,0.014402366642441069
199,0.25,0.001,0.012072363989644272,0.009139347102406412,16.436626496425895,0.011732067449269018,0.015021876165909427
200,0.25,0.001,0.012048473447387995,0.00912725298210632,16.370520338901255,0.011684882468880267,0.017314610271049396
201,0.25,0.001,0.011972262121217195,0.00907010679934607,16.263677907544512,0.01160862091901821,0.015020487963088922
202,0.25,0.001,0.012018149372103602,0.009104743067088516,16.32672975673232,0.011653625807803226,0.019429901082600867
203,0.25,0.001,0.012012426927685737,0.009070506603132154,16.486520829311637,0.011767680820350918,0.011642479736890112
204,0.25,0.001,0.012014976425399613,0.009105080665024214,16.307055992303894,0.01163958314939607,0.010254223830997944
205,0.25,0.001,0.011871810209785782,0.008997942814820034,16.105153478578078,0.011495470006122825,0.009577564362968718
206,0.25,0.001,0.011995962773298108,0.009072425840205924,16.383501221412835,0.011694147909645135,0.010936176736972161
207,0.25,0.001,0.011957253277475058,0.008950592651096887,16.849326200263445,0.012026642541230153,0.013857109937816858
208,0.25,0.001,0.011893024490496448,0.009025172352097755,16.071443575482036,0.011471408690565336,0.014374454239649432
209,0.25,0.001,0.012059041285930678,0.009157191702099733,16.2619649044303,0.011607398218722555,0.017443880438804626
210,0.25,0.001,0.01204620196895544,0.009120614835342695,16.394990752464118,0.011702348859717429,0.018218644761613438
211,0.25,0.001,0.01196025584846042,0.00900371740030688,16.568441621647324,0.011826153905529853,0.015122216194868088
212,0.25,0.001,0.01202139695889728,0.009131699176721795,16.19386729306953,0.011558791786630643,0.014389102879379476
213,0.25,0.001,0.011899229069781858,0.00903876782503239,16.03002605881802,0.011441845866394018,0.017243502927677973
214,0.25,0.001,0.012038641422986985,0.009107407199781994,16.426635963972224,0.011724936448231423,0.02331875224730798
215,0.25,0.001,0.011964987287687702,0.009056886593096478,16.296996582386104,0.011632402985286299,0.016597382724285126
216,0.25,0.001,0.011955349810074928,0.009068384190458198,16.17855672614519,0.011547863473337036,0.014691774467272418
217,0.25,0.001,0.011909753448048304,0.009012549175599287,16.235932212652163,0.01158881671138627,0.01328270323574543
218,0.25,0.001,0.011906038718514663,0.008952451098796933,16.551905388055847,0.01181435074093922,0.013136703654059343
219,0.25,0.001,0.011825976347507433,0.008970582888050135,16.001625868331555,0.011421574495597112,0.009855514990964107
220,0.25,0.001,0.011861156676571036,0.008985155911812948,16.117107391357422,0.01150400242066911,0.010444625413843564
221,0.25,0.001,0.011851965423760026,0.00892412500499293,16.40761842062307,0.011711362184598909,0.012222970436726297
222,0.25,0.001,0.011920647383775821,0.009035270899360957,16.169650579053304,0.01154150648040921,0.011012110992201738
223,0.25,0.001,0.011920846920720367,0.009024217711804911,16.232709991100222,0.011586516767380602,0.018551521402384554
224,0.25,0.001,0.011952897438476252,0.008921100944280624,16.99018789779308,0.012127186222550379,0.017428736734603132
225,0.25,0.001,0.01184376164577728,0.008958820708442566,16.167209350231083,0.01153976399017208,0.014973370624440057
226,0.25,0.001,0.011874098824553711,0.008928311421254347,16.5081923285196,0.011783149413647108,0.01636699533888272
227,0.25,0.001,0.011871952117355757,0.008942910842597485,16.414347156258515,0.011716164993760539,0.014366235584020615
228,0.25,0.001,0.011771623742615067,0.0088998468202907,16.093436724640604,0.011487106869836262,0.014875718924616064
229,0.25,0.001,0.011917731356482173,0.009026420865814353,16.20290394272915,0.011565241929142862,0.011398755945265293
230,0.25,0.001,0.01183064362077519,0.00882056912537231,16.868457341748616,0.012040297888471533,0.013108187621193272
231,0.25,0.001,0.011858745638367741,0.00894845815072226,16.30925125299498,0.011641150073515332,0.010630176003490175
232,0.25,0.001,0.011838043818986694,0.008911492069100224,16.400397043449935,0.01170620773979296,0.015672472372118915
233,0.25,0.001,0.011777308925466481,0.008876144660766735,16.258124790635218,0.01160465723814077,0.014410285146108695
234,0.25,0.001,0.011881820714577686,0.008979954865089682,16.262056368450786,0.011607463503533751,0.01638806930610112
235,0.25,0.001,0.011842995240937832,0.00894456133679595,16.242822873315145,0.011593735098726014,0.01737647264131478
236,0.25,0.001,0.011878349320139996,0.00896111068770636,16.348205087351243,0.01166895438069325,0.013535012890185629
237,0.25,0.001,0.011838059547508871,0.008876919404192026,16.59422950744629,0.011844560676264304,0.011383351071604661
238,0.25,0.001,0.011836795833741509,0.00902113850380099,15.778944294951684,0.011262629760850596,0.014684721561414855
239,0.25,0.001,0.011853742348246796,0.00887409609330948,16.697938213791957,0.01191858544881653,0.018561751315636293
240,0.25,0.001,0.011851669297835161,0.008942106920619343,16.305188400800837,0.011638250107638,0.016948631033301353
241,0.25,0.001,0.011807735762450583,0.008963665140922679,15.938171679474587,0.011376282426462946,0.019478805030563047
242,0.25,0.001,0.011829520623351252,0.00890638081486835,16.381275691542516,0.011692559380116,0.019377766975334713
243,0.25,0.001,0.011801944530114185,0.008906710957891719,16.224887830157613,0.011580933497614285,0.016315139031835964
244,0.25,0.001,0.011733843498798304,0.008816192208161188,16.350517725390056,0.011670605085931518,0.010501834297818797
245,0.25,0.001,0.011753924602512704,0.00887893475158963,16.111443665970203,0.011499959790128625,0.01074325998446771
246,0.25,0.001,0.011762773873674316,0.008819302123819673,16.49521587283112,0.011773887132641771,0.014338643556194646
247,0.25,0.001,0.011711477670212125,0.008852064280315887,16.02415225006813,0.011437653283417653,0.014893294045967715
248,0.25,0.001,0.011754433433850145,0.008857999681386836,16.23161426810331,0.011585734666740408,0.014317063481679984
249,0.25,0.001,0.011757531484892203,0.008836786851806696,16.367853373150492,0.011682978853069587,0.011971197490181242
250,0.25,0.001,0.011727436904817127,0.008817887098290199,16.30511842772018,0.011638200162541171,0.012061376590281725
251,0.25,0.001,0.011728168863716514,0.008840625152684922,16.181794849661895,0.01155017476778151,0.012791093838002001
252,0.25,0.001,0.011754862141124037,0.008851910369514033,16.268142221140305,0.011611807438358534,0.01163275180650609
253,0.25,0.001,0.011782665966555129,0.008898859930246375,16.160848976844964,0.011535224109097048,0.01416855864226818
254,0.25,0.001,0.011681439766530381,0.008749393876208815,16.431185438466628,0.011728183753366615,0.01460627413221768
255,0.25,0.001,0.011670821411318557,0.00877908623322498,16.205283879124842,0.011566940670324655,0.014231577116463865
256,0.25,0.001,0.011711270500754201,0.008796223733834057,16.33592246299566,0.01166018733975422,0.01165051625243255
257,0.25,0.001,0.01171863276164892,0.00885983238992996,16.020716875652933,0.011435201196040638,0.01198304763862065
258,0.25,0.001,0.011772560982336831,0.00882442956140568,16.521329604747685,0.011792526484473723,0.014541218988597393
259,0.25,0.001,0.011802796690269958,0.009006656580712907,15.669569472379463,0.011184560651234448,0.01562736981681415
260,0.25,0.001,0.011738094029038451,0.00879682793693487,16.482856315790222,0.01176506517900801,0.01369326182508043
261,0.25,0.001,0.011648352790710538,0.008751746449013088,16.232581923728766,0.011586425355980562,0.011782757538769926
262,0.25,0.001,0.011700946283201839,0.008867019592502783,15.88132577940475,0.01133570719443594,0.011181049448038851
263,0.25,0.001,0.011623821801744228,0.008703960872493512,16.36290098678234,0.011679443959159415,0.01090288973812546
264,0.25,0.001,0.011675174872195998,0.008813492446964563,16.036869049072266,0.011446730227746085,0.010388768211539303
265,0.25,0.001,0.011747049393002376,0.008779846803220205,16.628204026333123,0.011868810868189238,0.015445308360670294
266,0.25,0.001,0.011701749048607294,0.008833798987054548,16.07199164989383,0.011471799892857836,0.014591341173010213
267,0.25,0.001,0.011708917464454507,0.008808661022678365,16.253036605480105,0.011601025414332694,0.012868313784045833
268,0.25,0.001,0.011632668651467146,0.008723315670219965,16.304014755958736,0.011637412388264622,0.01362503958599908
269,0.25,0.001,0.011623973139496736,0.008786014242227688,15.903921686216842,0.011351835607578046,0.016029192400830134
270,0.25,0.001,0.011649102769618811,0.008814586763984935,15.884627595058708,0.01133806395079137,0.016658853606453965
271,0.25,0.001,0.01170588048651468,0.008840136394597763,16.059629041095114,0.011462975760952973,0.014770195952483587
272,0.25,0.001,0.01171354192287423,0.008826730201064155,16.177691872175348,0.011547246161438507,0.011462415036346232
273,0.25,0.001,0.011632203319391538,0.008731683425951835,16.254513895788858,0.01160207986851453,0.012744279046143805
274,0.25,0.001,0.011631752022130544,0.008772707414315191,16.02208732782408,0.011436179391737388,0.011257060869996036
275,0.25,0.001,0.011663573737754378,0.008726959625735532,16.456785676645676,0.011746456585757086,0.01380874469344105
276,0.25,0.001,0.011675428668426913,0.008850176853322705,15.83271177424941,0.011301007690399293,0.017113973386585712
277,0.25,0.001,0.011758601106703282,0.008852167262933974,16.287655932404274,0.011625735854678283,0.01515413834048169
278,0.25,0.001,0.011622771300202192,0.008699851799323114,16.380041184536246,0.011691678218798178,0.011742371400552136
279,0.25,0.001,0.011622050213952398,0.008786495649364106,15.890448965028275,0.01134221910423146,0.010875314607151918
280,0.25,0.001,0.011589895825573179,0.00871747526838336,16.097045264133186,0.0114896825582678,0.014545743087572711
281,0.25,0.001,0.011698304640865603,0.008866707404512305,15.86827190310456,0.011326389652465782,0.014936149918607302
282,0.25,0.001,0.011735761148291965,0.008799683978391247,16.453776151080465,0.01174430845901532,0.014706961145358426
283,0.25,0.001,0.011656281040158383,0.008795844412647014,16.02988790467728,0.011441747255301414,0.014103663686130728
284,0.25,0.001,0.011667564840510835,0.008727114851218323,16.478281287259833,0.011761799634018438,0.013034457473882608
285,0.25,0.001,0.011619823127118654,0.008750474634905194,16.079829628523004,0.011477394452907212,0.011220349930226803
286,0.25,0.001,0.011628664882723676,0.00880103686954393,15.846027817837028,0.011310512361054266,0.011556558577077729
287,0.25,0.001,0.011668583391190961,0.00877327275310838,16.22532114428143,0.011581242786781892,0.01176576316356659
288,0.25,0.001,0.011635318038941815,0.00871500945974921,16.365410498685616,0.011681235188212432,0.014179784139352185
289,0.25,0.001,0.011612766383345737,0.008683073936506759,16.417997413457826,0.011718770459284673,0.011624867163066353
290,0.25,0.001,0.011613057120594867,0.008784981349179911,15.848536180895428,0.011312302770089527,0.01119019789621234
291,0.25,0.001,0.011565568778923778,0.008635021702841271,16.422784610127295,0.011722187444773229,0.011390239399458681
292,0.25,0.001,0.011639453046197115,0.00874744321024695,16.206822444117346,0.011568038860897464,0.01376130445195096
293,0.25,0.001,0.011616327046135137,0.00872662322119225,16.193899873245595,0.011558815041574301,0.01386932669473546
294,0.25,0.001,0.011684847142287465,0.008793234578225501,16.20459686101869,0.011566450293375224,0.014560120446341378
295,0.25,0.001,0.01166053283526454,0.00879336700796388,16.067597917068838,0.011468663752368907,0.016973010929567472
296,0.25,0.001,0.011581143247353477,0.008730175380789957,15.97682438340298,0.011403871794006409,0.01798759786678212
297,0.25,0.001,0.011628269716057666,0.008735496750058129,16.21109874636628,0.01157109118227429,0.017596461677125523
298,0.25,0.001,0.011570312667551428,0.008709554222607335,16.03168972813806,0.0114430333534176,0.016634229304535047
299,0.25,0.001,0.011640605048904585,0.008795199690516606,15.945652797610261,0.011381622268101542,0.016481708336089338
300,0.25,0.001,0.011704382425997147,0.008803192630063655,16.25826730949934,0.011604758964667625,0.016295213784490312
301,0.25,0.001,0.01161112314913162,0.008662220792368402,16.525649554230448,0.01179560996019304,0.01459788451237338
302,0.25,0.001,0.011595766159684159,0.008801559302522693,15.65873514219772,0.011176827367735703,0.015549712548298495
303,0.25,0.001,0.011723580869824387,0.008809360909427322,16.331288856683777,0.011656879983357443,0.017522057385316918
304,0.25,0.001,0.01156528444397588,0.008615251548241738,16.531984941349474,0.011800132006673429,0.011741306632757187
305,0.25,0.001,0.011559079786719278,0.008641037396913352,16.352711025504178,0.011672170610638242,0.01092333479651383
306,0.25,0.001,0.011551484890108885,0.008676182669262553,16.113194425715957,0.011501209440196971,0.011354785678642136
307,0.25,0.001,0.011546936033423556,0.008653315087390501,16.215850759107013,0.01157448305432335,0.012820436220083917
308,0.25,0.001,0.01154335078804992,0.00866034782903139,16.15634838813959,0.011532011697458665,0.012247031421533652
309,0.25,0.001,0.011567626967159815,0.00865505202781669,16.3220695850461,0.011650299489683156,0.013490392427359308
310,0.25,0.001,0.01157676387838153,0.008702841990215834,16.105458450317382,0.011495687687592706,0.015340955661875861
311,0.25,0.001,0.011445972336412862,0.008618907353212668,15.842871453041255,0.011308259424012316,0.015074368300182479
312,0.25,0.001,0.011581292570850183,0.008747064183617747,15.883015158010084,0.011336913032127112,0.01634163023637874
313,0.25,0.001,0.011582381295603374,0.008668271915683912,16.330669349847838,0.011656437794323939,0.012999569465007101
314,0.25,0.001,0.011570345506418583,0.008648769163288349,16.372513695650323,0.011686305278836776,0.013025828104998385
315,0.25,0.001,0.011555314887055131,0.008665129104845746,16.196600599067157,0.011560742754509034,0.010418373825294631
316,0.25,0.001,0.01157852127108463,0.008689912153018075,16.187766239254973,0.011554437001609545,0.013750196900218725
317,0.25,0.001,0.011551100357847158,0.008660363405942917,16.199690769993982,0.011562948443964298,0.014273930341005325
318,0.25,0.001,0.011608550810190134,0.00865475356059019,16.553079365575037,0.011815188697769477,0.012870894212807928
319,0.25,0.001,0.011526876813623793,0.008653738574926243,16.101067174867143,0.01149255330111859,0.01644415268674493
320,0.25,0.001,0.01160577962738137,0.008686109827181628,16.36183009480321,0.01167867958230065,0.017630188459796563
321,0.25,0.001,0.011575501234552196,0.00874007331250712,15.88973850427672,0.01134171199448731,0.016920640532459532
322,0.25,0.001,0.011563637488803197,0.00864349943260814,16.36445426940918,0.011680552654824539,0.015446810983121395
323,0.25,0.001,0.011521022693189078,0.008617976927306764,16.268669075189635,0.011612183494068262,0.011008881963789463
324,0.25,0.001,0.011568362049238626,0.008710694936818855,16.014367817723475,0.011430669391665578,0.014708166010677814
325,0.25,0.001,0.011573645888372909,0.008626338155117146,16.51671188709348,0.011789230469017472,0.017114267950611457
326,0.25,0.001,0.011548664100294889,0.00870612230325161,15.929603736345157,0.011370166835364138,0.014586067226316248
327,0.25,0.001,0.011549401798740377,0.008576872762899066,16.6580537396808,0.011890116873433833,0.016459875207926546
328,0.25,0.001,0.011533462832313638,0.008724678520026594,15.740429004403047,0.011235138475662418,0.015955884142645767
329,0.25,0.001,0.011482463725084482,0.008646761565360912,15.891275876067406,0.011342809333381446,0.014254284357385976
330,0.25,0.001,0.011552331453665745,0.008648649936671866,16.27223165645156,0.011614726378623525,0.016145898029208183
331,0.25,0.001,0.01158651810052783,0.008668913553620494,16.350256400884582,0.011670418558804128,0.015225368152771677
332,0.25,0.001,0.011563625871095546,0.008704657794171294,16.021657349342522,0.011435872483470751,0.017848832931901728
333,0.25,0.001,0.01158433206552683,0.008636518706415975,16.519546499917674,0.011791253747264578,0.013725767710379191
334,0.25,0.001,0.011540761135172013,0.008625434932493885,16.337488165567088,0.011661304900476151,0.01446923999381917
335,0.25,0.001,0.011546505775389283,0.008638814299605613,16.294702152873196,0.01163076527685453,0.01671313088653343
336,0.25,0.001,0.011558373350390169,0.00864211134179387,16.342732757745786,0.011665048363844244,0.02008447955761637
337,0.25,0.001,0.011492013671370439,0.008670219597081806,15.813332952455033,0.011287175554928646,0.015388559150908674
338,0.25,0.001,0.011433514918005743,0.008563529158574204,16.083401311830034,0.011479943834282679,0.01388782262802124
339,0.25,0.001,0.011452113875989304,0.008646802474246469,15.720965296723122,0.011221245750694591,0.013797741649406297
340,0.25,0.001,0.011442786359856296,0.008471415763677553,16.651562154015828,0.011885483336199735,0.013042377308011055
341,0.25,0.001,0.011482027138388435,0.008634070213884116,15.95995012327682,0.011391827354230421,0.011810909823647566
342,0.25,0.001,0.01148704660753178,0.00857760881528605,16.304489889810252,0.011637751527344933,0.015803534803645953
343,0.25,0.001,0.01146079684326122,0.008657081815045934,15.712019037645916,0.01121486012679937,0.014073401556483336
344,0.25,0.001,0.011441417670873708,0.008495396098425222,16.50950506343398,0.011784086412158444,0.01568826154938766
345,0.25,0.001,0.011481621753164502,0.008630041466202847,15.980256475404252,0.011406321538475555,0.010649298317730427
346,0.25,0.001,0.011400014928780323,0.00851261808515288,16.180972263424895,0.011549587625570946,0.010171189771166869
347,0.25,0.001,0.011468476126360339,0.008623888629466989,15.941069234803665,0.01137835063155151,0.010223738117409604
348,0.25,0.001,0.011441455811781938,0.008539480196182118,16.26267185654751,0.011607902824088159,0.01299127537224974
349,0.25,0.001,0.011424010983386705,0.00853297228730002,16.201380068756812,0.011564154224665819,0.011644088130976473
350,0.25,0.001,0.01141017907580664,0.008567807485544403,15.928650368091672,0.011369486344105405,0.011775355919131212
351,0.25,0.001,0.011457343143952447,0.008590556711478289,16.06547104591547,0.011467145643051726,0.010648475560758795
352,0.25,0.001,0.011454329154519148,0.00857069079525942,16.159909873784976,0.011534553799989276,0.01162240667534726
353,0.25,0.001,0.011506207547215529,0.008637882071698822,16.0740955530211,0.011473301608152105,0.014234138519636222
354,0.25,0.001,0.011439625082840753,0.008529263453254866,16.3096659549447,0.011641446077762097,0.01367066108754703
355,0.25,0.001,0.011403508545007816,0.008558767072336618,15.941931374128474,0.011378966005801908,0.013901471426444394
356,0.25,0.001,0.011471594159686288,0.008628666418236355,15.931766989064771,0.011371710912965575,0.01752597000449896
357,0.25,0.001,0.011465295625114164,0.008531618313214114,16.44032771975495,0.011734709293186974,0.015293634363583155
358,0.25,0.001,0.01144688852824444,0.008623228659636753,15.823790510310683,0.011294639907430895,0.013175612847719873
359,0.25,0.001,0.011411308306594228,0.008462880534488102,16.52298952147018,0.011793711292983712,0.010822007565626077
360,0.25,0.001,0.011408881015729072,0.00857893475656246,15.859019501264704,0.011319785511252466,0.01231551802318011
361,0.25,0.001,0.011406871901695119,0.008530405973799006,16.1197157660196,0.011505864215574304,0.013823219441941806
362,0.25,0.001,0.011395592476392902,0.008585190322510032,15.749494295342023,0.011241609061628853,0.012736921198666096
363,0.25,0.001,0.011378183683683705,0.00845924730217734,16.35771861409032,0.011675744906559829,0.01653744958873306
364,0.25,0.001,0.01139347449291584,0.008546919821826525,15.95209239693575,0.011386218698740722,0.01486003678292036
365,0.25,0.001,0.011423897630600042,0.008603053054837294,15.80801282483478,0.011283378176184711,0.012305134375180517
366,0.25,0.001,0.011364658454129862,0.008494422056300695,16.084805714806844,0.011480946263245428,0.011832943851394313
367,0.25,0.001,0.011391645488004351,0.008525647266313087,16.06105496162592,0.01146399354862664,0.012663840183189936
368,0.25,0.001,0.011436122881118642,0.008589814161491948,15.950713698808537,0.01138523461727947,0.012329691954489266
369,0.25,0.001,0.011343194332060425,0.008515796193116626,15.844739692155706,0.011309592928019776,0.013730481932205814
370,0.25,0.001,0.011340715714492078,0.008476883082022501,16.048917881278104,0.01145533039348901,0.01106327080300876
371,0.25,0.001,0.011386405221771362,0.008525346973261167,16.033370847480242,0.011444233295845997,0.016556341600205218
372,0.25,0.001,0.011359858608176543,0.008548239566559016,15.756313763108365,0.011246476633196549,0.010680842213332653
373,0.25,0.001,0.011458209516523883,0.008557686543222084,16.254531203868776,0.011602092222604408,0.011149072886577674
374,0.25,0.001,0.011449923171380232,0.00851138747448838,16.467554908575014,0.0117541434036938,0.011271765322557517
375,0.25,0.001,0.011384045319675013,0.008507472740183044,16.12031324963237,0.011506290684962435,0.01315471383609942
376,0.25,0.001,0.011391256853591564,0.008527411061317422,16.04899142509283,0.01145538288728967,0.011827558079468352
377,0.25,0.001,0.011395768881883732,0.00851588262634915,16.138883218099906,0.011519545480442473,0.011047110094555787
378,0.25,0.001,0.011366025635669397,0.008524711973705265,15.922720940168514,0.011365254061505006,0.011283406588648046
379,0.25,0.001,0.011394541714946891,0.00850423673211142,16.197269989723384,0.011561220549409982,0.01612553492720638
380,0.25,0.001,0.011357891511951768,0.008464102178465488,16.216794896680256,0.011575156956945222,0.014101485056536538
381,0.25,0.001,0.011335309040407802,0.008508117245726808,15.843582228727119,0.011308766758548978,0.013888959240700518
382,0.25,0.001,0.011442788057895593,0.008491701251545618,16.537890234658885,0.011804347062568797,0.014608145558408328
383,0.25,0.001,0.011456648208374201,0.008613219553994578,15.93457457520241,0.011373714900215853,0.021254490794880048
384,0.25,0.001,0.011387361794017082,0.008541053854102311,15.950710451880166,0.011385232299700333,0.013779239729046822
385,0.25,0.001,0.011346604653395886,0.008544944369688976,15.700504861876022,0.0112066415859215,0.014678212814033031
386,0.25,0.001,0.011375536397099494,0.008510261735077514,16.05699894927269,0.011461098464862733,0.014116134494543076
387,0.25,0.001,0.011368631311627322,0.008491871046812035,16.121364558020304,0.01150704108352627,0.013285580889454909
388,0.25,0.001,0.011421522688727046,0.008568648950651635,15.987503969946573,0.01141149462522953,0.01636826286890677
389,0.25,0.001,0.011368947515134202,0.00850148930885764,16.069235362563024,0.011469832521458261,0.015030309690960817
390,0.25,0.001,0.011347572860676189,0.0085640536231357,15.598841591768487,0.011134076796408628,0.015126570926180907
391,0.25,0.001,0.011331130642183992,0.00846493356796198,16.06216908831929,0.011464788785381364,0.012078900023230485
392,0.25,0.001,0.01134107637024203,0.008509459900994634,15.868378009352574,0.011326465388545735,0.012050821578928403
393,0.25,0.001,0.011306138094081436,0.008435691100393617,16.085985068387764,0.011481788057378846,0.012505967835230487
394,0.25,0.001,0.011386266320424025,0.008566198125481605,15.803662881185842,0.011280273291353206,0.011284558767718928
395,0.25,0.001,0.0112961521892007,0.008397907105296157,16.241764485558797,0.011592979647079798,0.00966361737144845
396,0.25,0.001,0.011342314258217811,0.00847744892762844,16.05470557989076,0.011459461513126882,0.011566728220454283
397,0.25,0.001,0.01131709287332934,0.00846504358964604,15.982884411479152,0.011408197295845218,0.012381905689835548
398,0.25,0.001,0.011357129174609517,0.008486954895996077,16.084456989377045,0.011480697351446856,0.013088514363127095
399,0.25,0.001,0.011371120234388252,0.008504501340347668,16.06453303847202,0.01146647611596861,0.010313006250986032
400,0.25,0.001,0.011362745768802111,0.008486767927574556,16.11698052162348,0.011503911864113831,0.011339860303061349
401,0.25,0.001,0.011354018072056216,0.008480035851514616,16.10579631716706,0.011495928848798758,0.012046640539275748
402,0.25,0.001,0.01137240547253642,0.008434083572653838,16.46635578510373,0.0117532874982896,0.010990478098392487
403,0.25,0.001,0.011377398401152256,0.00853725836374039,15.916145111793696,0.011360560393857027,0.012313610341932093
404,0.25,0.001,0.011372497296610544,0.00836080338286106,16.87753307431243,0.012046775927417867,0.011612093475248133
405,0.25,0.001,0.011310384600141714,0.008527253511859926,15.596667586925419,0.01113252504420087,0.012223306111991405
406,0.25,0.001,0.011298596941281196,0.008445401870927145,15.989305363144986,0.011412780416234822,0.014315042644739151
407,0.25,0.001,0.011237490363419056,0.00839871198458727,15.908515459992165,0.011355114532471209,0.009548324958554335
408,0.25,0.001,0.01133200709902963,0.008484783807639465,15.955839511960052,0.011388893299043577,0.012455697237913097
409,0.25,0.001,0.011332946517613044,0.008423889094833718,16.30235835230628,0.011636230087299271,0.015660214637007033
410,0.25,0.001,0.011296015458051548,0.008439212257778921,16.009524429676144,0.011427212298127156,0.015794139355421066
411,0.25,0.001,0.011480761730913506,0.008548916683553957,16.43005915797034,0.011727379841520585,0.019459760215665613
412,0.25,0.001,0.011427418064585951,0.008622417720251305,15.719222738576489,0.011220001954729828,0.015505725251776832
413,0.25,0.001,0.01139638548240412,0.008495885939445606,16.2543992863145,0.011601998063036759,0.01418745338118502
414,0.25,0.001,0.011342344636660676,0.008407936297183814,16.444424057006835,0.011737633159890674,0.011472259115959917
415,0.25,0.001,0.011294582312883333,0.008455408867015395,15.910727758185809,0.011356693617548758,0.012759265090738024
416,0.25,0.001,0.011316838986132035,0.008515064994436364,15.701141428392987,0.011207095951743745,0.015540612861514091
417,0.25,0.001,0.011390063816378283,0.008461084593693878,16.414000861589297,0.011715917816980226,0.016694747177617892
418,0.25,0.001,0.011285021684544032,0.00838806338088457,16.234554379485374,0.011587833247312902,0.009492273309401103
419,0.25,0.001,0.011223075434912083,0.008394332736903844,15.852274570908657,0.011314971142689976,0.010879587249032088
420,0.25,0.001,0.011298301595068255,0.008385522022496822,16.323217054854993,0.011651118525949317,0.012089144571551256
421,0.25,0.001,0.011312038187197474,0.00848476353512947,15.844047803657,0.011309099074701642,0.01529775160763945
422,0.25,0.001,0.011308774776583494,0.008437074673210466,16.093008657943372,0.011486801326155155,0.013614757784775324
423,0.25,0.001,0.011329444242251473,0.008437171028277209,16.20829920214276,0.011569092935148295,0.01570565266800778
424,0.25,0.001,0.01126233973908563,0.00841094583792742,15.979211292710415,0.01140557551228438,0.013805616114820753
425,0.25,0.001,0.011269689204041347,0.00847594696421956,15.656131912941156,0.011174969245496899,0.01471579380865608
426,0.25,0.001,0.011201561736159547,0.008348495495873829,15.988584172448446,0.011412265647714808,0.012263094607208456
427,0.25,0.001,0.011371979819134225,0.008576000416867955,15.668669155032136,0.011183918026432645,0.018752033689192364
428,0.25,0.001,0.011292532276968623,0.00839326013919226,16.24752120084541,0.01159708865156703,0.01785647603017943
429,0.25,0.001,0.01134032475393872,0.008456469639096149,16.161124074181846,0.01153542046693922,0.016236100611942157
430,0.25,0.001,0.01132258491720571,0.00848175881993632,15.919990415351336,0.011363305078766121,0.011373981567365783
431,0.25,0.001,0.011284552895745566,0.008406257854644642,16.129965414002886,0.011513180167025615,0.010790712998381682
432,0.25,0.001,0.011303635210145352,0.008479526153830595,15.826306649141534,0.011296435866624936,0.011745023408106394
433,0.25,0.001,0.011259824431739575,0.008337159077961778,16.378616803191427,0.011690661529758334,0.014142160969121116
434,0.25,0.001,0.011313202899209288,0.008437980100685773,16.11275055463924,0.01150089261573108,0.01337796529488904
435,0.25,0.001,0.01125171223525391,0.008418998927917592,15.874524702027786,0.011330852749484501,0.012235625780054502
436,0.25,0.001,0.011325561073283816,0.008467687740055628,16.01552320968273,0.011431494082571542,0.011992880276271276
437,0.25,0.001,0.011340871435958286,0.008394415485997533,16.511938183806663,0.011785823114779917,0.012406285320009505
438,0.25,0.001,0.01126000788062811,0.008456547675264436,15.71059051336244,0.011213840480629865,0.014332800571407591
439,0.25,0.001,0.011282651702505211,0.008490970895387405,15.644579279699991,0.011166723254603848,0.012185319592910153
440,0.25,0.001,0.011327518834624179,0.008386611613596594,16.480844577523165,0.011763629248767426,0.014559628308883734
441,0.25,0.001,0.01126029562031807,0.008398986495164937,16.034776332766512,0.011445236497335127,0.012680160946079664
442,0.25,0.001,0.011244926930860032,0.008358404304572317,16.176074063500693,0.011546091408637183,0.010794224350580148
443,0.25,0.001,0.011273697646724623,0.008476053581161554,15.677997664518134,0.011190576491447633,0.013094668010515826
444,0.25,0.001,0.011321410865977754,0.008379884869899861,16.48431148972622,0.011766103847056546,0.017157652814473425
445,0.25,0.001,0.01130037228901719,0.008486978007956992,15.766262258485305,0.011253577629182944,0.015514962109071868
446,0.25,0.001,0.0112202012391631,0.008325443490473337,16.222222545535065,0.011579031081752365,0.01268841911639486
447,0.25,0.001,0.011324846302700597,0.008439804319032403,16.167776746528094,0.011540168983960096,0.01410639871444021
448,0.25,0.001,0.011261499902709972,0.00839189545706261,16.081264345035997,0.011478418518940754,0.014030357423637594
449,0.25,0.001,0.011293549471816352,0.008411458260271438,16.151238960443543,0.011528364711237362,0.010031903628259897
450,0.25,0.001,0.01120389692571967,0.008361113630235196,15.930956747365553,0.01137113258198826,0.012272796992744719
451,0.25,0.001,0.011169911691442479,0.00827654737892539,16.214412591623706,0.011573456525070453,0.011410535446235113
452,0.25,0.001,0.01121192913675724,0.008386824150071588,15.831888300873512,0.011300419914970387,0.011161798611283302
453,0.25,0.001,0.01128276725581219,0.00837622991394858,16.288234480037246,0.011626148808020875,0.018059819670660154
454,0.25,0.001,0.011200957095553708,0.00839800289290589,15.707756006994913,0.01121181727836896,0.01484947678233896
455,0.25,0.001,0.011247570972976297,0.008359491998373075,16.18479492276214,0.011552316147581827,0.01082463695534638
456,0.25,0.001,0.011276289474132449,0.008394096471195997,16.151810481936433,0.011528772649490673,0.011000811255403928
457,0.25,0.001,0.011277238626119703,0.008378946911110434,16.24202672825303,0.011593166829588173,0.015707696388874735
458,0.25,0.001,0.011291920861532521,0.008465112516180028,15.841433440807254,0.011307233005572629,0.01152778257216726
459,0.25,0.001,0.011177366945979208,0.00827785866811525,16.24884420882824,0.01159803298274678,0.01028018883828606
460,0.25,0.001,0.011266310768591803,0.008430090139425079,15.89418111401935,0.011344883022140864,0.01146984166864838
461,0.25,0.001,0.011213291345467401,0.008349118836570617,16.050822315659634,0.011456689732804878,0.011399405875376292
462,0.25,0.001,0.011270792700003746,0.008398591263522935,16.09581691830657,0.011488805794651372,0.014872432287250246
463,0.25,0.001,0.011193053246757319,0.008371949178534885,15.809467302366745,0.011284416347156849,0.0132285812869668
464,0.25,0.001,0.011275511018412059,0.00842471044770507,15.975887396169263,0.011403202995124385,0.01611075151179518
465,0.25,0.001,0.01120482659790405,0.008381302004983259,15.823031531932742,0.011294098166975547,0.015292722199644362
466,0.25,0.001,0.011345842004168865,0.008375883020114067,16.64364990411803,0.011879835763110656,0.013279797908450876
467,0.25,0.001,0.011274423701472061,0.008450513129490753,15.825194762473883,0.011295642228746527,0.013265927189162799
468,0.25,0.001,0.011292620267459126,0.008326271418915239,16.623419211631596,0.011865395582891932,0.014222983470452684
469,0.25,0.001,0.011265103657578313,0.008387765903459039,16.124600015684617,0.011509350475149619,0.01756815692143781
470,0.25,0.001,0.011308627822544685,0.008460351924390293,15.961738519890364,0.011393103868586983,0.01833739091775247
471,0.25,0.001,0.011266023353781811,0.008408057481743569,16.016040376175283,0.011431863223536962,0.01485595852136612
472,0.25,0.001,0.011214092837343382,0.008382774633896905,15.866707265099814,0.011325272851605863,0.010997338752661432
473,0.25,0.001,0.011175566998332045,0.008295504974071369,16.139868483432505,0.011520248739066742,0.01298876159957477
474,0.25,0.001,0.011276778604748638,0.008443732325767362,15.87639138421347,0.011332185142193769,0.011831255762704782
475,0.25,0.001,0.011189030457374662,0.008266972252276055,16.375214621078136,0.011688233134245636,0.01458187960088253
476,0.25,0.001,0.011184005066752434,0.008386366610783477,15.677965487990269,0.011190553524618322,0.016460413512374674
477,0.25,0.001,0.011230691522359847,0.008392077073628126,15.907594645300577,0.011354457277159584,0.014029371086508036
478,0.25,0.001,0.01114763074749431,0.00831204821290665,15.890603344939477,0.011342329296887563,0.013681549046720778
479,0.25,0.001,0.011194591371472492,0.008346294200177802,15.961858212670615,0.011393189302405864,0.012599033170512744
480,0.25,0.001,0.011226127872806649,0.008329912578297216,16.23039060193439,0.01158486124335074,0.01715155172028712
481,0.25,0.001,0.011168011321231377,0.008357512712651907,15.750034083876498,0.011241994349662025,0.013673985909138407
482,0.25,0.001,0.01120587914835575,0.00834972768762084,16.005873586965162,0.011424606414678917,0.011806462625307696
483,0.25,0.001,0.011259387572144354,0.008379405529000038,16.139419786320175,0.011519928469893059,0.014148980645196778
484,0.25,0.001,0.011198846311416736,0.008303429268647073,16.225916627395986,0.011581667828262658,0.013032169480408941
485,0.25,0.001,0.01110317770305068,0.008271362017406974,15.869495502738065,0.011327263028364072,0.012631230056285858
486,0.25,0.001,0.011274700057367946,0.008445307547443135,15.855914856666743,0.01131756949083993,0.016327408541526114
487,0.25,0.001,0.01121457865851563,0.008403792687106964,15.75164574911428,0.011243144717426323,0.015147331969014235
488,0.25,0.001,0.01117015371835509,0.008376732477268507,15.654332644440407,0.01117368497104954,0.010823894558208329
489,0.25,0.001,0.01119894105507884,0.008331047401351984,16.07167511873467,0.011471573960552942,0.01164218264498881
490,0.25,0.001,0.011219652685834918,0.00838778655716153,15.869778553275175,0.01132746506300869,0.01080522726156882
491,0.25,0.001,0.011181520830926507,0.00831390571195719,16.070114712382473,0.01147046018014452,0.00984839496335813
492,0.25,0.001,0.011179526825976926,0.008369267619279927,15.748692809703739,0.011241036980516587,0.014929733638252531
493,0.25,0.001,0.011168207154544287,0.008308171953052975,16.027636940534723,0.011440140571402371,0.014573788536446435
494,0.25,0.001,0.01117456022996542,0.008321959978012845,15.985972036317337,0.011410401167963838,0.016599605924316814
495,0.25,0.001,0.01117553782411093,0.008436571434140205,15.349167908069699,0.010955865744517986,0.014732316668544496
496,0.25,0.001,0.011151344831599746,0.008298561832499366,15.986996229304824,0.01141113221220901,0.010419961530715227
497,0.25,0.001,0.011159954311022924,0.008324838832540567,15.887987953008608,0.011340462493225274,0.010865254593747002
498,0.25,0.001,0.011248090819910515,0.008389003930050274,16.02232158572175,0.011436346599373126,0.014083340897091798
499,0.25,0.001,0.011221942114968632,0.00836937181478323,15.985803888010425,0.011410281147759048,0.012918088319046157
500,0.25,0.001,0.011190704048372978,0.008295601511070895,16.22415531513303,0.01158041064606212,0.017607251315244606
