epoch,beta,learning_rate,train_loss,train_reconstruction_loss,train_kl_unnormalized,train_kl_normalized,mean_unclipped_gradient_norm
1,0.0,0.001,0.07139574882019771,0.07139574882019771,25.9454280210345,0.018519220571759098,0.12049684460674014
2,0.02,0.001,0.050499130802208116,0.04712235510684131,236.54317887552668,0.1688388143294266,0.11439772588866097
3,0.04,0.001,0.04152486103304316,0.03738981266872267,144.83011008273348,0.10337623846019521,0.08736249431967735
4,0.06,0.001,0.03592193537716115,0.03298139490940598,68.66162534563729,0.04900901166712155,0.07284577137657575
5,0.08,0.001,0.034453568046682335,0.030150616407561837,75.35544077841084,0.053786895630557344,0.07303977651255471
6,0.1,0.001,0.033070535225312364,0.030192739662996838,40.31792256215985,0.028777960429807174,0.04882677458226681
7,0.12,0.001,0.03185015718002668,0.02911208045951436,31.967057350244414,0.02281731431138074,0.0408636105379888
8,0.14,0.001,0.031227666729789102,0.029192342776595877,20.367780856871875,0.014538030590201196,0.040044650701539855
9,0.16,0.001,0.030288941685235903,0.028409134475200364,16.460064011477353,0.011748796582068061,0.028986937499472072
10,0.18,0.001,0.02973804286775294,0.027687843566697633,15.95738551321994,0.01138999679744464,0.023359927548361675
11,0.2,0.001,0.02894058513842272,0.026758837415261215,15.28314404005415,0.01090873950039554,0.022598365720893656
12,0.22,0.001,0.028119341895151674,0.025803778914923078,14.745926957719782,0.010525286907722899,0.023122658021748066
13,0.24,0.001,0.02735729950867342,0.024950380468468987,14.05038673743773,0.010028827078827787,0.029242875719709054
14,0.25,0.001,0.02650852631149667,0.023944329964310937,14.369757845160667,0.010256786470492982,0.02361100067251495
15,0.25,0.001,0.025829588199097118,0.023134587851635524,15.102781064322825,0.010780000759687955,0.029680371151438782
16,0.25,0.001,0.025077297471547393,0.022297516347986927,15.577893870064381,0.011119124818033106,0.025851636326738765
17,0.25,0.001,0.024398993219384987,0.021721808997432836,15.002939292821992,0.010708736111935754,0.025734636134334972
18,0.25,0.001,0.0240658554886834,0.021227359545699667,15.906931159201633,0.011353983696789175,0.029361859230058535
19,0.25,0.001,0.02381701527602887,0.02087327546199386,16.496715927124022,0.011774957835206297,0.02967950635190521
20,0.25,0.001,0.023546946689151645,0.020417796740873476,17.53575487458304,0.012516598768439002,0.024033661000430584
21,0.25,0.001,0.023353236030494228,0.02031403255931447,17.03169850124402,0.012156815489824425,0.030000154993363788
22,0.25,0.001,0.023104715225904175,0.020190345788939617,16.332125569461436,0.011657477208751916,0.030001440351562842
23,0.25,0.001,0.022783113467726816,0.01983549588600571,16.518449603305775,0.01179047080892632,0.017512311626757895
24,0.25,0.001,0.022853683747267456,0.019953330949451148,16.253577084487745,0.011601411195208954,0.03801142796874046
25,0.25,0.001,0.023002794267756217,0.020028006109628786,16.670712751752873,0.011899152570844307,0.050655585048454146
26,0.0,0.001,0.019369474250111686,0.019369474250111686,19.341411659155,0.013805433018668808,0.041285171040466855
27,0.02,0.001,0.018479006582599006,0.01800458494029688,33.233271489518415,0.02372110741578759,0.02149629672723157
28,0.04,0.001,0.018665798096342032,0.017310465742530447,47.4705124672879,0.03388330654338893,0.026145631580480506
29,0.06,0.001,0.019137415725193667,0.016930764951230436,51.52529870365443,0.03677751513465698,0.02663683079715286
30,0.08,0.001,0.019373129885853005,0.016878218752112283,43.69213620303722,0.031186392721653976,0.021963565876441344
31,0.1,0.001,0.0195800056367108,0.017232702438081247,32.88571123273185,0.023473027289601607,0.02176193759909698
32,0.12,0.001,0.01982669788465071,0.017533625854869908,26.771612938870206,0.01910893143388309,0.024210612156561444
33,0.14,0.001,0.019998300150873956,0.01754094927331035,24.5910611227657,0.017552506154722126,0.01795505087024399
34,0.16,0.001,0.020176969246750467,0.01747369651546639,23.670533610997577,0.016895455825123182,0.012122821461941515
35,0.18,0.001,0.0203242047616605,0.017477065847998255,22.16023213247235,0.015817439066718307,0.02281619142740965
36,0.2,0.001,0.020747991195053196,0.01778628384129385,20.746758175967784,0.01480853545750734,0.03623682180685656
37,0.22,0.001,0.020763016228428046,0.01775254568273432,19.171224718415335,0.01368395768623507,0.030168980226985047
38,0.24,0.001,0.02073583531329471,0.017493163953336437,18.929094884636697,0.013511131252417343,0.02362929697015456
39,0.25,0.001,0.0205701023507654,0.01737999271057295,17.877374876215217,0.012760438883808149,0.015505705960094929
40,0.25,0.001,0.020312473136052656,0.017128694178850462,17.841897042949547,0.012735115662348,0.025236077340585843
41,0.25,0.001,0.019814420491456985,0.016701758966854448,17.443356036068348,0.012450646706686901,0.013574569353035517
42,0.25,0.001,0.019415535865707344,0.01630804499381044,17.414379994253093,0.012429964307104278,0.021065516796495234
43,0.25,0.001,0.019113876519913083,0.016089620464219807,16.94793295699559,0.012097025665235968,0.03188035504094192
44,0.25,0.001,0.018732104274664034,0.015582349145094331,17.65123007699345,0.012599022182008172,0.022289302732263292
45,0.25,0.001,0.018242524723323543,0.0150050717269939,18.142688236879497,0.012949813159799784,0.017440065342400755
46,0.25,0.001,0.01772293196049299,0.014517380937599064,17.963911339406216,0.012822206523487664,0.010511155838945083
47,0.25,0.001,0.017651756580793456,0.014571988434018045,17.259020936087275,0.012319072759519826,0.016158266658229486
48,0.25,0.001,0.017313740666160423,0.01419063283109598,17.501896916078717,0.01249243177450301,0.010501050323780094
49,0.25,0.001,0.01720252466921726,0.014149938946527042,17.106690563244765,0.012210343014450224,0.015320032302822386
50,0.25,0.001,0.017156266739194313,0.014059671765883987,17.35332005104322,0.012386381192750335,0.01821074608181204
51,0.0,0.001,0.013414627125256517,0.013414627125256517,21.71443935780043,0.015499242939186602,0.021418959434543337
52,0.02,0.001,0.012956040823476369,0.012408197436774715,38.37643686358848,0.027392174777721972,0.015697109646030834
53,0.04,0.001,0.013334460769978802,0.011897322778286559,50.3357590578915,0.035928450433898286,0.01793750042894057
54,0.06,0.001,0.013857066317388181,0.011784459292637498,48.39537752130058,0.034543452905996135,0.017029507351773127
55,0.08,0.001,0.01396378560012646,0.011802795983516098,37.84433002257615,0.027012369752017238,0.012616253391440426
56,0.1,0.001,0.014204513582955585,0.012213387989093749,27.895670751507364,0.019911256781946725,0.011364031117409468
57,0.12,0.001,0.014413253858350636,0.012253646625812804,25.213411579775006,0.017996724896341902,0.009885707404464483
58,0.14,0.001,0.014698951925789372,0.012286540305011728,24.1413480394342,0.017231511805449108,0.010923006970967566
59,0.16,0.001,0.014974422401256775,0.01235299116481891,22.95390878741661,0.016383946315072527,0.010363480408809014
60,0.18,0.001,0.015205173474851619,0.012438152816272184,21.536643137556784,0.015372336286621545,0.013015402880098139
61,0.2,0.001,0.015456367480788338,0.012571752956660276,20.206723879696277,0.014423072005493417,0.010127909215433257
62,0.22,0.001,0.015560706767640757,0.01264312160986193,18.579713332786987,0.013261751129755165,0.012965795317930835
63,0.24,0.001,0.015791624562626474,0.01273999476826258,17.81388818119349,0.01271512361255781,0.012242614823792661
64,0.25,0.001,0.015786667352312066,0.012660617333198532,17.518384637725486,0.012504200312437892,0.012194185916866575
65,0.25,0.001,0.015939532957050237,0.012931703424520706,16.85587477951907,0.012031316759114254,0.01105343783274293
66,0.25,0.001,0.015773145008957788,0.01266674774416377,17.408250963018183,0.012425589552475505,0.019761945653174604
67,0.25,0.001,0.015664319279655982,0.012631604244953461,16.99533401232087,0.012130859394947088,0.015903875497835025
68,0.25,0.001,0.015654499734636774,0.012676075232748905,16.69109026019493,0.011913697544750128,0.015058869629033975
69,0.25,0.001,0.015575920422090573,0.012622021205639572,16.553651509660014,0.011815597080414,0.017156744774963175
70,0.25,0.001,0.015474121096763717,0.012527411491767074,16.51336117433698,0.01178683881108992,0.010598924875791584
71,0.25,0.001,0.015568722792890635,0.012703336254180818,16.057626711384636,0.011461546546313088,0.016340948375208036
72,0.25,0.001,0.015457781414721119,0.012480942528234439,16.6822055709496,0.011907355867915487,0.01879670803568193
73,0.25,0.001,0.015422700550616458,0.012488905103939973,16.440990529435403,0.011735182390746184,0.019841238590223447
74,0.25,0.001,0.015397048507178768,0.012523033430151055,16.10598108527366,0.011496060731815602,0.02442086288439376
75,0.25,0.001,0.015295851762207706,0.012385156242114104,16.311536951815146,0.011642781550189255,0.014190561736800842
76,0.0,0.001,0.011940172733215803,0.011940172733215803,19.69818077944638,0.014060086209454946,0.016538393816777637
77,0.02,0.001,0.011536662914696034,0.011030016203274888,35.490601726060504,0.025332335279129554,0.008555851677166564
78,0.04,0.001,0.01195121111787772,0.01059540311355939,47.48717449059647,0.033895199493644876,0.008425408375582524
79,0.06,0.001,0.012383478547163894,0.010545409694732576,42.91890659975202,0.030634480085476104,0.013095696589776449
80,0.08,0.001,0.012647577486095133,0.010833700480504652,31.765522466080913,0.022673463573219782,0.014043156456734453
81,0.1,0.001,0.012800808342989911,0.011045568381969849,24.59091356256035,0.01755240082980753,0.010888047915484225
82,0.12,0.001,0.013092024837819379,0.01111645299439015,23.064800729644432,0.016463098308097383,0.008169157031391348
83,0.14,0.001,0.013446968500868657,0.011184141529577502,22.644434442412987,0.016163050993870796,0.009165364849780287
84,0.16,0.001,0.01375878146860037,0.01129366233317035,21.58519982755854,0.015406994880484326,0.010225817960287844
85,0.18,0.001,0.013965076122307376,0.011341414728275176,20.420829987258053,0.014575895779627446,0.010839504988065787
86,0.2,0.001,0.014230043738243285,0.011517442697973064,19.001770379570093,0.013563005267359096,0.013269677758216858
87,0.22,0.001,0.014544380657123716,0.011620606532257594,18.619126249163337,0.013289883118603381,0.016333490210984434
88,0.24,0.001,0.014621213260577635,0.011704862550989296,17.024198450667136,0.01215146213466605,0.01401221246591636
89,0.25,0.001,0.014824260988931977,0.011833610327056284,16.759606108504734,0.011962602504286034,0.015512542932161264
90,0.25,0.001,0.014821558211291774,0.011812387883998035,16.86338955311293,0.012036680623206945,0.01635742506810597
91,0.25,0.001,0.014667746192367558,0.011797602382603656,16.084286413299903,0.011480575598358246,0.01276563001530511
92,0.25,0.001,0.014656813628971577,0.01176173917405056,16.22399780187714,0.01158029821690017,0.011627186621938432
93,0.25,0.001,0.014648643146488774,0.011691368837955962,16.57256585024716,0.011829097680404825,0.009251955963139023
94,0.25,0.001,0.014545427254411611,0.011555412826075983,16.756042549047578,0.011960058921518614,0.010056059075785535
95,0.25,0.001,0.014622562192380428,0.011750845701088397,16.093100057023296,0.011486866564613344,0.010139452426561288
96,0.25,0.001,0.01456412843355302,0.011690939406163238,16.10135106718942,0.01149275593660915,0.009222409421844142
97,0.25,0.001,0.014551426784208652,0.011587690599681287,16.60877641399255,0.011854943907203819,0.008399052944566523
98,0.25,0.001,0.014471059865998418,0.011598359556931458,16.09861209312182,0.011490800922999157,0.010423185902514629
99,0.25,0.001,0.014374347428759832,0.011525320910503355,15.965945738888859,0.011396106880006323,0.011662901379168034
100,0.25,0.001,0.014464049618900491,0.011621301334476872,15.930762164512377,0.011370993693442097,0.009837444539048843
101,0.25,0.001,0.014356102727437287,0.011440988006384186,16.336302326502423,0.011660458477160901,0.008164250424930028
102,0.25,0.001,0.014333198910181442,0.011553684069534366,15.576402046975126,0.01111805999070316,0.012570390477776527
103,0.25,0.001,0.014376387364241515,0.011516355283642083,16.02762006481042,0.011440128525917503,0.014889117064220565
104,0.25,0.001,0.014435501790113664,0.01153769323999962,16.239319962062194,0.011591234805183578,0.016079471446573734
105,0.25,0.001,0.014329940390385938,0.01148833619074875,15.924350721380684,0.011366417360014763,0.008780408717159714
106,0.25,0.001,0.01430541912323973,0.011387418248177914,16.3524769515134,0.011672003534270807,0.010155573886420046
107,0.25,0.001,0.014211734350812568,0.011417135648596822,15.660931098595094,0.011178394788433329,0.00932631375534194
108,0.25,0.001,0.014188140057278482,0.011419750775179167,15.514054069090426,0.011073557508272967,0.012822646115507399
109,0.25,0.001,0.014216604445841205,0.011291932392070133,16.38986237986704,0.011698688351082826,0.012811788823455572
110,0.25,0.001,0.014122958498054675,0.011381339237847355,15.364035250631611,0.010966477694954754,0.013636609672435693
111,0.25,0.001,0.014128529112995341,0.011316913249117605,15.756296140692207,0.011246464054741048,0.011002414793308293
112,0.25,0.001,0.014099875264120905,0.011234646658884006,16.05674099868603,0.011460914345957196,0.012021929025650024
113,0.25,0.001,0.014029780492772547,0.011242019037684698,15.622616566432995,0.011151046799738041,0.01012708798849157
114,0.25,0.001,0.014118699515970905,0.011329445257531793,15.630979490815923,0.0111570160534018,0.009894756733306817
115,0.25,0.001,0.014063078669433514,0.011186902097353105,16.11809385278252,0.011504706533035345,0.009981426277330943
116,0.25,0.001,0.014107987215595969,0.011352984385376566,15.439036587918743,0.011020011840056205,0.008703575269984347
117,0.25,0.001,0.013992352557651112,0.0111779646424765,15.771829905134908,0.011257551681038478,0.007946076137678964
118,0.25,0.001,0.014081681193260665,0.011211159639060497,16.086401388618384,0.011482085216715478,0.01086950714566878
119,0.25,0.001,0.014048920111374909,0.01119952838491188,15.967990596642656,0.011397566450137514,0.008129067519413573
120,0.25,0.001,0.013954580319898852,0.011156588091692898,15.67994943683067,0.011191969619436595,0.011449777388146945
121,0.25,0.001,0.014048161495769962,0.01124113215070762,15.730592472633619,0.011228117396597872,0.015329408725457532
122,0.25,0.001,0.013979162162776743,0.011187450625420956,15.644751988100202,0.011166846529693221,0.010558798709618194
123,0.25,0.001,0.013919510960244061,0.01107185941733671,15.958240022552147,0.011390606725590398,0.01161141660330551
124,0.25,0.001,0.013998457523627897,0.011270916654487675,15.285139450330412,0.010910163776110215,0.01489956776744553
125,0.25,0.001,0.01406075960506549,0.011189463935541303,16.09074170187618,0.011485183227606124,0.01507443588759218
126,0.25,0.001,0.013962470855187164,0.011110441788528743,15.982771101962314,0.011408116418245762,0.012606780909534012
127,0.25,0.001,0.013955423520522172,0.011154637711771418,15.695603651411078,0.011203143220136387,0.01405485546482461
128,0.25,0.001,0.014080295617577065,0.01118608471424727,16.219158202610657,0.011576843827702112,0.019446171820163727
129,0.25,0.001,0.013982857516809796,0.011116243965840072,16.064502529615766,0.011466454339483059,0.013105829578957387
130,0.25,0.001,0.013888938383858525,0.011139290817500501,15.409024965093376,0.010998590267732603,0.014192667523665088
131,0.25,0.001,0.013849085494038764,0.011000063768431042,15.965917525130711,0.011396086741706432,0.011308232987565654
132,0.25,0.001,0.01396865714550688,0.011221499814327513,15.395069992408324,0.010988629544902444,0.015509381092020444
133,0.25,0.001,0.013988274371439822,0.011103956392976675,16.163718495743996,0.011537272302458242,0.01711385790258646
134,0.25,0.001,0.013929786315459883,0.011131833047930445,15.679730798957053,0.011191813560997183,0.01726274624732988
135,0.25,0.001,0.013900282250696354,0.011130271820623552,15.523137214746368,0.011080040838505617,0.014261652316365923
136,0.25,0.001,0.013766055930866284,0.010939072172963218,15.842417039764062,0.01130793507477806,0.008642316130655152
137,0.25,0.001,0.013759627728984597,0.011000057644723506,15.464629732624868,0.011038279609296837,0.009389434941112995
138,0.25,0.001,0.013802590198145153,0.011006587576330377,15.668799323178408,0.011184010937315067,0.009700119894530092
139,0.25,0.001,0.013696338889304173,0.010912093731543322,15.602909904651428,0.011136980659993882,0.011907872477812427
140,0.25,0.001,0.013710733017559802,0.01097223363147023,15.346550806452719,0.010953997720522997,0.01227071468851396
141,0.25,0.001,0.01364743382868807,0.010881366974182342,15.501039282123694,0.011064267867325978,0.013769730859036957
142,0.25,0.001,0.013775198199273496,0.010981575751237656,15.655460319090425,0.011174489878008868,0.018038450607231686
143,0.25,0.001,0.013724246499746033,0.010955262703172276,15.517385754960307,0.011075935585267885,0.018808998433606967
144,0.25,0.001,0.013740132447708858,0.010947630152608571,15.649182801835993,0.01117000913764168,0.015668353997170925
145,0.25,0.001,0.013709991280868482,0.010953608211757762,15.446771139509222,0.0110255325763806,0.014354468389813389
146,0.25,0.001,0.013653419880468524,0.010858219175526266,15.664304476105764,0.011180802623915607,0.011579103235687529
147,0.25,0.001,0.013593211860050646,0.010849828222829304,15.373922238724955,0.01097353478852602,0.00942869989999703
148,0.25,0.001,0.013573087496536502,0.010791332440011287,15.58895661429073,0.011127021137966259,0.009152623625206096
149,0.25,0.001,0.013630023351713512,0.010844715437694882,15.608865986513289,0.011141231967532682,0.008616079177175249
150,0.25,0.001,0.01356518625627073,0.010698098161917054,16.067162376575254,0.011468352874072272,0.008414912769304854
151,0.25,0.001,0.013614004226715376,0.010894403617117512,15.240640788131886,0.010878401704590925,0.015246525007699217
152,0.25,0.001,0.013754554180784171,0.010973181447872285,15.586811957198583,0.011125490333475077,0.01822605961933732
153,0.25,0.001,0.013617840513921856,0.01082877153216788,15.629942893981934,0.011156276155590245,0.014581984175103051
154,0.25,0.001,0.013592592944924752,0.01083895532686389,15.43138568106662,0.011014550807328067,0.016410221212676594
155,0.25,0.001,0.01361559403202172,0.010779377211178286,15.894158819820104,0.011344867109079303,0.014162404728787286
156,0.25,0.001,0.013578657967069845,0.010801814567674413,15.561431121826171,0.011107374105514755,0.010626142644988639
157,0.25,0.001,0.013568891013522497,0.010849319745817881,15.240478239166602,0.010878285681061101,0.010723085940948554
158,0.25,0.001,0.01349030745247107,0.010660402566780535,15.858787300881374,0.011319619772220823,0.009757773085896457
159,0.25,0.001,0.013545035028809242,0.010843263823915733,15.140726295214021,0.010807085150045697,0.01217516598158649
160,0.25,0.001,0.01351318782969807,0.010747754408486104,15.497489104110203,0.01106173383591021,0.0130868935957551
161,0.25,0.001,0.013536262920314675,0.010771093201520069,15.496010508162252,0.011060678449794612,0.01267205671008144
162,0.25,0.001,0.013537121520199803,0.010742522681948174,15.66093323525418,0.011178396313529036,0.012274998838880233
163,0.25,0.001,0.013543998052397472,0.010803462255201983,15.357962524756957,0.010962143129733731,0.012426231987774372
164,0.25,0.001,0.01355018818311477,0.010702449332378553,15.958728012342132,0.01139095504092943,0.00863506252478276
165,0.25,0.001,0.013614039198401269,0.010872119089609451,15.365721897596723,0.01096768158286704,0.016529278962739875
166,0.25,0.001,0.013577506094752403,0.010685303290322256,16.207904147030263,0.011568810954339944,0.013044419033186776
167,0.25,0.001,0.013505080229278361,0.010678118375245104,15.842294482970505,0.011307847596695578,0.009532453625329904
168,0.25,0.001,0.013497920233881876,0.010802092648038034,15.107417770985807,0.010783310329040547,0.009831291157752275
169,0.25,0.001,0.01348756957757339,0.010638848248492466,15.964234519272708,0.011394885452728556,0.007636819034814835
170,0.25,0.001,0.01344475093601125,0.010668385757154293,15.558749368217555,0.011105459934487905,0.012247858635549034
171,0.25,0.001,0.013486569092263666,0.010750140289493492,15.334948126117835,0.010945716007221867,0.015513683270130838
172,0.25,0.001,0.013430016412493887,0.010626689706709278,15.70984370199482,0.011213307424692948,0.011759791656264238
173,0.25,0.001,0.013377748105381981,0.010647652863284176,15.299454230404972,0.010920381320774428,0.01150553354195186
174,0.25,0.001,0.013435886346138595,0.010673912779919886,15.478100138032035,0.01104789445969453,0.009555252734571695
175,0.25,0.001,0.013364782571541459,0.010581108021518487,15.599712873308846,0.011134698696151924,0.010841395040707929
176,0.25,0.001,0.013404738848631302,0.010684610587241275,15.243598970134606,0.010880513183536479,0.012598609285695212
177,0.25,0.001,0.013466475880966427,0.01066704047111313,15.688037353687072,0.01119774257936265,0.00939745143322008
178,0.25,0.001,0.013407413196865092,0.010594310012928555,15.764630712016245,0.011252413070675408,0.01090315802554999
179,0.25,0.001,0.013467990535866009,0.010694628215154236,15.541921534163228,0.011093448632521933,0.01661086907344205
180,0.25,0.001,0.013389460478773279,0.010663424266941762,15.276708039273037,0.01090414563831052,0.01367099057616932
181,0.25,0.001,0.013480316506426657,0.01069370885327291,15.616148869375165,0.011146430313615393,0.01679417570786817
182,0.25,0.001,0.013343432085232788,0.010600103689043709,15.373612474591544,0.010973313686360845,0.010659382678568363
183,0.25,0.001,0.013406221493241492,0.010661985492856985,15.378698661889922,0.010976944084146982,0.00928242684208921
184,0.25,0.001,0.013328956519619803,0.01049078782664591,15.905097629247086,0.011352674967342673,0.008965310041925736
185,0.25,0.001,0.013387273268753223,0.010633492021915618,15.432190691487174,0.011015125404344878,0.010043140633830003
186,0.25,0.001,0.01331229435719466,0.010572177724222118,15.355614329991715,0.010960467044961966,0.01086622370140893
187,0.25,0.001,0.013343007217967108,0.010605259557788292,15.342339099926894,0.010950991506014914,0.01298631275338786
188,0.25,0.001,0.013326989980728439,0.010609297617600206,15.22994776093558,0.010870769279754161,0.012632343785039015
189,0.25,0.001,0.013371048001258561,0.010559256937815233,15.757278369517808,0.011247165145979877,0.012295503435390336
190,0.25,0.001,0.013288739434537592,0.010551047044691075,15.342028397120787,0.010950769733847813,0.009373788189675127
191,0.25,0.001,0.013282770512813933,0.01055110576405619,15.308249295695445,0.010926659026192323,0.0124218561021345
192,0.25,0.001,0.013308298585706212,0.01055861518749695,15.409225729610142,0.0109987335686011,0.013413860994790281
193,0.25,0.001,0.013306738827586843,0.010598874703217088,15.174870628185486,0.01083145655116737,0.012032710880573307
194,0.25,0.001,0.013289280593646376,0.010566701876062356,15.257331203074937,0.01089031492011059,0.010869619236992938
195,0.25,0.001,0.013249726237708263,0.010491402832309852,15.457644664035755,0.011033293835857069,0.009570754864918334
196,0.25,0.001,0.01329325863233443,0.010510705200055342,15.593428986795832,0.011130213409561622,0.01094586175999471
197,0.25,0.001,0.01321499202233017,0.010500207631273215,15.213652225022905,0.010859137919359675,0.009258154380534376
198,0.25,0.001,0.013222408958114265,0.010508276582852508,15.209998227237316,0.0108565297838953,0.01071503379249147
199,0.25,0.001,0.013272653875893421,0.010524535220995378,15.400456368521358,0.01099247421022224,0.01025670108252338
200,0.25,0.001,0.01329240897314602,0.0105422023704715,15.412158588880903,0.011000826972791509,0.012433547393551894
201,0.25,0.001,0.013246035058930348,0.010492843883426002,15.428883233231105,0.011012764620436192,0.01251843964148845
202,0.25,0.001,0.013343441182893984,0.010528172301442436,15.776766907766964,0.011261075594408969,0.01179101491080863
203,0.25,0.001,0.01318058135469308,0.010485537657828144,15.103024414148223,0.010780174456922358,0.011231544959758009
204,0.25,0.001,0.013252705465374368,0.010545274336937438,15.172443417752726,0.010829724066918433,0.01122668372201068
205,0.25,0.001,0.013198025673209282,0.010392679803575692,15.721159204204431,0.011221384157176611,0.011345226051551955
206,0.25,0.001,0.013184525202331918,0.010469385692745112,15.215642101845045,0.010860558245428299,0.010233401387397732
207,0.25,0.001,0.013209482742829268,0.01046408498136515,15.385209175709928,0.01098159113184149,0.01397657926593508
208,0.25,0.001,0.01324416117721729,0.0104436997910229,15.693785588125165,0.011201845530424814,0.01500635061945234
209,0.25,0.001,0.01325955300100064,0.010529135245034535,15.301261177491606,0.01092167107601114,0.015490155800112657
210,0.25,0.001,0.013268137068142382,0.01052924921171049,15.348727446995424,0.010955551354029567,0.014379266582961594
211,0.25,0.001,0.013255783419511962,0.010440625405211127,15.77614637010553,0.011260632669597094,0.011017117516270705
212,0.25,0.001,0.01317927638340867,0.01044915991971332,15.299572256709752,0.01092046556510332,0.01097781051482473
213,0.25,0.001,0.013337174411653803,0.010621524464046017,15.218503045499995,0.010862600317987149,0.01659808899941189
214,0.25,0.001,0.013201542510494088,0.01045273764456591,15.404301718379674,0.010995218928179638,0.014756279199251108
215,0.25,0.001,0.013350116042943483,0.010550275991220822,15.690302874532978,0.011199359653485352,0.020736133280609335
216,0.25,0.001,0.013248113588838095,0.010449962326315012,15.68084019864543,0.011192605423729787,0.013390715566596814
217,0.25,0.001,0.013278926212047593,0.01055391642233629,15.270956011568563,0.010900039979706327,0.012851352736886059
218,0.25,0.001,0.013065162485235192,0.010343682014624055,15.251177665624725,0.010885922673536563,0.00974838315908398
219,0.25,0.001,0.013115292281079828,0.010455039220998127,14.908057506432694,0.010641011781893429,0.010752220638096333
220,0.25,0.001,0.013149794429708064,0.010343440902534496,15.726805376202872,0.011225414258531671,0.012643168148185526
221,0.25,0.001,0.013157610128518571,0.010424675043211894,15.315368022275775,0.010931740201481637,0.013848753512970038
222,0.25,0.001,0.013166371946421902,0.01043806118953429,15.289454250121384,0.010913243576103772,0.008858197568250554
223,0.25,0.001,0.013158783090583394,0.01038274590051576,15.556912398606205,0.011104148749897362,0.008255269644515855
224,0.25,0.001,0.013118619798274523,0.010369902468296919,15.403811791237821,0.010994869230005583,0.010217464329408748
225,0.25,0.001,0.013110116630625189,0.010356849921720751,15.429305839538575,0.011013066266622823,0.01106934794890029
226,0.25,0.001,0.013133284558406037,0.010368509720383065,15.49379788087995,0.01105909912982152,0.010860538575798273
227,0.25,0.001,0.013136657145334763,0.010403507908157418,15.316568038168917,0.01093259674387503,0.00893738413495677
228,0.25,0.001,0.013161923681919494,0.010359011730702406,15.707518978333205,0.011211648093028697,0.00804885124255504
229,0.25,0.001,0.013081224193650015,0.010274127303633127,15.730971347080187,0.01122838782803725,0.00978901410209281
230,0.25,0.001,0.013100918687963753,0.010412875539884809,15.063794721110483,0.010752173248472864,0.010373487403350217
231,0.25,0.001,0.013051081729236613,0.010322474186005218,15.29111768958274,0.01091443089905977,0.009552661396030868
232,0.25,0.001,0.013067902256263775,0.010302856589636106,15.495315440317219,0.011060182327135773,0.011658759055925267
233,0.25,0.001,0.013114467688072264,0.010359156035472838,15.440766941027695,0.011021246924359525,0.009988681280187197
234,0.25,0.001,0.013023271729772011,0.010317627309162296,15.162430471784614,0.01082257706765497,0.012851220422557421
235,0.25,0.001,0.013022175812151995,0.010340134508572938,15.030159911680757,0.01072816553296271,0.009119620812790734
236,0.25,0.001,0.013094501494524183,0.010294610019145388,15.690592062875126,0.011199566069147128,0.00929889122822455
237,0.25,0.001,0.013155240278816625,0.01040941331786721,15.387613718697194,0.0109833074366147,0.010727653812084879
238,0.25,0.001,0.01307271583361572,0.010345552227554027,15.283025801583623,0.010908655104627853,0.008786800117897136
239,0.25,0.001,0.013050035584006416,0.010350809842766671,15.126461024766558,0.010796902944158856,0.00985083429675017
240,0.25,0.001,0.013130807485222147,0.010365648850212607,15.495949260840256,0.011060634732933802,0.009105417877435684
241,0.25,0.001,0.01301935509768095,0.010238448141163654,15.584203585078207,0.01112362854038416,0.010950813202985696
242,0.25,0.001,0.013076343826865882,0.010345066594106427,15.30607804930612,0.010925109242902298,0.009476801447038139
243,0.25,0.001,0.013051858012763302,0.010327397833128324,15.267875819259816,0.010897841412747905,0.011004085253391947
244,0.25,0.001,0.0130398568917024,0.010314247646274862,15.274315694744667,0.010902438040502975,0.00952811339604003
245,0.25,0.001,0.012999646692128664,0.010273606164820408,15.27673050098205,0.010904161670936508,0.009343400930187531
246,0.25,0.001,0.013133402926365981,0.010365325698022093,15.512305656175934,0.011072309533316156,0.012932076983686005
247,0.25,0.001,0.013087807840594415,0.010305316281620036,15.593082723724708,0.011129966255335267,0.011625246810061591
248,0.25,0.001,0.013023767994946978,0.010323055634756436,15.134791648521851,0.010802849142413884,0.012093872763216496
249,0.25,0.001,0.012968701793906395,0.010317661280461242,14.856430225158006,0.01060416147405996,0.008685986577932323
250,0.25,0.001,0.013023256165174286,0.0102872600381294,15.332522844464592,0.010943984899689216,0.010695881143744503
251,0.25,0.001,0.013038270242428512,0.010289085070403775,15.406434916378407,0.0109967415534464,0.011781889679176467
252,0.25,0.001,0.013041673102573063,0.010383662160778984,14.895493106627733,0.01063204361643664,0.01268186912472759
253,0.25,0.001,0.012970283077087965,0.010235277234754536,15.326972177055445,0.010940022967205885,0.009858627204916306
254,0.25,0.001,0.012936877268837408,0.010269702899824368,14.946845686837529,0.010668697849277322,0.010204441313232695
255,0.25,0.001,0.01307090725959017,0.010374842996426513,15.108742780363961,0.010784256088767995,0.01044588057058198
256,0.25,0.001,0.013002585347616271,0.010199839772468203,15.706587307104904,0.011210983088583086,0.009365434558796031
257,0.25,0.001,0.013055175266573939,0.010338905529024896,15.221975759441934,0.010865079057417511,0.009761444758623838
258,0.25,0.001,0.01296573444321919,0.010213074847804697,15.425903890374002,0.0110106380373833,0.010406897868961096
259,0.25,0.001,0.012993380820818162,0.010264476922372085,15.292778060141574,0.01091561603150719,0.009272671437689237
260,0.25,0.001,0.012979631410555893,0.010300664660217387,15.012930239988178,0.010715867408985138,0.010894116945564747
261,0.25,0.001,0.012967763642330517,0.010234478557628861,15.317329751775507,0.010933140436670596,0.010538081239376749
262,0.25,0.001,0.012934495906314153,0.010240915681371528,15.094823822278656,0.01077432107229026,0.009802692037607943
263,0.25,0.001,0.012942991259225298,0.01023185182404652,15.1932252541017,0.01084455764032955,0.008900330002818788
264,0.25,0.001,0.012976507434433095,0.010235214758706227,15.362204120936019,0.010965170678755189,0.00935715004535658
265,0.25,0.001,0.012966276763865118,0.010235485265010528,15.30335533484984,0.010923165835010592,0.010775243464325155
266,0.25,0.001,0.012954042849832037,0.010213068889433078,15.360417483897692,0.010963895420340965,0.012633578585726874
267,0.25,0.001,0.012998703685118242,0.010195635681909123,15.708393321948105,0.011212272178406927,0.011553772326026644
268,0.25,0.001,0.012947020598090766,0.01020974615232998,15.339686858787966,0.01094909840027692,0.012904825221214975
269,0.25,0.001,0.013045627824710996,0.010336042185094249,15.18451845619116,0.010838342938037945,0.015138133828129088
270,0.25,0.001,0.013078269601035654,0.010258949075019761,15.799471780155482,0.011277281784550666,0.015458326055003064
271,0.25,0.001,0.012968238131300117,0.010205856754622433,15.480384715219563,0.011049525135774134,0.017190974870962755
272,0.25,0.001,0.012972098846365228,0.01032936762013797,14.80986619370707,0.010570925191796624,0.013085262650357825
273,0.25,0.001,0.01294513823820299,0.010165214639031485,15.578692350494727,0.011119694754100448,0.012163129236016954
274,0.25,0.001,0.012951118507412042,0.010223407419712355,15.286094101895108,0.01091084518336553,0.011349766648241453
275,0.25,0.001,0.01290027311260111,0.010161932281563792,15.34566255205133,0.010953363705960978,0.012377431483141013
276,0.25,0.001,0.01293505702502607,0.010230926512165017,15.15394839597552,0.010816522766577815,0.012187458175633634
277,0.25,0.001,0.013013830429382539,0.010324489115998986,15.071068223674645,0.010757364899125372,0.010220090326453959
278,0.25,0.001,0.012957925958496132,0.010208984114899395,15.405070900649168,0.010995767951926602,0.010277213329183204
279,0.25,0.001,0.01290008206799459,0.010156005524684875,15.377805461240618,0.010976306539072533,0.008174568747303315
280,0.25,0.001,0.012945134155033679,0.010263209430019507,15.029506151863698,0.010727698894977657,0.009024575086576598
281,0.25,0.001,0.01284979179166676,0.010087823482711663,15.47807020337394,0.011047873093057773,0.00856980455241033
282,0.25,0.001,0.012880224960573604,0.010167877510022582,15.199995520945345,0.010849390093465628,0.008259594307414122
283,0.25,0.001,0.012963617233078132,0.010223985741731155,15.352895438805055,0.010958526366027876,0.013174707469131266
284,0.25,0.001,0.012908446998073813,0.01019405233098215,15.211467691485801,0.010857578652024127,0.009470408117132527
285,0.25,0.001,0.012912037386820558,0.010202898064188743,15.182017135620118,0.010836557555760256,0.010379731255982603
286,0.25,0.001,0.012934068372745192,0.010218767503674111,15.216546512989515,0.010861203792283737,0.012123543037367719
287,0.25,0.001,0.012873491571609224,0.010169387740616717,15.153798026181338,0.010816415436246493,0.012231255881488323
288,0.25,0.001,0.012980507197005026,0.010288402392120843,15.086554964472738,0.010768418961079756,0.01544992412839617
289,0.25,0.001,0.012912147165684219,0.010220419720150111,15.084441148565057,0.010766910170281982,0.014070709435535329
290,0.25,0.001,0.012881429338555657,0.01017913083137756,15.143680518932557,0.010809193803663495,0.0109289492746549
291,0.25,0.001,0.01285273598695404,0.010111686442926359,15.360840986016091,0.010964197705935826,0.012468344531953335
292,0.25,0.001,0.012834931621223353,0.010159908245537388,14.990831006510874,0.010700093509286848,0.010659127496182919
293,0.25,0.001,0.012822200299313899,0.010126767732370435,15.1052049786857,0.010781730891281727,0.009794579419706548
294,0.25,0.001,0.012843029598674078,0.0101172532195623,15.275251525707459,0.010903106014066709,0.012023628955440862
295,0.25,0.001,0.012924819728464224,0.01024343448827106,15.026483126436727,0.010725541132360262,0.015254242345690727
296,0.25,0.001,0.012929709094545145,0.010096650566445308,15.876459563180301,0.011332233806695433,0.014337656886449881
297,0.25,0.001,0.012875326126395317,0.010178443559267548,15.11333060961091,0.01078753077060022,0.012012232560664415
298,0.25,0.001,0.012862498149945495,0.010198115385817677,14.931202050541224,0.010657531799101515,0.012356155086308718
299,0.25,0.001,0.012849779688659009,0.010152374438188049,15.116259392727628,0.010789621265330212,0.011568670427160603
300,0.25,0.001,0.012812466291564234,0.01007784367486667,15.324825621187017,0.010938490807414002,0.009340490946280105
301,0.25,0.001,0.012806385353709874,0.010153064899816272,14.869208078705862,0.010613281997648723,0.008968442279313291
302,0.25,0.001,0.01285368191350377,0.010161972818163674,15.084338811810097,0.01076683712477523,0.010082615938569819
303,0.25,0.001,0.01288522933766748,0.010096255488944857,15.62940864991606,0.011155894825064997,0.00883875647559762
304,0.25,0.001,0.012879687608376648,0.010181560181081295,15.120306227180395,0.01079250979813019,0.011874614948672908
305,0.25,0.001,0.012811364832051685,0.01005276425040505,15.459198133061442,0.011034402664569195,0.01111432710396392
306,0.25,0.001,0.012769228180221628,0.010100915642936577,14.953223425618718,0.010673250125352404,0.010346443658428532
307,0.25,0.001,0.012917775304967098,0.010166255443283681,15.419517255633066,0.01100607941158677,0.010990187525749207
308,0.25,0.001,0.012830059715871062,0.010050916177838036,15.574320816725827,0.011116574458762189,0.011485288850963116
309,0.25,0.001,0.012871583283282398,0.010183283653152122,15.065230973918787,0.010753198411076937,0.014012465652610575
310,0.25,0.001,0.012849561581283473,0.010143840005307386,15.162864063562973,0.010822886555005691,0.012586864509752818
311,0.25,0.001,0.0128174701600932,0.010131842048650377,15.05025857003887,0.010742511470406045,0.010399578804416316
312,0.25,0.001,0.012847556845609391,0.01015324681746156,15.09891397711936,0.010777240526138016,0.012358290276357107
313,0.25,0.001,0.012908669734855046,0.01014255250940162,15.501320669624242,0.01106446871493522,0.015475304797291756
314,0.25,0.001,0.012810502280847411,0.010154647447085113,14.88341206111265,0.010623420457610742,0.010847537113087518
315,0.25,0.001,0.012803255247600962,0.010195690956427141,14.61279103354122,0.010430257697031563,0.014349367602595262
316,0.25,0.001,0.012757172749451037,0.009994225063769336,15.483559771334187,0.011051791414228542,0.014441217961055892
317,0.25,0.001,0.012798493365976918,0.01013487262253681,14.926930768302318,0.010654483060886736,0.010503799787589483
318,0.25,0.001,0.01285811997531505,0.010180727178963383,15.004108876860544,0.010709570932805527,0.013719472901097365
319,0.25,0.001,0.012851376333430913,0.010095838662446215,15.442033439807677,0.011022150920633602,0.01714208083493369
320,0.25,0.001,0.012768720517332634,0.010043129567684753,15.274212802929824,0.010902364598807869,0.012441222289843219
321,0.25,0.001,0.012737817936733868,0.010088327091731382,14.84774710837375,0.010597963674784975,0.010788089928350278
322,0.25,0.001,0.012801409510665395,0.01014097278958626,14.909088196915187,0.010641747463893781,0.011030949652194977
323,0.25,0.001,0.012845751509237825,0.010053842562889116,15.645857624525435,0.011167635706299382,0.009954844867544515
324,0.25,0.001,0.012780835184404689,0.010125470609309968,14.880663368139373,0.010621458506880352,0.010611792161528553
325,0.25,0.001,0.012789709960225593,0.01009807400405407,15.083928766143456,0.01076654444407099,0.010167408934129136
326,0.25,0.001,0.012777885731853796,0.010031862642741605,15.388713510920493,0.010984092441770515,0.010128487633275134
327,0.25,0.001,0.012760052520237613,0.01002063847910822,15.351677375964904,0.010957656942159104,0.008532312299524034
328,0.25,0.001,0.01273087424257498,0.010016247422926212,15.21276874970854,0.010858507315994675,0.009696850420108863
329,0.25,0.001,0.012817449578910732,0.010128159921490744,15.070779862564601,0.010757159073921914,0.012085577073906149
330,0.25,0.001,0.012924320081227951,0.010178616919209448,15.386921301852452,0.01098281320617591,0.013168884042118276
331,0.25,0.001,0.01280032888557134,0.010031812299001084,15.514767918961772,0.01107406703708906,0.010410652495920658
332,0.25,0.001,0.012835946028235923,0.010133443209813553,15.144827024052653,0.010810012151358067,0.0101707074791193
333,0.25,0.001,0.012856791967923721,0.010151467179314474,15.16064000719049,0.010821299077223762,0.009432547659214054
334,0.25,0.001,0.012822244343546669,0.010060346260499418,15.477676661630694,0.011047592192455885,0.010395007474081857
335,0.25,0.001,0.01271436507447382,0.009990941655686062,15.262064035822837,0.010893693101943495,0.00969106304858412
336,0.25,0.001,0.012747819399398364,0.010104753918359789,14.811738798591527,0.010572261811985386,0.008842122807566608
337,0.25,0.001,0.01275798918658428,0.010011395510662808,15.391911217335904,0.010986374887463173,0.00846267438360623
338,0.25,0.001,0.012723495675188103,0.01000708309577757,15.222776674420645,0.010865650731206742,0.010089681018143892
339,0.25,0.001,0.01275519956154435,0.010053096872785787,15.14258379346869,0.010808410987486574,0.00874709031943764
340,0.25,0.001,0.012771583997299163,0.010065990092044466,15.162147429819857,0.010822375039129091,0.009913788110549961
341,0.25,0.001,0.012778461178283343,0.010037155595890591,15.36227639873376,0.010965222268903469,0.011145544770572866
342,0.25,0.001,0.012746505085588172,0.010070651641973618,14.995482924814974,0.01070341393634188,0.010644429629402501
343,0.25,0.001,0.01272123186859522,0.010010938045014156,15.188488036595034,0.010841176328761623,0.012181670937154974
344,0.25,0.001,0.012698329528898336,0.009967091055900863,15.305860572986388,0.010924954013552026,0.00957080236236964
345,0.25,0.001,0.0126849873598372,0.01004590027745855,14.789443658978751,0.010556348079213955,0.009292637796274253
346,0.25,0.001,0.01266093583924047,0.009960228784449314,15.134762669681164,0.010802828458016535,0.010981934544231211
347,0.25,0.001,0.0127720647397336,0.010093665181585911,15.009752123543386,0.010713598946140889,0.01353567506053618
348,0.25,0.001,0.01267871366750993,0.00994620586253619,15.312973628954941,0.010930031141295461,0.010671261032777173
349,0.25,0.001,0.012713228360739317,0.009926543338747507,15.616583397683133,0.011146740469438353,0.008981077998344387
350,0.25,0.001,0.012705938204118375,0.010079881362617015,14.716422526756029,0.010504227356713797,0.00984864096556391
351,0.25,0.001,0.01273043155670166,0.01001471962905332,15.218849970785419,0.010862847944886095,0.013741038872727327
352,0.25,0.001,0.012743373550056072,0.010020044397855742,15.261535580238599,0.010893315903096787,0.01300544265125479
353,0.25,0.001,0.012718122764333581,0.009968054030885857,15.411384783969837,0.011000274649514516,0.009931237702923161
354,0.25,0.001,0.012734679668472054,0.010025737189761038,15.18091419520003,0.010835770303497524,0.010663277336529322
355,0.25,0.001,0.012764165563027511,0.010095949048239194,14.952684758218487,0.010672865637557807,0.015588599257171154
356,0.25,0.001,0.0127622247704964,0.010053493618295434,15.179729084486372,0.01083492440006165,0.013912322132715158
357,0.25,0.001,0.012738332485131334,0.009973913165374418,15.491805179467361,0.01105767678762838,0.011238866352609225
358,0.25,0.001,0.01274737748369742,0.010080981049477385,14.942485258552466,0.0106655854807655,0.01214695961347648
359,0.25,0.001,0.012897263186868657,0.010112882248555007,15.603671238931378,0.011137524082035244,0.01609619613736868
360,0.25,0.001,0.01266403461942512,0.00989433852223198,15.521376740530636,0.011078784254482967,0.011266932689717837
361,0.25,0.001,0.01266380175110999,0.010050309897306261,14.64600961449441,0.010453968318696938,0.011842795448111636
362,0.25,0.001,0.01269494363347466,0.009942239834770057,15.426152265741583,0.011010815321728469,0.011258390466017383
363,0.25,0.001,0.012741332367229997,0.01005958253203818,15.028526149706893,0.010726999393081294,0.0139851930684277
364,0.25,0.001,0.012675823047338577,0.009950301323211595,15.27382451175304,0.010902087445933647,0.009958691296300717
365,0.25,0.001,0.012700925614642963,0.009996692842563217,15.154521166340688,0.01081693159624603,0.009353675613445895
366,0.25,0.001,0.01264671775815862,0.009954134713900224,15.089235185773186,0.010770332038382003,0.010019571187772922
367,0.25,0.001,0.012681057297865327,0.009952518151382383,15.290732508027151,0.010914155965758138,0.010698309833449977
368,0.25,0.001,0.012688107874370023,0.009929467419560035,15.459420971388228,0.01103456172119074,0.011502672186387437
369,0.25,0.001,0.012775495097961989,0.010146547841389528,14.732621557257149,0.010515789833873768,0.012734618037939072
370,0.25,0.001,0.012780485731246096,0.01004932439477926,15.3054293600361,0.010924646224151392,0.014162330888211727
371,0.25,0.001,0.012734908759175392,0.010037883534357788,15.11412913933229,0.010788100741850314,0.011402740143239498
372,0.25,0.001,0.012715381672710515,0.009965329087768378,15.411293887020497,0.011000209769465023,0.009849994842495238
373,0.25,0.001,0.012684560437383276,0.009931740392878485,15.426803237400698,0.011011279969593646,0.009112600104085036
374,0.25,0.001,0.012652563571595074,0.00999269825563337,14.90588572641437,0.010639461617711898,0.009769020868199212
375,0.25,0.001,0.012685728675863716,0.009952379239911444,15.317690399255646,0.010933397858141075,0.009986928863716977
376,0.25,0.001,0.01267384598554855,0.00990155597918489,15.535913304532512,0.01108916010316382,0.008712341543287039
377,0.25,0.001,0.012685808091518584,0.009976507013852007,15.182923895589422,0.010837204779150194,0.010058118961751461
378,0.25,0.001,0.012674800258422835,0.009963918906333072,15.191778665178278,0.010843525100055873,0.010640262626111507
379,0.25,0.001,0.012686050086794944,0.009944184201905567,15.365416861116216,0.01096746385518645,0.011402394556041275
380,0.25,0.001,0.012641023402887114,0.009901162820836801,15.354180080971021,0.010959443312613148,0.009797955197947366
381,0.25,0.001,0.012653739767128162,0.009954999636314557,15.123740626988786,0.010794961189856378,0.00942134391516447
382,0.25,0.001,0.012649531605956929,0.009953424707055092,15.108983187729054,0.01078442768574522,0.009858222811349801
383,0.25,0.001,0.012694639365157384,0.009974048077390435,15.246194612310173,0.01088236589029991,0.014042172913572617
384,0.25,0.001,0.012684494863902584,0.009957735292780935,15.280760387892133,0.010907038106989389,0.010371279104479722
385,0.25,0.001,0.012698446678813924,0.009986824709712789,15.195929450131533,0.010846487830215227,0.013377868903002568
386,0.25,0.001,0.012655858142992084,0.009972698988623163,15.03642413107197,0.010732636781635952,0.009687559745673622
387,0.25,0.001,0.012697915435674485,0.00999422064992819,15.151506783989038,0.01081478000284728,0.008961658525679792
388,0.25,0.001,0.012652120919207508,0.009940998745935686,15.193129087298104,0.010844488998785227,0.00979999007124986
389,0.25,0.001,0.012645119591877701,0.009923068417257137,15.254374921991584,0.01088820479799542,0.011679345342729772
390,0.25,0.001,0.012673627591451232,0.009981426625941576,15.087094313375065,0.010768803935314108,0.00909043535856264
391,0.25,0.001,0.012535077431814725,0.00981685918954651,15.232893870921616,0.01087287214198545,0.009937165571110589
392,0.25,0.001,0.012599358063065605,0.009986400150097488,14.643016352278464,0.010451831800341515,0.010230122001043387
393,0.25,0.001,0.012649596392522368,0.009933632997314581,15.220258828495325,0.010863853553529854,0.009526136464306287
394,0.25,0.001,0.012645342853966724,0.009882987070870533,15.480241554774596,0.011049422951302353,0.009629893715360336
395,0.25,0.001,0.012606848294982749,0.009927834344379018,15.013195140710037,0.010716056488729505,0.013116726585264717
396,0.25,0.001,0.012690990725846103,0.010051975792713379,14.789039787549651,0.010556059805531514,0.013940695274089063
397,0.25,0.001,0.01261655091820808,0.009887335319699866,15.294525883706768,0.010916863585800692,0.010849887039512396
398,0.25,0.001,0.012742457882072148,0.010008663730172628,15.320182442397215,0.01093517661841343,0.00853997508862189
399,0.25,0.001,0.012605248140485099,0.009893782292440366,15.195055258675907,0.010845863853444616,0.01066703921450036
400,0.25,0.001,0.012585441678176434,0.009923564755682195,14.91715784822957,0.01064750738631661,0.00961581537766116
401,0.25,0.001,0.012661687805830093,0.009967934087002545,15.0957967886764,0.01077501555223155,0.010060137869524104
402,0.25,0.001,0.01259381261476305,0.009839451336040255,15.435441801521215,0.011017445968252116,0.013754638843238354
403,0.25,0.001,0.012701296676578147,0.01006146806888701,14.793600401717626,0.010559315061896949,0.01730874220707587
404,0.25,0.001,0.012677284784280183,0.009920365181280656,15.449777586004707,0.01102767850535668,0.015063199081591197
405,0.25,0.001,0.012643814459443093,0.00994558891469843,15.120855245697364,0.010792901674302186,0.010107257137341159
406,0.25,0.001,0.01264231682367874,0.009894127886365638,15.400851022527458,0.01099275590473052,0.009872393017368657
407,0.25,0.001,0.01265281131595708,0.009978576182398233,14.986414455028063,0.010696941081390481,0.01038152165710926
408,0.25,0.001,0.012566937694556258,0.00987094406750095,15.108347993486383,0.01078397429941926,0.010878746663885457
409,0.25,0.001,0.012617375950716185,0.009886687571245632,15.30277834045753,0.010922753990333713,0.010223226355654853
410,0.25,0.001,0.012608698791081317,0.009916067650813735,15.089504366242483,0.01077052417290684,0.01243714861837881
411,0.25,0.001,0.012679224260402529,0.009976086547870314,15.14838378349047,0.010812550880435739,0.015744404335107123
412,0.25,0.001,0.012564872502443496,0.00988816780069571,15.000254386730408,0.010706819690742619,0.01353785688323634
413,0.25,0.001,0.012752995727939552,0.01000003975847464,15.42756508816494,0.011011823760289037,0.01613318228295871
414,0.25,0.001,0.01266839269213797,0.009900470132405838,15.51143967917796,0.011071691419827237,0.01399469149432012
415,0.25,0.001,0.012680399882492055,0.010010847972517603,14.960169142819522,0.010678207810720573,0.0162393276446632
416,0.25,0.001,0.012700183861208766,0.010037388041448058,14.922307946708765,0.010651183402361717,0.015747688045459136
417,0.25,0.001,0.012572916678749444,0.009808096212198894,15.494054485706801,0.011059282288156174,0.010541501787624188
418,0.25,0.001,0.012648283924614446,0.009954933179647065,15.09353718918361,0.010773402704627845,0.013020982566688741
419,0.25,0.001,0.01258085034159797,0.009890108938548673,15.078915145959748,0.010762965842940576,0.009694129627730166
420,0.25,0.001,0.012556136311607414,0.009890166130126192,14.940096947316373,0.010663880761824677,0.010528188065758773
421,0.25,0.001,0.012600513989252321,0.00984928858874554,15.417867227618613,0.01100490166139801,0.008981307502835989
422,0.25,0.001,0.01259958129794745,0.009909060331626555,15.07767992984043,0.010762084175474968,0.011430805549025536
423,0.25,0.001,0.012563218105207668,0.009809003190629268,15.434620456481248,0.01101685971197805,0.010273826042456287
424,0.25,0.001,0.01257538271419118,0.009904257155787409,14.968988294279978,0.010684502708265509,0.010592645034193993
425,0.25,0.001,0.012526880715335352,0.009876761947538745,14.851264602146792,0.010600474376978438,0.011682202773434775
426,0.25,0.001,0.012565066579603747,0.009879905414464098,15.04764343004548,0.010740644846570651,0.013305406219192914
427,0.25,0.001,0.012547806102070916,0.00986224315181542,15.049896060214953,0.01074225271963951,0.014183843175747566
428,0.25,0.001,0.012568086532227109,0.009885179812318822,15.035008351186688,0.010731626232110412,0.011430111447615283
429,0.25,0.001,0.012604196248262116,0.009853882005626566,15.412761786814485,0.011001257520923973,0.010820050989942891
430,0.25,0.001,0.012551345439690552,0.00987576511426923,14.993951896067415,0.010702321124958896,0.01372760281498943
431,0.25,0.001,0.012540828064084053,0.009907452092411813,14.757439150435202,0.010533504033144327,0.011596259394926684
432,0.25,0.001,0.012545535828541505,0.009826709124981688,15.236305086800222,0.010875306985581886,0.011604712477752141
433,0.25,0.001,0.012611524084729426,0.009897610836065888,15.208769896860872,0.010855653031306832,0.010904863343707152
434,0.25,0.001,0.012596128477055706,0.009887925321968754,15.17677102035351,0.010832813005248758,0.009865952921765191
435,0.25,0.001,0.01259438685361254,0.00991352041660065,15.023575767774261,0.010723465929888838,0.010317127819039993
436,0.25,0.001,0.012622346450689803,0.009908476794201336,15.208526596326507,0.01085547936925518,0.012195171588765723
437,0.25,0.001,0.012597296918543537,0.009868048838852497,15.294707223270716,0.010916993021606506,0.010931628490132945
438,0.25,0.001,0.012564233893507653,0.00988033354031236,15.04057825281379,0.010735601893514482,0.009459934396935361
439,0.25,0.001,0.012518549517969067,0.009822284428172567,15.109869307614444,0.010785060176741216,0.008763437758066825
440,0.25,0.001,0.012506605270371009,0.009839912935086851,14.944143788198406,0.010666769299213709,0.008660965931734868
441,0.25,0.001,0.012498468294572294,0.00978431362616882,15.210123282871889,0.010856619045590214,0.008917724048452718
442,0.25,0.001,0.012533158235503047,0.009868624013210281,14.932050349203388,0.010658137294220833,0.008521883083241326
443,0.25,0.001,0.012497354213022784,0.009821961736411191,14.99289933108212,0.01070156982946618,0.012556209628071104
444,0.25,0.001,0.012628003640958433,0.009962950847791821,14.93495625913813,0.01066021146262536,0.014516329259744712
445,0.25,0.001,0.012535298749637068,0.009821658518709494,15.20724019897118,0.010854561169858086,0.014900140464305878
446,0.25,0.001,0.012534342467617452,0.009879581224215164,14.877281497569566,0.010619044609257363,0.012664562889507838
447,0.25,0.001,0.012560542635201068,0.009900676804395873,14.90588764876462,0.01063946298983913,0.014339393270867211
448,0.25,0.001,0.012590717532661524,0.009881267244561334,15.183760017223573,0.010837801582600694,0.011748530103691987
449,0.25,0.001,0.01259186767209112,0.0099068258836698,15.046975114372339,0.010740167818966695,0.012953912573201316
450,0.25,0.001,0.012523592941546709,0.009873177906435528,14.852925799937731,0.010601660099884176,0.01035433349066547
451,0.25,0.001,0.01252212075077081,0.009847915607891725,14.986245937561721,0.010696820797688595,0.011081839379455363
452,0.25,0.001,0.012539019471222764,0.00984016697267803,15.12437000488967,0.010795410424617895,0.011262967650379454
453,0.25,0.001,0.012568531767203567,0.009869531816227382,15.12519742987129,0.010796001020607631,0.011223496070929937
454,0.25,0.001,0.012561547582487712,0.009816185920760872,15.385006941034552,0.010981446781609245,0.010626377404800482
455,0.25,0.001,0.012543901332308737,0.00983072252881326,15.204653911376267,0.010852715140168641,0.008953808008560113
456,0.25,0.001,0.012562922396686639,0.009827688932837395,15.32824829187286,0.01094093382717549,0.012243458735091346
457,0.25,0.001,0.012592595397086626,0.009806557698698527,15.612955138388644,0.011144150705487969,0.009377137890883855
458,0.25,0.001,0.01246553977553764,0.009830705775471215,14.765609379029007,0.010539335745202718,0.010060596545892102
459,0.25,0.001,0.012489975649821624,0.009818080316684888,14.973301188865404,0.010687581148369311,0.011174596446965421
460,0.25,0.001,0.01252327264610971,0.009835774365686969,15.060739967260467,0.010749992838872567,0.009430552766259228
461,0.25,0.001,0.012535358069652922,0.009858578834891989,15.000671802477891,0.010707117632032756,0.011620688518243176
462,0.25,0.001,0.01253913805684012,0.009821313213598862,15.230689220214158,0.010871298515499042,0.01319729390421084
463,0.25,0.001,0.01254303404496292,0.0098576580163803,15.048847367790309,0.010741504188287159,0.012397539003619127
464,0.25,0.001,0.012603524511449792,0.009918034838491612,15.04948339140817,0.010741958166601121,0.01490152268005269
465,0.25,0.001,0.012446971107902152,0.009745617083200578,15.13838800580314,0.010805416135476902,0.009779928451670068
466,0.25,0.001,0.012461514867256197,0.009811597495350275,14.850137320529209,0.01059966975055618,0.00924455261390124
467,0.25,0.001,0.012502032777901446,0.00978224068419652,15.24171485900879,0.010879168350470227,0.009414084787879671
468,0.25,0.001,0.012518288645098049,0.00980903689404217,15.182647098584122,0.010837007208125712,0.009390821414334434
469,0.25,0.001,0.012523269642856013,0.009778686773994665,15.380643675300512,0.010978332387794798,0.011026945231216294
470,0.25,0.001,0.012545224871444568,0.009821779448329732,15.262188082062796,0.010893781643156885,0.012097268365323544
471,0.25,0.001,0.01261185793561882,0.00990523553003421,15.167911803856324,0.010826489510247197,0.010665181891194411
472,0.25,0.001,0.012509292332727587,0.009802278361461136,15.170106377762355,0.010828055944155857,0.010412582928048713
473,0.25,0.001,0.012505306770208847,0.009778975674443031,15.278359811761407,0.010905324633662674,0.01119449348854167
474,0.25,0.001,0.012558108568191529,0.009897012671644098,14.912782456901637,0.01064438433754578,0.012287450022995472
475,0.25,0.001,0.01258627205584826,0.00981637676654572,15.522494725430949,0.011079582245132726,0.010544739796647004
476,0.25,0.001,0.012503748529412773,0.009833417841222849,14.964533657974071,0.010681323096341235,0.012725874914654664
477,0.25,0.001,0.012597626887178153,0.009865546975745244,15.310576584633816,0.010928320188889234,0.012145591567137412
478,0.25,0.001,0.012621115717325318,0.009891615688717097,15.296117911178074,0.010917999936601051,0.012896921751754624
479,0.25,0.001,0.012459624508458576,0.00969335279856505,15.50218742456329,0.011065087383699707,0.010591224900313787
480,0.25,0.001,0.012459408454178424,0.009828701835083827,14.742480233010282,0.010522826718779644,0.010778042155184917
481,0.25,0.001,0.01256691412686297,0.009813329497917314,15.431088976913623,0.01101433902706183,0.012804036161729268
482,0.25,0.001,0.012597287971568241,0.009875036983258938,15.255494863531563,0.010889004185247369,0.015213665685483388
483,0.25,0.001,0.012496544935562638,0.009811185804729382,15.048752793301357,0.010741436683298614,0.013628857476370675
484,0.25,0.001,0.012536355890752224,0.00984840209313323,15.063293812783916,0.010751815712194088,0.009352218891893114
485,0.25,0.001,0.012480689208494143,0.009756242488040013,15.267798438768708,0.010897786180420204,0.00909273512661457
486,0.25,0.001,0.012505348097909702,0.009810948317472855,15.09941592270069,0.010777598802784219,0.009606369371925081
487,0.25,0.001,0.012482195561019222,0.009772017503973473,15.18783792431435,0.010840712294300035,0.010985026402132851
488,0.25,0.001,0.012489490164967065,0.00981148700282145,15.007529730207464,0.010712012655394336,0.009304943028837442
489,0.25,0.001,0.01245933785574155,0.009721699610268801,15.341723969277371,0.010950552440597696,0.008936115207948856
490,0.25,0.001,0.012457308003657989,0.009812150564923716,14.823462205522516,0.010580629697018212,0.01008249559838857
491,0.25,0.001,0.012493059325837687,0.009770997486004,15.254434864172774,0.01088824758327821,0.009255977081401008
492,0.25,0.001,0.012443386374062367,0.009751558473354644,15.085004635071487,0.010767312373355807,0.009322534315288067
493,0.25,0.001,0.012510912591235691,0.00985067467717977,14.907974673924821,0.010640952658047695,0.00960364971043808
494,0.25,0.001,0.01246140543580725,0.009726253103757842,15.327794520774583,0.01094060993631305,0.009932937965329205
495,0.25,0.001,0.012503506695286612,0.009730217934408215,15.541509958331504,0.011093154859622773,0.008941108360886574
496,0.25,0.001,0.012474250374885087,0.009748975562161944,15.272440256697408,0.010901099398070956,0.00928073562681675
497,0.25,0.001,0.012482583619068177,0.00976698598248905,15.21821016033044,0.010862391263619157,0.010889514415924038
498,0.25,0.001,0.012425732181480761,0.00970257707568032,15.260562455252316,0.010892621309958826,0.010025009379855223
499,0.25,0.001,0.012479667909694521,0.00980511810002702,14.988176785158307,0.010698198990120134,0.01078640137399946
500,0.25,0.001,0.012417766116978077,0.00971802014731959,15.129376606459028,0.010798984016030713,0.009584871719458274
