epoch,beta,learning_rate,train_loss,train_reconstruction_loss,train_kl_unnormalized,train_kl_normalized,mean_unclipped_gradient_norm
1,0.0,0.001,0.05583489254826591,0.05583489254826591,63.32396865027292,0.045199121092271886,0.10086888902717167
2,0.02,0.001,0.04164274688277926,0.03971118031513123,135.30624072846913,0.09657833028441766,0.07681489735841751
3,0.04,0.001,0.03532226949930191,0.033061782320340474,79.17355990455265,0.05651217694828883,0.047299055175648794
4,0.06,0.001,0.03395713971484275,0.03141407186076755,59.38064129783994,0.042384469163340426,0.040986940161221556
5,0.08,0.001,0.032492240085488275,0.03029205547202201,38.530726609002976,0.027502303075662368,0.03689934934178988
6,0.1,0.001,0.03057244502362751,0.028462244548967907,29.563907717750187,0.02110200408119214,0.030898129257063072
7,0.12,0.001,0.028025951243582228,0.025854376895087107,25.353133984520323,0.018096455377958832,0.02190458608998193
8,0.14,0.001,0.02601392916270665,0.023115239175302643,29.007601754324778,0.020704926305727893,0.030227569345798757
9,0.16,0.001,0.02487879499438263,0.021925465148829277,25.86009621393113,0.018458312786531855,0.02573290653526783
10,0.18,0.001,0.024152895829507283,0.021115913316607476,23.637845993041992,0.016872124192035685,0.02736259883062707
11,0.2,0.001,0.023788449441393217,0.02089061957384859,20.29930072966076,0.01448915112752374,0.03326844051480293
12,0.22,0.001,0.023715188964491797,0.020664926430299168,19.424629374912808,0.013864831816497364,0.03737068248705731
13,0.24,0.001,0.02374814338272526,0.020728154132763545,17.62918811979748,0.012583289164737672,0.048453378905024796
14,0.25,0.001,0.023741932667437054,0.02050648274521033,18.131460732959567,0.012941799238372282,0.04962125368830231
15,0.25,0.001,0.023559784513144267,0.020677154525404886,16.154257512773786,0.011530519281066229,0.04699668774588241
16,0.25,0.001,0.023297217332181475,0.020190136851299376,17.412079613095237,0.012428322350531932,0.025642606429755688
17,0.25,0.001,0.022968757429293225,0.019882398457044648,17.295956293741863,0.012345436326725098,0.03138937076760663
18,0.25,0.001,0.023148152828216553,0.020235510475578762,16.322448443458192,0.01165056990967751,0.049753925659590297
19,0.25,0.001,0.022616244543875966,0.019581776034264337,17.005161561511812,0.01213787406246382,0.02620519883930683
20,0.25,0.001,0.022697456110091437,0.01982062338718346,16.121772233872186,0.011507332072713908,0.020456859324541356
21,0.25,0.001,0.022525664904997463,0.01942714545698393,17.364103675115675,0.012394078283451588,0.023029971557358902
22,0.25,0.001,0.022368692557017008,0.019441560992882367,16.403644678025017,0.01170852582300144,0.032242555688652724
23,0.25,0.001,0.02216134738354456,0.01928849389865285,16.099470454624722,0.011491413600731422,0.025960495850692194
24,0.25,0.001,0.02194882690551735,0.01906750213177431,16.146943624587287,0.011525298804130826,0.019784610925449267
25,0.25,0.001,0.021753895311128525,0.01889268984752042,16.034194557553246,0.011444821240223587,0.024192088283598423
26,0.0,0.001,0.01852459695367586,0.01852459695367586,23.364839644659135,0.01667725884700866,0.034428929496142596
27,0.02,0.001,0.017220744235174997,0.01664097360379639,40.61292321341379,0.028988524777597276,0.029421722205976646
28,0.04,0.001,0.016640949540195012,0.015056702086613291,55.48826225644066,0.039606182909665,0.03318800166663197
29,0.06,0.001,0.016397160470840475,0.014276682548224926,49.51316037859235,0.03534129934232145,0.033664347500436835
30,0.08,0.001,0.01621892942204362,0.014226888050990445,34.885626700265064,0.024900518701117105,0.027944575374325115
31,0.1,0.001,0.01634853361085767,0.014170252036835466,30.517723948160807,0.02178281509504697,0.0183921133995884
32,0.12,0.001,0.016481923342105888,0.01399546033214955,29.02945746285575,0.02072052638319468,0.01592694704110424
33,0.14,0.001,0.01677991223477182,0.014110643460991838,26.71175413949149,0.01906620566701748,0.03408793991224633
34,0.16,0.001,0.017106646581419877,0.01438981418276117,23.789261877877372,0.01698020119762839,0.03129864173630873
35,0.18,0.001,0.017293256964711914,0.014296542989710967,23.32442279270717,0.016648410273167144,0.022998143039229844
36,0.2,0.001,0.017473714816428367,0.01437667525417748,21.69476146516346,0.015485197334163783,0.026686871527797647
37,0.22,0.001,0.01772887633669944,0.014569647313938254,20.11854365394229,0.01436013108775324,0.029528516655166943
38,0.24,0.001,0.017968076407199815,0.014722635976615406,18.945259675525485,0.013522669290168083,0.02826143107894394
39,0.25,0.001,0.017835704357851118,0.01463810920005753,17.919323436192105,0.012790380753884443,0.012392586821483241
40,0.25,0.001,0.017734346010145688,0.014572342048798289,17.71987083798363,0.012648016301201735,0.014979852156506645
41,0.25,0.001,0.017757633041058266,0.014652353629824661,17.401985248384022,0.01242111723653392,0.022686227328247495
42,0.25,0.001,0.01773092186876706,0.014703741323735033,16.964319690522693,0.012108722120287433,0.026064679440524843
43,0.25,0.001,0.017635148557878677,0.014480705222203618,17.677500733875092,0.012617773543094284,0.022690849068264168
44,0.25,0.001,0.017346201759009135,0.014247539396442119,17.364904381888252,0.012394649808628302,0.019325030657152336
45,0.25,0.001,0.017662935409517515,0.01442158666217611,18.164519943963914,0.012965396105613071,0.020340820774435997
46,0.25,0.001,0.0174687824540195,0.014473878631279581,16.783440373738607,0.011979614827793438,0.028667653393414285
47,0.25,0.001,0.01745944843405769,0.014335388198849702,17.507232062930154,0.012496239873611816,0.01766777079966333
48,0.25,0.001,0.01735204632083575,0.014336672893592289,16.898152011689685,0.012061493227473009,0.012986067889465226
49,0.25,0.001,0.01720893532747314,0.014066061001448403,17.612669844854445,0.012571498818597034,0.019514042056269117
50,0.25,0.001,0.017103881530818484,0.014138520771548861,16.617882027398974,0.011861443274374713,0.024264553044405248
51,0.0,0.001,0.01362306978198744,0.01362306978198744,22.10061549595424,0.015774886149860272,0.021460962171355884
52,0.02,0.001,0.013061852277744384,0.012402952693047978,46.155925460088824,0.03294498605288281,0.011372266699456506
53,0.04,0.001,0.013594813410724913,0.01192609681437413,58.44679858979725,0.041717914767878124,0.015726671295447484
54,0.06,0.001,0.013966357170471124,0.011994768278229805,46.036604854038785,0.03285981788296844,0.024169489844805665
55,0.08,0.001,0.014248356547738825,0.0125034549087286,30.557591952369325,0.02181127191461051,0.021500264449665945
56,0.1,0.001,0.014450316879720915,0.012493388720211529,27.416566118512836,0.01956928345361373,0.012862191380312046
57,0.12,0.001,0.014780547515976997,0.012501870232323806,26.603559025355747,0.01898897860482209,0.01144630622325672
58,0.14,0.001,0.015119209498876617,0.012681899464556149,24.390510511852447,0.01740935796706099,0.016551866403056517
59,0.16,0.001,0.015475850701332092,0.012880577719992115,22.72486110868908,0.016220457607915118,0.012905166846596532
60,0.18,0.001,0.015694070518726393,0.012872437581065155,21.961710742768787,0.01567573928820042,0.014744527430997955
61,0.2,0.001,0.01593225285410881,0.013000068834849766,20.539950154622396,0.01466092088124368,0.020498613723450236
62,0.22,0.001,0.016090092123264357,0.01316900059580803,18.602043842134023,0.013277690108589596,0.022203390279577837
63,0.24,0.001,0.01633293023066861,0.01319889273494482,18.294943538847424,0.013058489321090237,0.013626676570210192
64,0.25,0.001,0.01628330533703168,0.013171151975790659,17.440507205781483,0.012448613280357946,0.012574920534259744
65,0.25,0.001,0.016366642926420483,0.013348118669929958,16.915811195373536,0.012074097926747705,0.01364962849766016
66,0.25,0.001,0.016259809248149393,0.013140545058108511,17.480356993902298,0.012477057097717558,0.010960930285768377
67,0.25,0.001,0.016275515347009613,0.013330753521905058,16.502443982078915,0.011779046382640197,0.016701779793947935
68,0.25,0.001,0.016181629960026058,0.013194709884978477,16.738700499761674,0.011947680585126106,0.01853184464077155
69,0.25,0.001,0.016226424365526154,0.013244015521236828,16.713419091360908,0.011929635325739407,0.017198977164096303
70,0.25,0.001,0.016071175400699887,0.013223509235041482,15.958322421482631,0.011390665539959051,0.012309906279875172
71,0.25,0.001,0.016107470038391296,0.013128179105974379,16.69594756898426,0.011917164574578344,0.016319694100982614
72,0.25,0.001,0.015969989867437452,0.01303167527275426,16.466313919793993,0.011753257615841537,0.016818139598601393
73,0.25,0.001,0.015857980261955944,0.012913528311820258,16.50070876711891,0.011777807828064889,0.01573928026482463
74,0.25,0.001,0.016130458183941387,0.013275997491464728,15.996397378104074,0.011417842525413328,0.026420990729497537
75,0.25,0.001,0.016021532831447464,0.013133386288370404,16.185173459734237,0.01155258633814007,0.020336797874834802
76,0.0,0.001,0.01246627013952959,0.01246627013952959,22.776182294573104,0.016257089432243473,0.02248071465227339
77,0.02,0.001,0.012091321295925548,0.011425137542897746,46.66617120651972,0.03330918715668788,0.010898126651429467
78,0.04,0.001,0.012761890031397343,0.011186249580766474,55.18681242443267,0.03939101529224316,0.011048255074355338
79,0.06,0.001,0.01297540723745312,0.011240001267620495,40.52173144749233,0.028923434295140847,0.008533950274189314
80,0.08,0.001,0.013176500479735079,0.01156816164297717,28.16603808448428,0.020104238461444882,0.018128322023484442
81,0.1,0.001,0.013476843787800698,0.01168445643569742,25.111345999581474,0.017923872947595627,0.010729130978385607
82,0.12,0.001,0.013802392708048934,0.011682738523398127,24.746962222144717,0.017663784598247478,0.019724785143302545
83,0.14,0.001,0.014045676234222594,0.011813358602424462,22.339121922084264,0.015945126282715393,0.015055128838866949
84,0.16,0.001,0.014350546954997948,0.011971380428544112,20.83257692972819,0.014869790813510485,0.015386088854736753
85,0.18,0.001,0.01462177531882411,0.011957769681300436,20.734842943464006,0.01480003065200857,0.015322107407781813
86,0.2,0.001,0.014846149367235956,0.012205049768090248,18.500902802603587,0.013205498074663516,0.016858437719444435
87,0.22,0.001,0.01517430784801642,0.012249394217062564,18.62638132004511,0.013295061613165673,0.020453583138684433
88,0.24,0.001,0.015428210188235555,0.012505469865032605,17.061497072492326,0.012178084991072324,0.01187399174604151
89,0.25,0.001,0.015583294275261107,0.01251189834482613,17.21210301353818,0.012285583878328465,0.024847086001601484
90,0.25,0.001,0.015395502536779359,0.012360320520542917,17.009160753885904,0.012140728589497433,0.018894852449496586
91,0.25,0.001,0.015428884831212816,0.01246230467799164,16.62471556708926,0.011866320890142227,0.013894022442400455
92,0.25,0.001,0.015421679126364845,0.012514251358807087,16.293224262055897,0.01162971039404418,0.02094964160480433
93,0.25,0.001,0.015384047237180528,0.012475895471870899,16.29728180113293,0.0116326065675467,0.012626321365435919
94,0.25,0.001,0.015319960702742849,0.012436881599326929,16.156776435488748,0.011532317227329584,0.01198006659332249
95,0.25,0.001,0.015334574642280737,0.012373065726742858,16.596296426682244,0.01184603599334921,0.022557657315499254
96,0.25,0.001,0.015214917333353133,0.012383676052448295,15.866275244213286,0.011324964485519833,0.01518603077986174
97,0.25,0.001,0.015281612195429348,0.012437039111696538,15.940987281799316,0.011378292135474173,0.015332924305564828
98,0.25,0.001,0.015175134819887933,0.012268355923394363,16.289591064453123,0.011627117105248483,0.012557530154784521
99,0.25,0.001,0.01508200979303746,0.012291210361179852,15.639641029721215,0.011163198450907363,0.012255971785634756
100,0.25,0.001,0.015160830844016301,0.012275831757911615,16.167535220554896,0.011539996588547392,0.017596069309446547
101,0.25,0.001,0.015111418824110712,0.01230587724596262,15.722254199073427,0.011222165738096665,0.014415652698112858
102,0.25,0.001,0.015121058193700654,0.012250166748251233,16.08847614833287,0.011483566130144804,0.012411277068571912
103,0.25,0.001,0.015057208247127987,0.012224030047655106,15.877130704607282,0.011332712851254305,0.018219944710532825
104,0.25,0.001,0.015030803683967817,0.012258557272808892,15.535669550214495,0.011088986117212344,0.012583406124677923
105,0.25,0.001,0.015205107301118828,0.012311594252075468,16.215247735523043,0.011574052630637433,0.01603416136155526
106,0.25,0.001,0.015081311812003454,0.012165451202364196,16.340483011518206,0.01166344254926353,0.013684375935958492
107,0.25,0.001,0.01497119441628456,0.012238129409296172,15.316096522013346,0.010932260187018806,0.010434112511575222
108,0.25,0.001,0.014964610160816284,0.012081160314735911,16.158852128528412,0.011533798806943905,0.012501307970119847
109,0.25,0.001,0.014987228647584007,0.012212182787202654,15.551358248392742,0.011100184331472335,0.017350618210103776
110,0.25,0.001,0.01485342304621424,0.012011252751662618,15.9275221543085,0.011368681052325838,0.011214867803371616
111,0.25,0.001,0.014942387452437764,0.012123280877158756,15.79827383132208,0.011276426717574646,0.018358980150272448
112,0.25,0.001,0.01489888949053628,0.012088265062442847,15.750740004039946,0.01124249821844393,0.010536058547182215
113,0.25,0.001,0.014875452264788605,0.01204455592447803,15.864342967442104,0.011323585272977946,0.009650425209353367
114,0.25,0.001,0.014914889701065564,0.012119660311866374,15.664464372907366,0.01118091675439498,0.01219598969651593
115,0.25,0.001,0.014813332295133954,0.011990685839028585,15.818110028221493,0.01129058531636081,0.014857177156955004
116,0.25,0.001,0.01483522065693424,0.01208121047310886,15.433473688761394,0.011016041176846106,0.01614536914146609
117,0.25,0.001,0.014859209330309006,0.012050941687609468,15.737532166980563,0.01123307078299826,0.011527740034378238
118,0.25,0.001,0.014741825695548738,0.011929698134107249,15.759163553147088,0.011248510744573226,0.010182919032457802
119,0.25,0.001,0.014759524932929449,0.011960948068825972,15.683224416460309,0.011194307220885302,0.010686276273594962
120,0.25,0.001,0.0147390878200531,0.012011971580130714,15.282759624662853,0.010908465113963492,0.011996842351638608
121,0.25,0.001,0.014747438026326044,0.011996839821693443,15.414352674938383,0.011002393058485641,0.009829753337221013
122,0.25,0.001,0.014711366966366768,0.011859512348614988,15.981793294634137,0.011407418482965124,0.009882057603034709
123,0.25,0.001,0.014640473741151037,0.01199521646258377,14.824021504720053,0.010581028911291972,0.014006598956055112
124,0.25,0.001,0.014603441439214207,0.011849125513718242,15.43518748873756,0.011017264445922598,0.011701068789180782
125,0.25,0.001,0.01472294487413906,0.01203694545264755,15.052340674627395,0.01074399762642926,0.017022203240129683
126,0.25,0.001,0.01464846558159306,0.011807739500488555,15.919428661891393,0.011362904112699067,0.014229739498760965
127,0.25,0.001,0.014680700969128381,0.011961599010087195,15.237848092942011,0.010876408346139907,0.013002291839155886
128,0.25,0.001,0.014595123447832608,0.011828600741213276,15.503593848092216,0.011066091254883809,0.01127776839873857
129,0.25,0.001,0.014507984032943136,0.011812932235854013,15.103071118309384,0.010780207793225827,0.009147170775880417
130,0.25,0.001,0.01462185459300166,0.011967443360814026,14.875320628938221,0.01061764498853549,0.017719118079791468
131,0.25,0.001,0.014557736796282587,0.011740282926531065,15.789011175973075,0.011269815257653871,0.014472714211377833
132,0.25,0.001,0.014595368039749918,0.011877345332787151,15.231799875895183,0.010872091274728896,0.014763864585094981
133,0.25,0.001,0.014657477119139263,0.011863039712465944,15.660027874537876,0.011177750088892132,0.012559923032919565
134,0.25,0.001,0.014589252839131015,0.011868585747267518,15.246618839445569,0.01088266869339441,0.01051711089288195
135,0.25,0.001,0.014459436725647676,0.011717421057678404,15.366255845569428,0.010968062702048129,0.009603548070622815
136,0.25,0.001,0.01447665085572572,0.011709614502532141,15.506472069876535,0.011068145660154557,0.00990209092075626
137,0.25,0.001,0.014460069153990064,0.011747667161481722,15.200301462809245,0.01084960846738704,0.011397014113350047
138,0.25,0.001,0.014469223937817983,0.011772848005805697,15.110491142272949,0.010785504027318307,0.01067564289809929
139,0.25,0.001,0.014498858937904948,0.011753513027159941,15.384917984008789,0.0109813832862304,0.012746756637675894
140,0.25,0.001,0.01449142261630013,0.011733449931655612,15.455679076058525,0.01103189084657996,0.01485422377785047
141,0.25,0.001,0.014472394692046302,0.011773622993912016,15.123916658673968,0.010795086837026386,0.014405875777204832
142,0.25,0.001,0.01445435324595088,0.01168896119154635,15.49725612095424,0.011061567538154347,0.01401101683990823
143,0.25,0.001,0.014417669308327493,0.011661519757693722,15.445460673740932,0.011024597197531,0.013163937048779594
144,0.25,0.001,0.01445312252002103,0.011704738519731021,15.401944260370163,0.010993536231527597,0.012116384382049242
145,0.25,0.001,0.014390268109384038,0.01174484890309118,14.824929368155344,0.01058167692230931,0.015263280003435083
146,0.25,0.001,0.014516283438674041,0.011774027571082115,15.367602646237328,0.010969024015872469,0.01552720864613851
147,0.25,0.001,0.01443640433074463,0.011631709145648138,15.717511970883324,0.011218780850023785,0.017627951171663072
148,0.25,0.001,0.01432564037186759,0.011731997834784643,14.534773951939174,0.010374570986394842,0.011616406858795218
149,0.25,0.001,0.014385576861954871,0.011597824362771852,15.622565011524019,0.011151010001087808,0.013208195308430327
150,0.25,0.001,0.014386388168093704,0.01167288561839433,15.206467559451148,0.0108540096784091,0.014153321273624897
151,0.25,0.001,0.014397661366633006,0.011652201637625694,15.385557258242653,0.01098183958475564,0.011915057276686033
152,0.25,0.001,0.014410926956860791,0.01168615740856954,15.26960841769264,0.010899078099709235,0.009819604973826144
153,0.25,0.001,0.014340912524078573,0.01162064980892908,15.244352923801967,0.010881051337474638,0.012535538369168838
154,0.25,0.001,0.014280030306960855,0.011583361320552371,15.112133007957821,0.010786675951433134,0.010562995293488106
155,0.25,0.001,0.01430398862631548,0.011610286932970797,15.095505345662435,0.010774807527239425,0.009762686056395372
156,0.25,0.001,0.014268438837357929,0.011653775977236883,14.652571832566034,0.010458652271638854,0.012669146578345034
157,0.25,0.001,0.014284788033082372,0.0115530094415659,15.308887801397415,0.01092711477615804,0.01510582362405128
158,0.25,0.001,0.014239652259718804,0.011572509079816795,14.946670528593517,0.010668572825548549,0.009696657407201
159,0.25,0.001,0.014280642702111176,0.011578380788366,15.143476814996628,0.010809048404708513,0.010469004460093047
160,0.25,0.001,0.014289859013543243,0.011618136022062528,14.972335760934012,0.010686892049203435,0.011870900686416361
161,0.25,0.001,0.014205142951437405,0.011468391507154419,15.336754869733538,0.010947005617225936,0.011043834603495069
162,0.25,0.001,0.014285410291382245,0.011579847640934445,15.161974054972331,0.010822251288345705,0.010127084019283453
163,0.25,0.001,0.014367138209442298,0.011567950486427262,15.686647542317708,0.011196750565537265,0.013171878850294484
164,0.25,0.001,0.014246956698951267,0.011556008463459356,15.080073258536203,0.01076379247575746,0.011282990841815868
165,0.25,0.001,0.014253479989156836,0.011586559874316057,14.945420933678037,0.010667680894845136,0.012611977342102263
166,0.25,0.001,0.01422351897472427,0.011524670358215059,15.124347107296899,0.010795394080868593,0.011542182984865375
167,0.25,0.001,0.014192192025837444,0.011503250503114291,15.068829483758835,0.010755766940584464,0.013892162487738662
168,0.25,0.001,0.014176222926803997,0.011423340737819672,15.427152386619932,0.011011529183882892,0.010797287699662976
169,0.25,0.001,0.014233871061532271,0.011614812727840174,14.67720390864781,0.010476234053281805,0.013134337754713165
170,0.25,0.001,0.014173346505988211,0.011494186641204924,15.014011125110445,0.010716638918708382,0.010000692783958383
171,0.25,0.001,0.014135783499195462,0.011480981610005811,14.87751114981515,0.010619208529489757,0.010314365900639031
172,0.25,0.001,0.014149613249159995,0.011419640437123322,15.298767442249117,0.01091989110795797,0.009821825919465886
173,0.25,0.001,0.014227538758090564,0.011545297781981174,15.031279018947057,0.010728964324730233,0.010140670049521659
174,0.25,0.001,0.014203309817683129,0.011522800046063604,15.021577106657482,0.010722039333802627,0.014202015319218239
175,0.25,0.001,0.014169155410712673,0.01144110542500303,15.287991812569754,0.010912199723461637,0.013104585827224784
176,0.25,0.001,0.014213897940658388,0.011579873813759713,14.761071526663644,0.010536096735662843,0.01411223147685329
177,0.25,0.001,0.014139736411826951,0.011435882747173309,15.152396974109468,0.01081541539907885,0.01724394452240732
178,0.25,0.001,0.014135890847870283,0.011506141997164205,14.737113572983514,0.010518996126326563,0.014008729563405117
179,0.25,0.001,0.01421137297792094,0.011527943715807938,15.037938254220146,0.010733717526209954,0.014707670029666688
180,0.25,0.001,0.014147393655564104,0.011452894264033862,15.09997591836112,0.010777998514176388,0.015956864278349612
181,0.25,0.001,0.014274067421044622,0.011630539571245511,14.814330546061198,0.010574111738801711,0.015368625418179564
182,0.25,0.001,0.014197016294513429,0.011510847806930543,15.053287360781715,0.01074467334816682,0.012752485565013356
183,0.25,0.001,0.014166574258179892,0.011542526795750572,14.705161496117002,0.010496189504723056,0.014319753584762415
184,0.25,0.001,0.014174616971895808,0.011481223138315337,15.093779071626209,0.010773575354479807,0.014476147376828723
185,0.25,0.001,0.014076528765615963,0.011478730720423517,14.558060673304967,0.010391192486299048,0.010556833456373878
186,0.25,0.001,0.014137506506272724,0.01144227387117488,15.104083604358491,0.010780930481340822,0.01410039576391379
187,0.25,0.001,0.014140643922700768,0.011367226606678394,15.542231476193383,0.011093669861665512,0.011948251838071479
188,0.25,0.001,0.014121635398339657,0.011483713643891471,14.782914559500558,0.010551687765525024,0.011001282164620029
189,0.25,0.001,0.014023896679282189,0.011384739854506084,14.789835168747675,0.010556627529441595,0.009980482670168081
190,0.25,0.001,0.014089940859093552,0.011446361907181285,14.814616864522298,0.010574316106011634,0.013106250669807196
191,0.25,0.001,0.014146363206562542,0.01142452043082033,15.253207673572359,0.010887371644234374,0.012925257595876852
192,0.25,0.001,0.014118431730284577,0.011487153103309018,14.74568605695452,0.010525114958568537,0.01410579350259569
193,0.25,0.001,0.014118083720760686,0.011447082502501352,14.968291764032273,0.010684005541778924,0.012189353816211224
194,0.25,0.001,0.014073019121729192,0.011425685879020464,14.835655826386951,0.010589333209412527,0.012644300444258584
195,0.25,0.001,0.014097898574102492,0.011366642396010103,15.305959547133673,0.010925024658910544,0.012523161557813486
196,0.25,0.001,0.014045700821138563,0.011406124374341397,14.792187114897228,0.010558306291860976,0.010231031053182151
197,0.25,0.001,0.014105950441388857,0.011353919491881416,15.422381611778622,0.011008123919899087,0.014817866858922772
198,0.25,0.001,0.014067552657354446,0.01143662519930374,14.743718394324892,0.010523710488454598,0.012190191437386803
199,0.25,0.001,0.014073273362148376,0.011389973780938558,15.037211543491908,0.010733198817624488,0.01324404620875915
200,0.25,0.001,0.013994191806940805,0.011222968757862136,15.529935555231004,0.01108489332992934,0.01086351347880231
201,0.25,0.001,0.013984613115234034,0.011385516623655955,14.565336910429455,0.010396386088814743,0.010104868043628003
202,0.25,0.001,0.01394480124825523,0.01127930226247935,14.937456559680758,0.010661996116831376,0.009320321027189493
203,0.25,0.001,0.013947065247311478,0.011330133394471236,14.665286734444754,0.010467727861844935,0.010057254125260644
204,0.25,0.001,0.01397864790899413,0.01135008864636932,14.7304463213966,0.010514237202995432,0.009619850458370315
205,0.25,0.001,0.0140793864056468,0.011383065400379045,15.110183450608027,0.010785284404431139,0.013436846331589751
206,0.25,0.001,0.013952782755451544,0.011311483168531032,14.801842778523763,0.010565198271608681,0.013218662908507718
207,0.25,0.001,0.014059885589494591,0.011420634222172555,14.79036511012486,0.010557005788811464,0.015781552323864564
208,0.25,0.001,0.014115346553070205,0.011439932549283618,14.99302033923921,0.010701656202169315,0.016125571603576343
209,0.25,0.001,0.014052455895358609,0.011360661575482005,15.084815103440057,0.010767177090249862,0.012383546680212021
210,0.25,0.001,0.01398995778745129,0.011398217427943435,14.524113257271903,0.01036696163973726,0.010582429408613179
211,0.25,0.001,0.013949929704623562,0.011269129575008438,15.023203164963496,0.010723199974991788,0.009758712102969488
212,0.25,0.001,0.013995495310851506,0.011379041233587833,14.662608480907622,0.010465816189084669,0.01109252218157053
213,0.25,0.001,0.01400697414009344,0.011333490572869778,14.982201899573916,0.010693934260937841,0.011824809273497926
214,0.25,0.001,0.014037734878559907,0.011390800392698673,14.833420980544318,0.010587738030367107,0.01148449805461698
215,0.25,0.001,0.013929291119178136,0.011232601381128743,15.11224994114467,0.01078675941552082,0.010070226206961606
216,0.25,0.001,0.013989259263589269,0.011389264902543455,14.57036808740525,0.010399977221559779,0.014067426530851258
217,0.25,0.001,0.013997003702180726,0.011335769198125317,14.913558647519066,0.010644938363682417,0.013384472009622388
218,0.25,0.001,0.013988310708886101,0.01133491151034832,14.869649825323195,0.010613597305726764,0.01825389948983987
219,0.25,0.001,0.013973316443817956,0.011327146272219363,14.82913651057652,0.010584679879069607,0.013295813308407864
220,0.25,0.001,0.013936352335980961,0.011254218453097911,15.030678035191126,0.010728535357024359,0.011248880221198002
221,0.25,0.001,0.013879756872497854,0.011233850639490854,14.827658874875024,0.010583625178354764,0.010513685384972228
222,0.25,0.001,0.013927788411577543,0.01133388681958119,14.536224486941382,0.010375606343284355,0.010970745132201247
223,0.25,0.001,0.013898403852113656,0.011196533936475005,15.141279483976819,0.010807480002838557,0.009853922761976719
224,0.25,0.001,0.013911713184345337,0.011288699834119707,14.699366356985909,0.010492053074222633,0.012062088845090734
225,0.25,0.001,0.01396762602031231,0.01123284379641215,15.325718736194428,0.010939128291359335,0.011410354740089841
226,0.25,0.001,0.013889707353498254,0.011302677442630133,14.497715853736514,0.010348119809947548,0.012742949028809866
227,0.25,0.001,0.01408963425173646,0.011442199768055054,14.836221994672503,0.010589737326675591,0.025029224757519033
228,0.25,0.001,0.014093852160232408,0.011400698143101873,15.092435775030227,0.010772616541777464,0.018968988209962845
229,0.25,0.001,0.013972420236539274,0.011336342550459361,14.772579817998977,0.010544311076373289,0.011088796011689637
230,0.25,0.001,0.013986165851709389,0.011355966357957749,14.739637658255441,0.010520797757498531,0.013404720669819249
231,0.25,0.001,0.013923864488800368,0.011231381414192063,15.088675181070963,0.010769932320536019,0.01006816141307354
232,0.25,0.001,0.013969644751577151,0.01137834702928861,14.521633349827358,0.010365191541632662,0.013172201657046875
233,0.25,0.001,0.013804968487293947,0.011186780225308168,14.672327800932385,0.010472753605233679,0.011918325184120072
234,0.25,0.001,0.013899411310752233,0.011281478142454511,14.670897527422223,0.010471732710508368,0.01485351649009519
235,0.25,0.001,0.013930941919485728,0.011268369837531022,14.921054431370326,0.010650288673354978,0.014460240594214864
236,0.25,0.001,0.013825682891266686,0.011245303329612528,14.460448047092983,0.010321518948674507,0.014268656261265278
237,0.25,0.001,0.013840227237059957,0.011193604939395474,14.831671295166016,0.010586489147156328,0.011826100086586343
238,0.25,0.001,0.013868750422483398,0.011228969639965466,14.79333160037086,0.010559123197980629,0.011684129376792245
239,0.25,0.001,0.013823722998301188,0.011161383310598986,14.919751674107143,0.010649358796650353,0.01048876391723752
240,0.25,0.001,0.013855852942381586,0.011175570402826582,15.02030332837786,0.01072113014159733,0.010845447166098489
241,0.25,0.001,0.01386974382968176,0.01125003087023894,14.680871055239724,0.010478851574046912,0.011075302699787749
242,0.25,0.001,0.01387776002820049,0.011180144383438995,15.117438069298155,0.010790462576229946,0.011153429177486233
243,0.25,0.001,0.013895445568930536,0.011265017400894846,14.740920637221564,0.01052171351693188,0.0102580475827886
244,0.25,0.001,0.013878647106743995,0.01120221513900019,14.99872585296631,0.010705728660218636,0.013030847017135885
245,0.25,0.001,0.013844832667992229,0.011167054628687246,15.006268441336495,0.01071111237782762,0.011541710752579901
246,0.25,0.001,0.013859184810093472,0.011219671494549228,14.79183293842134,0.010558053489237216,0.012300379522558715
247,0.25,0.001,0.013899020382336208,0.011182611071992489,15.222758665538969,0.010865637876901476,0.010265880367822118
248,0.25,0.001,0.013877870905257406,0.01122509050049952,14.866180823189872,0.01061112121569584,0.010249284147802327
249,0.25,0.001,0.013814892151526042,0.011184944668341251,14.738225506373814,0.01051978979755447,0.011720675250722302
250,0.25,0.001,0.013878264306556611,0.01126700888077418,14.633475132896786,0.01044502150813475,0.01007099397894409
251,0.25,0.001,0.013845604335268338,0.011174058726146107,14.971341981433687,0.010686182713371654,0.013496737461537123
252,0.25,0.001,0.0138986358986724,0.011225500896218278,14.980248038882301,0.010692539642314277,0.013144440224601163
253,0.25,0.001,0.013842736670658702,0.01126936794569095,14.421158425467356,0.010293474964644793,0.011431007283843227
254,0.25,0.001,0.013819852230094729,0.011217747114243962,14.582197636195591,0.010408420868091071,0.011639133147481415
255,0.25,0.001,0.013794032475423245,0.011182674066651434,14.634052803402856,0.010445433835405322,0.012210189209630093
256,0.25,0.001,0.013788507201132321,0.011153260276076339,14.767924523126512,0.01054098823920522,0.01101255463436246
257,0.25,0.001,0.013759277242989768,0.011150339966018994,14.620483807155065,0.010435748613244157,0.009277282282710075
258,0.25,0.001,0.013834076562807673,0.011170509642078764,14.92663082304455,0.010654268967198108,0.010528130042884085
259,0.25,0.001,0.013766152901308877,0.011099593729845115,14.943397670927501,0.010666236738706283,0.009671024409019284
260,0.25,0.001,0.013848491547008356,0.011189159147796177,14.902897789364768,0.010637328900331741,0.009421829237706132
261,0.25,0.001,0.013872573695012502,0.011238510397573313,14.761290577479771,0.010536253088850658,0.009469291919635402
262,0.25,0.001,0.013858981746293249,0.011137413765702929,15.251666968209403,0.010886271925916775,0.010490179734511508
263,0.25,0.001,0.01378293393800656,0.011091773942822502,15.081261520385743,0.010764640628398103,0.012396427906221814
264,0.25,0.001,0.01378289269549506,0.01113544235272067,14.836311304001581,0.010589801073520044,0.010970028272519508
265,0.25,0.001,0.013835082463920116,0.01115229369628997,15.034347882952009,0.010731154805818707,0.011131346277478669
266,0.25,0.001,0.013750469659765561,0.011143295186616126,14.61060535975865,0.010428697615816308,0.013014977487425009
267,0.25,0.001,0.013778387650492645,0.011093451808251087,15.046380360921225,0.010739743298302087,0.01181642897427082
268,0.25,0.001,0.013772488995676948,0.011086178624204227,15.05408322652181,0.010745241417931341,0.011075071007427242
269,0.25,0.001,0.01379519980046011,0.011207174125704027,14.503296385265532,0.010352103058719152,0.012406708051760992
270,0.25,0.001,0.013739914989897182,0.011109060519153164,14.743309095473517,0.010523418340809077,0.011395654641091824
271,0.25,0.001,0.01385605289822533,0.011167799873011452,15.064970434279669,0.010753012444168215,0.011748992268823914
272,0.25,0.001,0.013828931748867035,0.011124757001442569,15.154194281441825,0.010816698273691524,0.010460820100787614
273,0.25,0.001,0.01382903276987019,0.011198015069322926,14.744222862606957,0.010524070565743724,0.01011511559287707
274,0.25,0.001,0.013796578372518221,0.011127068845643883,14.959932579767136,0.010678038957721011,0.01081842261676987
275,0.25,0.001,0.013704794503393628,0.01111318195150012,14.523396670023601,0.010366450157047537,0.010960949377881156
276,0.25,0.001,0.013764056783346903,0.01112270594884952,14.8021303830828,0.010565403556804282,0.011461882231136164
277,0.25,0.001,0.013722221216275579,0.011097687814562093,14.707885353451683,0.010498133728373792,0.011285577797227435
278,0.25,0.001,0.013720275397811618,0.011083453953975723,14.77674796694801,0.010547286200533912,0.01104936676306857
279,0.25,0.001,0.013805318739087809,0.011172159486228512,14.756224623180572,0.0105326371328912,0.016543745787607297
280,0.25,0.001,0.013778050552521433,0.011119359245612508,14.899306475321453,0.010634765507010317,0.011989904050197866
281,0.25,0.001,0.013803783277315752,0.011132964969036124,14.967265675862631,0.010683273144798451,0.010235523649801811
282,0.25,0.001,0.013737440329222451,0.01106944124968279,14.951467361450195,0.010671996689115058,0.010494503710005019
283,0.25,0.001,0.013743347325140522,0.011195699333080223,14.277018705095564,0.010190591509704186,0.01006139623415139
284,0.25,0.001,0.01379258435396921,0.011178386466843741,14.649965097336542,0.010456791646921157,0.013253021260930432
285,0.25,0.001,0.013809104444725172,0.01110683474689722,15.143519514174688,0.010809078882351669,0.012787387292418215
286,0.25,0.001,0.013721268015603224,0.011040035557179225,15.025627494085402,0.010724930402630551,0.009639589736859003
287,0.25,0.001,0.013711188306056318,0.011114713157571498,14.550647034418015,0.010385900809720211,0.010857813525944948
288,0.25,0.001,0.013724134619392099,0.011045825052119436,15.00924667721703,0.010713238170747345,0.011609055567532778
289,0.25,0.001,0.013842549710756257,0.011198791166146596,14.815622584025066,0.010575033964329099,0.011148530213783184
290,0.25,0.001,0.013736551489148822,0.01117438298783132,14.358393580118815,0.0102486749322761,0.011374874971807003
291,0.25,0.001,0.013837769723364285,0.01115326397653137,15.04396990094866,0.010738022770127524,0.011682834424492385
292,0.25,0.001,0.013781478378389563,0.011155905390069599,14.713710072835287,0.010502291272544815,0.01339943872557746
293,0.25,0.001,0.013846848954757055,0.011197033118279208,14.84956769670759,0.010599263166814839,0.01169195207249787
294,0.25,0.001,0.013767257636146887,0.011106645773564067,14.910069249471029,0.010642447715539636,0.010454745083633397
295,0.25,0.001,0.013794188032902423,0.011126836486870335,14.947837342761812,0.010669405669351758,0.015115976074917449
296,0.25,0.001,0.013877979818554152,0.011211249927679698,14.944354024614606,0.010666919360895508,0.015232941860126125
297,0.25,0.001,0.013729262188786551,0.011133342034050397,14.547537220546177,0.010383681099604695,0.013556335845755206
298,0.25,0.001,0.013785109771859079,0.01120871493504161,14.438116426013766,0.010305579176312467,0.01241880003362894
299,0.25,0.001,0.01373097116748492,0.01110327719755116,14.725597063700357,0.010510775919843224,0.01081454593481289
300,0.25,0.001,0.013764088068689619,0.011140837000594253,14.70069890158517,0.010493004212409115,0.013043476630830102
301,0.25,0.001,0.013794430590101651,0.011090059968687239,15.15529349735805,0.010817482867493254,0.012920032048390971
302,0.25,0.001,0.013804846288902418,0.011138474256509826,14.942348129635766,0.010665487601453081,0.010622371039870713
303,0.25,0.001,0.013752940251004129,0.011051430762523696,15.13925968896775,0.0108060383218899,0.008964570239186287
304,0.25,0.001,0.013691960723981971,0.011154105485904784,14.222140779041109,0.010151420970050756,0.010361563259114822
305,0.25,0.001,0.01370945738007625,0.011030833059478374,15.011011559622629,0.010714497901229572,0.00963246946533521
306,0.25,0.001,0.01369270506359282,0.011077509508246467,14.655554671514603,0.01046078135011749,0.008916879848887524
307,0.25,0.001,0.013673374473693826,0.011075899230227584,14.556250721159435,0.010389900586123794,0.010392548775093423
308,0.25,0.001,0.013634570006813321,0.01100531889391797,14.734322735014416,0.01051700409351493,0.011163655720237229
309,0.25,0.001,0.013622242506770861,0.011032913195944967,14.510602700369699,0.010357318130171092,0.010875489097088575
310,0.25,0.001,0.013693077869358517,0.011041591642867951,14.858929049173991,0.010605945074356882,0.0130070135411289
311,0.25,0.001,0.01371221848541782,0.011074832945707299,14.779908975873674,0.010549542452443736,0.010399634432461526
312,0.25,0.001,0.013713103731473287,0.011068072475138165,14.822755437578474,0.010580125223110973,0.012243162788864639
313,0.25,0.001,0.013638638284589564,0.011003849900194576,14.765353024800618,0.010539152765739199,0.014060014651881324
314,0.25,0.001,0.013733537699140253,0.01114798679947853,14.489427637372698,0.010342203881065451,0.015167658475952016
315,0.25,0.001,0.013666358897019,0.011024073726009755,14.807366136823381,0.01056914071150848,0.014333969809942775
316,0.25,0.001,0.01368618224170946,0.011053591131099633,14.753040575299945,0.010530364436331152,0.010599869769066572
317,0.25,0.001,0.013700578223381724,0.011146214375538485,14.314655425662085,0.010217455692835178,0.01253498149000936
318,0.25,0.001,0.013786770995883714,0.011079226929162229,15.173076774960473,0.010830176142013185,0.014362244556347529
319,0.25,0.001,0.013707473196444057,0.011060921306766214,14.831277011689686,0.010586207717123259,0.010832160607808165
320,0.25,0.001,0.013660323486796447,0.010982953439511004,15.0039808400472,0.01070947954321713,0.011486842297017574
321,0.25,0.001,0.013634474919665428,0.01096766535192728,14.944801045372373,0.010667238433527746,0.011394343183686336
322,0.25,0.001,0.013675483585823149,0.011099382248662767,14.436471830095563,0.010304405303422958,0.011523481665386094
323,0.25,0.001,0.013608113154768944,0.010978005084963072,14.739125698634556,0.010520432333072488,0.010440252617829375
324,0.25,0.001,0.013703991117931547,0.011051435145948614,14.86492417835054,0.010610224252926867,0.010068970887611309
325,0.25,0.001,0.013667709027372655,0.011043231295687812,14.707574293954032,0.010497911701608874,0.0090466540099846
326,0.25,0.001,0.013593972456597147,0.010990119654507864,14.591990885053361,0.010415411052857503,0.009614509323404895
327,0.25,0.001,0.013543538270252092,0.01098956074565649,14.31248972756522,0.010215909869782455,0.010009568081133895
328,0.25,0.001,0.013647017894046647,0.011018447381045137,14.730509285699753,0.01051428214539597,0.012250689789652824
329,0.25,0.001,0.013613631421966211,0.01091299623428356,15.13436030796596,0.01080254126193145,0.01057446856672565
330,0.25,0.001,0.013671975951819192,0.01106824601335185,14.591302613757906,0.01041491978141178,0.011201002324620882
331,0.25,0.001,0.013640040595616612,0.010952530141387667,15.060808701288133,0.010750041899563264,0.01122712752678328
332,0.25,0.001,0.013659635072662716,0.011027266104661282,14.751796711512974,0.010529476596369004,0.01138582354825404
333,0.25,0.001,0.013731090806069829,0.011051223505110968,15.017976424807594,0.010719469253966878,0.012030746684306197
334,0.25,0.001,0.013701607680746488,0.01095701200266679,15.380714236668178,0.0109783827527967,0.010592012252244685
335,0.25,0.001,0.013646381933774267,0.011012990325689316,14.757527487618583,0.010533567086094636,0.012136317375633452
336,0.25,0.001,0.013673952970476378,0.010998962384959062,14.990647506713866,0.01069996253155879,0.014149655846671926
337,0.25,0.001,0.013612114127193178,0.010974155446248395,14.783120891026089,0.010551835039990071,0.012172964711984
338,0.25,0.001,0.013592616887319655,0.011027935065683864,14.372477747599284,0.010258727871234321,0.009776705255111059
339,0.25,0.001,0.013621798335086732,0.01099507861548946,14.720136985778808,0.010506878647950612,0.011905283046265444
340,0.25,0.001,0.013601218513434842,0.010991372906026387,14.62557426634289,0.01043938206020192,0.01063517832921611
341,0.25,0.001,0.013576815591326782,0.010990254513564564,14.495088433765229,0.010346244420960191,0.010849665074298779
342,0.25,0.001,0.013541129387560346,0.010905869205792744,14.767998186747233,0.01054104081852051,0.010003807488828897
343,0.25,0.001,0.013536550553426856,0.01095740393513725,14.453537390572684,0.01031658628877422,0.010628676404141717
344,0.25,0.001,0.013661712926058542,0.010966890354951223,15.101785592578706,0.01077929021597338,0.016495681678255398
345,0.25,0.001,0.01355832537902253,0.010953678724666436,14.59644029163179,0.010418586931928472,0.011061806386957565
346,0.25,0.001,0.013650073621954237,0.011077523437284287,14.416571909586589,0.010290201220261662,0.011366543773975637
347,0.25,0.001,0.013673851014602752,0.010937882555382592,15.332367764427548,0.010943874207300178,0.009829641061110629
348,0.25,0.001,0.013647557940511477,0.010923132215227399,15.26768167041597,0.01089770283398713,0.009869225167979797
349,0.25,0.001,0.013635253246341433,0.011000934399309612,14.762723633902414,0.010537275969951758,0.010645709983590577
350,0.25,0.001,0.013552605740371204,0.01089248791514408,14.907300516764323,0.010640471460930995,0.009477635017699666
351,0.25,0.001,0.01352597178625209,0.010916154153999828,14.625418232509068,0.010439270687015752,0.009889416344877746
352,0.25,0.001,0.01353340374217147,0.010924208863150505,14.62192801520938,0.010436779454110905,0.009734487419741021
353,0.25,0.001,0.013603065319004513,0.010975960283761932,14.722296098981586,0.0105084197708648,0.010228557201723257
354,0.25,0.001,0.013686535569528738,0.011038838726069247,14.837693259829567,0.010590787480249513,0.012305525235003896
355,0.25,0.001,0.013604952845545042,0.010976850493323234,14.727885704040528,0.01051240949610316,0.009681950271543529
356,0.25,0.001,0.013588457462333498,0.010919251108453387,14.958231980460031,0.01067682511096362,0.011205257485724159
357,0.25,0.001,0.013565084849085127,0.010917945736575695,14.834568127223424,0.010588556835991024,0.010953731110526456
358,0.25,0.001,0.013592085043589275,0.01093008346500851,14.917857079278855,0.010648006480570203,0.009601923844052685
359,0.25,0.001,0.013559089601039886,0.01091708942538216,14.805768243698846,0.010568000173946357,0.010524149104538891
360,0.25,0.001,0.01353329167124771,0.010888896165859132,14.819192139761789,0.010577581827096208,0.00975746987387538
361,0.25,0.001,0.013554756914575895,0.010875854078857671,15.012571574619837,0.010715611402298241,0.011994220730331209
362,0.25,0.001,0.013662309091360797,0.011047307683953216,14.654468056815011,0.01046000575076018,0.0129959042597976
363,0.25,0.001,0.013668953634443736,0.011006748394242354,14.918997608366467,0.010648820562716965,0.010604690346452925
364,0.25,0.001,0.013677653194892975,0.011021274157932826,14.88634791056315,0.010625515996119309,0.011690272328754267
365,0.25,0.001,0.013707251371372313,0.011053016733910357,14.874331118265788,0.01061693869969007,0.014138381307323774
366,0.25,0.001,0.013706657244336038,0.010990406986148584,15.221867174421037,0.010865001552049277,0.013260641342235936
367,0.25,0.001,0.013596925701768625,0.010981280745140144,14.658073812212264,0.010462579451971637,0.010776657507651381
368,0.25,0.001,0.013577586121502377,0.010941500924527645,14.772620804196313,0.01054434033133213,0.011978346337046888
369,0.25,0.001,0.013556885339674496,0.010932830128641356,14.705205379667737,0.010496220827742852,0.012351656953493753
370,0.25,0.001,0.013624937342745917,0.01104728505902347,14.445163526989164,0.010310609226972994,0.015311964166661104
371,0.25,0.001,0.013586260977955091,0.010891469387071473,15.101612507048108,0.010779166671697435,0.01121342678864797
372,0.25,0.001,0.013576664686912583,0.010962092544706094,14.652061996459961,0.010458288362926454,0.010623667854815722
373,0.25,0.001,0.013548293097742966,0.01094410506032762,14.593868379138765,0.010416751162839947,0.010974641475412581
374,0.25,0.001,0.013554792366921902,0.01090680532334816,14.839319563366118,0.010591948296478314,0.009399814893388085
375,0.25,0.001,0.013542631139003095,0.01095766550728253,14.486147855122883,0.01033986285162233,0.010187802836298943
376,0.25,0.001,0.013507737565253463,0.010867978967726231,14.793207313900902,0.010559034485296862,0.009914351834191216
377,0.25,0.001,0.013541777531305949,0.010932634767322313,14.621635627746581,0.01043657075499399,0.011759818014171388
378,0.25,0.001,0.01359469342622019,0.010966735255150567,14.727077656700498,0.010511832731406493,0.012536613270640373
379,0.25,0.001,0.013511719355980556,0.010890155113523915,14.691246632167271,0.010486257410540522,0.013097026074926058
380,0.25,0.001,0.013572072157902376,0.010961117228227003,14.631791908627465,0.010443820063260147,0.014300290495157242
381,0.25,0.001,0.013564022587878364,0.011014845491874786,14.285588518778484,0.010196708435958947,0.014637585936321152
382,0.25,0.001,0.013622724245346728,0.010956995171450433,14.938745878310431,0.01066291640136362,0.01203826628625393
383,0.25,0.001,0.013653292515802952,0.010968120000546887,15.047706941877093,0.010740690179783793,0.01251333879513873
384,0.25,0.001,0.013632629290223122,0.010961739488300823,14.967667316255115,0.010683559826020782,0.01161942837966813
385,0.25,0.001,0.013609133909145992,0.010937729050360974,14.97055235181536,0.0106856190948004,0.013475814420315955
386,0.25,0.001,0.01361151587395441,0.010993629035850366,14.670638554890951,0.01047154786216342,0.012017642975681357
387,0.25,0.001,0.013541454513158116,0.010845340055723985,15.109025606427874,0.01078445796318906,0.010116871808552079
388,0.25,0.001,0.013539541835586229,0.01087995646964936,14.904316720508394,0.01063834169914946,0.010310548254185252
389,0.25,0.001,0.013535635898865405,0.010907829991053967,14.726224561418805,0.010511223812575878,0.009891285405804714
390,0.25,0.001,0.013485169685667469,0.010875037245097615,14.62718321119036,0.010440530486217245,0.009028364335083298
391,0.25,0.001,0.013599311106261752,0.010943935905538854,14.880721689860026,0.010621500135517506,0.010728648398071527
392,0.25,0.001,0.013512911881719316,0.010877355104755787,14.76965936933245,0.01054222653057277,0.010208526315788427
393,0.25,0.001,0.013560098374173754,0.010945516141752402,14.652118855430967,0.010458328947488198,0.009661555393702455
394,0.25,0.001,0.01355725654711326,0.010927127267987955,14.739244521004814,0.010520517145613714,0.009595484214110507
395,0.25,0.001,0.01358400287727515,0.010952833733033566,14.745072261265346,0.010524676846013808,0.011296316049993038
396,0.25,0.001,0.013547359119568553,0.010960663869267417,14.495839623950777,0.010346780602391704,0.009917986372278796
397,0.25,0.001,0.01351665824651718,0.01082706493813367,15.072481229872931,0.010758373468860051,0.01046319543901417
398,0.25,0.001,0.013606520992304598,0.011015261981104101,14.521415098281134,0.010365035758944421,0.01239932162894143
399,0.25,0.001,0.013459078811463855,0.010795354660423029,14.927509994506837,0.010654896498577327,0.010771095080094205
400,0.25,0.001,0.013487341631026495,0.010899987167545727,14.499535340808686,0.010349418515923402,0.009606854420983128
401,0.25,0.001,0.013571774242889313,0.01090817952085109,14.926784867786226,0.01065437892061829,0.012396658822480176
402,0.25,0.001,0.013519606192906698,0.010792682699504353,15.281679409572057,0.010907694082492547,0.009807426378958754
403,0.25,0.001,0.013493889611037004,0.010833695271895045,14.90772947765532,0.010640777642866039,0.009903404499507613
404,0.25,0.001,0.013506410675389427,0.010862557018796603,14.816156405494327,0.01057541499321508,0.010728196654882696
405,0.25,0.001,0.013423758000135422,0.010747984534218198,14.995034457615443,0.010703093831274406,0.009559656338145336
406,0.25,0.001,0.013540092607339222,0.01095055589718478,14.51176336924235,0.010358146587610528,0.012341925201730596
407,0.25,0.001,0.01347434463245528,0.010845907248911404,14.729763307117281,0.010513749683881,0.010088965710666444
408,0.25,0.001,0.013465281425132638,0.010851235373743943,14.649113851274763,0.010456184048019103,0.011616512719127867
409,0.25,0.001,0.01350481895641202,0.010831954214899313,14.978734862917946,0.010691459573817235,0.01145133138116863
410,0.25,0.001,0.013543795741030148,0.010823983424121426,15.24182874407087,0.010879249638879993,0.013959529188772043
411,0.25,0.001,0.013616826761336553,0.010940106138586998,15.000342488970075,0.010706882575995771,0.017195083770073123
412,0.25,0.001,0.013506276729915823,0.010893954718041988,14.639453174046107,0.01044928848968316,0.01516526916788684
413,0.25,0.001,0.013553724705818154,0.010909200564381622,14.819913468133835,0.010578096693885678,0.012390149757266045
414,0.25,0.001,0.013508309391992433,0.010843237563967704,14.935063311258952,0.010660287873846505,0.011954774769643942
415,0.25,0.001,0.013546560883876823,0.010855488088868914,15.080771560668945,0.010764290906972836,0.012071441393345594
416,0.25,0.001,0.013583432922051067,0.010899662405607247,15.039850798107329,0.01073508265389531,0.012417732479257716
417,0.25,0.001,0.013486711952303138,0.010825879325469336,14.911305589221772,0.010643330185026247,0.010352043797158532
418,0.25,0.001,0.013553312442132405,0.010928338258748962,14.710354476202102,0.010499896128623913,0.010606550973736577
419,0.25,0.001,0.013538823070980253,0.010892304403796082,14.831090235028949,0.010586074400448928,0.010536477694080936
420,0.25,0.001,0.013498299015419823,0.010796871470908324,15.138800355820429,0.010805710460971042,0.011327668300105466
421,0.25,0.001,0.013471056070356141,0.010836149411542075,14.766016865684872,0.010539626599346803,0.010056846309453249
422,0.25,0.001,0.013462700109396661,0.01084959335447777,14.643851060413178,0.01045242759487022,0.008111246344115999
423,0.25,0.001,0.013480850614252544,0.010837104847388607,14.815551459902808,0.010574983197646545,0.011199268098506663
424,0.25,0.001,0.01342454534910974,0.010795843977303732,14.73124318259103,0.010514805983291242,0.011179494568043284
425,0.25,0.001,0.013555612207523413,0.010882599532072034,14.979563020978656,0.01069205069306114,0.017349207463363808
426,0.25,0.001,0.013429873536030451,0.010816260221458616,14.646689066205706,0.010454453294936264,0.011064526728457875
427,0.25,0.001,0.013410500999362696,0.010841306025783221,14.397768458411807,0.010276779770458107,0.008661996831910478
428,0.25,0.001,0.013415064306131432,0.010794997241880213,14.682855825878326,0.010480268255444914,0.010279367884827985
429,0.25,0.001,0.013505292593368462,0.010866064603130023,14.790232909066336,0.010556911426885323,0.010528790298849344
430,0.25,0.001,0.013439885090504373,0.010815421270117873,14.707495444161552,0.010497855420529301,0.011284287605020735
431,0.25,0.001,0.013534139423143295,0.01090166862344458,14.752366184052967,0.01052988307212917,0.011918542492720816
432,0.25,0.001,0.013451564475184394,0.010769495064658779,15.030317784263975,0.010728278218603837,0.010674000665959384
433,0.25,0.001,0.01344771943099442,0.010821942601885114,14.714853243146624,0.01050310723993335,0.012521048179931112
434,0.25,0.001,0.013392727171026525,0.010771532956333388,14.689172779264904,0.010484777144371809,0.013331533306174807
435,0.25,0.001,0.013394503639567465,0.010795110799372197,14.56699744088309,0.010397571335391214,0.009361539967358112
436,0.25,0.001,0.013474752447080044,0.010836859530813637,14.782751681009929,0.010551571506787958,0.010910979109919734
437,0.25,0.001,0.013469918591990357,0.010810775953744139,14.901835570562454,0.01063657071417734,0.010549686797377136
438,0.25,0.001,0.013417649767583325,0.010762493921709913,14.879494410923549,0.010620624133421519,0.009834186329195896
439,0.25,0.001,0.013599533550441266,0.010947791866603352,14.860360427129836,0.010606966757408876,0.012170432549383905
440,0.25,0.001,0.013468454870439711,0.010833329932675476,14.767241392589751,0.01054050063710903,0.010214797531565031
441,0.25,0.001,0.013466483106215794,0.010874655700865246,14.524601077125187,0.010367309833779577,0.009742859337064955
442,0.25,0.001,0.013400634241600831,0.010746071159484841,14.876172073000953,0.010618252728765848,0.012120487064950995
443,0.25,0.001,0.01340684016190824,0.010805987499299504,14.575179154532297,0.010403411245205066,0.009782266958306233
444,0.25,0.001,0.013420671676950796,0.01081425185891844,14.606376809619722,0.010425679378743556,0.011345275884701146
445,0.25,0.001,0.013432264028205758,0.010787960727299963,14.818675444466727,0.01057721302246019,0.011162500259362988
446,0.25,0.001,0.013474372710500445,0.01083349511204731,14.799478054954893,0.010563510388975655,0.010820488807641797
447,0.25,0.001,0.013445104406703086,0.010824365172357787,14.68662295568557,0.010482957141816966,0.009709145149423016
448,0.25,0.001,0.013503527620009014,0.010788156592420169,15.216939777192616,0.010861484494784166,0.012823649371663729
449,0.25,0.001,0.013484640293532893,0.010833794013375328,14.855343171982538,0.01060338556172915,0.010251841921773221
450,0.25,0.001,0.013478183458958353,0.010788261361774944,15.074322985694522,0.010759688069731993,0.008328587489409579
451,0.25,0.001,0.013403178911123957,0.010757615388858886,14.825738779703777,0.010582254660745022,0.010388414065043131
452,0.25,0.001,0.013400089811711084,0.010835592363561903,14.371444329761324,0.010257990242513436,0.011292481225811772
453,0.25,0.001,0.013480909654781933,0.010818733053193206,14.918837712605795,0.010648706432980581,0.010003509258644449
454,0.25,0.001,0.013464776458484786,0.010818323092091651,14.830725055876233,0.010585813744379894,0.009667311950276295
455,0.25,0.001,0.013463621643327532,0.010852464993617365,14.632923020862398,0.010444627423884653,0.012108241207897663
456,0.25,0.001,0.01346641717035146,0.010804802567831107,14.915688945225307,0.01064645891879037,0.012758620600733492
457,0.25,0.001,0.013470738597569011,0.010795095491976965,14.9943031056722,0.010702571809901642,0.009770003768304983
458,0.25,0.001,0.013470273537649995,0.01076695045367593,15.149422313145228,0.010813292157848129,0.011078500137146976
459,0.25,0.001,0.013384052067995072,0.010812800847703502,14.409292640686035,0.010285005453737355,0.010948016618688902
460,0.25,0.001,0.01341947554122834,0.010851884722000077,14.388780005318777,0.010270364029492347,0.010773734293050237
461,0.25,0.001,0.013418214251952512,0.01078355495418821,14.764631147838774,0.010538637507379567,0.009711100875089565
462,0.25,0.001,0.013429019802383015,0.01081716036690133,14.636860654921758,0.010447438012078343,0.013742280710074637
463,0.25,0.001,0.013485486713193712,0.010882365551023256,14.587891673133488,0.010412485134285145,0.011824414444466433
464,0.25,0.001,0.01349266326143628,0.010829827806779317,14.922529069809686,0.010651341234696422,0.015984772083659966
465,0.25,0.001,0.013468409070656414,0.010775053997834523,15.09356086004348,0.010773419600316546,0.012538881041109562
466,0.25,0.001,0.013511421946542604,0.01080555508179324,15.163678261893136,0.010823467710130718,0.012254868737525411
467,0.25,0.001,0.013524800792691253,0.010824081952727976,15.13482842036656,0.010802875389269493,0.013572870753705502
468,0.25,0.001,0.01354730557472933,0.010889430296208178,14.894733121962775,0.010631501157717898,0.01434043153292603
469,0.25,0.001,0.01344861385013376,0.010781998421464647,14.943712526957194,0.01066646147534418,0.012168663864334425
470,0.25,0.001,0.013392110273596786,0.010833742073958829,14.337096012660435,0.010233473242441424,0.010524392800612582
471,0.25,0.001,0.013447804896249657,0.01080570192918891,14.80634459904262,0.01056841156248581,0.014099459939946732
472,0.25,0.001,0.01351645547541834,0.010796007334831215,15.245391155424572,0.010881792402158866,0.014390448211795755
473,0.25,0.001,0.013510390387049744,0.010824750970516887,15.050323282877605,0.010742557660869097,0.01195181544042296
474,0.25,0.001,0.013428559801763012,0.010784094624576114,14.819582942780995,0.010577860772862952,0.010669026109907363
475,0.25,0.001,0.013422668881359555,0.010852125478642328,14.405325477236794,0.010282173788177583,0.012364842515024874
476,0.25,0.001,0.013491946355927558,0.010776331144429389,15.218308592296783,0.010862461521982,0.012476809012393156
477,0.25,0.001,0.013534678470875536,0.01082913465975296,15.161868126278831,0.010822175678999879,0.013324935506615374
478,0.25,0.001,0.013529315977579072,0.010852950715592929,14.998351716541109,0.010705461610664603,0.011783801226152314
479,0.25,0.001,0.013471731571924118,0.010835881481568018,14.77130478268578,0.010543400986927751,0.0110758140993615
480,0.25,0.001,0.013456543746093909,0.010785019019884722,14.971225017365954,0.010686099227241938,0.01083450112491846
481,0.25,0.001,0.013397338858672551,0.010792997419124558,14.594730137416295,0.01041736626510799,0.010420413066943487
482,0.25,0.001,0.01346863572618791,0.010838528770421232,14.739119088309153,0.010520427614781693,0.010929696675803926
483,0.25,0.001,0.013446444684550876,0.010811918314014162,14.76388591403053,0.010538105577466473,0.010424185130331252
484,0.25,0.001,0.013460802803082126,0.01086914438044741,14.523654022216796,0.010366633848834258,0.01137308662550317
485,0.25,0.001,0.013487717982913766,0.01072594163318475,15.47699430919829,0.011047105145751813,0.01131159465553032
486,0.25,0.001,0.013394524249292555,0.010815514895532813,14.452768382117862,0.010316037389091978,0.010772439961632093
487,0.25,0.001,0.013438881465366908,0.010792217139332068,14.831907047090077,0.010586657421192061,0.01146177730212609
488,0.25,0.001,0.013423603620557558,0.010765772467213018,14.894487066723052,0.010631325529424019,0.010680792646275626
489,0.25,0.001,0.013499485172686123,0.010876722967340833,14.69795888264974,0.010491048452997673,0.012190088940163454
490,0.25,0.001,0.013377364471199967,0.010676746767546449,15.134262602669851,0.010802471522248287,0.015347326381338967
491,0.25,0.001,0.013469544432702518,0.010936976454797246,14.192511037190755,0.010130271975154,0.015517862048000097
492,0.25,0.001,0.013478121280315376,0.010722684249991463,15.441469561258952,0.011021748437729444,0.011473809265428118
493,0.25,0.001,0.013370228714886166,0.010736294046399138,14.760569156465076,0.010535738155935101,0.011011220669994751
494,0.25,0.001,0.013491296594341597,0.010866614828507105,14.708716412498838,0.010498726918271833,0.01301898822809259
495,0.25,0.001,0.0133819385564753,0.010769483282097748,14.640199517749604,0.010449821211812708,0.01311996134204997
496,0.25,0.001,0.013392126890165465,0.010740975998342037,14.8570495060512,0.010604603501820985,0.009635963735895025
497,0.25,0.001,0.013416770808398724,0.010804045010535489,14.641715049743652,0.010450902961986903,0.010178615442580648
498,0.25,0.001,0.013337697833776474,0.010733692975980895,14.592844479878744,0.010416020328250352,0.011440021762003502
499,0.25,0.001,0.01339267060160637,0.010662679264233225,15.298871125720796,0.010919965114718627,0.010763556799954839
500,0.25,0.001,0.013444916880911305,0.010732114503071422,15.202545898074195,0.010851210491130761,0.009384794419424402
