epoch,beta,learning_rate,train_loss,train_reconstruction_loss,train_kl_unnormalized,train_kl_normalized,mean_unclipped_gradient_norm
1,0.0,0.001,0.09948723404495805,0.09948723404495805,1.1888075404696994,0.0008485421416628832,0.12550637125968933
2,0.02,0.001,0.09325867100262347,0.09288071040753965,26.47615126621576,0.01889803802013973,0.16419977694749832
3,0.04,0.001,0.08265471118099896,0.07925876046036497,118.94310298966772,0.08489871733737882,0.20906221121549606
4,0.06,0.001,0.07397791191383644,0.0617864643809972,284.6702236599392,0.2031907378015269,0.19877119362354279
5,0.08,0.001,0.06757244315964205,0.05003798895595986,307.07209156177663,0.21918065065080417,0.1592111811041832
6,0.1,0.001,0.06039874062493995,0.044130214110568715,227.92202702275029,0.16268524412758764,0.12890590354800224
7,0.12,0.001,0.05377874238255583,0.04219255573403688,135.26873562659748,0.09655156004753568,0.10106717422604561
8,0.14,0.001,0.04781309492242189,0.04054486627380053,72.73419731045946,0.05191591528226942,0.07473712600767612
9,0.16,0.001,0.04601003289406682,0.04142813959423407,40.120195223961346,0.028636827426096606,0.16474232077598572
10,0.18,0.001,0.042631242240284695,0.038150410961221765,34.87579736591857,0.02489350275939941,0.09676482900977135
11,0.2,0.001,0.04020827254395426,0.03461698185146591,39.167001182650345,0.027956460515810383,0.062207311391830444
12,0.22,0.001,0.03781061449352606,0.032345355982765736,34.80376062275451,0.02484208467006032,0.06254286132752895
13,0.24,0.001,0.03603613767542957,0.031686278703955954,25.392304055484725,0.018124414029610795,0.07143498584628105
14,0.25,0.001,0.03563927987843384,0.031873274870492796,21.104689774689852,0.015064018397351785,0.06474727671593428
15,0.25,0.001,0.03450031114029296,0.030523881983057954,22.2839097858947,0.01590571719193055,0.1021859422326088
16,0.25,0.001,0.0340768940700793,0.030858273537438592,18.0371551749147,0.012874486206220344,0.04413684457540512
17,0.25,0.001,0.03364324574301272,0.031063436289076454,14.457246156386388,0.01031923351633575,0.055557768791913986
18,0.25,0.001,0.03322675529821419,0.030769397769077323,13.771025068965958,0.009829425459647365,0.022078278940171003
19,0.25,0.001,0.032787108034999284,0.03038604999030078,13.455520512145242,0.00960422591873322,0.09241717681288719
20,0.25,0.001,0.03253957208383967,0.030522737951006417,11.302331700737094,0.008067331692174943,0.09476901218295097
21,0.25,0.001,0.0320852064056161,0.029971999012761645,11.842411759458942,0.00845282780832187,0.050790540874004364
22,0.25,0.001,0.031561846258463686,0.02926376151541869,12.87846686516279,0.009192338947296782,0.07785674557089806
23,0.25,0.001,0.031183171373458555,0.02868323763947428,14.009627436414178,0.00999973407310077,0.09380074590444565
24,0.25,0.001,0.03133342249525918,0.02895802661868525,13.311712253240891,0.009501579052991357,0.07155760005116463
25,0.25,0.001,0.030721983561913174,0.02814354623357455,14.449567653514721,0.010313752786234634,0.0703653721138835
26,0.0,0.001,0.027337848887215428,0.027337848887215428,14.907534104806405,0.010640638190439975,0.036538850516080856
27,0.02,0.001,0.026617703223486007,0.02638218673750942,16.497962151044682,0.011775847359774933,0.042970797047019005
28,0.04,0.001,0.026243242791589395,0.02565987757694574,20.432355998474875,0.014584122768361796,0.05105376150459051
29,0.06,0.001,0.02598066777450803,0.024942480809526678,24.241678143724982,0.01730312501336544,0.061779371462762356
30,0.08,0.001,0.025389884817011564,0.02371061381734448,29.408239152696396,0.0209908916150581,0.01976030133664608
31,0.1,0.001,0.025341880404286914,0.02285431785348021,34.85074596640504,0.02487562167480731,0.03165965713560581
32,0.12,0.001,0.025361945967615387,0.022159922316118522,37.38362013263467,0.02668352614749084,0.032304706051945686
33,0.14,0.001,0.025490561017283687,0.021813761166952276,36.79426056661723,0.026262855507935213,0.0437110485509038
34,0.16,0.001,0.02541233143872685,0.021318494859668944,35.84665788250205,0.02558647957352038,0.06654663197696209
35,0.18,0.001,0.025210004552830883,0.02074133719743034,34.78112274923442,0.024825926302094518,0.09632405638694763
36,0.2,0.001,0.024759724713218065,0.020708338851913994,28.379959059350284,0.02025693009232711,0.06642444618046284
37,0.22,0.001,0.024940847430700137,0.02112574376349832,24.295273745501483,0.01734138026088614,0.08545107580721378
38,0.24,0.001,0.024206323112234657,0.020492130821501767,21.6815993697555,0.015475802548005353,0.026231321040540934
39,0.25,0.001,0.023942263474986878,0.020525167523710815,19.14940337192865,0.013668382135566488,0.0607876256108284
40,0.25,0.001,0.024043352768560986,0.020790016554571963,18.231698471822856,0.013013346518074844,0.08187785372138023
41,0.25,0.001,0.02328491703043749,0.019800738741954167,19.525334299346547,0.01393671256198897,0.055307505652308464
42,0.25,0.001,0.022651993428115493,0.018952868740867684,20.72989456741898,0.014796498620570293,0.0504920594394207
43,0.25,0.001,0.023029909388702592,0.019342542775435213,20.663999722327716,0.014749464469898442,0.04768113000318408
44,0.25,0.001,0.022370406162039735,0.018436731080766076,22.04431755160108,0.015734702035404054,0.0476002711802721
45,0.25,0.001,0.0221726723521212,0.018154661067658,22.516940081561053,0.01607204859497577,0.01952001405879855
46,0.25,0.001,0.021768044979300027,0.017836089487429017,22.03468303915895,0.01572782515286149,0.024456840008497238
47,0.25,0.001,0.02115570859592638,0.017315441006679595,21.52085918850369,0.015361070084585074,0.03539091069251299
48,0.25,0.001,0.02079173085498221,0.017115820843128512,20.599799309247807,0.014703639763917064,0.03665185160934925
49,0.25,0.001,0.02087570579699528,0.017221501511004236,20.478159727873624,0.014616816365363043,0.06118165049701929
50,0.25,0.001,0.020570754981887193,0.01696762736932731,20.191929405118213,0.014412512066465533,0.04832805320620537
51,0.0,0.001,0.016672375899406126,0.016672375899406126,20.537788956253618,0.014659378269988307,0.040319591760635376
52,0.02,0.001,0.016487784246787613,0.0161565919349223,23.200046727686754,0.01655963363860582,0.043562026694417
53,0.04,0.001,0.016471752391001324,0.015716265427109636,26.460910514548974,0.01888715953929263,0.016068296041339636
54,0.06,0.001,0.016645458940830495,0.015331868967616263,30.67232292081103,0.021893164111927932,0.0757061280310154
55,0.08,0.001,0.01700935048269637,0.014892903524508446,37.06427948563187,0.0264555884979528,0.07369626872241497
56,0.1,0.001,0.017305611966200816,0.014394132638879028,40.78983321013274,0.029114798865191107,0.0573730431497097
57,0.12,0.001,0.01776700563452862,0.014239236631971082,41.186703340506845,0.02939807518951238,0.042437221854925156
58,0.14,0.001,0.01803947794308633,0.01401593892570631,40.264130250907236,0.028739564775808163,0.06208844110369682
59,0.16,0.001,0.01838034763932228,0.014014750431625195,38.22625817192925,0.027284980850770343,0.07833122834563255
60,0.18,0.001,0.01851435934687838,0.014268673002076002,33.04558699808003,0.023587142753804448,0.0791721511632204
61,0.2,0.001,0.01875425194516594,0.014474991800976389,29.976212089444385,0.021396296994606986,0.05201104935258627
62,0.22,0.001,0.01890160713666751,0.014543693110254812,27.75199485119478,0.019808704390574434,0.06323775835335255
63,0.24,0.001,0.018837894876430065,0.014738243464150546,23.931718284701123,0.017081883143969395,0.046460273675620556
64,0.25,0.001,0.018999446781329168,0.015063343546640726,22.05792483577022,0.015744414586559757,0.09940972179174423
65,0.25,0.001,0.01897336669082259,0.014832317323228459,23.206441267037096,0.01656419790652184,0.08697617426514626
66,0.25,0.001,0.018245493326290153,0.014203620637640541,22.65065544034228,0.016167491392107266,0.05819009058177471
67,0.25,0.001,0.018558937044423303,0.014860395376605016,20.72662596055019,0.014794165567844533,0.09391706064343452
68,0.25,0.001,0.018392614422389018,0.014645155841185723,21.000755898746444,0.01498983290417305,0.04631915409117937
69,0.25,0.001,0.018638494642980306,0.014623400467781373,22.500590595198265,0.01606037872605158,0.06961658969521523
70,0.25,0.001,0.018120226415771025,0.014041598805766782,22.85663077272015,0.016314511615075054,0.09106067195534706
71,0.25,0.001,0.018712709853310645,0.01494634289432455,21.106717898521893,0.015065466023213342,0.16244708001613617
72,0.25,0.001,0.017896333594381073,0.01392881689524209,22.2339629891478,0.015870066373410277,0.07301287353038788
73,0.25,0.001,0.01780608176817129,0.013654656880707652,23.264587543628835,0.016605701315937783,0.10490819811820984
74,0.25,0.001,0.017349090611125217,0.013570578791844992,21.174778549759477,0.015114046074061012,0.0632173577323556
75,0.25,0.001,0.017087096072457456,0.013458157832055916,20.336573683185343,0.014515755662516304,0.06288639456033707
76,0.0,0.001,0.012976150281359384,0.012976150281359384,21.55120046639148,0.015382726956739102,0.05799436382949352
77,0.02,0.001,0.013138325677977668,0.012801469223182878,23.596797896020206,0.016842825050692508,0.045306481420993805
78,0.04,0.001,0.013063259411281274,0.012334301124936269,25.531760156890492,0.018223954430328686,0.02168964594602585
79,0.06,0.001,0.013587983129661025,0.012358777179026309,28.701963730800298,0.020486769258244324,0.08096275851130486
80,0.08,0.001,0.013490927290677288,0.011558894136989559,33.83473120795356,0.024150414852215245,0.051187905482947826
81,0.1,0.001,0.014297300857710249,0.011662754184210006,36.90999363086842,0.026345462977065255,0.07112107425928116
82,0.12,0.001,0.01441788936700718,0.011257001589753745,36.90336486439646,0.0263407315234807,0.050156667828559875
83,0.14,0.001,0.015006597878204452,0.011311213635368111,36.98023449933088,0.026395599214368935,0.0526833338662982
84,0.16,0.001,0.015303135884028894,0.011015773612867904,37.5412153079186,0.02679601378152648,0.10287504643201828
85,0.18,0.001,0.015597424941298402,0.011201295438280075,34.21654100771303,0.02442294147588368,0.07750851474702358
86,0.2,0.001,0.016050849937730365,0.011733219234479798,30.244999520572616,0.021588150978281668,0.10762104764580727
87,0.22,0.001,0.01652035064259429,0.011843209246886366,29.784885171019,0.021259732456116346,0.1041550263762474
88,0.24,0.001,0.016631427738401625,0.01186730379215729,27.810574684614018,0.019850517262394018,0.08137141168117523
89,0.25,0.001,0.016463197008879098,0.012222774257814442,23.763327210037797,0.01696168965741456,0.09396401047706604
90,0.25,0.001,0.016167387550259815,0.012327875884502758,21.516618799280238,0.015358043397059413,0.09146369993686676
91,0.25,0.001,0.01605456118920335,0.012202948182361362,21.58443636953095,0.015406449942563133,0.09211953543126583
92,0.25,0.001,0.01579627383178399,0.012077316400353555,20.841035842895508,0.014875828581652754,0.03636469040066004
93,0.25,0.001,0.01609308272600174,0.012612370739656466,19.505911462100936,0.013922849009351132,0.1021373625844717
94,0.25,0.001,0.01574122983916306,0.012106960915304997,20.366443869508345,0.014537076280876762,0.04367959499359131
95,0.25,0.001,0.015766647529362895,0.011903314552281373,21.650120982417352,0.015453334034559138,0.059302793815732
96,0.25,0.001,0.015663162862629067,0.01185694421974965,21.330047230661652,0.015224873112535084,0.04799870867282152
97,0.25,0.001,0.015412509165428303,0.011848327887738928,19.973669946929554,0.014256723730856213,0.07577738910913467
98,0.25,0.001,0.015460226546835017,0.011987467054967527,19.4613451310146,0.013891038637412277,0.04795030131936073
99,0.25,0.001,0.015556595874605355,0.011951868399333807,20.20089234246148,0.014418909594904696,0.05715900659561157
100,0.25,0.001,0.01546275739868482,0.011725945053277191,20.94109575248059,0.014947248931106773,0.09738453850150108
101,0.25,0.001,0.015223925105399556,0.011529224096900888,20.70510317955488,0.014778803126020612,0.07699535321444273
102,0.25,0.001,0.015498645730132673,0.011746931200226149,21.024610919716917,0.015006860042624495,0.05876745842397213
103,0.25,0.001,0.01517613275827449,0.011372356710058672,21.316362851931725,0.015215105533141845,0.03181960713118315
104,0.25,0.001,0.015060397048975214,0.011303416694755907,21.054116166668173,0.01502792017606579,0.04506863048300147
105,0.25,0.001,0.015353781102156197,0.011799555800763178,19.917876066984952,0.014216899405413956,0.03802615590393543
106,0.25,0.001,0.015213459615170219,0.011756596005993126,19.37226246021412,0.013827453576169964,0.06858763843774796
107,0.25,0.001,0.014789298567690966,0.011190194981517616,20.169374301109784,0.014396412777380288,0.05184387229382992
108,0.25,0.001,0.015031310235276634,0.01135179287765497,20.62001277782299,0.014718067650123475,0.09931698441505432
109,0.25,0.001,0.015227725660359417,0.011749800674065395,19.4902916190065,0.013911699942188792,0.043011960573494434
110,0.25,0.001,0.014718259788221784,0.011378999696009688,18.713212919823917,0.013357039914221212,0.0804179236292839
111,0.25,0.001,0.01484270373152362,0.011424522364029178,19.155485859623663,0.013672723668539374,0.03755408711731434
112,0.25,0.001,0.015113141341709796,0.011477580179034927,20.373684800701376,0.014542244682870362,0.06377597153186798
113,0.25,0.001,0.015111676474780213,0.011402695163808487,20.785129099716375,0.014835923697156585,0.06419402454048395
114,0.25,0.001,0.014682299652953206,0.011082825722333826,20.171452392766504,0.014397896069069596,0.0598515635356307
115,0.25,0.001,0.014482345317064979,0.010942327893442579,19.83825909649884,0.014160070732690109,0.0515545979142189
116,0.25,0.001,0.015172049449181851,0.011602339208310034,20.004655178682302,0.014278840241743257,0.024777906946837902
117,0.25,0.001,0.015024734155079465,0.011401179901979587,20.306397002420308,0.014494216275817493,0.07073100283741951
118,0.25,0.001,0.014935744765364094,0.011467877660452583,19.433927959865994,0.01387146892210278,0.05947815999388695
119,0.25,0.001,0.015017283907919019,0.011637608336721674,18.939703128955983,0.01351870316128193,0.07137726061046124
120,0.25,0.001,0.014971278423880354,0.011384691583153642,20.09923334474917,0.01434634785492446,0.04634448233991861
121,0.25,0.001,0.014890079225562973,0.011095562512859886,21.264471101172177,0.015178066453370576,0.06437992490828037
122,0.25,0.001,0.014546155561635524,0.01080967369776817,20.939244282098464,0.014945927396215891,0.02321224007755518
123,0.25,0.001,0.014890559040653853,0.011320856514812253,20.00461232220685,0.014278809651825018,0.08564618602395058
124,0.25,0.001,0.01463532010898178,0.01106392174821209,20.01411861843533,0.014285595016727572,0.038270531222224236
125,0.25,0.001,0.015106689069926002,0.01145129687624213,20.484817928738064,0.014621568828506827,0.06425159610807896
126,0.25,0.001,0.014300163881278333,0.010651413960681285,20.447595690503533,0.014595000492864763,0.029365594498813152
127,0.25,0.001,0.014525032866700196,0.010938944260555285,20.096441009898246,0.014344354753674694,0.028064901940524578
128,0.25,0.001,0.014484915974331491,0.01090224555199161,20.077286355289413,0.014330682623332914,0.04417682625353336
129,0.25,0.001,0.014540753591759705,0.010960308214028677,20.06481561543029,0.01432178131008586,0.059516094624996185
130,0.25,0.001,0.014331295407940576,0.010730810566908784,20.177117076920876,0.014401939383954943,0.049215665087103844
131,0.25,0.001,0.014259416495024421,0.010745913779110085,19.689669338273415,0.014054010948089519,0.02350557828322053
132,0.25,0.001,0.01425977214526983,0.010892323436744419,18.871183183458115,0.01346979527727203,0.056705351918935776
133,0.25,0.001,0.01420542121761375,0.010833255084300483,18.897620071599512,0.013488665290220922,0.01801047148182988
134,0.25,0.001,0.013939037436136493,0.010488114170270202,19.33897402257095,0.01380369309248462,0.011906584724783897
135,0.25,0.001,0.013993646443626027,0.010528673923769851,19.417704405608,0.013859888940476801,0.03350367397069931
136,0.25,0.001,0.01374293100318791,0.010377320495468599,18.86088060449671,0.013462441544965531,0.04574444983154535
137,0.25,0.001,0.013893588009163921,0.010591345241316307,18.50576897609381,0.013208971431901365,0.021450383123010397
138,0.25,0.001,0.01406231405282462,0.01072432750399098,18.706078635321724,0.013351947634062614,0.02157407719641924
139,0.25,0.001,0.014074010613523884,0.010634581949331878,19.27455732557509,0.013757714008262019,0.020130924880504608
140,0.25,0.001,0.013799651445430001,0.010156401099614154,20.41677303078734,0.014573000021975261,0.040086954832077026
141,0.25,0.001,0.014117533662988816,0.010465512466099527,20.465928937182014,0.014608086322042836,0.0365279596298933
142,0.25,0.001,0.014308026669845904,0.010891785983134198,19.144611052524898,0.013664961493593789,0.03573828563094139
143,0.25,0.001,0.013493774872687127,0.010264884059627851,18.094703839149005,0.012915563054353324,0.023593147518113256
144,0.25,0.001,0.01427641800708241,0.011164979376818663,17.43650476432141,0.012445756434205146,0.049166299402713776
145,0.25,0.001,0.01390705681923363,0.010727789988856257,17.816612432032457,0.012717068117082411,0.04685338772833347
146,0.25,0.001,0.01383691913459772,0.01054038817959803,18.473758815247336,0.013186123351354273,0.03323150984942913
147,0.25,0.001,0.013931975975908615,0.010592745720512338,18.71304582666468,0.013356920647155374,0.05107276327908039
148,0.25,0.001,0.014064215307618365,0.010739271827961928,18.6329828898112,0.013299773654397716,0.06052868068218231
149,0.25,0.001,0.014168092486575062,0.010759060087119356,19.10421849474495,0.013636130260346144,0.059809111058712006
150,0.25,0.001,0.013593567707748324,0.010044201530148218,19.890647370138286,0.014197464218514123,0.06429510749876499
151,0.25,0.001,0.013807974847746485,0.01026662647218248,19.84571664127303,0.014165393748231997,0.05651160702109337
152,0.25,0.001,0.01395273369587498,0.010557763094519392,19.02541466701178,0.013579881989301771,0.04237641301006079
153,0.25,0.001,0.013452992648070242,0.010134375240239833,18.597530270800178,0.013274468430264225,0.020108078606426716
154,0.25,0.001,0.013828132198088698,0.010518177573419647,18.548985022085684,0.013239818002916263,0.01870962604880333
155,0.25,0.001,0.013381041298953839,0.010014729689300797,18.86480931882505,0.013465245766470414,0.03360259346663952
156,0.25,0.001,0.013234132118983033,0.00986922021817278,18.856965241608798,0.013459646853396715,0.03364694397896528
157,0.25,0.001,0.013613623061021905,0.010290661815231965,18.621874232351043,0.013291844562705955,0.022723778150975704
158,0.25,0.001,0.013363280896971256,0.010060948193257238,18.506270632331756,0.01320932950202124,0.030840132385492325
159,0.25,0.001,0.013439694867917785,0.010109809986143201,18.660673047289436,0.013319538220763337,0.021712896414101124
160,0.25,0.001,0.013638122237206977,0.010308399934459615,18.659764937412593,0.013318890033841966,0.032105911523103714
161,0.25,0.001,0.01349243566531826,0.010111674850369677,18.94578542827088,0.013523044559793633,0.06873990409076214
162,0.25,0.001,0.013333364539308312,0.009965720080575089,18.872278025120863,0.013470576748837162,0.035499878227710724
163,0.25,0.001,0.013723021787073877,0.01041014630485464,18.56535362902983,0.013251501519650127,0.03878230322152376
164,0.25,0.001,0.013503021917041436,0.010204293811118897,18.48607145709756,0.013194911818056787,0.051702214404940605
165,0.25,0.001,0.013369191047034146,0.010047382146212053,18.615415102169838,0.01328723419141316,0.03491419414058328
166,0.25,0.001,0.013364312974851073,0.010048155994786893,18.58374289524408,0.013264627334221327,0.05707086808979511
167,0.25,0.001,0.013390821703698165,0.010150175691110852,18.160579893324112,0.012962583792522563,0.037041510455310345
168,0.25,0.001,0.013718146911281863,0.010473764719970432,18.18151867242507,0.012977529387883706,0.07652255520224571
169,0.25,0.001,0.01303524310114207,0.009620534256100655,19.136026900491597,0.013658834332970448,0.03340174863114953
170,0.25,0.001,0.013644471396634609,0.01011474317882532,19.780597569030007,0.014118913325503217,0.06372345425188541
171,0.25,0.001,0.013340226719500843,0.009892221275763011,19.32262142793632,0.013792021004950977,0.04223090410232544
172,0.25,0.001,0.013243496417999268,0.009887134529834177,18.809052290739835,0.013425447744996313,0.06421644240617752
173,0.25,0.001,0.013170064668412562,0.009873211464304248,18.475565639542946,0.013187413018945715,0.033731368370354176
174,0.25,0.001,0.013358893873239006,0.01010167396362917,18.253459059161905,0.013028878700329696,0.03648511413484812
175,0.25,0.001,0.013060319386882546,0.009837633286269359,18.059934451256268,0.012890745504108686,0.061597125604748726
176,0.25,0.001,0.012752218413408156,0.00961145186037929,17.60085506203734,0.012563065711661199,0.03683974640443921
177,0.25,0.001,0.013319010650854052,0.01021337019348586,17.404011290750386,0.012422563376695494,0.060472216457128525
178,0.25,0.001,0.013082187772257092,0.00991172392933089,17.767279754450293,0.01268185564200592,0.016759973019361496
179,0.25,0.001,0.012901392627369475,0.009721486208339533,17.820195657235605,0.012719625736784871,0.022043779492378235
180,0.25,0.001,0.012936002988782194,0.009801987006708427,17.56302786462101,0.012536065570750186,0.043709296733140945
181,0.25,0.001,0.013543534816967117,0.010484923206177759,17.14046103866012,0.012234447565067894,0.03801577910780907
182,0.25,0.001,0.012971264850578191,0.00982787378454282,17.61556425212342,0.012573564776676245,0.017977754585444927
183,0.25,0.001,0.012912009888685044,0.009642077736372564,18.324698907357675,0.013079727985266007,0.0225557629019022
184,0.25,0.001,0.013011388227711489,0.009626512036279396,18.968845697096835,0.013539504423338213,0.00933013390749693
185,0.25,0.001,0.012729327573820396,0.009243636415052561,19.53381305270725,0.013942764491582618,0.03034231625497341
186,0.25,0.001,0.013203861214864401,0.009715929742396615,19.54636722140842,0.013951725354324354,0.039207155816257
187,0.25,0.001,0.012789089612110897,0.009273603236601676,19.70078468322754,0.014061944813153133,0.02494954504072666
188,0.25,0.001,0.012993402227207466,0.009508017427575441,19.532098840784144,0.01394154092846834,0.020484742242842913
189,0.25,0.001,0.012830412705187444,0.009425548422667716,19.080861786265434,0.013619458805328647,0.021661012899130583
190,0.25,0.001,0.013102610744995835,0.009775251633039227,18.646518565990306,0.01330943509349772,0.030414580833166838
191,0.25,0.001,0.012884494354143555,0.009576593951126675,18.53747464403694,0.01323160217276013,0.02366375084966421
192,0.25,0.001,0.01278332413898574,0.009510414364437262,18.341386488926265,0.013091639178391339,0.05910349637269974
193,0.25,0.001,0.012623582759665119,0.009422438196194025,17.93921496544355,0.01280457884756856,0.035190227907150984
194,0.25,0.001,0.01284007725800261,0.009645365339554386,17.90316602918837,0.012778847986572712,0.05147447809576988
195,0.25,0.001,0.012428867366210914,0.009171487855506533,18.254353817598318,0.013029517357315001,0.012703568208962679
196,0.25,0.001,0.012976946976081824,0.00968878567908649,18.426855864348234,0.013152645156565477,0.02932817954570055
197,0.25,0.001,0.01269273155219393,0.00941800891801163,18.3515458283601,0.0130988906697788,0.037625339813530445
198,0.25,0.001,0.012140103224894883,0.008982502694391175,17.695194950810187,0.01263040324825852,0.01367065031081438
199,0.25,0.001,0.012692564914439932,0.0096507174089367,17.046512674402308,0.012167389489223631,0.02251086663454771
200,0.25,0.001,0.012505353600890548,0.00951974880364206,16.731327881047754,0.011942418187757141,0.027767525985836983
201,0.25,0.001,0.012369121850272755,0.009375318217976594,16.77727734601056,0.011975215807288052,0.021293748170137405
202,0.25,0.001,0.012476036244612417,0.009438559470445286,17.02202017513322,0.0121499073341422,0.028390773572027683
203,0.25,0.001,0.012571468282444978,0.009507653901330482,17.169615545390563,0.012255257348601402,0.02910531871020794
204,0.25,0.001,0.012303217291188093,0.009175043978532891,17.53028231491277,0.012512692587375283,0.021749582141637802
205,0.25,0.001,0.012306216299349878,0.009110770820651525,17.907277519320264,0.01278178266903659,0.03879403509199619
206,0.25,0.001,0.012422562806786578,0.009206292966817632,18.02397793899348,0.012865080613128821,0.014354601502418518
207,0.25,0.001,0.012236291427671173,0.009008965592969346,18.085931966334215,0.012909301903165036,0.02465004939585924
208,0.25,0.001,0.012513949731249868,0.009285569076000907,18.09184686637219,0.012913523816111485,0.05286997091025114
209,0.25,0.001,0.012283770367503166,0.009061215146456235,18.059199651082356,0.012890221021472059,0.01653984095901251
210,0.25,0.001,0.01233731081456314,0.009153657512348375,17.841191362451625,0.012734611964633566,0.053748998790979385
211,0.25,0.001,0.012149711587914714,0.008969721349853056,17.820664982736847,0.012719960730004887,0.013534378726035357
212,0.25,0.001,0.012378339230278392,0.009223270069025917,17.681008727462203,0.012620277464284228,0.030908940359950066
213,0.25,0.001,0.012569591552479031,0.009447433031451555,17.4965754614936,0.012488633448603568,0.03808204643428326
214,0.25,0.001,0.012389171937549556,0.009285086668153971,17.39529416590561,0.012416341303287374,0.017386499792337418
215,0.25,0.001,0.012406921048683149,0.00932306616946503,17.281921575098863,0.012335418683154077,0.05865298956632614
216,0.25,0.001,0.012545636268677536,0.009423684006855811,17.495423210991753,0.012487810999994114,0.016921245958656073
217,0.25,0.001,0.012175231436152517,0.008969042277722447,17.967482272489573,0.012824755369371572,0.0699191652238369
218,0.25,0.001,0.011828334944575657,0.008646308950343986,17.832074859995902,0.012728104825121987,0.01383937569335103
219,0.25,0.001,0.012534941834064178,0.009406148180089615,17.53376028272841,0.012515175076893939,0.05700727738440037
220,0.25,0.001,0.012133190385353418,0.008984784285227457,17.643670564816322,0.012593626384594091,0.0479648569598794
221,0.25,0.001,0.012263272785478167,0.009188699731488286,17.22990737726659,0.012298292203616409,0.031197133474051952
222,0.25,0.001,0.012407951401891533,0.0094082496692369,16.8103284953553,0.011998806920310707,0.038032189942896366
223,0.25,0.001,0.01209556210188218,0.009053023267583346,17.05038791232639,0.012170155540561306,0.05161700025200844
224,0.25,0.001,0.012052803702744436,0.008882053748325066,17.76888531814387,0.012683001654635167,0.05371595919132233
225,0.25,0.001,0.011905614321154577,0.008671352570807492,18.12480107060185,0.012937045732049858,0.03263295441865921
226,0.25,0.001,0.011945088704427084,0.008792257729779792,17.66846440162188,0.0126113236271391,0.043588762171566486
227,0.25,0.001,0.01189892920722932,0.008817852457502374,17.266355208408687,0.012324307786158948,0.02029356500133872
228,0.25,0.001,0.011784959860421993,0.008788490403489566,16.792215629860205,0.011985878393904501,0.02353573776781559
229,0.25,0.001,0.011992390118079422,0.009031039283231453,16.595413125591513,0.011845405514340837,0.024982466362416744
230,0.25,0.001,0.011969564689530266,0.008998519729500935,16.649733460979697,0.011884178059228905,0.018692989833652973
231,0.25,0.001,0.012172488254253511,0.00915670601858033,16.900444077856747,0.01206312924900553,0.012935794424265623
232,0.25,0.001,0.012170759386118547,0.009059565205035019,17.43513156749584,0.012444776279440286,0.03197656897827983
233,0.25,0.001,0.0121876544514556,0.009013866154867926,17.785910853633172,0.012695154071115754,0.016197660472244024
234,0.25,0.001,0.012360408304282177,0.00921805150071044,17.609766877727743,0.012569426750697889,0.024034075438976288
235,0.25,0.001,0.01210398323557995,0.009050720106856322,17.110488561936368,0.012213053934287201,0.023723362013697624
236,0.25,0.001,0.012091589815638683,0.009045457386952123,17.070528807463468,0.012184531625598478,0.02286264207214117
237,0.25,0.001,0.012257647781092444,0.009142301160336277,17.458403010427215,0.012461386873966605,0.037999773398041725
238,0.25,0.001,0.011979869785316196,0.00878737811114133,17.890721521259827,0.012769965397044844,0.02729438804090023
239,0.25,0.001,0.012207907325599664,0.00898417725837157,18.06578160509651,0.012894919061453613,0.05472318548709154
240,0.25,0.001,0.011666312319353039,0.008460882591244615,17.963229002775968,0.012821719488062789,0.041608802042901516
241,0.25,0.001,0.011647807940104862,0.0084828191931233,17.736598827220774,0.01265995633634602,0.03343905974179506
242,0.25,0.001,0.012500951193089102,0.009425233900087116,17.236320589795525,0.012302869799996806,0.04437008686363697
243,0.25,0.001,0.011897812873401024,0.008908027909512136,16.75475659782504,0.011959141040560343,0.027020256035029888
244,0.25,0.001,0.012170381947524019,0.009220429224732481,16.531534689444083,0.01179981062772597,0.05088161677122116
245,0.25,0.001,0.012081358386318625,0.00911021983411945,16.65025892375428,0.011884553121880284,0.04211026057600975
246,0.25,0.001,0.011592169579716377,0.00857403655938896,16.9136168162028,0.012072531631836404,0.04239040892571211
247,0.25,0.001,0.011806044129677761,0.008750546666115154,17.123009081240053,0.012221990778900823,0.05874842405319214
248,0.25,0.001,0.011845387932327058,0.008800020498901974,17.06623755560981,0.012181468633554468,0.04255009442567825
249,0.25,0.001,0.01194525960786843,0.008928102901044451,16.90814698772666,0.012068627400233163,0.061683289706707
250,0.25,0.001,0.01186701431180592,0.00886653351057091,16.814694086710613,0.012001922974097511,0.01562748057767749
251,0.25,0.001,0.012066898304095238,0.009011682030963308,17.121432504536195,0.012220865456485507,0.06722645089030266
252,0.25,0.001,0.012018295326902543,0.009012147565774712,16.84645167692208,0.012024590775818758,0.03565867058932781
253,0.25,0.001,0.011781615492554359,0.008799437169031596,16.71212673187256,0.011928712870715601,0.028191222809255123
254,0.25,0.001,0.011774578856097328,0.008785789407053848,16.74917659053096,0.01195515816597499,0.04316672310233116
255,0.25,0.001,0.012077131630553876,0.009072508892895263,16.83790663730951,0.012018491532697722,0.024820495396852493
256,0.25,0.001,0.011838593612206572,0.008750465388099352,17.30586925553687,0.012352511959697979,0.03479441348463297
257,0.25,0.001,0.011810474396671778,0.008700767974656673,17.426792521535614,0.012438824069618567,0.016080981586128473
258,0.25,0.001,0.011489489771149776,0.008424060833122995,17.178663300879208,0.012261715418186443,0.0276110814884305
259,0.25,0.001,0.01166591381677139,0.008667549486329525,16.802833180368683,0.011993456945302414,0.035049283877015114
260,0.25,0.001,0.011577276409500174,0.008630324316061573,16.514718444259078,0.01178780759761533,0.02294075395911932
261,0.25,0.001,0.011579133846141674,0.008638611615256028,16.478686615272803,0.011762088947375305,0.0264097866602242
262,0.25,0.001,0.011739026157208432,0.008728499863480713,16.87098976417824,0.012042105470505524,0.014267728198319674
263,0.25,0.001,0.011703534856622603,0.008583056234559159,17.487161495067454,0.012481913986486405,0.032191491685807705
264,0.25,0.001,0.011556821507344276,0.008372775221496452,17.84339299614047,0.012736183437644875,0.04229431785643101
265,0.25,0.001,0.01136448417134859,0.008132825548082222,18.11021665879238,0.0129266357307583,0.03063646238297224
266,0.25,0.001,0.011642057770564233,0.008403389001794067,18.149501470871915,0.012954676281850047,0.0455704415217042
267,0.25,0.001,0.01144661827955717,0.008276942324031282,17.762864407197927,0.012678704073660192,0.02908830437809229
268,0.25,0.001,0.011566261381462769,0.008537777314353505,16.971621948995708,0.012113934296213925,0.013493124395608902
269,0.25,0.001,0.01155114675193657,0.00864586378965113,16.281206178076474,0.01162113217564345,0.027617277577519417
270,0.25,0.001,0.01135877533643334,0.008545151704715358,15.767546795032642,0.011254494500380187,0.02187230810523033
271,0.25,0.001,0.011365513121824206,0.0085345114937719,15.864932978594744,0.011324006408704314,0.01521463692188263
272,0.25,0.001,0.011104197908238864,0.008186914670614548,16.34845502876941,0.011669132782847546,0.031155076809227467
273,0.25,0.001,0.011320378516375282,0.008332187976734138,16.745822105878666,0.011952763815759219,0.014905945863574743
274,0.25,0.001,0.011522660376848999,0.00851033966022509,16.8810431515729,0.012049281335883583,0.021924668457359076
275,0.25,0.001,0.011237578259574043,0.008261397170523802,16.67851737693504,0.01190472332400788,0.015921759884804487
276,0.25,0.001,0.011546419094098204,0.008637280766794712,16.30281118699062,0.011636553309772035,0.011498089879751205
277,0.25,0.001,0.011522650638204297,0.008648086822143308,16.10905706146617,0.01149825628941197,0.03139859717339277
278,0.25,0.001,0.01114666307873932,0.008254976943135262,16.205010213969665,0.011566745334739233,0.015390041749924421
279,0.25,0.001,0.011021826186297852,0.008040434715372545,16.707716282503103,0.01192556479836053,0.03252095635980368
280,0.25,0.001,0.011252915923610145,0.008202823695301273,17.092717676986883,0.012200369505343957,0.015078337397426367
281,0.25,0.001,0.01123320626347889,0.008194091568850441,17.03120031474549,0.012156459896320835,0.020912572741508484
282,0.25,0.001,0.011461571491334909,0.008495151789651977,16.62381692580235,0.011865679461671911,0.035398502834141254
283,0.25,0.001,0.011464529026897602,0.00857594927749884,16.18760284376733,0.011554320373852484,0.03725752420723438
284,0.25,0.001,0.011602959848572443,0.008764915317756894,15.904401272903254,0.011352177924984478,0.04153939709067345
285,0.25,0.001,0.011745242286979415,0.008900294563284627,15.943086259159042,0.011379790334874405,0.06170092336833477
286,0.25,0.001,0.01153819943651741,0.008608296720518006,16.419174359168537,0.011719610534738427,0.030912372283637524
287,0.25,0.001,0.011907246803151972,0.008933545228231836,16.664625497511874,0.011894807635625892,0.06555968895554543
288,0.25,0.001,0.011180147333185614,0.00826202127162689,16.353177247224032,0.011672503388453985,0.024138725828379393
289,0.25,0.001,0.012027201978604735,0.009030599624240472,16.79295954292203,0.011986409381100665,0.06886470504105091
290,0.25,0.001,0.011154514001567422,0.008042675638456403,17.438741236557195,0.012447352774130761,0.05375891737639904
291,0.25,0.001,0.011401139464183354,0.008262011337519429,17.591671767058195,0.012556510897257811,0.03736934531480074
292,0.25,0.001,0.01136835346021402,0.008301209819353656,17.188271345915616,0.012268573408933345,0.022799846716225147
293,0.25,0.001,0.011109515622166204,0.008172608957982358,16.4584253805655,0.011747626966856176,0.029156384989619255
294,0.25,0.001,0.011199901869267594,0.008334122908612093,16.059825732384198,0.01146311615444982,0.024518921971321106
295,0.25,0.001,0.011476307394511906,0.008605973588095771,16.0853530742504,0.01148133695521085,0.025587765499949455
296,0.25,0.001,0.01134221946797621,0.008416824864890472,16.393910655268915,0.011701577912397513,0.02150013856589794
297,0.25,0.001,0.011089243017780928,0.008102868844605522,16.735641762062354,0.011945497331950288,0.016196758951991796
298,0.25,0.001,0.01113833354809034,0.008160573959258604,16.68736657978576,0.011911039671510179,0.027453280054032803
299,0.25,0.001,0.010939078796424983,0.008012128608692208,16.40262919296453,0.011707800994264475,0.0366412028670311
300,0.25,0.001,0.011112000781720803,0.008223008456421488,16.189910370626567,0.01155596743085408,0.021608050679787993
301,0.25,0.001,0.011429846988140065,0.008579715465505918,15.972135908809708,0.01140052527395411,0.04596525989472866
302,0.25,0.001,0.011161391818780958,0.00835953869017554,15.701583791662145,0.01120741169997298,0.011633194051682949
303,0.25,0.001,0.011078571360328315,0.008330905125878843,15.39792032595034,0.010990664044218657,0.03186539001762867
304,0.25,0.001,0.011149371307297254,0.008428820903286522,15.245964368184408,0.010882201547597722,0.029032668098807335
305,0.25,0.001,0.010951825222115458,0.00818003340980705,15.533122969262394,0.01108716842916659,0.012110959272831678
306,0.25,0.001,0.011228118160808528,0.0083823102629847,15.947905293217412,0.011383230045123063,0.04862958937883377
307,0.25,0.001,0.010954443802252228,0.00808383027712504,16.086917841875994,0.011482453848591003,0.015913150971755385
308,0.25,0.001,0.011256442761715547,0.008357795081848715,16.244023052262673,0.011594591757503693,0.05281936563551426
309,0.25,0.001,0.010911160459121069,0.00793791372604944,16.662077727141202,0.011892989098601857,0.03305305354297161
310,0.25,0.001,0.01102195045462361,0.007987434182454038,17.005430786697953,0.012138066228906463,0.027331968769431114
311,0.25,0.001,0.011112577224403251,0.00808646334450186,16.958342363804945,0.012104455648683045,0.031174886040389538
312,0.25,0.001,0.010935157100543564,0.007947856629336322,16.74082942067841,0.011949200157514925,0.031269713304936886
313,0.25,0.001,0.011055447184193282,0.0081273164473658,16.40924538506402,0.011712523472565324,0.033151037991046906
314,0.25,0.001,0.011204873177188414,0.008301823710401854,16.268690792130837,0.011612198995096957,0.030166971730068326
315,0.25,0.001,0.011116667903591821,0.008257513072479654,16.02270425396201,0.011436619738730915,0.040870814584195614
316,0.25,0.001,0.010850965700767658,0.008061125138659536,15.63426564063555,0.011159361627862633,0.017673938535153866
317,0.25,0.001,0.011297276898942612,0.008534257932577604,15.48395671373532,0.011052074742137988,0.05946769937872887
318,0.25,0.001,0.010900454043790146,0.008085014310056045,15.77772331237793,0.011261758252946417,0.0297774369828403
319,0.25,0.001,0.010623145170141885,0.007732654611269633,16.1983071786386,0.011561960869834832,0.03292413614690304
320,0.25,0.001,0.010899906173164461,0.007952863201039074,16.515231426851248,0.011788173752213596,0.018433370627462864
321,0.25,0.001,0.01091911406888638,0.007982669375192972,16.45583505983706,0.01174577805841332,0.022859753109514713
322,0.25,0.001,0.010981495825596798,0.008133457203246193,15.960410000365457,0.011392155603401469,0.03198653366416693
323,0.25,0.001,0.010752578231471556,0.007979586605488517,15.539845207591116,0.011091966600707435,0.013276077341288328
324,0.25,0.001,0.0108018840122738,0.008061636509488762,15.356346907439056,0.01096098994106999,0.02258959785103798
325,0.25,0.001,0.010756694987692215,0.008001152288030696,15.442062154228305,0.011022171416294293,0.024807386565953493
326,0.25,0.001,0.01077289697656661,0.007931141286260553,15.925197483580789,0.01136702175844453,0.026461444795131683
327,0.25,0.001,0.01088444973675557,0.007935102298901773,16.52814194008156,0.011797388965083198,0.012127872090786695
328,0.25,0.001,0.010535830723834627,0.0075451217614758165,16.759931364177184,0.011962834663938033,0.02510367752984166
329,0.25,0.001,0.01066657918056956,0.007687886837685918,16.69259363339271,0.011914770616268886,0.01200835919007659
330,0.25,0.001,0.010876304010090269,0.007947264296681057,16.41433832380507,0.011716158689368358,0.025987539440393448
331,0.25,0.001,0.010773964260739309,0.007915995060753675,16.01605979307198,0.01143187708284938,0.014020863454788923
332,0.25,0.001,0.010749604392014904,0.007957290271642032,15.64812648443528,0.011169255163765369,0.015342211350798607
333,0.25,0.001,0.010691754669410946,0.007932964091499647,15.460263040330675,0.01103516276968642,0.025535005144774914
334,0.25,0.001,0.01082870543554977,0.008082192465892913,15.391460312737358,0.010986053042639086,0.01941844169050455
335,0.25,0.001,0.010613992706769042,0.007831901944253915,15.590834594067232,0.011128361594623291,0.017213494516909122
336,0.25,0.001,0.01071315730151571,0.007846397031558516,16.065324430112486,0.011467040992228755,0.03149643540382385
337,0.25,0.001,0.010488791023323566,0.007569343064348271,16.360586719748415,0.011677792091183737,0.020229403860867023
338,0.25,0.001,0.010611070526970757,0.007675385987960998,16.45157433733528,0.011742736857484141,0.02341089490801096
339,0.25,0.001,0.011058356612920761,0.008167477129142226,16.200488361311546,0.011563517745404386,0.015192677266895771
340,0.25,0.001,0.010446506310944204,0.007581202681233854,16.05716281467014,0.011461215428030079,0.015349311754107475
341,0.25,0.001,0.010834889566916743,0.008014474443539425,15.805609137923629,0.01128166248245798,0.018456455320119858
342,0.25,0.001,0.010587364653654304,0.0077643457018298865,15.820198129724574,0.011292075752836955,0.011683845892548561
343,0.25,0.001,0.010574139309702095,0.00771047265763268,16.04798863257891,0.011454667118186232,0.01511814771220088
344,0.25,0.001,0.010427208962263885,0.0075263245330180655,16.256558300536355,0.011603539115300753,0.02122323913499713
345,0.25,0.001,0.01065856475888947,0.007742337261637052,16.342537797527548,0.011664909205944003,0.010169506538659334
346,0.25,0.001,0.010584654792407413,0.00767362539736945,16.31340754473651,0.011644116734287302,0.015161437448114157
347,0.25,0.001,0.010423154604655725,0.007573843347253623,15.967539492948555,0.011397244463203822,0.027352994307875633
348,0.25,0.001,0.010636043067975545,0.007858624572601215,15.564654220769436,0.011109674675781181,0.013754221610724926
349,0.25,0.001,0.010524335386300529,0.0077680867326296405,15.446015534577546,0.011024993243809811,0.033534043468534946
350,0.25,0.001,0.010459359355822758,0.0077333307054675655,15.276663297488366,0.010904113702704044,0.02110806666314602
351,0.25,0.001,0.010658256502615081,0.007967795377574216,15.077342257087613,0.010761843152810573,0.026132126338779926
352,0.25,0.001,0.01042564776668578,0.007734740532382771,15.079845369598011,0.010763629814131342,0.015259960200637579
353,0.25,0.001,0.010486477756021935,0.007720508486216451,15.500489741195867,0.011063875618269712,0.017533245962113142
354,0.25,0.001,0.010585817738355678,0.00774167878208337,15.938554598961348,0.011376555745154424,0.03454685676842928
355,0.25,0.001,0.01024134395023187,0.007372551344703009,16.07671282026503,0.011475169750367616,0.02862450433894992
356,0.25,0.001,0.010385358683121057,0.007523677771750056,16.036858523333514,0.011446722714727705,0.029454413801431656
357,0.25,0.001,0.01044254997216257,0.00760806949786198,15.884426458382313,0.011337920384284305,0.026598935015499592
358,0.25,0.001,0.010653987377422092,0.00786499903295879,15.629493195333598,0.011155955171544324,0.039184967055916786
359,0.25,0.001,0.01028804545417244,0.007580054268516876,15.175581567081405,0.010831964002199433,0.02996864914894104
360,0.25,0.001,0.010372140341334872,0.007705680727038855,14.94283871591827,0.010665837770105832,0.033879246562719345
361,0.25,0.001,0.010536716618563658,0.007854957869391383,15.028576556547188,0.010727035372267801,0.029190405271947384
362,0.25,0.001,0.010363397613903622,0.0076151704530657074,15.40106549675082,0.010992908991256831,0.013455808628350496
363,0.25,0.001,0.010450147080844567,0.007635577553078348,15.772847199145659,0.011258277800960498,0.021916790399700403
364,0.25,0.001,0.010542075471653615,0.007664991795648763,16.12317841141312,0.011508335768317716,0.012124959379434586
365,0.25,0.001,0.010619130560461387,0.007698370132273362,16.36794236265583,0.011683042371631569,0.02803755970671773
366,0.25,0.001,0.010393749324627865,0.00748729122871602,16.28779098133982,0.011625832249350336,0.01826165011152625
367,0.25,0.001,0.010621885067702811,0.007760190123255238,16.036939326627756,0.011446780390169704,0.029105053283274174
368,0.25,0.001,0.010282148906018264,0.007421702497213343,16.02993960439423,0.011441784157312083,0.026951498817652464
369,0.25,0.001,0.010411136059297455,0.007552508161299759,16.019751395708248,0.011434512059748927,0.015648124273866415
370,0.25,0.001,0.010516993322030262,0.007696614198294686,15.805406476244514,0.011281517827440767,0.02154452633112669
371,0.25,0.001,0.010293333457759868,0.0075358900666972735,15.452710375373746,0.011029771859652924,0.015550600364804268
372,0.25,0.001,0.01021932826641901,0.007545130373335179,14.986204265076438,0.010696791052873975,0.01806104462593794
373,0.25,0.001,0.010301713360312544,0.007657723685289606,14.816917019125857,0.010575957900874986,0.016248874366283417
374,0.25,0.001,0.010134196161855886,0.0074772533017820044,14.88950597504039,0.010627770146352883,0.019906959030777216
375,0.25,0.001,0.010174725791094479,0.007483110182493189,15.083815586419753,0.010766463659114742,0.015174092259258032
376,0.25,0.001,0.010133452851463247,0.007420879719709909,15.201260684448997,0.010850293136651675,0.013991817831993103
377,0.25,0.001,0.010538898385417314,0.0078111303349335985,15.28641230971725,0.010911072312432012,0.020682848058640957
378,0.25,0.001,0.010086684361284163,0.007297875313663188,15.62848503206983,0.011155235568929216,0.025794571498408914
379,0.25,0.001,0.010242232638928626,0.0073758260243468815,16.06334415482886,0.011465627519506682,0.03377134632319212
380,0.25,0.001,0.010171475670771835,0.00728341451857561,16.18469319520173,0.011552243536903449,0.021859933156520128
381,0.25,0.001,0.010369213286465333,0.007508757800139763,16.02999136182997,0.011441821100521036,0.025340802036225796
382,0.25,0.001,0.010543729627022037,0.0077314220115910345,15.76017141930851,0.011249230135123847,0.02337222918868065
383,0.25,0.001,0.010303971530110747,0.0075418465874261325,15.478948487175835,0.01104849999084642,0.015007334761321545
384,0.25,0.001,0.010312432124290937,0.007600141775414899,15.199675760151427,0.010849161855925358,0.031168999150395393
385,0.25,0.001,0.010155558068719175,0.007460682043506775,15.10208358293698,0.010779502914301914,0.022512749303132296
386,0.25,0.001,0.010391330438447588,0.007698821369558573,15.088820422137225,0.010770035990105085,0.015694663859903812
387,0.25,0.001,0.010273677676364227,0.007532616950755502,15.36090581211043,0.010964243977237994,0.017279653809964657
388,0.25,0.001,0.010370157774031899,0.007570701007397823,15.688153231585467,0.011197825290210897,0.013322940096259117
389,0.25,0.001,0.010347081785216743,0.0075269525146318805,15.804005175461004,0.011280517612748753,0.01459967391565442
390,0.25,0.001,0.010218401404994505,0.007425450162249215,15.651697947655196,0.011171804388047962,0.010100631043314934
391,0.25,0.001,0.010113946921019643,0.007338397538312423,15.554178061308685,0.011102197045901988,0.009433535858988762
392,0.25,0.001,0.010284745111417623,0.007538374685854824,15.390661510420435,0.01098548287681687,0.019285634625703096
393,0.25,0.001,0.010372794152777871,0.007640620457859319,15.311101878130877,0.010928695130714402,0.015875578857958317
394,0.25,0.001,0.010127257981142144,0.007410651417794051,15.223864237467447,0.010866427007471412,0.029274215921759605
395,0.25,0.001,0.010092495952123477,0.007410018762320648,15.032602416144478,0.010729908933721968,0.01856801612302661
396,0.25,0.001,0.010151591232437411,0.007519612203777572,14.749612396146045,0.010527917484758061,0.025467752944678068
397,0.25,0.001,0.010103185649639294,0.007477768875060626,14.712834146287706,0.010501666057307428,0.014394268859177828
398,0.25,0.001,0.010110221067328512,0.007433154114326577,15.002282130865403,0.010708267045585584,0.02511708438396454
399,0.25,0.001,0.010525555384379846,0.007792564908065546,15.315680751094112,0.010931963419767389,0.019524372182786465
400,0.25,0.001,0.010132273291180164,0.007345458452394347,15.617311053805881,0.011147259852823613,0.018995360005646944
401,0.25,0.001,0.010226847592419312,0.007376777249629851,15.971794881938417,0.011400281857200868,0.0275134714320302
402,0.25,0.001,0.010007753945243211,0.007138076134853893,16.081675588348766,0.011478712054495906,0.014548879582434893
403,0.25,0.001,0.010137103589964502,0.007311389873517148,15.835298655945579,0.011302854144143882,0.013066753279417753
404,0.25,0.001,0.010427377428169604,0.007660866094132264,15.50353084375829,0.011066046283910272,0.0133635348174721
405,0.25,0.001,0.010019828231982242,0.0073271504844780325,15.089765195493344,0.010770710346533437,0.02615695958957076
406,0.25,0.001,0.009873134463473602,0.0072080361438386234,14.935210074907468,0.01066039263019805,0.021947009954601526
407,0.25,0.001,0.010132344865044694,0.007457578612238537,14.989390855954017,0.010699065564563895,0.031625217758119106
408,0.25,0.001,0.009969389146584788,0.00725443111617624,15.214625864853094,0.010859832879980795,0.018877875059843063
409,0.25,0.001,0.010063379979979845,0.0073311510783286744,15.311411045215747,0.010928915806720733,0.023551326245069504
410,0.25,0.001,0.01018348828326037,0.007434912152404403,15.403022742565767,0.010994306026099762,0.016507244668900967
411,0.25,0.001,0.009795568216546082,0.007066012354406678,15.296432624628514,0.010918224571469317,0.015510853845626116
412,0.25,0.001,0.0100837939499337,0.007386486362205979,15.115710941361792,0.01078922979397701,0.009647959843277931
413,0.25,0.001,0.010111792817895796,0.007425544404045299,15.053738817756559,0.010744995587263781,0.013357219751924276
414,0.25,0.001,0.009885721931946867,0.007178439321801251,15.171612409897792,0.010829130913560166,0.013910913374274969
415,0.25,0.001,0.009828721414561625,0.007117655030509204,15.192816899146562,0.010844266166414391,0.01814456470310688
416,0.25,0.001,0.010047843127890869,0.007328751968380846,15.237788965672623,0.010876366142521502,0.00899472925812006
417,0.25,0.001,0.009928568967698533,0.007179929230960063,15.403378639692141,0.010994560056882327,0.017252639401704073
418,0.25,0.001,0.010026261118459112,0.007280089995927281,15.389541025514957,0.010984683101723737,0.01848323829472065
419,0.25,0.001,0.010214979541890415,0.007468573697325256,15.390858614886248,0.010985623565229299,0.02031402476131916
420,0.25,0.001,0.009873087379943442,0.007085784004978192,15.620047698786228,0.011149213203987315,0.014428774826228619
421,0.25,0.001,0.010115962165097395,0.007296974224578819,15.797611118834695,0.011275953689389504,0.018599468283355236
422,0.25,0.001,0.00974390540777901,0.006902007271110276,15.925996592015396,0.011367592142766164,0.013057372532784939
423,0.25,0.001,0.010156907141208649,0.007341959341256706,15.774967252472301,0.011259791043877445,0.0203911024145782
424,0.25,0.001,0.010011358554532498,0.007275588057337351,15.331255041522745,0.010943079972535864,0.02429008111357689
425,0.25,0.001,0.009849434063114502,0.007163370585781924,15.052700019177095,0.010744254117899426,0.01508259354159236
426,0.25,0.001,0.009912931463784642,0.007251242624112853,14.916103327715838,0.010646754695014873,0.01186545705422759
427,0.25,0.001,0.009908578059647554,0.007248485351648228,14.907160193831832,0.01064037130180716,0.010540543124079704
428,0.25,0.001,0.010002325357938255,0.0073441525139374495,14.896401840963481,0.010632692249081714,0.010281367227435112
429,0.25,0.001,0.009843443635345242,0.007188608542222668,14.877693929789979,0.01061933899342611,0.013766796793788671
430,0.25,0.001,0.009850506026895694,0.007185341393644059,14.935582985112697,0.01066065880450585,0.010966439731419086
431,0.25,0.001,0.009824406194650097,0.007151931903704449,14.976547676839946,0.010689898413161989,0.020730700343847275
432,0.25,0.001,0.010060683950597856,0.007383511723651562,15.002875610634133,0.010708690657126433,0.014946741051971912
433,0.25,0.001,0.00979176424673678,0.007092848374151889,15.124726448530032,0.010795664845488958,0.01976349437609315
434,0.25,0.001,0.010061465502705104,0.007363211880955432,15.121013723773721,0.010793014792129709,0.022288895212113857
435,0.25,0.001,0.009673088444051918,0.006962832770551796,15.188272334911206,0.010841022366103644,0.014350965153425932
436,0.25,0.001,0.01015159468178028,0.00744813358710136,15.150196923149956,0.010813845055781554,0.016562663484364748
437,0.25,0.001,0.01009546054734124,0.007340038252741467,15.44138816550926,0.011021690339407038,0.02999575436115265
438,0.25,0.001,0.009894236669312289,0.0070919215357230034,15.704171616354106,0.011209258826805214,0.024852666538208723
439,0.25,0.001,0.009955093885461489,0.007117754032398447,15.900452343034155,0.011349359274114314,0.018413256853818893
440,0.25,0.001,0.009838172384066346,0.007010942934379902,15.843793539353358,0.011308917586975987,0.011306680273264647
441,0.25,0.001,0.009663813253059799,0.006890281655446247,15.54287149876724,0.011094126694337788,0.009052669163793325
442,0.25,0.001,0.010011741707538381,0.007313372716767553,15.121660444471571,0.010793476405761292,0.026369746774435043
443,0.25,0.001,0.009707915355209951,0.007043187828435574,14.933135951006854,0.010658912170597326,0.023198249749839306
444,0.25,0.001,0.009966375386733332,0.0073159309563997355,14.853092523268712,0.010601779102975526,0.014373740181326866
445,0.25,0.001,0.009637565869424079,0.007010837671933351,14.72018430262436,0.010506912421573419,0.011901280609890819
446,0.25,0.001,0.009793272126971939,0.007193139892209459,14.571140277532884,0.010400528392243315,0.02568257274106145
447,0.25,0.001,0.009796937007778957,0.007130129837695463,14.944788909252779,0.010667229771058372,0.02465977193787694
448,0.25,0.001,0.009850589903416458,0.007113447901505379,15.338944399798358,0.010948568450962426,0.02281221840530634
449,0.25,0.001,0.010123634687912317,0.007336719433006681,15.61787478129069,0.011147662227901992,0.0261746933683753
450,0.25,0.001,0.010032314715194113,0.0072242821118345965,15.736217451684269,0.011232132370938093,0.029416009783744812
451,0.25,0.001,0.009853248794873556,0.007055426867287836,15.678992718826105,0.011191286737206357,0.041079998947679996
452,0.25,0.001,0.009929049208208366,0.007171224802732468,15.45484952573423,0.0110312987335719,0.02474910533055663
453,0.25,0.001,0.00991761439514381,0.007194831340723199,15.258477917423955,0.01089113341714772,0.022364447824656963
454,0.25,0.001,0.009912296232801897,0.007182064834108323,15.300215403238932,0.010920924627579537,0.04480402357876301
455,0.25,0.001,0.009804064476931537,0.007038106785420282,15.500424926663623,0.011063829355220288,0.031754390336573124
456,0.25,0.001,0.009908471555437571,0.007102360764955297,15.72544425210835,0.011224442720990971,0.0253431205637753
457,0.25,0.001,0.009699836223857639,0.006892545723620756,15.732054192342876,0.011229160736861438,0.01606549508869648
458,0.25,0.001,0.00997236351494068,0.007196664177801138,15.555019425757138,0.01110279759154685,0.028461196459829807
459,0.25,0.001,0.009498785767290328,0.006754359086676512,15.379767300170144,0.010977706852369838,0.014502659440040588
460,0.25,0.001,0.009873878164791766,0.007192743459233531,15.025081658068999,0.010724540798050677,0.02854750771075487
461,0.25,0.001,0.009533686563372612,0.006895048578304273,14.786929389576853,0.0105545534543732,0.02145322156138718
462,0.25,0.001,0.009849643185274837,0.007239777939739051,14.625686457127701,0.010439462139277446,0.02215033443644643
463,0.25,0.001,0.009986303298285714,0.007373926885150097,14.639757332978425,0.010449505590991025,0.017779854591935873
464,0.25,0.001,0.009760568838244603,0.00708597881236562,14.988401118619942,0.010698359113932864,0.018204771913588047
465,0.25,0.001,0.009651216678321362,0.006895427109190711,15.443446712729372,0.011023159680749017,0.021423966623842716
466,0.25,0.001,0.00990426140250983,0.007123428908533153,15.58378608138473,0.011123330536320293,0.019740547984838486
467,0.25,0.001,0.009607762121307997,0.006844938284269086,15.482864097312644,0.011051294858895534,0.02312044147402048
468,0.25,0.001,0.009567574827851337,0.006828412390601488,15.35026611516505,0.010956649618247716,0.02710089460015297
469,0.25,0.001,0.009509603124985725,0.0067863067623549775,15.261354258031021,0.01089318647967953,0.01018117181956768
470,0.25,0.001,0.00973230541718227,0.00698921550065279,15.372278001573351,0.010972361171715454,0.007615813286975026
471,0.25,0.001,0.009748906633000315,0.006996165800057811,15.426359953703704,0.011010963564385228,0.010055594611912966
472,0.25,0.001,0.009624249773260988,0.00688893949314032,15.32867729516677,0.01094124003937671,0.01026308536529541
473,0.25,0.001,0.009688883858882351,0.0069808753000365365,15.175679607155882,0.010832033980839316,0.014008077327162027
474,0.25,0.001,0.009642167718230206,0.006917209600178916,15.270664427015516,0.01089983185368702,0.027143776416778564
475,0.25,0.001,0.009709532660098724,0.0069708166712964025,15.347761813505196,0.010954862108140754,0.02631739154458046
476,0.25,0.001,0.009667319234138654,0.006949832559459739,15.228794969158407,0.010869946444795437,0.017650140449404716
477,0.25,0.001,0.009757173558076223,0.007063506142362768,15.095312189172816,0.010774669656797155,0.026057938113808632
478,0.25,0.001,0.009655259618604625,0.006952794027273302,15.144617775340139,0.01080986279467533,0.02850473765283823
479,0.25,0.001,0.009707101977165834,0.006993630188114849,15.206296496921116,0.010853887578102153,0.019553926773369312
480,0.25,0.001,0.009667640379457563,0.006938625644478533,15.293397408944589,0.010916058107740606,0.020065346732735634
481,0.25,0.001,0.009592526051917193,0.006870785774088201,15.252632235303338,0.010886960910280755,0.01665005087852478
482,0.25,0.001,0.00945447376112879,0.006725901438866133,15.290921128826376,0.01091429059873403,0.01687567518092692
483,0.25,0.001,0.009437549916774403,0.006708998647001054,15.290801672287929,0.010914205333538849,0.020689050666987896
484,0.25,0.001,0.009595662849828785,0.006905330804946982,15.076619890001085,0.010761327544611766,0.01926394645124674
485,0.25,0.001,0.009670288681432052,0.007035862694689889,14.763321476218142,0.010537702695373406,0.012904829811304808
486,0.25,0.001,0.00973732643013383,0.0071135620230141985,14.703574357209382,0.010495056643261514,0.013911365065723658
487,0.25,0.001,0.009661382282681671,0.006996388696594003,14.934623388596522,0.01065997386766347,0.010337142972275615
488,0.25,0.001,0.009436452278384456,0.006683565785441502,15.427174462212456,0.011011544940908249,0.029096624348312616
489,0.25,0.001,0.00966662473194761,0.006860299024408982,15.726649861276886,0.011225303255729398,0.015727926045656204
490,0.25,0.001,0.009560865959451522,0.0067459651165538365,15.774705392343026,0.011259604134434708,0.020505426917225122
491,0.25,0.001,0.009643387325383999,0.0068443858835064335,15.685607074219504,0.01119600790451071,0.013030618894845247
492,0.25,0.001,0.009623091150489118,0.006841014030125038,15.590759724746516,0.011128308154708434,0.015428024809807539
493,0.25,0.001,0.009497974930262124,0.006776826599911775,15.249315332483363,0.01088459338507021,0.01666819304227829
494,0.25,0.001,0.009559153291730233,0.006877968846647827,15.025357093340086,0.01072473739710213,0.01880774600431323
495,0.25,0.001,0.009506959422135058,0.006831692341991045,14.992198755711685,0.010701069775668584,0.02475883439183235
496,0.25,0.001,0.009541614418044502,0.006864487745419696,15.002618530650198,0.010708507159636116,0.016991449519991875
497,0.25,0.001,0.009622805027498139,0.006930612912976447,15.087043361899294,0.010768767567379938,0.01696507353335619
498,0.25,0.001,0.009515577145380738,0.00684486735428189,14.966660181681315,0.010682840957659753,0.021282002795487642
499,0.25,0.001,0.009432185372268712,0.006791398423597401,14.798969857486679,0.010563147649883425,0.011214013444259763
500,0.25,0.001,0.009634260939043245,0.007006141690560329,14.727978706359863,0.010512475878914964,0.01962324697524309
