epoch,beta,learning_rate,train_loss,train_reconstruction_loss,train_kl_unnormalized,train_kl_normalized,mean_unclipped_gradient_norm
1,0.0,0.001,0.10078590816142512,0.10078590816142512,9.602281579784318,0.0068538769306097915,0.09936467930674553
2,0.02,0.001,0.08504972899076986,0.08307789901600164,138.1267754049862,0.09859155988935489,0.18257379531860352
3,0.04,0.001,0.0676313117146492,0.0534032543061995,498.3377003389246,0.355701427793665,0.15922731533646584
4,0.06,0.001,0.06144782331059961,0.04407848103665838,405.57414933746935,0.28948904306742995,0.13361957482993603
5,0.08,0.001,0.05037920512989456,0.0416009675200079,153.72889470119102,0.10972797623211351,0.0843696128576994
6,0.1,0.001,0.04668602902515262,0.04260145763263983,57.22485112208946,0.040845718145674136,0.1277321446686983
7,0.12,0.001,0.04163686974960215,0.03696388057341762,54.55715119604971,0.03894157829839379,0.059707144275307655
8,0.14,0.001,0.039558231392327475,0.035050429075079804,45.110224331126496,0.03219858981522234,0.0478527108207345
9,0.16,0.001,0.038593217657477245,0.035856897267056445,23.959903567445043,0.017102001118804454,0.06479732040315866
10,0.18,0.001,0.03786660519008543,0.03454519351761715,25.85165304296157,0.018452286254790555,0.051945227198302746
11,0.2,0.001,0.03684005491873797,0.03392560480564248,20.41572660558364,0.014572253108910522,0.049089688807725906
12,0.22,0.001,0.035940667285638696,0.03328509175894307,16.911192725686465,0.012070801374508541,0.05941411713138223
13,0.24,0.001,0.03486911200133024,0.031350180871930776,20.541760182848165,0.014662212835723172,0.039424555376172066
14,0.25,0.001,0.033606084867143164,0.030519270356379302,17.29851000916724,0.012347259107185754,0.04333400120958686
15,0.25,0.001,0.031878893829736056,0.0282126263733588,20.545761893777286,0.014665069160440603,0.03972673183307052
16,0.25,0.001,0.029947751548652556,0.026670674482981365,18.364739885517196,0.013108308269462667,0.04240612359717488
17,0.25,0.001,0.02823949093912162,0.02416966767872081,22.80729076909084,0.016279293910842856,0.032461066730320454
18,0.25,0.001,0.02763356031009964,0.023727730683544102,21.88826587153416,0.015623316111016531,0.0408789673820138
19,0.25,0.001,0.026730183292837703,0.02258555152836968,23.226519603355257,0.01657852933858334,0.03721920168027282
20,0.25,0.001,0.026116046470169928,0.022388966461899234,20.886555727790384,0.014908319577295064,0.03592913318425417
21,0.25,0.001,0.025081763299656848,0.021268836277372697,21.367641374176625,0.015251706905193878,0.03114572959020734
22,0.25,0.001,0.02450638943735291,0.020703168439806675,21.313251009174422,0.015212884374856833,0.02816271036863327
23,0.25,0.001,0.023607034528372334,0.01965491108450235,22.147701413023707,0.0158084949414873,0.018558503594249487
24,0.25,0.001,0.023154352809868606,0.019092633955034556,22.76187137528962,0.016246874643318785,0.029048702446743846
25,0.25,0.001,0.022632737844890238,0.018704654283675494,22.012978535072477,0.015712333001479284,0.02457407326437533
26,0.0,0.001,0.018721220503542937,0.018721220503542937,21.309350331624348,0.015210100165327872,0.05061793327331543
27,0.02,0.001,0.01786354169541714,0.01743310375833044,30.152170592663335,0.021521891929095885,0.024841011501848698
28,0.04,0.001,0.01795725444076108,0.016784839788634404,41.06382183000153,0.029310365331906875,0.02618376538157463
29,0.06,0.001,0.01833514661035117,0.01620371946517159,49.76882440903608,0.035523786159197775,0.024285983759909868
30,0.08,0.001,0.018701051526209888,0.015748505170146625,51.70646936753217,0.036906830383677494,0.019022641703486443
31,0.1,0.001,0.019066740411753748,0.015697163931441074,47.20776995490579,0.03369576727687779,0.02859589201398194
32,0.12,0.001,0.019278842298423544,0.01574351463247748,41.27494901769302,0.029461062824905796,0.018804093124344945
33,0.14,0.001,0.019525842595041965,0.016146118807442048,33.821372873642865,0.024140879995462432,0.017063902923837304
34,0.16,0.001,0.01965245381728107,0.016368557187710322,28.754613764145795,0.020524349581831403,0.02522604400292039
35,0.18,0.001,0.01994351860062749,0.016599995358025327,26.023756513408586,0.018575129559891924,0.0269204240757972
36,0.2,0.001,0.020272474589885448,0.016683334849920926,25.141924465403836,0.017945699118775044,0.02521856431849301
37,0.22,0.001,0.02041495573140827,0.016540515839177018,24.673140282724418,0.017611092278889663,0.015082247788086534
38,0.24,0.001,0.02061814391145519,0.01653715285162131,23.822786555570715,0.01700413030376211,0.017761775059625506
39,0.25,0.001,0.02065597657187312,0.016498618229639297,23.297838697246476,0.016629435187185206,0.019408698193728924
40,0.25,0.001,0.0206184188524882,0.0166643041131251,22.158858729343788,0.015816458764699348,0.025042171590030193
41,0.25,0.001,0.020714031130659814,0.0167206459879583,22.378933700860717,0.015973542969921997,0.03152160160243511
42,0.25,0.001,0.020400681843360264,0.01668504793562141,20.82241028430415,0.014862534107283477,0.01756338868290186
43,0.25,0.001,0.020149208276587373,0.016381447550420668,21.114531947117225,0.015071043502581889,0.018592956010252237
44,0.25,0.001,0.020322956838736347,0.016791438501255185,19.790632247924805,0.014126075837205428,0.028552605537697673
45,0.25,0.001,0.020030484954808272,0.016318728270776132,20.8006861817603,0.014847027966995219,0.0312656513415277
46,0.25,0.001,0.01977904334518255,0.016195160062874064,20.084081537583295,0.014335532860516271,0.029338758438825607
47,0.25,0.001,0.020003875571430896,0.016199347216124628,21.320577023076076,0.015218113506835173,0.029662132263183594
48,0.25,0.001,0.019956857513855484,0.016297094487384253,20.509311489030427,0.014639051740921076,0.027555596316233277
49,0.25,0.001,0.019738302949596855,0.01592676279445489,21.359873528574028,0.015246162404406871,0.02506464533507824
50,0.25,0.001,0.019654440090936774,0.01618919057735041,19.419259538837508,0.013860998957057466,0.024211933370679617
51,0.0,0.001,0.015953757307108712,0.015953757307108712,20.15583505817488,0.014386748792416046,0.03144837822765112
52,0.02,0.001,0.01566747895569778,0.015283215389240021,26.917654785455444,0.01921317258062487,0.02704452909529209
53,0.04,0.001,0.015492109837485295,0.014401038798193136,38.214761173023895,0.02727677457032398,0.020720009692013264
54,0.06,0.001,0.015945349911264346,0.01390372651318709,47.67190798591165,0.0340270578057899,0.02021273411810398
55,0.08,0.001,0.01636095388847239,0.013476686570428166,50.51073425891352,0.0360533435110018,0.027074150275439024
56,0.1,0.001,0.016957829140272794,0.013634694374951661,46.557118434532015,0.03323134791900929,0.030693550128489733
57,0.12,0.001,0.01722300487260024,0.013647849087183382,41.73994946947285,0.02979296892895992,0.024731599260121584
58,0.14,0.001,0.0176842516909043,0.014260689088819074,34.26007985133751,0.024454018452061035,0.04752719169482589
59,0.16,0.001,0.017517206788647408,0.014036581833280768,30.477226706112134,0.021753909140693885,0.02314780419692397
60,0.18,0.001,0.018118784123776006,0.014892653269948913,25.11005210876465,0.0179229493995465,0.02142067439854145
61,0.2,0.001,0.018098940598029717,0.014764560441322187,23.357332603604185,0.016671900502215693,0.03236916987225413
62,0.22,0.001,0.01858391079540346,0.015238459532459578,21.304441265031404,0.015206596192028125,0.033722173422575
63,0.24,0.001,0.018743693280745957,0.01497426720372602,22.004026225968904,0.0157059430592212,0.02071816730313003
64,0.25,0.001,0.018966784408571673,0.015038190793026896,22.015836266910327,0.015714372781520575,0.028630001936107874
65,0.25,0.001,0.01849129047317832,0.014496855620367854,22.384814729877547,0.01597774070655071,0.018172594252973795
66,0.25,0.001,0.018259528074778764,0.014638242348298138,20.293683594348384,0.014485141751854664,0.026437276042997837
67,0.25,0.001,0.01843408546319195,0.014999456009736248,19.247661515778187,0.0137385164281072,0.034756346605718136
68,0.25,0.001,0.018310437891997544,0.014719293891068767,20.124771005967084,0.014364576021389781,0.017212030244991183
69,0.25,0.001,0.018213557846405926,0.014517835177042904,20.710829379511814,0.014782890349401723,0.01864512055180967
70,0.25,0.001,0.01818391081749224,0.014604240217629601,20.06047420875699,0.014318682518741606,0.012760619865730405
71,0.25,0.001,0.01803828637097396,0.01461600338784503,19.178471583946077,0.013689130324015758,0.022439430933445692
72,0.25,0.001,0.01801879265729119,0.01451278026854875,19.647692063275507,0.014024048581923987,0.015862874453887343
73,0.25,0.001,0.018379721936641957,0.014700455262380488,20.61861015768612,0.014717066493708865,0.020954053848981857
74,0.25,0.001,0.017983349734077267,0.014225242184657677,21.060433855243758,0.015032429589752861,0.025555503321811557
75,0.25,0.001,0.01798882203943589,0.014440570117942258,19.88440648247214,0.014193009623463341,0.02438887720927596
76,0.0,0.001,0.014480410801137196,0.014480410801137196,20.6860533321605,0.014765205804539973,0.03631486464291811
77,0.02,0.001,0.013806925830887813,0.013427964064712618,26.54627414778167,0.018948090041243162,0.01672234502620995
78,0.04,0.001,0.013452729465914708,0.012402317231046218,36.79069062775257,0.02626030737170062,0.03012386942282319
79,0.06,0.001,0.013695508789490251,0.011794023854913665,44.39967473347982,0.03169141665487496,0.01566386641934514
80,0.08,0.001,0.013727336866306323,0.010977629407802048,48.15425326777439,0.03437134423110235,0.023989578243345022
81,0.1,0.001,0.013884628264635218,0.01055341579166113,46.67028270048254,0.03331212184188618,0.023322814609855413
82,0.12,0.001,0.013665584007314607,0.010116526583100067,41.43524386836033,0.029575477422098737,0.017027030931785703
83,0.14,0.001,0.013347493995930635,0.009875502766055219,34.744711558024086,0.02479993687225131,0.014344535302370787
84,0.16,0.001,0.013396405724479872,0.010099346859051901,28.869872822481042,0.020606618716974334,0.013197885127738118
85,0.18,0.001,0.013430814824852288,0.01030488818080402,24.330129361620138,0.01736625935875813,0.018416914623230696
86,0.2,0.001,0.013546716239230306,0.010311603637448713,22.661963219736137,0.01617556261223136,0.02775097801350057
87,0.22,0.001,0.013890646270238886,0.01040118423235767,22.22152889476103,0.015861191216817293,0.012822277029044926
88,0.24,0.001,0.014117293242438166,0.010254289553153748,22.550284366981657,0.016095848941457287,0.012770869070664048
89,0.25,0.001,0.014058410902233684,0.009954334145375327,22.999246522492054,0.016416307296568206,0.017259891610592604
90,0.25,0.001,0.014204168582663816,0.010169685763471267,22.60924264496448,0.016137931937876146,0.02844997332431376
91,0.25,0.001,0.014263465105756825,0.010612554957761484,20.45970168768191,0.014603641461585945,0.027746254578232765
92,0.25,0.001,0.014125363645600337,0.010351072120315889,21.151131087658452,0.015097167086123093,0.02378482581116259
93,0.25,0.001,0.01404084572020699,0.010424523121293853,20.26587022519579,0.014465289239968444,0.028703458607196808
94,0.25,0.001,0.014300000214693593,0.010506492765510784,21.258815914976832,0.015174029917899238,0.02873770846053958
95,0.25,0.001,0.01398005491743485,0.010282313779873006,20.722142275641946,0.014790965221728727,0.02928321063518524
96,0.25,0.001,0.013740268682001852,0.009876381715430933,21.653221167770088,0.015455546872070012,0.020365698728710413
97,0.25,0.001,0.013486119699390495,0.009810407244253392,20.598692576090496,0.014702849804490005,0.014218165073543787
98,0.25,0.001,0.013417290961917709,0.00982216095515326,20.147110434139478,0.01438052136626658,0.01152707205619663
99,0.25,0.001,0.013765220274673957,0.010152073741397438,20.24807279250201,0.014452585861885804,0.023550794227048755
100,0.25,0.001,0.013620876451479453,0.010137520474838275,19.52072577383004,0.013933423107658844,0.028314635157585144
101,0.25,0.001,0.013818188880880674,0.010042294476400404,21.160112193986482,0.01510357758314524,0.041771977208554745
102,0.25,0.001,0.013321920188472551,0.009722508179644743,20.171104468551338,0.0143976477291587,0.03755880380049348
103,0.25,0.001,0.013544500312384437,0.009957369745654218,20.10227943869198,0.01434852208329192,0.021839542780071497
104,0.25,0.001,0.013413031530730864,0.009779255344148944,20.363681643616918,0.014535104670675886,0.02635307563468814
105,0.25,0.001,0.013301663867690983,0.009660949419234312,20.402563693476658,0.014562857739812033,0.0181713456986472
106,0.25,0.001,0.013189733137979227,0.009492482570018255,20.719393449671127,0.0147890031760679,0.012172836111858487
107,0.25,0.001,0.012985903769731522,0.009325908296102402,20.51061450733858,0.014639981803953305,0.012877499219030142
108,0.25,0.001,0.01341175214917052,0.0098169561767695,20.145237342984068,0.014379184398989341,0.01803917228244245
109,0.25,0.001,0.013080986381015357,0.00947954808818359,20.18245958814434,0.014405752739574833,0.020905065117403865
110,0.25,0.001,0.013209359227296184,0.009615832501474549,20.138122259401808,0.01437410582398416,0.019826432457193732
111,0.25,0.001,0.013245110071318992,0.009692300147577828,19.909947862812118,0.014211240444548265,0.017364413011819124
112,0.25,0.001,0.013184339282851593,0.009553962368883338,20.3446320178462,0.01452150750738487,0.017992948065511882
113,0.25,0.001,0.012897199969373498,0.009263996272256561,20.360473707610485,0.014532814923347955,0.010514306835830212
114,0.25,0.001,0.013000872077456876,0.009415376200979831,20.09311907899146,0.014341983639537087,0.01859027799218893
115,0.25,0.001,0.013078734570858525,0.009416542883378034,20.522922291475183,0.014648766803337033,0.02496772725135088
116,0.25,0.001,0.012890369704394949,0.0093951629949551,19.587137858072918,0.013980826451158399,0.020664486102759838
117,0.25,0.001,0.012918747596296609,0.009359369620534718,19.946753483192595,0.01423751140841727,0.01577442092821002
118,0.25,0.001,0.012807032276017993,0.009139787140941503,20.55124350155101,0.014668981799822277,0.019197612768039107
119,0.25,0.001,0.012895988976108093,0.009356014649657643,19.838014340868185,0.014159896032025828,0.013980015879496932
120,0.25,0.001,0.012490137315848294,0.008956884234851482,19.800350451001933,0.014133012456104163,0.023132329806685448
121,0.25,0.001,0.012865813558592516,0.009290028893041844,20.03869722403732,0.014303138632432063,0.017006124602630734
122,0.25,0.001,0.012630970253809994,0.008973384221248767,20.497113433538697,0.014630345063196786,0.01495586964301765
123,0.25,0.001,0.012636316794098592,0.008964126409195802,20.578954696655273,0.01468876138233781,0.015670821187086403
124,0.25,0.001,0.01249811904249238,0.008851190563291311,20.437388401405485,0.014587714776163802,0.012996445642784238
125,0.25,0.001,0.012529680468872482,0.008899444860278391,20.343842225916244,0.01452094377295949,0.016156743513420224
126,0.25,0.001,0.012552028467111728,0.009055170650575674,19.596391416063497,0.01398743141760421,0.014797380310483277
127,0.25,0.001,0.01255500280097419,0.009130577483744013,19.190480400534238,0.013697701927576187,0.01582459732890129
128,0.25,0.001,0.012330857379471554,0.008826701938375538,19.63728785047344,0.014016622305834005,0.017395922914147377
129,0.25,0.001,0.012259282116942546,0.008699367973296082,19.94975867925906,0.01423965644486728,0.01506068930029869
130,0.25,0.001,0.012365825784703096,0.008779988405020797,20.09503278545305,0.014343349597040008,0.016249737702310085
131,0.25,0.001,0.012131822825062508,0.008626573883435306,19.643416386024626,0.014020996706655693,0.02215546672232449
132,0.25,0.001,0.012270397981446163,0.008931195363402367,18.712892270555685,0.01335681104250941,0.015018773614428937
133,0.25,0.001,0.012327080811647809,0.008977507971519348,18.771005518296185,0.013398290876728183,0.019758175825700164
134,0.25,0.001,0.012165778919177897,0.008619469070040128,19.873519336476047,0.014185238641310527,0.01435914821922779
135,0.25,0.001,0.012280793093583164,0.008697715313995586,20.079567703546264,0.014332310994679702,0.01522215735167265
136,0.25,0.001,0.01212691179677552,0.00850840068111817,20.278136309455423,0.014474044474986026,0.023782505188137293
137,0.25,0.001,0.012221095298289084,0.008788196260438245,19.237965303308822,0.013731595505573749,0.02805463084951043
138,0.25,0.001,0.012282637459244215,0.008945245880122278,18.702744053859337,0.013349567490263625,0.022329695522785187
139,0.25,0.001,0.011962460536582797,0.008596099054842604,18.865089902690812,0.013465446040464533,0.015196163672953844
140,0.25,0.001,0.012026273371542202,0.00843315964162934,20.135810104070924,0.014372455463291167,0.011983972741290927
141,0.25,0.001,0.011962469466322777,0.008346526427011863,20.263744578642005,0.014463772004740902,0.013179602450691164
142,0.25,0.001,0.011977344860925394,0.008494029990306087,19.520495433433382,0.013933258696240815,0.015037985052913427
143,0.25,0.001,0.011875344860349215,0.008509757508542024,18.86075210571289,0.013462349825633754,0.016856403090059757
144,0.25,0.001,0.012149789096678005,0.008754038215413982,19.029789494533166,0.01358300463564109,0.020942962961271405
145,0.25,0.001,0.012148833778851172,0.008496854691674896,20.465691323373832,0.014607916719039138,0.024150521494448185
146,0.25,0.001,0.012006952007319414,0.008479038253426552,19.77042755426145,0.014111654214319378,0.013444091542623937
147,0.25,0.001,0.011925626491360804,0.008471526232931544,19.356779061111748,0.013816401899437366,0.010024435818195343
148,0.25,0.001,0.011783959873605008,0.00830271577133852,19.508894116270778,0.01392497795593917,0.01852086605504155
149,0.25,0.001,0.011988593393242826,0.008679632298356178,18.543419071272307,0.013235845161507715,0.02444129576906562
150,0.25,0.001,0.011634853997212998,0.008265713266297882,18.88066422705557,0.013476562617455794,0.018498309422284365
151,0.25,0.001,0.011679677073569858,0.008221483314592465,19.37971893011355,0.013832775824492185,0.021156777162104845
152,0.25,0.001,0.011742725840532313,0.00824985375591353,19.574055503396426,0.013971488582010297,0.011506083654239774
153,0.25,0.001,0.011764717909197012,0.008378174521175086,18.97818883260091,0.013546173328052042,0.015777728287503123
154,0.25,0.001,0.011699982571835611,0.008495950359193719,17.955396166034774,0.012816128598169003,0.019511513179168105
155,0.25,0.001,0.0115384759344891,0.00822586914999228,18.563850328034047,0.013250428499667413,0.0156852335203439
156,0.25,0.001,0.011522986140905642,0.008118639079233011,19.077961192411536,0.013617388431414372,0.015462048584595323
157,0.25,0.001,0.011440496416945084,0.007999395038567338,19.283932554955577,0.013764405820810547,0.012488453183323145
158,0.25,0.001,0.01140063467855547,0.008070774202910708,18.66053809371649,0.013319441894158807,0.019152073422446847
159,0.25,0.001,0.011577602987195932,0.008276780957684797,18.497805801092408,0.013203287509701933,0.020794799784198403
160,0.25,0.001,0.011421368840862723,0.008031906450496,18.994548722809437,0.013557850622990319,0.02603015210479498
161,0.25,0.001,0.011506353121470003,0.008069996831609923,19.257340749104817,0.013745425231338199,0.0159236672334373
162,0.25,0.001,0.01137043464490596,0.007935424280517241,19.249798643822764,0.01374004185854587,0.015785620780661702
163,0.25,0.001,0.01129328605591082,0.007923562609243626,18.883928074556238,0.013478892273059413,0.014719808474183083
164,0.25,0.001,0.011404628007143152,0.00799485721497559,19.108355316461303,0.01363908302388387,0.015887949848547578
165,0.25,0.001,0.01135235487976495,0.007991475737927592,18.834368275661095,0.01344351768426916,0.013868999434635043
166,0.25,0.001,0.011110167968652997,0.0078054372604717225,18.51971093346091,0.01321892286471157,0.009599072043783963
167,0.25,0.001,0.011181573547861156,0.007886176764526787,18.46740378585516,0.01318158728469319,0.013093524263240397
168,0.25,0.001,0.011061906157171024,0.00777418715148872,18.424378039790135,0.013150876545174972,0.015446298872120678
169,0.25,0.001,0.011100249164098618,0.007856667708313348,18.17703291949104,0.012974327565660986,0.017838599858805537
170,0.25,0.001,0.011058325915798252,0.007774758810067878,18.401109471040613,0.013134268002170315,0.017688722349703312
171,0.25,0.001,0.011235259747242226,0.008062238019763255,17.781614565381815,0.012692087484212574,0.011987467529252172
172,0.25,0.001,0.011063881766270189,0.007816474008209565,18.198473836861403,0.012989631575204427,0.015847239643335342
173,0.25,0.001,0.010980860878001241,0.007565370085192662,19.14040905821557,0.013661962211431528,0.01917275949381292
174,0.25,0.001,0.011159735950915253,0.0077952589182292715,18.85453048406863,0.01345790898220459,0.020549471490085125
175,0.25,0.001,0.011069893197832154,0.007730455110397409,18.714210098864985,0.013357751676563159,0.01921367517206818
176,0.25,0.001,0.01105575219673269,0.007818141459103893,18.14357032027899,0.01295044276964953,0.017356489086523652
177,0.25,0.001,0.010985490993834009,0.007641256750360423,18.741088044409658,0.013376936505645722,0.02133290097117424
178,0.25,0.001,0.010916816271549347,0.007538574236426868,18.931666991289923,0.013512967160092737,0.01241101953200996
179,0.25,0.001,0.010940023643129012,0.007729376958427476,17.992462943581973,0.012842585969723036,0.01443225797265768
180,0.25,0.001,0.011090442465216505,0.007903101470540552,17.861860836253445,0.01274936533636934,0.018074069637805223
181,0.25,0.001,0.010870556675774209,0.007506246715053624,18.853593265309055,0.013457240018064993,0.013186006341129541
182,0.25,0.001,0.010869573874800814,0.007499795370534354,18.884238972383386,0.013479114184427828,0.01644172496162355
183,0.25,0.001,0.011042797061450341,0.0077455312232760825,18.4778787949506,0.013189064093469378,0.012658094987273216
184,0.25,0.001,0.010879370365657058,0.007604841745513327,18.350457883348653,0.013098114120876983,0.015268626855686307
185,0.25,0.001,0.010961128818784274,0.007643224287997274,18.593536227357152,0.013271617578413384,0.013025966472923756
186,0.25,0.001,0.010982633148338281,0.007601951851564295,18.94533815570906,0.013522725307429736,0.015484882751479745
187,0.25,0.001,0.010871571123453916,0.007644080100398438,18.086860731536266,0.01290996483335922,0.013880990678444505
188,0.25,0.001,0.010954555690142453,0.007865431444609867,17.311451481837853,0.012356496418156926,0.015258349245414138
189,0.25,0.001,0.01095865381991162,0.007719210403807023,18.153840831681794,0.012957773612906348,0.01468045124784112
190,0.25,0.001,0.0108234241203058,0.007486546202106219,18.699864555807675,0.013347512174024037,0.012900769244879484
191,0.25,0.001,0.010669278747895184,0.007321527784726783,18.76079664043352,0.013391004026005366,0.012408124399371445
192,0.25,0.001,0.010971497525187099,0.007646719888583117,18.632053749234068,0.013299110456269856,0.01643564854748547
193,0.25,0.001,0.010612523676279713,0.0073528369687789795,18.267284393310547,0.013038746890300176,0.014214773429557681
194,0.25,0.001,0.010689933327775375,0.007556851094990384,17.557794346528894,0.012532330011797925,0.01650459016673267
195,0.25,0.001,0.010687148143701693,0.007616425389606578,17.208330565807866,0.012282891196151224,0.021743047051131725
196,0.25,0.001,0.010847979206957068,0.007551643212198042,18.472666422526043,0.01318534362778447,0.01768221869133413
197,0.25,0.001,0.010751409821358382,0.0074086637583141235,18.732749714570886,0.013370984806974223,0.013941644225269556
198,0.25,0.001,0.010632364353274597,0.007323042526110715,18.54543996324726,0.013237287625444155,0.014395153732039034
199,0.25,0.001,0.010513201702897455,0.007209905268003543,18.511674619188497,0.013213186737465023,0.016602478455752134
200,0.25,0.001,0.01067353266419149,0.007307984080969119,18.86053399478688,0.013462194143316831,0.012503048172220588
201,0.25,0.001,0.010610763622703506,0.007313954680427617,18.475318908691406,0.013187236908416422,0.011879447381943464
202,0.25,0.001,0.01059089184683912,0.0072159485197534744,18.91318347407322,0.01349977407142985,0.010619443841278553
203,0.25,0.001,0.010577451693368893,0.00719066176052187,18.97957195955164,0.013547160570700672,0.014181195525452495
204,0.25,0.001,0.010551559884904646,0.007364144000936957,17.862277386235256,0.012749662659696829,0.010582553688436747
205,0.25,0.001,0.010485031970721833,0.007304298362749464,17.824831046310127,0.012722934365674609,0.012339141685515642
206,0.25,0.001,0.01048910564870811,0.007188000478873066,18.499392715154908,0.013204420210674453,0.016763403546065092
207,0.25,0.001,0.010453086236820501,0.00721665639795509,18.13695219451306,0.012945718911144226,0.013659274904057384
208,0.25,0.001,0.01036951539344063,0.0071791868529045115,17.878600793726303,0.012761313914151537,0.013999116839841008
209,0.25,0.001,0.0104318268998873,0.007253073977635187,17.81373244640874,0.012715012452825653,0.013476516818627715
210,0.25,0.001,0.010334151705690459,0.0071796067972101415,17.678069694369448,0.012618179653368628,0.013389630476012826
211,0.25,0.001,0.010218631585731226,0.007044018803200885,17.790532056023093,0.012698452573892287,0.01352290459908545
212,0.25,0.001,0.010482886586995685,0.007298184595271653,17.84707181593951,0.012738809290463605,0.01564372587017715
213,0.25,0.001,0.010475560054913456,0.00735304941076274,17.498548769483378,0.012490041948239385,0.012357613537460566
214,0.25,0.001,0.010532128021997563,0.0073035783682237655,18.092792548385322,0.012914198821117289,0.010335541097447276
215,0.25,0.001,0.010180639322189725,0.006987082790218147,17.8966911166322,0.012774226350201428,0.012574583292007446
216,0.25,0.001,0.010382129208129994,0.0072411946477551085,17.6017978144627,0.012563738625597929,0.013538070721551776
217,0.25,0.001,0.010291369376229305,0.007167031166746336,17.508791493434533,0.012497352957483606,0.013191953534260392
218,0.25,0.001,0.010306246980440383,0.007099264137008611,17.97193235509536,0.01282793173097456,0.013958721421658993
219,0.25,0.001,0.010297103091051765,0.007026158410179264,18.330374325022976,0.013083778961472503,0.011829128256067634
220,0.25,0.001,0.010381004097414952,0.007129342614800907,18.22231158088235,0.013006646381786119,0.01575092668645084
221,0.25,0.001,0.010217832017909078,0.006999834769350641,18.03365632599475,0.0128719888122732,0.011988814920186996
222,0.25,0.001,0.010211660216252008,0.0070432135287453145,17.7559751996807,0.012673786723540829,0.01814497634768486
223,0.25,0.001,0.01036994699753967,0.007119169467877524,18.217356550927256,0.013003109600947364,0.015323063125833869
224,0.25,0.001,0.010164995842120227,0.007029104220005227,17.573536517573338,0.012543566393699742,0.017355964635498822
225,0.25,0.001,0.010411726146498147,0.0072170671659941765,17.902868570065966,0.012778635667427528,0.016284613404423
226,0.25,0.001,0.0101874441310179,0.00685475257170551,18.676405027800914,0.013330767328908576,0.01744511560536921
227,0.25,0.001,0.010322428052770156,0.007127461407114477,17.904593972598803,0.012779867218129053,0.015920054633170366
228,0.25,0.001,0.01038530983907335,0.007242684508217316,17.611272886687633,0.012570501703560052,0.01600241521373391
229,0.25,0.001,0.010188950024837372,0.006929639105995496,18.265178156834022,0.013037243509517503,0.014120613923296332
230,0.25,0.001,0.010082083626412879,0.006888385579063028,17.897484124875536,0.012774792380353702,0.014123932924121618
231,0.25,0.001,0.010233773064671778,0.007148120552301407,17.291996843674603,0.012342610166791295,0.01743794814683497
232,0.25,0.001,0.010208138739507572,0.007037066471050768,17.77068811304429,0.012684288446141535,0.015530606731772423
233,0.25,0.001,0.010139819818968866,0.00680466507579766,18.690207462684782,0.013340619173936318,0.01804436754900962
234,0.25,0.001,0.010200853112573717,0.006946768410796044,18.23589096817316,0.013016339020823097,0.021457490976899862
235,0.25,0.001,0.010064297447017595,0.006887191632652984,17.804501402611827,0.012708423556468113,0.01517123100347817
236,0.25,0.001,0.010201629616466224,0.0071756694484136855,16.957480486701517,0.01210384046159994,0.02302501956000924
237,0.25,0.001,0.010212915986045902,0.007058706317169994,17.676191741344976,0.01261683921580655,0.01860637031495571
238,0.25,0.001,0.010090690106153488,0.006860597871755268,18.10143721337412,0.012920369174428351,0.018782660830765963
239,0.25,0.001,0.010157531821260266,0.007037199266693171,17.486343907374962,0.012481330412116319,0.011473874561488628
240,0.25,0.001,0.010112074422923958,0.006978920642651764,17.558193356383082,0.012532614815405484,0.009851287584751844
241,0.25,0.001,0.00995941226388894,0.0068267637443747,17.555362477022058,0.012530594202014318,0.01213821955025196
242,0.25,0.001,0.010127846955084334,0.006937628447571222,17.87798567379222,0.012760874856382741,0.01320519670844078
243,0.25,0.001,0.010115912238902906,0.006951464084433574,17.733567293952493,0.012657792501036755,0.013680042466148734
244,0.25,0.001,0.010148428946587384,0.007073102646744719,17.234127456066656,0.01230130439405186,0.018875786568969488
245,0.25,0.001,0.01016641614556897,0.0069927970477032895,17.784959718292836,0.012694475173656556,0.02030843822285533
246,0.25,0.001,0.009988978359044767,0.006834242839877512,17.679139006371592,0.012618942902477939,0.018929462414234877
247,0.25,0.001,0.009842325841971472,0.006698332453037009,17.618939156625785,0.012575973702088355,0.015473455772735178
248,0.25,0.001,0.009960303959601065,0.006853900110239492,17.40828794591567,0.012425615949975497,0.02833161037415266
249,0.25,0.001,0.009839890889969527,0.006755779168623335,17.28336222031537,0.012336446980953156,0.014428556663915515
250,0.25,0.001,0.009981639062364897,0.006838821459050272,17.61235087525611,0.012571271145793083,0.011372437700629234
251,0.25,0.001,0.010066168291457728,0.006840733847781724,18.075334960339116,0.012901738015945123,0.01919287326745689
252,0.25,0.001,0.009990848984350176,0.0066745710267009685,18.58442231720569,0.013265112289226045,0.014938275096938014
253,0.25,0.001,0.010027665498794294,0.006664063863675384,18.849622876036403,0.013454406049990295,0.013595896773040295
254,0.25,0.001,0.009990360587835312,0.006758663556812441,18.110431072758693,0.012926788774274585,0.013329633045941591
255,0.25,0.001,0.010107544269047532,0.007047776799356821,17.14693806218166,0.012239070708195333,0.017079907935112715
256,0.25,0.001,0.009946483698691808,0.006816902782256697,17.538171244602577,0.01251832351506251,0.01373295672237873
257,0.25,0.001,0.009786782238413306,0.006616507264255893,17.766223533480776,0.012681101736959868,0.014899325091391802
258,0.25,0.001,0.009946081604735525,0.0068910924863873745,17.120159223967907,0.012219956619534551,0.01074948557652533
259,0.25,0.001,0.009913760511314167,0.006842838344620723,17.20944700054094,0.012283688080329008,0.011711383587680757
260,0.25,0.001,0.010114284159213888,0.006997055666265534,17.468948139863855,0.012468913732950646,0.016838079784065485
261,0.25,0.001,0.009975425296408288,0.006677222639030101,18.4831278183881,0.013192810719763097,0.018261050572618842
262,0.25,0.001,0.009986022103796987,0.006760729495070728,18.074540119545134,0.012901170677762409,0.022965230979025364
263,0.25,0.001,0.0098171426969416,0.006690499089731306,17.521710938098384,0.012506574545394993,0.016290121944621205
264,0.25,0.001,0.009864030442401474,0.006766590289771557,17.358053917978324,0.012389760112761116,0.01519407075829804
265,0.25,0.001,0.009818652717798365,0.006681323434938402,17.581593158198338,0.01254931702940638,0.015320458449423313
266,0.25,0.001,0.00990051330596793,0.006764543288405619,17.57397610533471,0.01254388016083848,0.014938698383048177
267,0.25,0.001,0.009797918190266573,0.006706309422631474,17.325375912236233,0.01236643534063971,0.014047969365492463
268,0.25,0.001,0.00994515848145181,0.0068575871432674865,17.302749558991078,0.01235028519556822,0.0151719287969172
269,0.25,0.001,0.009724220845337007,0.006588033920920947,17.57519306856043,0.012544748799829001,0.010921050910837948
270,0.25,0.001,0.009789063193488354,0.006675773784153017,17.446874917722216,0.012453158399516214,0.01599432062357664
271,0.25,0.001,0.00988374920744522,0.0067888481323333345,17.34382547116747,0.012379604190697694,0.015098330331966281
272,0.25,0.001,0.009687503069347026,0.006572048042846077,17.459009282729205,0.012461819616509068,0.017894388642162085
273,0.25,0.001,0.009694393395501025,0.006561876859004591,17.554623173732384,0.012530066505162302,0.01575660111848265
274,0.25,0.001,0.009673751762830744,0.006538549173331144,17.56967447318283,0.01254080975958803,0.010147250955924392
275,0.25,0.001,0.009674750798034901,0.006630905429083927,17.057708366244448,0.012175380703957493,0.012343847891315818
276,0.25,0.001,0.009573144345160793,0.0065351600174372105,17.024866216322955,0.01215193876968091,0.017626071348786354
277,0.25,0.001,0.009732597270140461,0.006658269302444715,17.228533165127622,0.01229731132414534,0.018339375499635935
278,0.25,0.001,0.009734947471788116,0.006595754712893098,17.592036228553923,0.012556771041080602,0.012442214298062027
279,0.25,0.001,0.009713602836663816,0.006579051588607185,17.566023957495595,0.012538204109561453,0.010494725196622312
280,0.25,0.001,0.009593739758665655,0.0064294368722567375,17.73275334227319,0.01265721152196516,0.012215650407597423
281,0.25,0.001,0.009667372915382479,0.006554024303149359,17.44720578661152,0.01245339456574698,0.01292004156857729
282,0.25,0.001,0.009561142719843808,0.006462980719173656,17.36210090038823,0.01239264875116933,0.010978180216625333
283,0.25,0.001,0.00957639982887343,0.0064917507344016846,17.28637254004385,0.0123385956745495,0.017016694881021976
284,0.25,0.001,0.009720777453599023,0.0066124357410943975,17.419147491455078,0.012433367231588208,0.016528728301636875
285,0.25,0.001,0.00969967479799308,0.006630403975791791,17.200193928737267,0.012277083460911683,0.01450206059962511
286,0.25,0.001,0.009683596682460868,0.00652622601346058,17.693905437693875,0.012629482824906406,0.022350100334733725
287,0.25,0.001,0.009721867740154266,0.006583423600258196,17.58784238029929,0.012553777573375653,0.018388486932963133
288,0.25,0.001,0.009794825158428912,0.006715020831382158,17.25922393798828,0.012319217657379216,0.017765912227332592
289,0.25,0.001,0.009764315158713097,0.006654690896325251,17.42633310953776,0.012438496152418103,0.015506655210629106
290,0.25,0.001,0.009682338739580968,0.006474873726712722,17.974632936365463,0.01282985934073195,0.016645799158141017
291,0.25,0.001,0.009665620257603187,0.006431973804080603,18.121354832368738,0.012934585890341712,0.02285248483531177
292,0.25,0.001,0.009539592390259108,0.0064247955531612335,17.455321517645142,0.0124591873787617,0.02081986190751195
293,0.25,0.001,0.009709601911405722,0.006593280627081792,17.463863671994677,0.012465284562451589,0.015396035509184003
294,0.25,0.001,0.009671833658335256,0.006602385610926385,17.201187058991078,0.012277792333326964,0.015329328482039273
295,0.25,0.001,0.009537884819449163,0.006459267043015536,17.25257293850768,0.012314470334409479,0.010299432324245572
296,0.25,0.001,0.00961584028075723,0.0065782213875768235,17.022816227931603,0.012150475537424413,0.014519562479108572
297,0.25,0.001,0.009746873495625514,0.006670393624945599,17.240594639497644,0.01230592051356006,0.012141451705247164
298,0.25,0.001,0.009519608526983681,0.00637379422893419,17.62914264903349,0.012583256708803347,0.011391380336135626
299,0.25,0.001,0.009441128767588559,0.006309413880694146,17.550130096136353,0.012526859454772558,0.012094922014512122
300,0.25,0.001,0.009590016970155286,0.006625878478528238,16.61103338353774,0.011856554877614377,0.016382806468755007
301,0.25,0.001,0.009550412386363628,0.006467707117325535,17.275480681774663,0.012330821328889838,0.019901063526049256
302,0.25,0.001,0.009478458039024296,0.006357854871334983,17.4878584169874,0.012482411432539187,0.016966464929282665
303,0.25,0.001,0.009430460266622842,0.006397917428437401,16.994371339386586,0.01213017226223168,0.015571261290460825
304,0.25,0.001,0.009556283991710813,0.006538262389892456,16.912993561987783,0.01207208676801412,0.015465454198420048
305,0.25,0.001,0.009603770741937207,0.006433949413179767,17.763679055606616,0.012679285550040411,0.014656250830739737
306,0.25,0.001,0.009475369134223928,0.006381762323572356,17.336573395074584,0.012374427833743458,0.012755474774166942
307,0.25,0.001,0.009508682122709704,0.006470115736638214,17.028126810111253,0.012154266102863135,0.009764028480276465
308,0.25,0.001,0.009560418296970572,0.006472370751640376,17.305419585284064,0.012352190995920102,0.011115504195913672
309,0.25,0.001,0.009404672857593088,0.006275886806714184,17.53371680016611,0.012515144040090015,0.011405487777665257
310,0.25,0.001,0.00942523397651373,0.006382253787973348,17.05286132588106,0.012171921003483983,0.013232494704425335
311,0.25,0.001,0.00943247115641248,0.00636384261808559,17.196593639897365,0.012274513661596978,0.011729571269825101
312,0.25,0.001,0.009619514421358997,0.006517147161431757,17.385665968352672,0.012409468928160366,0.011850507697090507
313,0.25,0.001,0.009609504182841264,0.006386172747714263,18.06354911654603,0.012893325564986461,0.011884863604791462
314,0.25,0.001,0.00948499051817492,0.006274316596853382,17.992616840437346,0.012842695817585544,0.011524277622811496
315,0.25,0.001,0.009450712186448714,0.006389606415348894,17.15443768220789,0.01224442375603704,0.012190863024443388
316,0.25,0.001,0.009458648406115234,0.006439049034288116,16.921836067648496,0.012078398335223766,0.014610357815399766
317,0.25,0.001,0.009439219665877959,0.006346997394062141,17.328814076442345,0.012368889419302174,0.015232573030516505
318,0.25,0.001,0.00945924598650605,0.006430113395931674,16.97525955648983,0.012116530732683676,0.013499442720785737
319,0.25,0.001,0.009529708665521705,0.0065122715964475095,16.90971606385474,0.012069747368918445,0.013628250802867115
320,0.25,0.001,0.009420340917274063,0.006343463837516074,17.242819281185376,0.012307508409125893,0.011768679600208998
321,0.25,0.001,0.009398470943172773,0.006267157921969306,17.547877610898485,0.01252525168515238,0.015333946095779538
322,0.25,0.001,0.00934357559491022,0.006180296213749577,17.727016635969573,0.012653116799407262,0.017159687820822
323,0.25,0.001,0.009429380443750643,0.00625910289476023,17.766237146714154,0.012681111453757426,0.019872111501172185
324,0.25,0.001,0.009494731969693127,0.00642902523680937,17.180220622642366,0.012262826996889626,0.017772740684449673
325,0.25,0.001,0.009412955474473681,0.006344810173865042,17.19388640160654,0.012272581300218802,0.01851138798519969
326,0.25,0.001,0.009386920753647299,0.006317871768831038,17.19895164639342,0.012276196749745482,0.016327190911397338
327,0.25,0.001,0.009504183359882411,0.0064178414496721,17.295860028734396,0.012345367615085222,0.01621055486612022
328,0.25,0.001,0.009551207991499527,0.00633852325343326,18.00388583014993,0.01285073935057097,0.018927785335108638
329,0.25,0.001,0.00953725208619646,0.006331578901439321,17.96459291495529,0.012822693015671157,0.01628981833346188
330,0.25,0.001,0.009400076068499508,0.006205079620521443,17.90476032331878,0.012779985955259657,0.020998529391363263
331,0.25,0.001,0.009386252630136762,0.006213168613612652,17.781963871974572,0.012692336810831243,0.017715434776619077
332,0.25,0.001,0.009430823464165716,0.0063843767103903435,17.072287615607767,0.012185787020419534,0.023744238540530205
333,0.25,0.001,0.009391122041087524,0.006270239942287113,17.48942326564415,0.012483528383757422,0.020909050246700644
334,0.25,0.001,0.009352890445905574,0.006270701284794246,17.272587121701708,0.012328755975518706,0.01584804756566882
335,0.25,0.001,0.009311093200071185,0.0063161184171251225,16.783839169670554,0.01197989947870846,0.015321433311328292
336,0.25,0.001,0.009232732522137025,0.006291551698072284,16.482377033607634,0.01176472307894906,0.017809309996664524
337,0.25,0.001,0.009291680401885043,0.006171465449619527,17.485685086717794,0.012480860161825692,0.018623326206579804
338,0.25,0.001,0.009481170890378017,0.0063999536282875955,17.267141080370138,0.012324868722605381,0.019015167839825153
339,0.25,0.001,0.009382367535841232,0.0062823037653431,17.372756696214864,0.012400254601152651,0.01828443817794323
340,0.25,0.001,0.009543149750314507,0.006464809215828485,17.251019533942728,0.01231336155170787,0.020147686125710607
341,0.25,0.001,0.009309931859081867,0.006136777573356442,17.782356823191922,0.012692617289929995,0.01700504228938371
342,0.25,0.001,0.009210048316448343,0.006211483001928119,16.803960407481473,0.011994261532820466,0.017544982954859734
343,0.25,0.001,0.009353997240609983,0.006361388939195404,16.770578047808478,0.011970434009856158,0.012074877973645926
344,0.25,0.001,0.009324345956830418,0.0062043217887334965,17.484615961710613,0.012480097046188875,0.018848316627554595
345,0.25,0.001,0.009372193804558586,0.006151959583090216,18.046192879770317,0.012880937101906008,0.01650143275037408
346,0.25,0.001,0.009446842559412414,0.006342722888232446,17.395485971488206,0.012416478209484801,0.021615672390908003
347,0.25,0.001,0.009233061479879361,0.006104785857685641,17.53085611380783,0.012513102151183318,0.01879418594762683
348,0.25,0.001,0.00940472738561677,0.0062130568275118574,17.886121562882966,0.01276668205773231,0.019381418358534575
349,0.25,0.001,0.009328838401273186,0.00625375537749599,17.232766170127718,0.01230033274099052,0.014690399635583162
350,0.25,0.001,0.009215125412333245,0.006229979132174277,16.728760513604858,0.011940585662815743,0.016132771619595587
351,0.25,0.001,0.00937761169146089,0.006245734188340458,17.55104035022212,0.01252750917217853,0.015867130598053336
352,0.25,0.001,0.009242329399521444,0.006051192690125283,17.883131102019664,0.012764547538914822,0.015125785255804658
353,0.25,0.001,0.00930648481509849,0.006330212030340643,16.679032643636067,0.011905091108947942,0.021154640475288033
354,0.25,0.001,0.009369528505439852,0.006283519250870335,17.293995894637764,0.012344037041140446,0.015248044626787305
355,0.25,0.001,0.009345720887330234,0.00611516715520445,18.104022942337334,0.012922214805379967,0.01563992048613727
356,0.25,0.001,0.009241536515308362,0.0061279921335916894,17.448304120232077,0.01245417852978735,0.016944453585892916
357,0.25,0.001,0.009319209822398774,0.006360504191880133,16.580587200089997,0.011834823126402568,0.01978750480338931
358,0.25,0.001,0.00938538870975083,0.006265276659499197,17.485109404021618,0.012480449253405865,0.019083522027358413
359,0.25,0.001,0.009150775861652458,0.0060879304530281645,17.164185430489333,0.012251381463589816,0.011875104857608676
360,0.25,0.001,0.009250914860589831,0.006361368514013057,16.19301769780178,0.011558185366025538,0.015794691862538457
361,0.25,0.001,0.009140638488472677,0.006167017325174575,16.66417297662473,0.011894484637133997,0.016972740879282355
362,0.25,0.001,0.009295717721768454,0.006286185536095325,16.865419313019398,0.012038129416858957,0.017541614826768637
363,0.25,0.001,0.009318909936529748,0.006247414431224267,17.212660434199314,0.012285981751748262,0.015187900746241212
364,0.25,0.001,0.009364855347895155,0.006116445505005472,18.204086939493816,0.012993638072443837,0.01537879602983594
365,0.25,0.001,0.009283122113522361,0.006014534345298421,18.31716642192766,0.013074351478891976,0.01883953297510743
366,0.25,0.001,0.00916459568429227,0.006021501724699549,17.61389866997214,0.012572375924319873,0.018115885788574815
367,0.25,0.001,0.009185655626888369,0.006209477380502457,16.678503616183413,0.011904713501915356,0.012317851185798645
368,0.25,0.001,0.009170716701477183,0.006250389121180656,16.36551460565305,0.01168130949725414,0.014037166023626924
369,0.25,0.001,0.009306864009476175,0.006246729671735974,17.14899388481589,0.012240538104793641,0.020440216874703765
370,0.25,0.001,0.009133674441745468,0.005980188793995801,17.672134810802984,0.012613943476661659,0.016605052864179015
371,0.25,0.001,0.009332542709421878,0.006233201928290666,17.36870522592582,0.012397362759404581,0.017289081821218133
372,0.25,0.001,0.009283574772816078,0.006275086462789891,16.859568371492273,0.012033953155954513,0.02017880231142044
373,0.25,0.001,0.009387290835672734,0.006252548849100576,17.567094092275582,0.012538967945949737,0.01754119386896491
374,0.25,0.001,0.00912035561586712,0.005890143432599657,18.102109048880784,0.012920848714404557,0.02050670119933784
375,0.25,0.001,0.009291503687991816,0.006090343591994515,17.939301621680166,0.012804640700699619,0.012558088405057788
376,0.25,0.001,0.009236255039771398,0.006121692147252022,17.454011879715264,0.012458252590803185,0.015188786666840315
377,0.25,0.001,0.009213905818029946,0.006039500610866383,17.78936864815506,0.012697622161424027,0.015481316251680255
378,0.25,0.001,0.009327379712725388,0.006104989643847826,18.05827294143976,0.012889559558486623,0.014596452936530113
379,0.25,0.001,0.009376231160964452,0.006299306483318408,17.24308739456476,0.012307699781987695,0.01588416751474142
380,0.25,0.001,0.009271482517029726,0.0060996011940433695,17.775222105138443,0.01268752470031295,0.01713294326327741
381,0.25,0.001,0.009235352095143468,0.006070988061016097,17.733097076416016,0.012657456871103508,0.015275495825335383
382,0.25,0.001,0.00926556744996239,0.006210196288485153,17.122299830118816,0.01222148453256161,0.015270406380295753
383,0.25,0.001,0.009254918196329884,0.006144219845095102,17.432353636797735,0.012442793459527292,0.016531974775716662
384,0.25,0.001,0.00928122164937211,0.0061694449909469665,17.438397575827207,0.012447107477392725,0.019494707696139812
385,0.25,0.001,0.009157921717155213,0.006055309720264346,17.38703888537837,0.012410448883210828,0.014323915354907513
386,0.25,0.001,0.009188077357762,0.006110485067919773,17.246827910928165,0.0123103696723256,0.012675073463469744
387,0.25,0.001,0.00905888567806459,0.006000759080052376,17.13774191164503,0.01223250671780516,0.012274411972612143
388,0.25,0.001,0.00919639213266326,0.00616515779356454,16.98703691071155,0.012124937123991113,0.012167799519374967
389,0.25,0.001,0.00908502415918252,0.00611232409217194,16.659011466830385,0.01189080047596744,0.01097913971170783
390,0.25,0.001,0.009130243869388805,0.006078119983202687,17.10410192901013,0.01220849530978596,0.014815214788541198
391,0.25,0.001,0.009084107098626155,0.006072019400330735,16.879738265392827,0.012048349939609442,0.014251545537263155
392,0.25,0.001,0.009040822220199248,0.006110788450813761,16.419911104090072,0.011720136405488989,0.011652329005300999
393,0.25,0.001,0.008977104270575093,0.005978050632584913,16.80669614380481,0.011996214235406717,0.012676337268203497
394,0.25,0.001,0.00900505285929231,0.0059038814084202635,17.37896462982776,0.01240468567439526,0.010192460380494595
395,0.25,0.001,0.009036902886103182,0.005984255304450498,17.107036366182214,0.012210589840244264,0.011134434258565307
396,0.25,0.001,0.008949902456472902,0.005930940949303263,16.918261284921684,0.012075846741557233,0.011676576687023044
397,0.25,0.001,0.00919083126035391,0.0061291857878221015,17.157461128982842,0.012246581819402457,0.014367306372150779
398,0.25,0.001,0.009242483834717787,0.006008633768514675,18.12249501546224,0.012935399725526223,0.014135587029159069
399,0.25,0.001,0.009067654280978091,0.005883532338867001,17.84381944992963,0.012736487830071114,0.01582297682762146
400,0.25,0.001,0.009157164597555119,0.006015082994731618,17.608225691552256,0.012568326689187906,0.011065895901992917
401,0.25,0.001,0.009060640581974796,0.006067353072484918,16.774381936765185,0.01197314913402226,0.012587941717356443
402,0.25,0.001,0.00906065511791145,0.00606934553669656,16.763298670450848,0.011965238165917807,0.012120980303734541
403,0.25,0.001,0.009174425227969301,0.006001142584079621,17.783075145646638,0.012693130011168193,0.014451547525823116
404,0.25,0.001,0.00906686378898574,0.005971068534634861,17.34883555243997,0.012383180265838664,0.01325759175233543
405,0.25,0.001,0.00913340165553724,0.006062443514226698,17.209649665682925,0.012283832737817933,0.016746965935453773
406,0.25,0.001,0.009138714376033521,0.006069081762403834,17.2022211598415,0.012278530449565667,0.011556455283425748
407,0.25,0.001,0.009119406525118678,0.006141489974277861,16.68824341717888,0.011911665536887139,0.02071981318295002
408,0.25,0.001,0.009185700147759681,0.006176153289190694,16.865500207040824,0.012038187157059833,0.01654996257275343
409,0.25,0.001,0.009064622150332319,0.005992006629194115,17.218938939711627,0.012290463197510084,0.015011105220764875
410,0.25,0.001,0.009030688882750623,0.005844044033437967,17.857959261127547,0.01274658048617241,0.02005187515169382
411,0.25,0.001,0.009177297225915919,0.00611999154310016,17.13314052656585,0.012229222360146931,0.016887367935851216
412,0.25,0.001,0.009007329468195345,0.005926871909668632,17.262886234358245,0.01232183171617291,0.01524356717709452
413,0.25,0.001,0.00896022607590638,0.005907993005844308,17.104714187921264,0.012208932325425598,0.01576846418902278
414,0.25,0.001,0.00906091128640315,0.006064461416327486,16.792105132458257,0.011985799523524809,0.01505987741984427
415,0.25,0.001,0.009003873877957756,0.0059825108459621084,16.931718564500997,0.012085452223055673,0.013330828631296754
416,0.25,0.001,0.009026489092731009,0.005856067891798767,17.767039130715762,0.012681683890589409,0.013971743639558554
417,0.25,0.001,0.008970900822211714,0.005881755813664081,17.311570279738483,0.01235658121323232,0.0165761400712654
418,0.25,0.001,0.00909452633384396,0.006089313476182082,16.841213488111308,0.012020851883020205,0.013646097155287862
419,0.25,0.001,0.008960053616879033,0.005896238117095302,17.169621935077743,0.012255261909405955,0.014643707545474172
420,0.25,0.001,0.008962902824814413,0.005918243315582182,17.06227268892176,0.012178638607367422,0.010518534807488322
421,0.25,0.001,0.009139509579422427,0.006103927616541292,17.011401232551126,0.012142327789115722,0.015948896994814277
422,0.25,0.001,0.009076834747604295,0.005977536259474708,17.368469051286286,0.012397194183644744,0.018330552149564028
423,0.25,0.001,0.009048118913436638,0.005996721741907737,17.100028842103246,0.012205588038617592,0.017361216945573688
424,0.25,0.001,0.009052883358854874,0.006041447065916716,16.876089582256242,0.012045745597613306,0.015742019517347217
425,0.25,0.001,0.00898933861696837,0.0059320679683165225,17.132944742838543,0.012229082614445783,0.01577822375111282
426,0.25,0.001,0.009165507933015333,0.0061078512055032395,17.135108685960958,0.012230627184840085,0.01748419855721295
427,0.25,0.001,0.009013005514063087,0.005837286393359012,17.79672981710995,0.012702876386231226,0.017260621301829815
428,0.25,0.001,0.009028309937931743,0.0059842205715968325,17.05907694498698,0.012176357562446095,0.01668678829446435
429,0.25,0.001,0.009110220141854941,0.0061307313998101975,16.69705499387255,0.011917955027746287,0.017954280832782388
430,0.25,0.001,0.009071535741289457,0.005953558958044239,17.473142100315467,0.01247190728073909,0.012018569628708065
431,0.25,0.001,0.009061007760465145,0.005965988973484319,17.34448563818838,0.012380075401990279,0.016323169227689505
432,0.25,0.001,0.00917035253608928,0.006159764614102303,16.871333851533777,0.012042351071758585,0.02144289668649435
433,0.25,0.001,0.009055628167355763,0.005982708185911179,17.220643436207492,0.01229167982598679,0.024541290011256933
434,0.25,0.001,0.009122934028068009,0.005970518095601423,17.666138181499406,0.012609663227337193,0.024133332073688507
435,0.25,0.001,0.009045738854682912,0.006005078234581971,17.0398614172842,0.012162641982358459,0.01772650796920061
436,0.25,0.001,0.009050439239716997,0.006023217549584075,16.964550766290404,0.012108887056595578,0.01346357329748571
437,0.25,0.001,0.008995304797209945,0.005891652010819491,17.392869650148878,0.012414610742433175,0.01015001570340246
438,0.25,0.001,0.009077874048813885,0.0059382858430491944,17.594251931882372,0.012558352556661222,0.011004811385646462
439,0.25,0.001,0.008892503493995058,0.005815247238120612,17.244944441552256,0.01230902529732495,0.012359942076727748
440,0.25,0.001,0.009122715240307883,0.00618085908867857,16.486163793825636,0.011767425977034715,0.012844797922298312
441,0.25,0.001,0.008976679112689168,0.005973119927825881,16.831945419311523,0.012014236559108868,0.011841901112347841
442,0.25,0.001,0.008888361117272986,0.005760686033788849,17.527490989834654,0.012510700206876984,0.012889593839645386
443,0.25,0.001,0.00897036268211463,0.005949371832185516,16.929633346258424,0.012083963844581316,0.016648649470880628
444,0.25,0.001,0.008919437653293796,0.005899402541199736,16.924275192559936,0.012080139323740139,0.013822755310684443
445,0.25,0.001,0.008915614062810646,0.005901643266791806,16.89029334573185,0.012055883901307528,0.01845404878258705
446,0.25,0.001,0.009023494452384173,0.005994599349066323,16.97392961090686,0.01211558144961232,0.017150608357042074
447,0.25,0.001,0.008925443843883626,0.005854561614493529,17.209224439134786,0.012283529221366728,0.01545404433272779
448,0.25,0.001,0.00896490389006395,0.005902924200556442,17.159333659153358,0.012247918386262211,0.014563891338184476
449,0.25,0.001,0.008938490741831414,0.005916317358759104,16.936260298186657,0.012088694002988334,0.01636847690679133
450,0.25,0.001,0.008889039266197121,0.005709747491660071,17.81675073212268,0.012717166832350236,0.014857458183541894
451,0.25,0.001,0.008941185240652048,0.005853124419409854,17.305493560491822,0.012352243797638702,0.014362286543473601
452,0.25,0.001,0.00896536330601164,0.00602234637036043,16.492666730693742,0.011772067616483755,0.012805811129510403
453,0.25,0.001,0.009089388610685574,0.006079857484163607,16.8654125438017,0.012038124585154675,0.01238844241015613
454,0.25,0.001,0.009035209522527806,0.005899755905071895,17.571081460690966,0.012541814033326885,0.016217625932767987
455,0.25,0.001,0.008960218314884924,0.0059245207858290155,17.01204943189434,0.012142790458168694,0.012010713457129896
456,0.25,0.001,0.008894478244816555,0.00586490517518684,16.977728077009612,0.012118292703076097,0.013869155896827579
457,0.25,0.001,0.008864939870203243,0.005698317807971262,17.745750464645088,0.012666488554350527,0.010723774787038565
458,0.25,0.001,0.008863702690338386,0.005783939496705345,17.258992999207738,0.012319052818849206,0.011937596136704087
459,0.25,0.001,0.00890501022484957,0.005909159140405702,16.78874969482422,0.011983404493093661,0.013984020566567779
460,0.25,0.001,0.00880096231897672,0.00574421400533003,17.130017224480124,0.012226993022469754,0.019420637981966138
461,0.25,0.001,0.009058956549886395,0.006172577521818525,16.175269145591585,0.011545516877652809,0.022379769245162606
462,0.25,0.001,0.00888764441889875,0.005919695786182203,16.63238514170927,0.011871795247472713,0.019928151974454522
463,0.25,0.001,0.008750527458009767,0.0057112516963160505,17.03210183685901,0.01215710338105568,0.024101679911836982
464,0.25,0.001,0.008985639677620401,0.00591477206634248,17.20914253534055,0.012283470760414384,0.023776184301823378
465,0.25,0.001,0.008908435227532013,0.005868963093734255,17.033203349393958,0.01215788961412845,0.019969767425209284
466,0.25,0.001,0.008957725273920041,0.0058454334480213185,17.441283057717715,0.012449167064752117,0.02043013903312385
467,0.25,0.001,0.009013262175607915,0.006034814460458709,16.691220190010817,0.011913790285518071,0.0172232030890882
468,0.25,0.001,0.008911183615233385,0.005920204434397758,16.761447270711262,0.011963916681449865,0.015861117281019688
469,0.25,0.001,0.008816152865834096,0.005774029457539904,17.04806137084961,0.012168494911384446,0.01621117047034204
470,0.25,0.001,0.008906699936179555,0.005821053039136471,17.291965297624177,0.012342587649981569,0.0185855058953166
471,0.25,0.001,0.008847032527567125,0.005799221861011842,17.07993013718549,0.012191242067941106,0.0172422647010535
472,0.25,0.001,0.009021841610471407,0.005967962646893426,17.113937078737745,0.012215515402382401,0.01425520097836852
473,0.25,0.001,0.008893830719970021,0.005804857887400716,17.31060568491618,0.012355892708719615,0.014808965846896172
474,0.25,0.001,0.008984898892687816,0.0060553009457447945,16.4174664441277,0.011718391466186796,0.018680241191759706
475,0.25,0.001,0.00885024540783728,0.0058489346913262906,16.819345362046185,0.01200524294221712,0.012830359395593405
476,0.25,0.001,0.008889717652517207,0.005804071896800808,17.29196095934101,0.012342584553419708,0.012126008630730212
477,0.25,0.001,0.0088915554076141,0.005859954656996564,16.989090639002182,0.012126403025697488,0.01186704752035439
478,0.25,0.001,0.00883796000305344,0.005787361997599695,17.09555072410434,0.012202391666027365,0.010825899429619312
479,0.25,0.001,0.00876790588246841,0.005720077210343352,17.080032423430797,0.012191315077395288,0.01023218221962452
480,0.25,0.001,0.008775206319257324,0.005819124397913031,16.56588322508569,0.011824327783787072,0.01455246051773429
481,0.25,0.001,0.008923349573331721,0.005923953774732118,16.808613085279276,0.01199758250198378,0.01856578327715397
482,0.25,0.001,0.008951316514582025,0.0058134927176961716,17.584364386165845,0.012551295065071981,0.018285559490323067
483,0.25,0.001,0.008846069923510738,0.005687154281665297,17.70256274354224,0.01263566220095806,0.018748780013993382
484,0.25,0.001,0.00892086838390313,0.0059453712538907345,16.67468583350088,0.011901988460742956,0.020265223924070597
485,0.25,0.001,0.008780945439402964,0.00575105813971045,16.97948844760072,0.01211954921313399,0.01961768651381135
486,0.25,0.001,0.008800547734341201,0.005757617307644265,17.052582834281175,0.012171722222898768,0.0181640749797225
487,0.25,0.001,0.00882171543643755,0.005813812243514785,16.856289919684915,0.012031613076149118,0.015197070082649589
488,0.25,0.001,0.008933685975624066,0.005959312294555061,16.66838922687605,0.01189749409484372,0.016170833259820938
489,0.25,0.001,0.008919903387626013,0.005913165580554336,16.849760915718825,0.012026952830634421,0.01641867682337761
490,0.25,0.001,0.00887817659360521,0.005685071077416925,17.89416286992092,0.012772421748694446,0.013720329152420163
491,0.25,0.001,0.008922299589304364,0.005738447493343961,17.84230692246381,0.01273540822445668,0.01571965985931456
492,0.25,0.001,0.008909928721978384,0.005897582700366483,16.88118900972254,0.012049385445911878,0.012858741683885455
493,0.25,0.001,0.008883603099806636,0.005839210953198227,17.060774485270183,0.012177569225746027,0.013024452840909362
494,0.25,0.001,0.008774850882735908,0.0057118688618727756,17.16495132446289,0.012251928140230472,0.01123757753521204
495,0.25,0.001,0.008847486428624275,0.00582368339539743,16.94539316962747,0.01209521282628656,0.01385260745882988
496,0.25,0.001,0.008812865936288647,0.005811310665426301,16.820717605890014,0.012006222416766606,0.013370235683396459
497,0.25,0.001,0.008783988380695091,0.005711319911129335,17.219234728345683,0.012290674324300987,0.012543575605377555
498,0.25,0.001,0.008793372953054952,0.005697209095838023,17.350901884191178,0.012384655163591133,0.01668542786501348
499,0.25,0.001,0.008766844138210895,0.0057625786364808975,16.835903616512525,0.012017061824776963,0.014050157740712166
500,0.25,0.001,0.008805633394741545,0.0058239063010642345,16.70959857865876,0.011926908335944867,0.0165518659632653
