epoch,beta,learning_rate,train_loss,train_reconstruction_loss,train_kl_unnormalized,train_kl_normalized,mean_unclipped_gradient_norm
1,0.0,0.001,0.07134317249769256,0.07134317249769256,55.78886854080927,0.039820748423132955,0.10795016669564778
2,0.02,0.001,0.053608538721288956,0.04764271768076079,417.9057694208054,0.298291055974879,0.12398327887058258
3,0.04,0.001,0.04481056382258733,0.04158145849193846,113.09942379179455,0.08072764010834729,0.093968881915013
4,0.06,0.001,0.03670672171172642,0.03376198674241702,68.7595828465053,0.04907893136795524,0.052733846836619906
5,0.08,0.001,0.034574140019360045,0.03204837759335836,44.232410677955265,0.03157202760739134,0.03254542810221513
6,0.1,0.001,0.03355748534202576,0.031744811506498424,25.395569352649506,0.018126744719949683,0.034507544400791325
7,0.12,0.001,0.032389765296663556,0.030579835453203745,21.130928104945593,0.015082746684472228,0.0448759693859352
8,0.14,0.001,0.030614460525768144,0.028620282230632645,19.95602540515718,0.014244129482624683,0.03955808043893841
9,0.16,0.001,0.0284319524786302,0.02602049511812982,21.115326421828495,0.015071610579463594,0.04828054540687137
10,0.18,0.001,0.026678131758457138,0.023974362711111703,21.044337187267484,0.015020940176493565,0.021652039243943162
11,0.2,0.001,0.025498817499194828,0.022509064653090067,20.943219181242444,0.01494876458332794,0.0459057345158524
12,0.22,0.001,0.025095597633293696,0.02203492226699988,19.490937932332358,0.013912161265048078,0.06782340361840195
13,0.24,0.001,0.024604868562448593,0.02155280359444164,17.816432208106633,0.012716939477592172,0.044022227740950055
14,0.25,0.001,0.024328439569189435,0.02119471356627487,17.561400660560246,0.012534904111748926,0.06677542719990015
15,0.25,0.001,0.024229239970445633,0.021463084898534275,15.50153358822777,0.011064620691097624,0.09425897068447536
16,0.25,0.001,0.02385972035782678,0.020783248000911303,17.240551661536806,0.012305889836928484,0.053619145415723324
17,0.25,0.001,0.02361275456136181,0.020637550251114935,16.67304583231608,0.011900817867463298,0.04224748505900303
18,0.25,0.001,0.023374880183310735,0.02035741669436296,16.909866220383417,0.012069854547025994,0.04804226569831371
19,0.25,0.001,0.02305643590433257,0.020214167804945084,15.92807262965611,0.011369073968348402,0.021592325220505398
20,0.25,0.001,0.02297483314360891,0.020078092625453358,16.233335500444685,0.011586963240859876,0.047053709626197815
21,0.25,0.001,0.02282422195942629,0.01988136243962106,16.491783944992793,0.011771437505348176,0.031217451259079907
22,0.25,0.001,0.02249519220775082,0.019618197204101653,16.122679072788785,0.011507979352454522,0.017917686762909096
23,0.25,0.001,0.02248784484607833,0.01954763073296774,16.47695928846087,0.011760856023169784,0.025726734660565853
24,0.25,0.001,0.022113162371374312,0.019234220818394706,16.13358618055071,0.011515764582834199,0.022638746226827305
25,0.25,0.001,0.02219332647465524,0.01916815383803277,16.95306797935849,0.012100690920312985,0.025585516252451472
26,0.0,0.001,0.018670249769375438,0.018670249769375438,21.817962290445962,0.015573135110953578,0.06440361671977574
27,0.02,0.001,0.01787321926937217,0.017252486956616242,43.482286972772506,0.031036607403834765,0.046113957857920065
28,0.04,0.001,0.018155190685675258,0.016502820608161745,57.87427672613235,0.04130926247404165,0.025414823037054803
29,0.06,0.001,0.018534120622844923,0.016374829663407236,50.41944559006464,0.03598818386157362,0.020723069707552593
30,0.08,0.001,0.0186810574503172,0.016642839195472853,35.694293761480424,0.02547772573981472,0.013958025258034468
31,0.1,0.001,0.01887011465217386,0.016822854248540742,28.682121996198383,0.020472606706779715,0.01714133760995335
32,0.12,0.001,0.019070945492102986,0.016815307147446133,26.334574835641043,0.018796984179615304,0.028661177183190983
33,0.14,0.001,0.019349345206504776,0.016806712892083894,25.444487431844074,0.018161661264699553,0.03662028298195866
34,0.16,0.001,0.01951329069832961,0.016678592346253848,24.821331162225633,0.01771686735348011,0.02305044513195753
35,0.18,0.001,0.019732191850032124,0.016884712009202867,22.162882984706332,0.01581933118108946,0.031224318262603547
36,0.2,0.001,0.019819887791361127,0.016785766287218958,21.254021057855514,0.015170607464564964,0.03467684177060922
37,0.22,0.001,0.01988785682689576,0.016772883027082398,19.83672050476074,0.014158972523026938,0.01796408975496888
38,0.24,0.001,0.02003797067417985,0.01682487478036256,18.756447706676664,0.013387899862010466,0.02879768589304553
39,0.25,0.001,0.02005348500751314,0.016882228152382942,17.771721798124766,0.01268502626561368,0.027523759338590834
40,0.25,0.001,0.020014998259998504,0.016765989134354252,18.207447720482236,0.01299603691683243,0.04081664669016997
41,0.25,0.001,0.019630811583428154,0.016616191353116715,16.89393005371094,0.012058479695725153,0.02957241118161215
42,0.25,0.001,0.01961995815592153,0.016581652402168228,17.026666524977912,0.012153223786565248,0.033085496785740055
43,0.25,0.001,0.019523256516882352,0.016309332663104647,18.010828416006905,0.01285569480086146,0.031682131708496146
44,0.25,0.001,0.019314209240533058,0.016267533908997264,17.07357040768578,0.012186702646456658,0.02742324298661616
45,0.25,0.001,0.019107578169731868,0.01608537854005893,16.936408233642577,0.012088799595747735,0.032255289455254875
46,0.25,0.001,0.01908527733314605,0.015969776493452843,17.459268166678292,0.01246200440162619,0.04201940798925029
47,0.25,0.001,0.018963738750843773,0.01588148928823925,17.27292656308129,0.012328998260586217,0.033725448987550206
48,0.25,0.001,0.01884829226703871,0.015833368155927886,16.895636892772856,0.01205969799626899,0.027066975211103756
49,0.25,0.001,0.01857659409798327,0.015575301338519369,16.819245689028786,0.012005171798021975,0.029488122194177575
50,0.25,0.001,0.018646422557177997,0.015601432947885423,17.06412224542527,0.012179958776177923,0.03774333155403534
51,0.0,0.001,0.015071554098810468,0.015071554098810468,21.474013522920153,0.015327632778672487,0.038840401917696
52,0.02,0.001,0.014381171076425484,0.013753793427631968,43.94779373168945,0.031368874897708385,0.04039265360269281
53,0.04,0.001,0.014822192578798249,0.013201565607672647,56.76246611822219,0.04051567888524068,0.02898575272411108
54,0.06,0.001,0.01516856292883555,0.013093105210434823,48.461941455659414,0.034590964636444975,0.022868564662834007
55,0.08,0.001,0.01517251111212231,0.013268996672261328,33.33529637291318,0.02379393031614074,0.020446141043470964
56,0.1,0.001,0.015469826892727898,0.013525343349292165,27.242213352748326,0.01944483465578039,0.022139771324064996
57,0.12,0.001,0.015697631571619283,0.013425404761163962,26.52824638003395,0.018935222255555995,0.02213401875148217
58,0.14,0.001,0.015803795960687456,0.013229564690873736,25.760701184953962,0.018387367012815105,0.011950283207827143
59,0.16,0.001,0.016065667158081418,0.01345324749925307,22.874998219807942,0.016327621855680187,0.015640861303028133
60,0.18,0.001,0.01630426757747219,0.013524860377822603,21.633053592500232,0.01544115174339774,0.015387057481954495
61,0.2,0.001,0.0165932321477504,0.013613998059715544,20.869531188238234,0.014896167871690388,0.04405815340578556
62,0.22,0.001,0.016833846263942263,0.013757540250108356,19.590476433890206,0.013983209446031554,0.03218904261787733
63,0.24,0.001,0.01701470725415718,0.013670143240264485,19.523892106555756,0.013935683159568705,0.02600547278092967
64,0.25,0.001,0.01701831926192556,0.013855347328242801,17.725294516427176,0.012651887592025108,0.022619319044881396
65,0.25,0.001,0.016983413518894288,0.013844483429122539,17.59056387765067,0.012555720112527246,0.036191836620370545
66,0.25,0.001,0.016840906526361193,0.013772648101051648,17.194520430791947,0.012273033854954995,0.027058181663354237
67,0.25,0.001,0.016848169898702983,0.013637182987516835,17.994371541341145,0.01284394828075742,0.031229056417942047
68,0.25,0.001,0.016718369527232078,0.013692749823842729,16.9555737831479,0.012102479502603784,0.026592441110147372
69,0.25,0.001,0.016682292176854043,0.013678876250272705,16.83114261445545,0.012013663536370772,0.02208558925324016
70,0.25,0.001,0.016694089635497046,0.013657832323085694,17.015185245332265,0.012145028726147228,0.029907312761578295
71,0.25,0.001,0.01650100445463544,0.013563235089892434,16.463261201041085,0.011751078658844458,0.03101713231040372
72,0.25,0.001,0.016545571769986833,0.013531326818324271,16.891828297206334,0.012056979512638354,0.03600005971060859
73,0.25,0.001,0.01662139595441875,0.013707987176520484,16.32674213591076,0.01165363464376214,0.036315272148284644
74,0.25,0.001,0.016560985651754196,0.013562078632059552,16.805873629252115,0.01199562714436268,0.03554975438035197
75,0.25,0.001,0.01648410280190763,0.013679335418911207,15.717917233421689,0.01121907011664646,0.03098532847232289
76,0.0,0.001,0.012975765935012273,0.012975765935012273,20.87440476917085,0.014899646516181907,0.028349321025113266
77,0.02,0.001,0.01263338267803192,0.01208728283288933,38.25429561070033,0.02730499329814442,0.02363619265250034
78,0.04,0.001,0.013074219395362196,0.011719623710073176,47.444724666050504,0.033864899833012496,0.019390760713981256
79,0.06,0.001,0.013446787498181775,0.011750735516349475,39.602813887823196,0.02826753311050906,0.016925128694209788
80,0.08,0.001,0.013656027904223829,0.012037619323957534,28.342380182175408,0.020230107196413567,0.022456781421270635
81,0.1,0.001,0.013919849910196803,0.01220006304482619,24.09421331496466,0.017197868176277414,0.02658484136271808
82,0.12,0.001,0.014261271463973182,0.01225430343300104,23.431351231166296,0.01672473321282391,0.022803737885422178
83,0.14,0.001,0.014523343514828455,0.012277319729328155,22.476280248732795,0.01604302658724682,0.014938943295015229
84,0.16,0.001,0.014776934083728563,0.01241681530184689,20.66579203651065,0.01475074378052152,0.012324129024313556
85,0.18,0.001,0.015006398705854303,0.012435219796995321,20.012342071533205,0.01428432696040914,0.017763928768949375
86,0.2,0.001,0.015234032486166274,0.012509641221591405,19.084361045474097,0.013621956492129977,0.022446794228421316
87,0.22,0.001,0.015533784723707608,0.01275149375555061,17.718136683872768,0.012646778503834952,0.02154294691152043
88,0.24,0.001,0.015712650765975316,0.01273933603295258,17.356725180489676,0.01238881169199834,0.018073407622675102
89,0.25,0.001,0.015764103771320412,0.012727886525293192,17.014961664109002,0.0121448691392641,0.015147882410221629
90,0.25,0.001,0.015779837036416645,0.012917756393906616,16.039102038428897,0.011448324081676587,0.015036483502222432
91,0.25,0.001,0.015920535311812447,0.012930343802131358,16.757032935732887,0.01196076583564089,0.024428947259568505
92,0.25,0.001,0.015740958822979812,0.012811980513589723,16.413995319548107,0.01171591386120493,0.020545357424351905
93,0.25,0.001,0.015671041079220318,0.01283843880785363,15.87390243893578,0.011330408593101913,0.019812904712226655
94,0.25,0.001,0.01571988243432272,0.012801529667561963,16.3544481695266,0.011673410542131762,0.02646420771876971
95,0.25,0.001,0.015661049204922856,0.012868602769005866,15.64887056259882,0.011169786268807151,0.025630857278075483
96,0.25,0.001,0.015681109510007358,0.012826512315798374,15.997163242158436,0.011418389180698384,0.02362236866934432
97,0.25,0.001,0.015589037672394798,0.012740104306666625,15.965423142569406,0.01139573386336146,0.0187188229109678
98,0.25,0.001,0.015703189812955404,0.012907143366478739,15.66904454730806,0.011184185972382627,0.024932205573552184
99,0.25,0.001,0.01561280191476856,0.012743842738370101,16.07764782496861,0.01147583713416746,0.0176121870883637
100,0.25,0.001,0.015623773847307478,0.012561691484990574,17.159911469959077,0.012248330813675287,0.01748756381372611
101,0.25,0.001,0.015550690951446693,0.012776396173451629,15.547147674560547,0.011097178925453638,0.0157500377131833
102,0.25,0.001,0.015457716112335523,0.012675918126035305,15.58919437226795,0.01112719084387434,0.01263728385998143
103,0.25,0.001,0.015470536251862843,0.012665362342127732,15.720194742111932,0.011220695747403234,0.01434054458513856
104,0.25,0.001,0.015365094382848058,0.012559103859322412,15.724770466032483,0.011223961788745527,0.01387673347360558
105,0.25,0.001,0.01539724265180883,0.012677673890831924,15.240464517502557,0.01087827588686835,0.02138962172385719
106,0.25,0.001,0.015287857967473211,0.012482013737871533,15.723951089041574,0.011223376937217398,0.023528075259592798
107,0.25,0.001,0.015334305163650285,0.012627574769513948,15.168517617725191,0.010826921925571158,0.01765221729874611
108,0.25,0.001,0.015293292970884415,0.012367701709625267,16.39501390003023,0.011702365381891669,0.014554380646182431
109,0.25,0.001,0.01526818591746546,0.012559521411146437,15.179356246221634,0.010834658277103237,0.01546806531647841
110,0.25,0.001,0.015257274465901511,0.01250459240660781,15.42603106362479,0.011010728810581578,0.01749491225928068
111,0.25,0.001,0.015271303398268564,0.01252432194316671,15.39408375512986,0.010987925592526666,0.019532591932349734
112,0.25,0.001,0.015184928661301023,0.012422338878469807,15.481553920564197,0.011050359686341325,0.014615739902688397
113,0.25,0.001,0.015111501037719704,0.012377164365635032,15.32322505405971,0.010937348361213212,0.013265768066048622
114,0.25,0.001,0.015176817661239987,0.012498604069863048,15.008708650498162,0.010712854140255648,0.015122835783080922
115,0.25,0.001,0.015259310166750636,0.01246357918140434,15.667276722135998,0.011182924141424695,0.028580883310900793
116,0.25,0.001,0.015094945171759242,0.012340498144427935,15.435921983264741,0.011017788710395961,0.02045416355960899
117,0.25,0.001,0.015210049413144588,0.012383292274815695,15.841146723429363,0.011307028353625527,0.02715962204254336
118,0.25,0.001,0.015100873694533393,0.01237026729931434,15.302317294166201,0.01092242490661399,0.018390660277671285
119,0.25,0.001,0.01504320222529627,0.012366525358742192,15.00009791056315,0.010706708001829515,0.010600888894663917
120,0.25,0.001,0.015045828283542678,0.012320077680051326,15.275106399172829,0.010903002426247558,0.011928295044021474
121,0.25,0.001,0.015005997465479941,0.01233062441505137,14.992789995102655,0.010701491788081838,0.014689193417628607
122,0.25,0.001,0.015044687326465335,0.012379215898967925,14.937301770164852,0.010661885631809316,0.016652677518626053
123,0.25,0.001,0.015063614902042208,0.01227008536812805,15.654940263657343,0.011174118674987396,0.021870891356633768
124,0.25,0.001,0.015112596047776086,0.012384630775167828,15.287516624813987,0.010911860545905773,0.01948672119114134
125,0.25,0.001,0.015037462635054474,0.012282117576826186,15.440954758780343,0.011021380984140145,0.012178300362494256
126,0.25,0.001,0.0149984672665596,0.012220973262474651,15.565076573689778,0.011109976141106193,0.016432308384941682
127,0.25,0.001,0.014966503335606484,0.01226145393614258,15.159096537998744,0.010820197386151852,0.014919900335371494
128,0.25,0.001,0.015014332325330802,0.012319794717643943,15.10018767583938,0.010778149661555589,0.018273985013365746
129,0.25,0.001,0.01503281115421227,0.012372094192320392,14.910657966250465,0.010642867927373637,0.020038400052322283
130,0.25,0.001,0.015051840941111247,0.012309149833662169,15.370041374933152,0.010970764721579694,0.016935894679692056
131,0.25,0.001,0.014958479530399754,0.012309711268615155,14.843697987511044,0.010595073510000745,0.01782858671827449
132,0.25,0.001,0.014977752057214577,0.012237938672658943,15.35391569773356,0.01095925460223666,0.01690469351079729
133,0.25,0.001,0.014867555126547813,0.012177293334333669,15.07622736067999,0.010761047366652385,0.02189064786459009
134,0.25,0.001,0.014804179452004887,0.012165339910203502,14.788057005746024,0.01055535831959031,0.018617863197707467
135,0.25,0.001,0.014794537206845624,0.012056832522863433,15.342097998119536,0.010950819413361554,0.013788310448742576
136,0.25,0.001,0.014795226188642638,0.012135728427342006,14.903825825282505,0.010637991309980374,0.010252555573566092
137,0.25,0.001,0.014810199333088738,0.012165379109127182,14.821572024027507,0.010579280531068885,0.01708140762315856
138,0.25,0.001,0.014861845228643644,0.0121108207727472,15.416740155901227,0.011004097184797449,0.022182316312359437
139,0.25,0.001,0.01487838932446071,0.012214728402239935,14.927155127752394,0.01065464320324939,0.021900506379703682
140,0.25,0.001,0.014771703449743134,0.012119016255296412,14.865659479413713,0.010610749093086163,0.01589476141250796
141,0.25,0.001,0.01474120561388277,0.012056011903498854,15.04782593136742,0.010740775111611292,0.012660047970712185
142,0.25,0.001,0.01466425306208077,0.01202567062739815,14.78661578405471,0.010554329610317423,0.013654997727523247
143,0.25,0.001,0.014858879079776151,0.012198020342205252,14.911453926449731,0.010643436064560835,0.01620178721431229
144,0.25,0.001,0.014850582329645043,0.012100582286005928,15.411000486101424,0.011000000346967468,0.016659781026343506
145,0.25,0.001,0.014726032568585306,0.012053326524439313,14.977845642453149,0.010690824869702461,0.018827119738691382
146,0.25,0.001,0.014807431669462294,0.012124178134614513,15.036952556428455,0.01073301395890682,0.016825700282222696
147,0.25,0.001,0.014692281456220717,0.01200644081369752,15.051451583135696,0.010743363014372374,0.01897097285836935
148,0.25,0.001,0.014729470731247038,0.012014752151001068,15.213282418023972,0.010858873960045663,0.015176813325120343
149,0.25,0.001,0.014757268609745161,0.012091249317995139,14.940371922084264,0.01066407703218006,0.015093844280474715
150,0.25,0.001,0.014768869683501266,0.01203778181579851,15.305016862778437,0.010924351793560626,0.016094069617489975
151,0.25,0.001,0.014842943299029555,0.012196423003361339,14.831099570138115,0.010586081063624636,0.014099809858534072
152,0.25,0.001,0.014666072236640113,0.011906944249002707,15.462153245835077,0.011036511952773075,0.013934348554660877
153,0.25,0.001,0.014682391952900659,0.012036182174370403,14.82935919262114,0.010584838824140715,0.015626062380356923
154,0.25,0.001,0.014710108657323178,0.011973976638345492,15.33328302474249,0.010944527498031755,0.015452582130415572
155,0.25,0.001,0.014673975816085224,0.012058317333105065,14.658150987170991,0.010462634537595283,0.015066666425102286
156,0.25,0.001,0.014607744883923303,0.011904145046359017,15.150973031180246,0.010814399022969483,0.013639681248201264
157,0.25,0.001,0.014543174004980496,0.011920424423047474,14.697889733087449,0.010490999095708387,0.01383942820959621
158,0.25,0.001,0.014623769929721243,0.01203552029849518,14.504550508771624,0.010352998221821287,0.02088395319879055
159,0.25,0.001,0.014564253510463806,0.011819618227226393,15.380935863313221,0.010978540944549052,0.01679182042264276
160,0.25,0.001,0.014650040460484369,0.012059049278142907,14.519914859590076,0.01036396492476094,0.019386689282125898
161,0.25,0.001,0.01462024605699948,0.011891312127312025,15.292945200602214,0.010915735332335627,0.027746352574063674
162,0.25,0.001,0.014633867559688431,0.012017456246983436,14.66236918494815,0.010465645385401963,0.022575755914052326
163,0.25,0.001,0.014559533890514146,0.011966619195327873,14.530693268548875,0.010371658293039883,0.014418653315967984
164,0.25,0.001,0.014524485798818725,0.011863660124086198,14.911267500377837,0.010643302998128363,0.015441597439348698
165,0.25,0.001,0.014591809557307335,0.011957637396241937,14.761901003519695,0.010536688796231045,0.02094233760403262
166,0.25,0.001,0.014617609970626376,0.011917440813212167,15.131748909723191,0.010800677308867374,0.019982573265830677
167,0.25,0.001,0.014584382424751918,0.011891772470303943,15.089387027195523,0.010770440419125997,0.013107909614013301
168,0.25,0.001,0.01463182704789298,0.01185310928949288,15.571934482029507,0.01111487115062777,0.015431982258127796
169,0.25,0.001,0.014456507146713279,0.011859553250528516,14.553330508640835,0.010387816208879968,0.012510809012585215
170,0.25,0.001,0.014487294930787313,0.011803066421832356,15.042417308262417,0.01073691456692535,0.01370679566429721
171,0.25,0.001,0.014465111376983779,0.011880624384752342,14.48346592857724,0.010337948557157202,0.019808985758572817
172,0.25,0.001,0.014495364590769722,0.011889297282766728,14.604401208786737,0.010424269242531575,0.015531744187076887
173,0.25,0.001,0.014413655017103467,0.011680504871266229,15.316575093950544,0.01093260178012173,0.016342019196599722
174,0.25,0.001,0.014455275290778705,0.011879771364231904,14.433124455043247,0.010302016027868127,0.019267339518086776
175,0.25,0.001,0.014523835719696112,0.011810104790188018,15.20774856749035,0.010854924031042363,0.017759859665400453
176,0.25,0.001,0.014518902645934195,0.01187830363178537,14.797916724795387,0.010562395949175865,0.027294961011244193
177,0.25,0.001,0.014408666697286424,0.011767527237534523,14.800946695236933,0.010564558668977111,0.016261775253547564
178,0.25,0.001,0.014501900965613978,0.011828149858684767,14.983700470697313,0.010695003904851758,0.01418831872029437
179,0.25,0.001,0.014394977404957725,0.011781280901105631,14.64715522584461,0.01045478602844012,0.012310581126560768
180,0.25,0.001,0.014502948327433495,0.011850995233371145,14.8615457207816,0.010607812791421556,0.013524908986356523
181,0.25,0.001,0.014431731454318478,0.011668424379257929,15.485572651454381,0.011053228159496347,0.01649127124498288
182,0.25,0.001,0.014490491251150766,0.011914592763142927,14.435334716070265,0.010303593658865285,0.017226484914620716
183,0.25,0.001,0.014383558591916448,0.011653464168664956,15.299448827107748,0.010920377464031225,0.01666407814870278
184,0.25,0.001,0.014374341659602665,0.011713044173305943,14.913910035632906,0.010645189176040619,0.01583438294215335
185,0.25,0.001,0.014360988541018395,0.01173152912762903,14.735490789867583,0.010517837822889068,0.01075270233882798
186,0.25,0.001,0.014376042939367749,0.011751426905393601,14.70834916069394,0.010498464782793676,0.016632259926862188
187,0.25,0.001,0.014483692489919209,0.011756395097999346,15.283776490347726,0.010909190928156835,0.023711454744140308
188,0.25,0.001,0.014424755899679093,0.011794890028735001,14.737768044244675,0.01051946327212325,0.021573318478961784
189,0.25,0.001,0.014521653095171566,0.011866607799061707,14.878874188377743,0.01062018143353158,0.02582813012931082
190,0.25,0.001,0.014425031588900657,0.011732201991336686,15.090618195306687,0.010771319197221048,0.022434850947724447
191,0.25,0.001,0.01442636132595085,0.011792943568101951,14.757673505147299,0.010533671309883868,0.01663472048110432
192,0.25,0.001,0.014353496634534427,0.011702711647819905,14.85499860854376,0.010603139620659357,0.018813079016076192
193,0.25,0.001,0.01442868832321394,0.01180897620462236,14.680866248721168,0.010478848143269928,0.021997293767829735
194,0.25,0.001,0.01442063599292721,0.011722917386463711,15.118016266595749,0.010790875279511598,0.019262167883829936
195,0.25,0.001,0.014327300639734381,0.011672107229630153,14.87970348903111,0.010620773368330557,0.017956767231225967
196,0.25,0.001,0.014413331534181322,0.011838304719754628,14.430450664701915,0.010300107540829348,0.013176294974982738
197,0.25,0.001,0.014334338928262393,0.011667002549483663,14.947752487545921,0.01066934510174584,0.013487191042966314
198,0.25,0.001,0.014231731810030483,0.011635808957119782,14.547551756359281,0.010383691474917403,0.0179611890990701
199,0.25,0.001,0.014285876570003374,0.01169249207845756,14.533328317914691,0.01037353912770499,0.016880664974451065
200,0.25,0.001,0.014346298761665821,0.011707084741266001,14.790154760451545,0.010556855646289469,0.0169871196978622
201,0.25,0.001,0.01431625842870701,0.011705141675968965,14.632697594052269,0.010444466519666145,0.016305444555150136
202,0.25,0.001,0.014295621354665075,0.011689312058900083,14.605756072998046,0.010425236311918662,0.0164444362744689
203,0.25,0.001,0.01432151602492446,0.011585360295360997,15.333417349315825,0.010944623375671538,0.01638272415018744
204,0.25,0.001,0.014324848955231053,0.01172133857118232,14.590070871625628,0.01041404059359431,0.013590720482170582
205,0.25,0.001,0.01436096517812638,0.011668015313999993,15.091291236877442,0.010771799598056703,0.019695664652519755
206,0.25,0.001,0.014337689713353202,0.011713878886685484,14.70383667355492,0.010495243878340414,0.022481487339569464
207,0.25,0.001,0.014299568237648124,0.01163718932263908,14.919970714024135,0.010649515142058625,0.014858694954050912
208,0.25,0.001,0.014338959281643231,0.011755155218499047,14.47963812873477,0.01033521636597771,0.014959889878001478
209,0.25,0.001,0.01431218276421229,0.011663921439931507,14.840856708344958,0.010593045473479628,0.012138614017102454
210,0.25,0.001,0.014222907729092099,0.011576384721057755,14.831115324837821,0.010586092308949194,0.01226426200527284
211,0.25,0.001,0.014271610503395399,0.011691742276861554,14.45758110954648,0.010319472597820472,0.014748755842447281
212,0.25,0.001,0.014176849517084303,0.011506842697660129,14.962718276977538,0.010680027321183111,0.015358910999364324
213,0.25,0.001,0.014204229180301939,0.011605447995520773,14.563570976257324,0.01039512560760694,0.014063104262782468
214,0.25,0.001,0.014215358783091818,0.011603277348691508,14.638104607718331,0.010448325915573398,0.015986500928799312
215,0.25,0.001,0.014159398768984137,0.011549788090799536,14.624258299328032,0.010438442754695241,0.014745672647323873
216,0.25,0.001,0.014187624908628918,0.011562787303257556,14.709589048113141,0.010499349784520443,0.01785968668344948
217,0.25,0.001,0.014176889402525766,0.011578902052271934,14.559120942978632,0.010391949281212443,0.017758021855519876
218,0.25,0.001,0.014186634382321721,0.011601752468517848,14.48567761012486,0.010339527202087695,0.013024512057503065
219,0.25,0.001,0.014136342172111785,0.011459551819023632,15.000732736133394,0.010707161125005991,0.011520902729696698
220,0.25,0.001,0.014279626941397077,0.011660643182694911,14.67678490774972,0.010475934980549408,0.01505919038835499
221,0.25,0.001,0.014211028181016445,0.011563196010178044,14.838451051257906,0.010591328373488869,0.013125274226897292
222,0.25,0.001,0.01418330102271977,0.011554727384022304,14.730527165730795,0.01051429490773076,0.013449827105634742
223,0.25,0.001,0.01423748013873895,0.011612510477148352,14.710329778762091,0.010499878500187075,0.01332910984961523
224,0.25,0.001,0.014171657737876688,0.011598133185789698,14.422032047453381,0.010294098534941743,0.017098293277538486
225,0.25,0.001,0.014179972832401593,0.01153402013970273,14.827918766566686,0.010583810682774223,0.012915302067995071
226,0.25,0.001,0.014135533014223689,0.011480234683979126,14.880292485555014,0.010621193779839411,0.013166539474493928
227,0.25,0.001,0.014183956214359828,0.011665616787615277,14.112774921598888,0.010073358259528114,0.013701901564167606
228,0.25,0.001,0.01425862959275643,0.01152735485030072,15.30606562659854,0.010925100375873334,0.013190559525456693
229,0.25,0.001,0.01421236491274266,0.011551780760997818,14.909913858686174,0.010642336801346306,0.016996585557030305
230,0.25,0.001,0.014270138318339983,0.011589212357288315,15.02390893845331,0.010723703739081592,0.015184752539628081
231,0.25,0.001,0.014195052740119752,0.011578633325795333,14.662414047604516,0.010465677407283738,0.015977885263661545
232,0.25,0.001,0.014196630673749107,0.011618709851588522,14.446668677557083,0.010311683567135677,0.01518704928457737
233,0.25,0.001,0.014225404290925888,0.011653429679572582,14.413346127101354,0.01028789873454772,0.017881498465107545
234,0.25,0.001,0.014158525110355445,0.011496809729862782,14.91625264485677,0.010646861273987703,0.011411309656169679
235,0.25,0.001,0.014125547778038752,0.011546006333969887,14.455750458126976,0.010318165923002838,0.011383955573870076
236,0.25,0.001,0.014169711585910547,0.011485731569784028,15.041024791172573,0.010735920621821965,0.017567053126792114
237,0.25,0.001,0.014156852091352146,0.011552432752436115,14.595166311718168,0.010417677595801691,0.014750986256533198
238,0.25,0.001,0.014145340632115092,0.01157368166815667,14.41157681601388,0.010286635842979215,0.012827771301898692
239,0.25,0.001,0.014122675973035041,0.011475668494545278,14.833829474676223,0.010588029603623286,0.011881298954702087
240,0.25,0.001,0.0142169042073545,0.011624277668694656,14.52907925742013,0.010370506250835212,0.01724006975483563
241,0.25,0.001,0.014180017145616668,0.01151114945787759,14.95633366721017,0.010675470140763862,0.015966003243294027
242,0.25,0.001,0.01406612644592921,0.011420793405600956,14.824447263081868,0.01058133280733895,0.013805505509177843
243,0.25,0.001,0.014010277574970609,0.011455249406752133,14.318377583821615,0.010220112479530061,0.012000586423608992
244,0.25,0.001,0.014025280858789171,0.011424135776857535,14.576817020234607,0.010404580314228841,0.012013216192523638
245,0.25,0.001,0.014052094455276217,0.011474394212876047,14.445431909107027,0.010310800791653838,0.016023307831750974
246,0.25,0.001,0.014075633133096354,0.011509795627068905,14.378952796572731,0.010263349604976968,0.01794239195684592
247,0.25,0.001,0.014056015855499676,0.011499988275269667,14.323979770115443,0.010224111184950351,0.013972472295992903
248,0.25,0.001,0.014065107759975251,0.011476264698874382,14.507876290820894,0.010355372084811488,0.012203833243499199
249,0.25,0.001,0.014044767623501165,0.011416440075706868,14.729147495088123,0.010513310132111436,0.014464366922361983
250,0.25,0.001,0.01410026657084624,0.011454436342631068,14.827232135591053,0.010583320582149218,0.015046775961915651
251,0.25,0.001,0.01411520172265314,0.01147284705724035,14.80775512332008,0.010569418360685283,0.01627018592423863
252,0.25,0.001,0.013976673886534714,0.011390195568757398,14.49462462470645,0.010345913365243719,0.012006242552565204
253,0.25,0.001,0.014041224313633782,0.011492515486620721,14.282963999793642,0.010194835117625726,0.026867190686364967
254,0.25,0.001,0.014097382273702394,0.011490342278210889,14.609850425720214,0.01042815876211293,0.024067013938393857
255,0.25,0.001,0.014121936859474295,0.011517662161162921,14.594354842049736,0.010417098388329576,0.029475518605775304
256,0.25,0.001,0.014124184399843216,0.011491508553070682,14.7535150600615,0.01053070311210671,0.01788539398047659
257,0.25,0.001,0.01409186588156791,0.011491930722480729,14.570036662873768,0.01039974065872503,0.014435576068030464
258,0.25,0.001,0.014101814805042176,0.011447734405242261,14.87346777598063,0.010616322466795596,0.012698973529040813
259,0.25,0.001,0.014105625432871636,0.011506777327685128,14.563943367004395,0.01039539141113804,0.016279854397806857
260,0.25,0.001,0.014080094505278837,0.011463297248951027,14.66453138805571,0.010467188713815639,0.014087642336057292
261,0.25,0.001,0.014024452680633182,0.011424487988863672,14.570203337896437,0.010399859627335074,0.01268497859645221
262,0.25,0.001,0.014086584189818018,0.011507529362681367,14.453023950485957,0.010316219807627378,0.010131630373911725
263,0.25,0.001,0.014051004978162902,0.011428401557107766,14.697069504147484,0.010490413636079575,0.015201978333708312
264,0.25,0.001,0.014098053890324775,0.011466669690396105,14.746277800060454,0.01052553733052138,0.015957027673721313
265,0.25,0.001,0.014054665606291521,0.011512894845079807,14.244083542596726,0.01016708318529388,0.015732207542492285
266,0.25,0.001,0.014178757974434467,0.011467357473004432,15.194688867841448,0.010845602332506386,0.01526606579621633
267,0.25,0.001,0.014116243443318776,0.01151481185995397,14.57842255546933,0.010405726306544847,0.01271976318417324
268,0.25,0.001,0.01415626999877748,0.011561323760875633,14.542078697567895,0.010379784937593072,0.01659320667386055
269,0.25,0.001,0.014078100344964437,0.011364079566583748,15.209372898283458,0.01085608343917449,0.012118785952528318
270,0.25,0.001,0.014113586825274286,0.011457864051418645,14.882670148213704,0.010622890898082587,0.017800422178374395
271,0.25,0.001,0.014053387056503977,0.011491840609482357,14.354907451811291,0.010246186617995211,0.01879545859992504
272,0.25,0.001,0.014003204263391949,0.011435546882095792,14.389152881077358,0.010270630179212962,0.015754724231859047
273,0.25,0.001,0.013979401769382614,0.011374991160063517,14.595117630731492,0.01041764284848786,0.014635770788623227
274,0.25,0.001,0.013987404734251046,0.011438248833375318,14.28547011965797,0.010196623925523177,0.014113591259552373
275,0.25,0.001,0.014120514735224701,0.011503959312325432,14.663175933474585,0.010466221223036821,0.018993256096210744
276,0.25,0.001,0.014082681893237999,0.01140968490924154,14.979474203927177,0.01069198729759256,0.017521291143364377
277,0.25,0.001,0.014029681288770267,0.011398324441342127,14.746124580019996,0.010525427965753032,0.01282896649920278
278,0.25,0.001,0.014007495237248285,0.011425406010377975,14.470028272356306,0.010328357082338547,0.011584913151131736
279,0.25,0.001,0.013998211384529159,0.011343418698580491,14.877457862127395,0.010619170494023836,0.01618898059758875
280,0.25,0.001,0.014083127776781718,0.011484155878424645,14.564638586498441,0.010395887642040287,0.016642566356394026
281,0.25,0.001,0.013951052381169228,0.011369624027893656,14.46632464817592,0.010325713524750835,0.011702954148252806
282,0.25,0.001,0.013948113937817868,0.011388946102843397,14.341575787862142,0.010236670797903028,0.0187683565956023
283,0.25,0.001,0.014000354655796573,0.011383673923001403,14.663878420875186,0.010466722641595422,0.01573587829867999
284,0.25,0.001,0.013991631478780792,0.011374361690665994,14.667179790678478,0.010469079079713403,0.011631707143452432
285,0.25,0.001,0.014006689657412825,0.01135476427418845,14.861390131995792,0.010607701735899923,0.0133813236736589
286,0.25,0.001,0.013970036538583891,0.011395881837677388,14.425562940325056,0.010296618801088548,0.011706228833645582
287,0.25,0.001,0.013962988546561627,0.011381972233454387,14.464015986124675,0.01032406565747657,0.01135422858513064
288,0.25,0.001,0.013989114743613062,0.011314484310292063,14.988629010518393,0.010698521777671943,0.015207731268472142
289,0.25,0.001,0.013992621545635518,0.011395723880933864,14.553014482770648,0.01038759063723815,0.015397085911697812
290,0.25,0.001,0.013952258445677303,0.011379649862647057,14.41689892905099,0.010290434638865803,0.015157346199784014
291,0.25,0.001,0.013987379698526292,0.011408606678957031,14.451443534124465,0.010315091744557078,0.015413129133068852
292,0.25,0.001,0.014066047537184897,0.011497931636515118,14.391722243172781,0.010272464127889208,0.014805835619982746
293,0.25,0.001,0.01410678387043022,0.011445455465997968,14.914085702441987,0.01064531456277087,0.021899816683597036
294,0.25,0.001,0.014035290642863229,0.011404497422987506,14.742963819957914,0.010523171891476028,0.02347454883986049
295,0.25,0.001,0.014022194782183283,0.011474564763761703,14.276919134230841,0.010190520438423155,0.014057227099935213
296,0.25,0.001,0.013939007389403525,0.011342725058396657,14.549565994626,0.010385129189597431,0.013301885997255644
297,0.25,0.001,0.013955580093676135,0.011343761863453048,14.636630434308733,0.010447273686158982,0.010564485150906775
298,0.25,0.001,0.013911755292543343,0.011312225038806597,14.567767575581868,0.010398121038959221,0.010946173531313738
299,0.25,0.001,0.013850321170120012,0.011279505338697206,14.406851873851958,0.010283263293256215,0.011413195273942418
300,0.25,0.001,0.013939397198458513,0.011386675259896686,14.30545362381708,0.01021088766867743,0.013654456629107395
301,0.25,0.001,0.013952660244845209,0.011310750561810676,14.80526160103934,0.010567638544639072,0.01318996125418279
302,0.25,0.001,0.013953692639867465,0.011341430151036808,14.639119489760626,0.010449050313890526,0.013284178243743049
303,0.25,0.001,0.013915786471750055,0.011347816157199087,14.390905302138556,0.010271881015088191,0.016501128156152036
304,0.25,0.001,0.013907148930288497,0.011304404297400088,14.585782577877954,0.010410979712974985,0.014299503631061979
305,0.25,0.001,0.013905970743369488,0.011310921139305546,14.542658366248721,0.010380198691112577,0.014919242821633816
306,0.25,0.001,0.013975569499390467,0.01130145337432623,14.985747248331705,0.010696464845347399,0.018342197458777163
307,0.25,0.001,0.013969362321354093,0.011394342106013072,14.430413333347866,0.01030008089460947,0.016256814615594015
308,0.25,0.001,0.013963710461698827,0.011345253765937828,14.673831431070964,0.010473826860150581,0.015850319630569883
309,0.25,0.001,0.013919824808835983,0.011337854940266836,14.469359465099517,0.010327879703854044,0.021009278897609975
310,0.25,0.001,0.013950958408060527,0.01145830365341334,13.968837719871884,0.009970619357510266,0.019178808873726264
311,0.25,0.001,0.01401319166734105,0.011429995101477419,14.476234030950637,0.01033278660310538,0.021525736536002822
312,0.25,0.001,0.013916506346847329,0.01126738334872893,14.845685582842146,0.010596492207596106,0.016717299715512328
313,0.25,0.001,0.013887179564862025,0.011374243043717884,14.082495413280668,0.010051745477002619,0.012414936907589436
314,0.25,0.001,0.013776509612798691,0.011242445645232996,14.200895340329124,0.01013625648845762,0.009979353545026647
315,0.25,0.001,0.01386631578207016,0.011286414730406943,14.457766294933501,0.010319604778682014,0.011781166618069014
316,0.25,0.001,0.013953720157345136,0.01139382040394204,14.345677997044154,0.01023959885584879,0.014579635734359423
317,0.25,0.001,0.013994602209755352,0.011345178694242522,14.847369855244954,0.010597694400603107,0.012310748505923483
318,0.25,0.001,0.013922883687274797,0.011283653639256954,14.790246077037994,0.010556920825865805,0.014913547680609755
319,0.25,0.001,0.01390420031866857,0.011279376285771529,14.709513310023716,0.01049929572449944,0.013969094699455632
320,0.25,0.001,0.013860174318154653,0.011333727815321513,14.15820610954648,0.010105785945429322,0.012748162779543135
321,0.25,0.001,0.013846844239603905,0.011325945671470392,14.12711604708717,0.010083594608913041,0.01196082577937179
322,0.25,0.001,0.013974967357658205,0.011281025815932523,15.096847548711867,0.010775765559394624,0.016043940248588722
323,0.25,0.001,0.013948803398580779,0.01133902367736612,14.625206783839635,0.010439119760056842,0.012472343527608447
324,0.25,0.001,0.01383983028076944,0.011286626174336388,14.308156460353306,0.010212816888189369,0.013571104655663172
325,0.25,0.001,0.01388465133628675,0.011287674882582257,14.553456090291341,0.010387905846032363,0.01480556217332681
326,0.25,0.001,0.013868783048930623,0.011312841671918119,14.32349490574428,0.01022376510045987,0.012963542093833288
327,0.25,0.001,0.013854231403342316,0.011254175087170942,14.570715482802617,0.010400225184013288,0.014683652255270217
328,0.25,0.001,0.013889116242173172,0.011318906008132866,14.403458092099145,0.010280840893718161,0.01630726849867238
329,0.25,0.001,0.01384064433830125,0.011317449142890318,14.139986468723842,0.010092781205370337,0.013557453329364458
330,0.25,0.001,0.013901779662285531,0.011295980681620892,14.602897662208195,0.010423196047257811,0.013614568652378188
331,0.25,0.001,0.013899079582520894,0.011270019802309218,14.733250814165388,0.010516238982273652,0.015673010247863002
332,0.25,0.001,0.01386711148101659,0.011325442363463696,14.243512809390113,0.010166675809700295,0.016359572091864213
333,0.25,0.001,0.01390300184133507,0.011209384034432116,15.095034544808524,0.010774471480948268,0.015113556654089026
334,0.25,0.001,0.013862569654981295,0.011215019316545555,14.836873074486142,0.01059020205173886,0.012253716691500612
335,0.25,0.001,0.01386975595284076,0.01127449336151282,14.543851496378581,0.010381050318614263,0.013503636026548015
336,0.25,0.001,0.013906905314042454,0.011300299141910814,14.607421604338146,0.010426425128007242,0.014312122327586016
337,0.25,0.001,0.013840854334689323,0.011195741593837738,14.823212725321453,0.01058045162406956,0.01361339290936788
338,0.25,0.001,0.013874509213935762,0.011357588929434618,14.104821610223679,0.010067681377747094,0.015312058126760853
339,0.25,0.001,0.013824291559202331,0.011176063237445695,14.840672496614003,0.010592913987590295,0.012332223562730683
340,0.25,0.001,0.01388579643198422,0.011305494327985105,14.460012884594144,0.010321208340181402,0.015518975651098622
341,0.25,0.001,0.013884615960220496,0.011269977704754897,14.652433923993792,0.010458553835827118,0.01896708769102891
342,0.25,0.001,0.013838354029825755,0.011209971010684968,14.729458887009393,0.010513532396152315,0.010919003592183193
343,0.25,0.001,0.01383407018014363,0.011262175286454814,14.4128987684704,0.01028757942074975,0.011216154218547873
344,0.25,0.001,0.01386349513062409,0.011313818895391056,14.288385195050921,0.01019870463601065,0.010888252096871534
345,0.25,0.001,0.013781224703859715,0.01124918793106363,14.189534774053664,0.010128147590330951,0.012401236893816127
346,0.25,0.001,0.013807023139227005,0.01120596068246024,14.576354121253605,0.01040424990810393,0.013540679381953346
347,0.25,0.001,0.013784318768552371,0.011245337203145028,14.228452620733352,0.010155926210373556,0.011551295821037557
348,0.25,0.001,0.01377441226371697,0.011183617459166618,14.518815514700753,0.010363180238901322,0.013148608255303569
349,0.25,0.001,0.01384754807821342,0.011277984300894396,14.399836093357631,0.010278255598399452,0.014359338105552726
350,0.25,0.001,0.013775403939542316,0.011234437787816638,14.239574208940779,0.010163864531720756,0.012356325570080016
351,0.25,0.001,0.013738748028519607,0.011187597064390068,14.296650147210984,0.010204603959465371,0.01194151242574056
352,0.25,0.001,0.013759158388489769,0.011180398627406074,14.451370023091634,0.010315039274155342,0.01168682953963677
353,0.25,0.001,0.013786875405127094,0.011202655507340318,14.481968718029204,0.010336879884389154,0.01439505298104551
354,0.25,0.001,0.013894351020100571,0.011316969841718674,14.44364404042562,0.010309524654122498,0.014909588938785924
355,0.25,0.001,0.013848500315632138,0.011224966625727358,14.702283886500767,0.010494135536403118,0.012697874361442195
356,0.25,0.001,0.01378340993076563,0.011184648536145687,14.563458720615932,0.010395045482238352,0.011764513432151742
357,0.25,0.001,0.013749755163277899,0.011176169560778708,14.422373580932618,0.010294342313299513,0.011819554389350943
358,0.25,0.001,0.013831716527541478,0.011227683573961257,14.593001276652018,0.010416132246004295,0.014876531747480234
359,0.25,0.001,0.013845405910341512,0.011260783313995316,14.484224808102562,0.010338490227053933,0.011689066731681427
360,0.25,0.001,0.013857952961254687,0.011220090862895762,14.78257939293271,0.010551448531714996,0.013000108612080416
361,0.25,0.001,0.013807038691427026,0.011176659518054553,14.74064511798677,0.010521516857949158,0.013297552656796243
362,0.25,0.001,0.013878189694313776,0.011254076879648935,14.705529113042923,0.01049645190081579,0.017079300454093352
363,0.25,0.001,0.013858209692296527,0.011288839303666637,14.398752319699241,0.01027748202690881,0.01384316250267956
364,0.25,0.001,0.013802403408501829,0.011280031926220372,14.135369996570406,0.010089486078922488,0.015405476351992952
365,0.25,0.001,0.013853498108330227,0.011217025337474687,14.774792952764601,0.010545890758575732,0.014016358699235652
366,0.25,0.001,0.013861469578530107,0.011275450431165242,14.492050793965658,0.010344076226956217,0.020130248740315437
367,0.25,0.001,0.013781698913801285,0.011239639621760163,14.245699851626442,0.010168236867684827,0.014229224477377202
368,0.25,0.001,0.013796803050097966,0.01120280275564818,14.536778324672154,0.0103760016592949,0.012613599809507528
369,0.25,0.001,0.013791890978103592,0.011208089210447811,14.479625256856282,0.010335207178341386,0.01270936724419395
370,0.25,0.001,0.013811400642707234,0.01120771750098183,14.591039808364142,0.010414732197262057,0.012611610194047293
371,0.25,0.001,0.013821634916322573,0.011230028587437811,14.523362464904785,0.010366425742258947,0.011911178421643045
372,0.25,0.001,0.013776244480340254,0.011203378790191242,14.418339976356142,0.010291463223666055,0.012412114275826348
373,0.25,0.001,0.0138227902281852,0.011237902770794573,14.485710625421433,0.010339550767609874,0.013279750011861324
374,0.25,0.001,0.013667263372668197,0.0110889674598972,14.448769896371024,0.010313183366431852,0.01222553476691246
375,0.25,0.001,0.013720339432003952,0.011188730794404234,14.187136132376535,0.010126435497770547,0.012517121930917105
376,0.25,0.001,0.013735561878198669,0.011096166395360514,14.791172091166178,0.010557581792409834,0.012148529394633241
377,0.25,0.001,0.01376142690933886,0.011256268506958371,14.03890780675979,0.010020633695046246,0.013021576942669021
378,0.25,0.001,0.013781965367850804,0.011220180959928603,14.356239772978283,0.01024713759670113,0.01013682203160392
379,0.25,0.001,0.013743964525915328,0.011143765162144388,14.571518342154366,0.010400798245649084,0.012387272384431627
380,0.25,0.001,0.013753617044006076,0.011175605519896463,14.447177405584426,0.010312046684928213,0.01077760269658433
381,0.25,0.001,0.013815558481784094,0.011197074735093685,14.673982711065383,0.010473934840160874,0.01815258525311947
382,0.25,0.001,0.013857998918919336,0.011263933612832,14.53714106241862,0.010376260572747051,0.017814512675007183
383,0.25,0.001,0.013806351627267543,0.011219598317430133,14.496164877755302,0.010347012760710423,0.018146756001644664
384,0.25,0.001,0.013799015084902446,0.011186469436756202,14.640705764407203,0.010450182558463385,0.014998602266940806
385,0.25,0.001,0.013763307219459897,0.01120052463951565,14.36183299655006,0.010251129904746652,0.01674057553625769
386,0.25,0.001,0.01383067424630835,0.01130343923079116,14.162626564389184,0.01010894115944981,0.011803775560110807
387,0.25,0.001,0.013812412646199975,0.011164156487655072,14.840826597667876,0.010593023981204765,0.01557572910355197
388,0.25,0.001,0.013841578435330164,0.01126313361206225,14.449604386829195,0.01031377900558829,0.015837157662543986
389,0.25,0.001,0.013916547667412531,0.011312356429795424,14.59388811747233,0.010416765251586246,0.021294434347914323
390,0.25,0.001,0.013905580767563411,0.011276623686509474,14.73267502012707,0.010515827994380493,0.0192873641434643
391,0.25,0.001,0.013811768307572319,0.011149837438549314,14.917460483369373,0.010647723399978139,0.011809254582557414
392,0.25,0.001,0.013764978586917831,0.011184935161755198,14.458563672020322,0.010320173927209367,0.013048595231440332
393,0.25,0.001,0.013870788104832173,0.011249516929189364,14.689603456769671,0.010485084551584348,0.011349548896153768
394,0.25,0.001,0.013852631057656946,0.011219443095227082,14.756385539826892,0.01053275199131113,0.011820335406810045
395,0.25,0.001,0.013947287185915879,0.01127585978735061,14.970680242265974,0.010685710379918612,0.015757210035290983
396,0.25,0.001,0.013855135671439625,0.01120291643554256,14.863036611647832,0.0106088769533532,0.012852321689327558
397,0.25,0.001,0.013832695697035107,0.011193159925086158,14.791959183102563,0.010558143599644942,0.012049194528824754
398,0.25,0.001,0.013890381764088359,0.011292866056873685,14.556477083478654,0.01039006215808612,0.012099437105158964
399,0.25,0.001,0.013783786073327064,0.011167754951332296,14.660238463992163,0.010464124528188554,0.010074230014450021
400,0.25,0.001,0.013720778876117298,0.01119075899855012,14.178232207525344,0.010120080091024514,0.013456493202182982
401,0.25,0.001,0.013671024613791988,0.011118848543791544,14.302395157586961,0.01020870460926978,0.012597855801383654
402,0.25,0.001,0.013782624994360265,0.011299063804603758,13.91787698473249,0.009934244814227331,0.017441590627034504
403,0.25,0.001,0.013690581681827704,0.01101373342531068,15.001058009919666,0.010707393297587199,0.0151655205215017
404,0.25,0.001,0.013742691118802343,0.011193147030259882,14.287644991193499,0.010198176296355103,0.017074223193857405
405,0.25,0.001,0.013731784636066073,0.011255325117991084,13.878079741341727,0.009905838502028357,0.012511640062762631
406,0.25,0.001,0.013722717620077587,0.011111051518292654,14.63577637445359,0.010446664078839108,0.01567671209987667
407,0.25,0.001,0.013668325536307835,0.011140068435952777,14.16835227603004,0.010113028034282684,0.012124921402169598
408,0.25,0.001,0.013681749634089925,0.011145385792922406,14.213783416748047,0.010145455686472554,0.012403395544323657
409,0.25,0.001,0.013750058905709357,0.011228913859952065,14.128497534252348,0.010084580681122304,0.01835044038792451
410,0.25,0.001,0.013731686506597769,0.011113290563225747,14.673491461617607,0.01047358419815675,0.013930075698428683
411,0.25,0.001,0.013732663960683913,0.011167588689852329,14.374682115827287,0.01026030129609371,0.01480302970028586
412,0.25,0.001,0.013671064233141286,0.011097702462048758,14.421119055975051,0.010293446863651001,0.014785369030303426
413,0.25,0.001,0.013782243212418896,0.011208460692848478,14.42347723642985,0.010295130075967059,0.019628986302349303
414,0.25,0.001,0.013857336867423284,0.011189952081158047,14.948024391900926,0.01066953918051458,0.021609354039861098
415,0.25,0.001,0.01377164029471931,0.011295008788860979,13.879043275742303,0.009906526249637618,0.017104300256404612
416,0.25,0.001,0.01375539593398571,0.011125042321426528,14.740501149495442,0.010521414096713377,0.01243653686510192
417,0.25,0.001,0.013765809892543725,0.011167031420128686,14.563554226103284,0.010395113651751095,0.011367175417641798
418,0.25,0.001,0.01374979965388775,0.011204521430745011,14.263739028204055,0.010181112796719526,0.011840215366747644
419,0.25,0.001,0.01370501867539826,0.0111241230918538,14.463338325137183,0.010323581959412693,0.012576248600251146
420,0.25,0.001,0.013730713781856356,0.01115975460481076,14.407654651460193,0.010283836296545463,0.012360855419602659
421,0.25,0.001,0.013757132760116033,0.011212804173784596,14.258418095906576,0.010177314843616399,0.014152512471708987
422,0.25,0.001,0.013794065437146596,0.011218310610524246,14.434530227297829,0.010303019434188316,0.01907778877971901
423,0.25,0.001,0.013718319843922343,0.011153621870492186,14.372568838936942,0.010258792890033506,0.016014669814871416
424,0.25,0.001,0.013754635327273891,0.011146732779840629,14.614686709812709,0.010431610785019777,0.01572541468259361
425,0.25,0.001,0.013662296712753319,0.011112221385396663,14.29062310173398,0.01020030199981012,0.01256067305803299
426,0.25,0.001,0.013636885824657621,0.011115317483033453,14.130868884495326,0.010086273293715437,0.012287866117225753
427,0.25,0.001,0.013726035228797367,0.011112480452727704,14.646360331944058,0.01045421865235122,0.013779276568028662
428,0.25,0.001,0.013738195544907026,0.011195860240785848,14.247247450692313,0.010169341506561251,0.015681736792127293
429,0.25,0.001,0.013658725376285258,0.011096542152975286,14.35847477322533,0.010248732885956695,0.012827321835276153
430,0.25,0.001,0.013658249963607106,0.011070137002638408,14.503785146077474,0.010352451924395057,0.014170141580204168
431,0.25,0.001,0.013686474304468859,0.01120772224806604,13.890926878792898,0.009915008478795787,0.010312973366429409
432,0.25,0.001,0.013681809348719461,0.011105228930356956,14.439156501406716,0.010306321557035486,0.012938709515664313
433,0.25,0.001,0.013740708010182495,0.011130936603460992,14.625158934820266,0.010439085606581204,0.015709200977451272
434,0.25,0.001,0.013611598894709632,0.011096332012897446,14.095556431724912,0.010061068116862892,0.011387233001490435
435,0.25,0.001,0.013659314946049736,0.01116949649793761,13.952942717415945,0.00995927388823408,0.014928232878446579
436,0.25,0.001,0.013584714265806335,0.011032090873590538,14.304902331034343,0.010210494169189396,0.014428328308794234
437,0.25,0.001,0.013689172897665273,0.011102339930477597,14.496611854916527,0.010347331802224502,0.014253793905178705
438,0.25,0.001,0.013681701045660745,0.011088329596178873,14.533253671555292,0.010373485846934542,0.014448439391950766
439,0.25,0.001,0.013682545572519302,0.011066228724306537,14.661840133666992,0.010465267761361165,0.011439943116986089
440,0.25,0.001,0.013626015468367508,0.011099011197331405,14.161332829793293,0.010108017722907418,0.018278607891665563
441,0.25,0.001,0.013713437811959358,0.011056325398385525,14.890457494826544,0.010628449318220231,0.020220200531184673
442,0.25,0.001,0.013770032040774823,0.011174674910448846,14.544380545843214,0.010381427941358469,0.023851854105790455
443,0.25,0.001,0.013706140108406544,0.011193663852200622,14.079916799636115,0.0100499049247938,0.015978910132414766
444,0.25,0.001,0.013770557446848778,0.011183807855205877,14.49614501226516,0.010346998581202827,0.025158905941579077
445,0.25,0.001,0.013802395161418688,0.011195141595034373,14.611048831031436,0.010429014154911802,0.02208087883061833
446,0.25,0.001,0.013681300243451482,0.011172095058219773,14.061586000351678,0.01003682084250655,0.020085764221019216
447,0.25,0.001,0.013714316622132346,0.01121950534482797,13.980922579084124,0.009979245238461188,0.022541074496176507
448,0.25,0.001,0.01371231038300764,0.011103059557222185,14.622241728646415,0.010437003375193729,0.01837115703771512
449,0.25,0.001,0.013675282054713795,0.011075270793267658,14.570462599254789,0.010400044681837823,0.015830594011478953
450,0.25,0.001,0.013619617323080698,0.011108330578676292,14.073250252859934,0.010045146504539568,0.016221010229653783
451,0.25,0.001,0.01372580465993711,0.011069435233338958,14.886294007074266,0.010625477521109398,0.01301816219670905
452,0.25,0.001,0.013706169916050774,0.011109340616634914,14.552631852286202,0.010387317524829551,0.013632420760889849
453,0.25,0.001,0.013608276476817472,0.011052962598346528,14.319979901994978,0.01022125617558528,0.012832880020141602
454,0.25,0.001,0.01368465844719183,0.01113818807793515,14.270418906438918,0.010185880732647336,0.016700964007112715
455,0.25,0.001,0.013697743323587235,0.011153874693527108,14.255840256100608,0.010175474843754896,0.01612515788939264
456,0.25,0.001,0.013724240873541151,0.011126954718714669,14.555191138131278,0.010389144281321398,0.017919098751412496
457,0.25,0.001,0.01365494907789287,0.011103966833934897,14.295705199468703,0.010203929478564385,0.015231860387656424
458,0.25,0.001,0.013670047759300186,0.011096049378670397,14.424686495463053,0.010295993215890831,0.01200984956489669
459,0.25,0.001,0.013658416455700284,0.011100097515043757,14.33681949978783,0.010233275874224006,0.014437371244033178
460,0.25,0.001,0.01370842799899124,0.011120603160843963,14.502170602707636,0.010351299502289534,0.01864723592168755
461,0.25,0.001,0.013708443217689083,0.011104447921471937,14.5927899260748,0.010415981389061243,0.014098592102527618
462,0.25,0.001,0.013697237954253242,0.011189961805939674,14.050775760468982,0.010029104754082072,0.014522488022016155
463,0.25,0.001,0.013610610223951793,0.010993693990721589,14.665198505946568,0.010467664886471498,0.012014329743882021
464,0.25,0.001,0.013669431649503254,0.011150714932453065,14.114888200305757,0.010074866666884908,0.016024721993340388
465,0.25,0.001,0.013708325086959771,0.011100594892743088,14.613719317118326,0.010430920283453481,0.015062004224293761
466,0.25,0.001,0.013713328405505135,0.011132923740716208,14.460588059198288,0.010321618885937394,0.015003337835272154
467,0.25,0.001,0.013725414808307376,0.011121528423613025,14.592179271153041,0.010415545518310521,0.018027271868454084
468,0.25,0.001,0.013704367005044505,0.010981586091220378,15.258464021228608,0.010891123498378735,0.01755536130319039
469,0.25,0.001,0.01365928937281881,0.011176187429754507,13.91530437832787,0.009932408549841449,0.012516041803691123
470,0.25,0.001,0.013701156744999545,0.011090797980626425,14.628450488135929,0.010441435037927145,0.014497731087936295
471,0.25,0.001,0.013632790011664231,0.01099143824761822,14.80213665735154,0.010565408035225939,0.01042079594400194
472,0.25,0.001,0.01362489798416694,0.011112514269493876,14.079399474007742,0.010049535670241073,0.011040668158481518
473,0.25,0.001,0.013602981517712276,0.011112547527466501,13.956392629714239,0.009961736352401314,0.01155295166083508
474,0.25,0.001,0.013666837515220756,0.011005422893379416,14.914567644028436,0.010645658561048134,0.01508626476344135
475,0.25,0.001,0.013724462407685462,0.011208807936026936,14.097727461315337,0.010062617745407093,0.016676224768161774
476,0.25,0.001,0.013692878820002079,0.011141487040690014,14.297999910627093,0.010205567388027904,0.019585119663841195
477,0.25,0.001,0.013669166199508167,0.011004800761029833,14.931103811718168,0.010657461678599692,0.013427960686385632
478,0.25,0.001,0.013768057010713078,0.011207572535744736,14.348955501374745,0.010241938259368127,0.013374990628411373
479,0.25,0.001,0.013587028671588217,0.011061490169238476,14.153117339724586,0.010102153704300204,0.013377343097494708
480,0.25,0.001,0.013570117982370513,0.011019786977696986,14.29205572945731,0.010201324574915996,0.015616967860195372
481,0.25,0.001,0.013573094668487707,0.011071627116983845,14.018223891485306,0.010005870015335693,0.011124884606235556
482,0.25,0.001,0.013605056715508303,0.01101999663171314,14.486678003583636,0.010340241258803453,0.013762199423379369
483,0.25,0.001,0.013563495154182117,0.011043686547449657,14.121007632300968,0.010079234569807971,0.013697343981928296
484,0.25,0.001,0.013529828591715722,0.011061188074804487,13.83426189785912,0.009874562382483312,0.013501455696920553
485,0.25,0.001,0.013605134469412621,0.01106062524730251,14.259430035182408,0.010178037141457822,0.01511337918539842
486,0.25,0.001,0.0136234664278371,0.011054658410804613,14.395600122724261,0.010275232064756789,0.016636520624160767
487,0.25,0.001,0.013653145068812938,0.011022206791454837,14.743778868175689,0.010523753653230328,0.013827613554894924
488,0.25,0.001,0.01370750730591161,0.011171632490697362,14.211041979108538,0.010143498914424367,0.012115037637866206
489,0.25,0.001,0.013657639225323995,0.011015705753649983,14.80539534795852,0.010567734009963255,0.014579319705565771
490,0.25,0.001,0.013616062555284728,0.01103551563052904,14.46138503846668,0.010322187750511549,0.011993381660431623
491,0.25,0.001,0.013607487676753884,0.010987877602733316,14.680295477367583,0.010478440740447953,0.014414267821444405
492,0.25,0.001,0.013662855628700484,0.011106378876027606,14.326495037987119,0.010225906522474746,0.014283221628930833
493,0.25,0.001,0.01366212258381503,0.01107675169727632,14.488419254847935,0.010341484121947134,0.012231452390551567
494,0.25,0.001,0.013632729592777434,0.011025307661011105,14.611991595313663,0.01042968707731168,0.011371384943938918
495,0.25,0.001,0.01360861332466205,0.011043555209679264,14.374585673014323,0.010260232457540559,0.012975495929519335
496,0.25,0.001,0.01369889153078908,0.01111155943856353,14.49940959203811,0.010349328759484732,0.016584305817054376
497,0.25,0.001,0.013641061828959557,0.011075235250450316,14.378891151064918,0.010263305603900727,0.010413274065487914
498,0.25,0.001,0.013670866159456117,0.011134357698971318,14.214592873709542,0.010146033457323013,0.016263229306787252
499,0.25,0.001,0.013569048243973937,0.01091943757165046,14.848418644496373,0.010598443001068075,0.012091100215911865
500,0.25,0.001,0.013555848433503083,0.010994249195570037,14.355202487763904,0.01024639720754026,0.012329228791511722
