epoch,beta,learning_rate,train_loss,train_reconstruction_loss,train_kl_unnormalized,train_kl_normalized,mean_unclipped_gradient_norm
1,0.0,0.001,0.08832969428258165,0.08832969428258165,8.500654223208256,0.0060675619009338015,0.14141625290115675
2,0.02,0.001,0.06700744654357269,0.06581733482517815,83.3672511413406,0.05950553257768779,0.13914351910352707
3,0.04,0.001,0.04773740312366775,0.042857360710536155,170.92348957324486,0.1220010632214453,0.10109713425238927
4,0.06,0.001,0.03462699947483612,0.031100624546244453,82.34085816522604,0.05877291803370881,0.09154127724468708
5,0.08,0.001,0.0328425527255233,0.02872389231195299,72.12804568372154,0.05148325887489046,0.07978294603526592
6,0.1,0.001,0.031564883092423446,0.027626536006605657,55.17623902418068,0.039383468254233174,0.05702845690151056
7,0.12,0.001,0.029884467922541066,0.026542290106169448,39.01992465773233,0.027851480840636926,0.044139418130119644
8,0.14,0.001,0.028804013849372048,0.025929247560210464,28.768201008315913,0.02053404782891928,0.025751482074459393
9,0.16,0.001,0.0281735676758956,0.025458731911768596,23.771781022883644,0.01696772378507041,0.03661942450950543
10,0.18,0.001,0.027020000465234777,0.024337881693703742,20.87582598179168,0.014900660943463014,0.03254926732430855
11,0.2,0.001,0.026000052844443598,0.023389217194898396,18.2889012948869,0.013054176513124127,0.028907792021830876
12,0.22,0.001,0.024662842943279212,0.021770346981598982,18.41994034948428,0.013147709028896701,0.025634353049099445
13,0.24,0.001,0.023791846067493284,0.02047698333161593,19.35051243889759,0.013811928935687072,0.03273267485201359
14,0.25,0.001,0.02364259725308287,0.02045588014190683,17.858364362690402,0.012746869637894648,0.03885236165175835
15,0.25,0.001,0.022763041055892125,0.01956228910850428,17.937014225100683,0.012803008012206055,0.054136876637736954
16,0.25,0.001,0.02206274785470864,0.019100042516699178,16.603000895707734,0.011850821481590102,0.021701375488191843
17,0.25,0.001,0.021956923445968918,0.01885227330501086,17.39846112905455,0.012418601805178122,0.04129134428997835
18,0.25,0.001,0.021115164895934506,0.018053026059154965,17.160226785118585,0.012248555878028968,0.020847763866186142
19,0.25,0.001,0.020794589878072752,0.017667508229982753,17.52416756527483,0.012508328026605875,0.041555235317597784
20,0.25,0.001,0.020323160296875583,0.017183507081972995,17.59461888399991,0.012558614478229771,0.02603438434501489
21,0.25,0.001,0.019976883495518984,0.01679108128177397,17.85323759346954,0.012743210273711307,0.01671447108189265
22,0.25,0.001,0.019871788473989682,0.016788375197034893,17.2794528940164,0.01233365659815589,0.05120234719167153
23,0.25,0.001,0.01974708208244694,0.01653325412494256,18.010291249298852,0.012855311384224733,0.055768056927869715
24,0.25,0.001,0.01970796028957715,0.016556213781771252,17.662388142147012,0.012606986539719495,0.04720899912839135
25,0.25,0.001,0.01925409139331543,0.016025786898701808,18.09141883114481,0.012913218294892798,0.040842235243568815
26,0.0,0.001,0.015557075545355965,0.015557075545355965,20.960912236825823,0.01496139345954734,0.034733900955567755
27,0.02,0.001,0.015064134755102564,0.01455496671063102,35.66724222356623,0.025458417004686814,0.047144725918769836
28,0.04,0.001,0.015277428819333555,0.013838218537880205,50.408336786527606,0.035980254665615705,0.03132448849889139
29,0.06,0.001,0.01587081936601108,0.013469902044239123,56.06141565916624,0.04001528598084671,0.02052714116871357
30,0.08,0.001,0.016168938744454017,0.013457220314537527,47.48896570967577,0.0338964780226094,0.017205137914667528
31,0.1,0.001,0.01627129012559728,0.013876611284767958,33.54945127103611,0.023946788915800224,0.03174004082878431
32,0.12,0.001,0.01657034017494559,0.01439977856994332,25.341305793152696,0.018088012700323123,0.03099020446340243
33,0.14,0.001,0.016814276078310552,0.014403934187715047,24.12063631210117,0.01721672827416215,0.02831899592032035
34,0.16,0.001,0.016955127241731347,0.014074045625969398,25.227474118067214,0.01800676239690736,0.02596123454471429
35,0.18,0.001,0.017478526782849932,0.014512663024680345,23.084307967467083,0.016477022103830896,0.0299942708419015
36,0.2,0.001,0.017474277201557618,0.014430853107189837,21.319186996165715,0.015217121339161824,0.0277141984552145
37,0.22,0.001,0.01779118404510757,0.01465530354868282,19.96985966706079,0.01425400404501127,0.038585316545019545
38,0.24,0.001,0.017942323146731727,0.014681567425118662,19.034661752790132,0.013586482336038638,0.039872889406979084
39,0.25,0.001,0.01788775533560879,0.014560740512921461,18.644592332445885,0.0133080601944653,0.031539578611652054
40,0.25,0.001,0.01775935094690684,0.014814586222130733,16.50246359822507,0.01177906038417207,0.041858294901127614
41,0.25,0.001,0.01786827556173171,0.014758118877274603,17.429318472701983,0.012440627032620973,0.05930125589172045
42,0.25,0.001,0.017598579455546767,0.014455835383703557,17.611937446699326,0.012570976050463473,0.03057699215908845
43,0.25,0.001,0.01755960235377317,0.014416308688723352,17.615019900739686,0.012573176231791354,0.03856954102714857
44,0.25,0.001,0.017425118963498385,0.014491986621879348,16.43727335128574,0.011732529158662198,0.04007121128961444
45,0.25,0.001,0.017616523896695498,0.014606696189209286,16.867074803544142,0.012039311066055776,0.05114569297681252
46,0.25,0.001,0.017482679747763415,0.014383883713218627,17.365654974272758,0.012395185563363853,0.040819657345612846
47,0.25,0.001,0.017198209920205362,0.014179356355148241,16.917654168835686,0.012075413396742103,0.025430599227547646
48,0.25,0.001,0.01728207416852972,0.014569131831943825,15.20332772541309,0.01085176854062319,0.021991875177870195
49,0.25,0.001,0.017171240491233253,0.014130509258363365,17.040257745537875,0.012162924871904264,0.03444707424690326
50,0.25,0.001,0.017035794293010203,0.014101199533780088,16.445469041829597,0.01173837904484625,0.024864605472733576
51,0.0,0.001,0.013883388611506004,0.013883388611506004,19.408889045400066,0.01385359674903645,0.031925187135736145
52,0.02,0.001,0.013252062920593855,0.012796800285988274,31.891146772820758,0.022763131172605824,0.032579485792666674
53,0.04,0.001,0.013527751097214451,0.012201063632554588,46.4672339047939,0.03316719051020264,0.03309172779942552
54,0.06,0.001,0.014128533512682298,0.011978104087131574,50.21252857555043,0.03584049148861558,0.02706313195327918
55,0.08,0.001,0.014388473617225967,0.011955787940848794,42.602407744436555,0.03040857083828448,0.022477772397299606
56,0.1,0.001,0.014579932782645067,0.012355315439998283,31.166885591407123,0.02224617101456611,0.026161115150898695
57,0.12,0.001,0.014930084175827911,0.012892443114588904,23.789463468819612,0.01698034508837945,0.02054909026871125
58,0.14,0.001,0.01508698536765559,0.012788114294450802,23.005131697851763,0.016420507992756433,0.024977347037444513
59,0.16,0.001,0.015308211411326385,0.012732080127479452,22.55725069807909,0.016100821340527545,0.019728466868400574
60,0.18,0.001,0.015463657559154775,0.012797838097474135,20.748961330445344,0.014810108016020944,0.015453085225696364
61,0.2,0.001,0.015848332903150356,0.013120598837055943,19.107777119996463,0.013638670321196618,0.02232303222020467
62,0.22,0.001,0.01587941262039764,0.012972391959659489,18.51243365369224,0.013213728517981613,0.01898990912983815
63,0.24,0.001,0.01605064811097771,0.013114875249215723,17.13757501292163,0.012232387589522933,0.025577553547918797
64,0.25,0.001,0.01601322458867117,0.013091496394603377,16.37336560188903,0.011686913348957195,0.029382216123243172
65,0.25,0.001,0.016221236180996437,0.013292865365866787,16.4105908864129,0.011713483858967096,0.031041991664096713
66,0.25,0.001,0.01614260770503647,0.013235637900155273,16.290659854563142,0.011627879981843784,0.0294882010978957
67,0.25,0.001,0.016332206842245806,0.013477731411429968,15.99648068693387,0.01141790198924616,0.048759108719726406
68,0.25,0.001,0.01581540609871553,0.012920717662585176,16.22183380967658,0.011578753611475074,0.028076664234201115
69,0.25,0.001,0.015753066008166505,0.012998260701326628,15.437929205986423,0.011019221417549196,0.016287841989348333
70,0.25,0.001,0.015749152472689133,0.01299844033626157,15.414990911142228,0.011002848616090098,0.017736621511479218
71,0.25,0.001,0.01563586561219669,0.012811377080100956,15.828435700787,0.011297955532324768,0.026800295803695917
72,0.25,0.001,0.015768374303566195,0.013132352964341969,14.772265337058665,0.010544086607465142,0.032085620487729706
73,0.25,0.001,0.015668593429172664,0.012956366063539483,15.199324450217002,0.010848911099369737,0.024066811970745523
74,0.25,0.001,0.01551292436941432,0.012809195614755974,15.151696559811427,0.01081491546025084,0.030357125215232372
75,0.25,0.001,0.015573229979385029,0.012877506257827617,15.106836019468702,0.010782895088842757,0.02850149804726243
76,0.0,0.001,0.012348460166948558,0.012348460166948558,17.68126521360119,0.012620460537902348,0.017885856640835602
77,0.02,0.001,0.012035436430540624,0.011609776797332383,29.817469531182745,0.021282990386283188,0.028783608227968216
78,0.04,0.001,0.012356443225454858,0.011152557487350686,42.1660981506684,0.030097143576494217,0.019108916244780023
79,0.06,0.001,0.012880779541105279,0.01097520786663389,44.49509675837746,0.03175952659413095,0.017169201125701267
80,0.08,0.001,0.013084411836606412,0.011042141742983798,35.765253655509845,0.02552837520022116,0.01749865524470806
81,0.1,0.001,0.013201697644862261,0.011379321667650514,25.531488287219002,0.018223760376316202,0.00983797968365252
82,0.12,0.001,0.013475905785711673,0.011716748090055528,20.538167906201576,0.014659648755318755,0.012814388222371539
83,0.14,0.001,0.01366863844623743,0.011637888297171797,20.322007076799377,0.01450535837030648,0.01997441619945069
84,0.16,0.001,0.01387884625369688,0.011555472188744663,20.344043831523127,0.014521087674177821,0.010015356432025632
85,0.18,0.001,0.014241455528197538,0.011832027352279046,18.75338259610263,0.013385712060030428,0.016776398367558915
86,0.2,0.001,0.01446426422758536,0.01182767509716273,18.469308001935975,0.013182946468191273,0.022453909429411095
87,0.22,0.001,0.014630204133340478,0.011906766301898424,17.343348116914104,0.012379263466748112,0.023878587409853935
88,0.24,0.001,0.0148230867701539,0.012028532664576345,16.313211385868797,0.011643976720819984,0.024469461292028427
89,0.25,0.001,0.014872872537468912,0.012035877482334444,15.898520162282896,0.011347980130109134,0.019626336405053735
90,0.25,0.001,0.014851630962974606,0.012155304975889767,15.110211172708139,0.010785304191797386,0.027063877942661446
91,0.25,0.001,0.014899677953608437,0.012116136427034851,15.598965757806111,0.0111341654231307,0.044746510994931064
92,0.25,0.001,0.014892438211101146,0.012205994967627788,15.054828097340817,0.010745773088751475,0.03293320241694649
93,0.25,0.001,0.014807225966995413,0.012125532199261766,15.028211517439072,0.010726774816159223,0.02898736911204954
94,0.25,0.001,0.014903572839543675,0.012170453848363447,15.316398657386296,0.010932475843958813,0.03342809264237682
95,0.25,0.001,0.014648586393593099,0.01190396020902172,15.380885807279055,0.010978505215759497,0.02437589333082239
96,0.25,0.001,0.014483635508796564,0.011923498073823688,14.347010536298935,0.01024054999022051,0.02049194190961619
97,0.25,0.001,0.014454881768396571,0.011834967455547046,14.682000591078408,0.010479657809477808,0.011808798493196567
98,0.25,0.001,0.014548824099469776,0.011901332583719705,14.836541937730857,0.010589965694311818,0.012453092106928429
99,0.25,0.001,0.014486864691512972,0.01179700737341869,15.07396031214186,0.010759429202099829,0.019977121458699305
100,0.25,0.001,0.014495582122242811,0.011866821591888578,14.731575750450785,0.010515043362206128,0.015135509815687934
101,0.25,0.001,0.014326220044748185,0.01170645455878546,14.68116709286188,0.010479062878559514,0.010643269789094726
102,0.25,0.001,0.014370505356796846,0.011821934837878736,14.282189734382735,0.010194282465655057,0.012401204090565443
103,0.25,0.001,0.014370631282897691,0.011797306630709119,14.420913205002293,0.01029329993219293,0.018182664721583326
104,0.25,0.001,0.014290746514359617,0.01167877216004964,14.637504430513408,0.010447897523564174,0.014138831368957957
105,0.25,0.001,0.014252319372677277,0.011703759721754832,14.282128310400592,0.010194238622698496,0.023545067912588518
106,0.25,0.001,0.01424576186372311,0.011638963507801376,14.608498092525261,0.010427193499304255,0.023788096383213997
107,0.25,0.001,0.014258338728555307,0.011650819595667121,14.612538616190928,0.010430077527616651,0.022463740470508736
108,0.25,0.001,0.014289203084512684,0.011649220589209686,14.794462697893463,0.010559930548103828,0.028995894826948643
109,0.25,0.001,0.014287376666015665,0.011787765720966925,14.007820536610836,0.00999844435161373,0.027471384809662897
110,0.25,0.001,0.014249633274171964,0.01167203009015683,14.44488911326595,0.010310413357077766,0.02657907277656098
111,0.25,0.001,0.014210842429216407,0.01160844357186523,14.583843796049596,0.010409595857280225,0.013918778781468669
112,0.25,0.001,0.014106915494011453,0.01150622155219727,14.574288058215265,0.010402775202152223,0.020663350354880095
113,0.25,0.001,0.014169996458082652,0.01161273853653226,14.330873576077549,0.010229031817328729,0.027699076260129612
114,0.25,0.001,0.014059521345108666,0.011495334509318854,14.369703242929843,0.010256747496737932,0.023938040093829233
115,0.25,0.001,0.014076600431082335,0.011462265317720816,14.650734599299996,0.010457340898857956,0.015303852502256632
116,0.25,0.001,0.01397844048642833,0.01135835595962594,14.682954086745081,0.010480338391681,0.013262222210566202
117,0.25,0.001,0.013942727734419432,0.011439298274452201,14.029218529209945,0.01001371772249104,0.01676573899264137
118,0.25,0.001,0.013994065793256787,0.011463805909984368,14.179575723064833,0.01012103906000345,0.017658560692022245
119,0.25,0.001,0.014014159952682898,0.011443290148782172,14.407154256647283,0.010283479126800344,0.012859200360253453
120,0.25,0.001,0.013805220893920288,0.011229258543778386,14.43569294742973,0.010303849355767117,0.009641685833533606
121,0.25,0.001,0.013890799894395282,0.011376059827068949,14.092602585301254,0.010058959732549074,0.019153322170798976
122,0.25,0.001,0.013829078969158254,0.011263389160892524,14.37812623898845,0.010262759628114525,0.011537016990284124
123,0.25,0.001,0.013890370675272849,0.011350709909044679,14.23225824497948,0.010158642573147381,0.011533461976796389
124,0.25,0.001,0.013869432473334563,0.011335804075844195,14.198453653614054,0.010134513671387619,0.01548794082676371
125,0.25,0.001,0.01381580798422338,0.011319508924875049,13.989259793410287,0.009985196140906701,0.014329303599273166
126,0.25,0.001,0.013744705148841723,0.011212665618451174,14.189549961037544,0.01012815843043365,0.012705106676245729
127,0.25,0.001,0.013731299583946378,0.011245095188993725,13.932689435554273,0.009944817584264293,0.013887731436019143
128,0.25,0.001,0.013760352235277166,0.011213109892672416,14.274746957889272,0.010188969991355655,0.022355709845821064
129,0.25,0.001,0.013690860164621153,0.011147503533269747,14.252969844282166,0.01017342601304937,0.010935454474141201
130,0.25,0.001,0.013664092819819602,0.011152458115488538,14.075201478543033,0.010046539242357625,0.012436179754634699
131,0.25,0.001,0.013658128047654452,0.011138802904830656,14.118298956185333,0.010077301182145134,0.019596107459316652
132,0.25,0.001,0.01367278987690601,0.011140199952833251,14.192633649862831,0.010130359493121221,0.017603852010021608
133,0.25,0.001,0.013660221109192398,0.011126752681106576,14.19755770155221,0.010133874162421277,0.01798801077529788
134,0.25,0.001,0.013636499135331675,0.011100582606556823,14.211276177860817,0.010143666079843553,0.018940416785577934
135,0.25,0.001,0.013531558554280888,0.01105572835904015,13.874552022655477,0.009903320501538528,0.014164337577919165
136,0.25,0.001,0.013624769899758098,0.011121380458439677,14.028994097854152,0.01001355752880382,0.018931113959600527
137,0.25,0.001,0.013641176894101886,0.011044246183077165,14.553199463310976,0.010387722671885065,0.014148534818862876
138,0.25,0.001,0.01353616008827509,0.011014939709143206,14.128920371210608,0.010084882491941904,0.013067560891310373
139,0.25,0.001,0.013546040361187839,0.011024998031433456,14.127920563227546,0.010084168853124586,0.012217167144020399
140,0.25,0.001,0.01352441350393223,0.010958595973626806,14.37884254035214,0.01026327090674671,0.016134355838100117
141,0.25,0.001,0.013535101336142248,0.011059751526321753,13.871860635510489,0.00990139945432583,0.023123194929212332
142,0.25,0.001,0.013475324442871838,0.011003871527872466,13.85002248411993,0.009885811908722291,0.015019321658958992
143,0.25,0.001,0.013450838060993137,0.010913905120626625,14.21697209886283,0.010147731690837138,0.020194680895656347
144,0.25,0.001,0.013496565614562717,0.011017459183007726,13.892913403261463,0.009916426412035306,0.02419039731224378
145,0.25,0.001,0.013442085509396288,0.010983945227153702,13.775417369916092,0.009832560578098566,0.017745800781995058
146,0.25,0.001,0.013445570202898388,0.010937279988254726,14.056458349727073,0.010033160849198482,0.018740011068681877
147,0.25,0.001,0.013484624306832955,0.010986927735103557,13.997091020105955,0.009990785881588833,0.01712934657310446
148,0.25,0.001,0.01350071350466614,0.010864783206713429,14.771754217541908,0.010543721782685159,0.01754946696261565
149,0.25,0.001,0.013444881049849441,0.010882314202214076,14.36062497540939,0.010250267648400707,0.017023563540230196
150,0.25,0.001,0.013357721664237253,0.010876660945904813,13.903864960368344,0.009924243369285041,0.012742644641548395
151,0.25,0.001,0.013367603840845182,0.01087851740019627,13.948841460151778,0.009956346509744309,0.015912975805501144
152,0.25,0.001,0.013493613958276664,0.010945823826101037,14.27781719018605,0.010191161449097824,0.02782716555520892
153,0.25,0.001,0.013488294910793463,0.010968965834863587,14.118321079853153,0.010077316973485477,0.029258257399002712
154,0.25,0.001,0.013420586043214503,0.010908404911660459,14.078263745163426,0.010048725014392168,0.026284400684138138
155,0.25,0.001,0.013410567139216362,0.010862763696568236,14.277890426068266,0.010191213723103687,0.01913488159577052
156,0.25,0.001,0.013253443902640633,0.0106901439476358,14.364732463826162,0.010253199474536874,0.017122581135481596
157,0.25,0.001,0.013296309163275665,0.010882828500091044,13.525145693587206,0.009653922693495508,0.015202719330166778
158,0.25,0.001,0.013314263364069226,0.010845036386991993,13.83754792226576,0.00987690786742738,0.013651401968672872
159,0.25,0.001,0.01327254206773417,0.010739408546324932,14.19567983012554,0.010132533783101742,0.019585078892608482
160,0.25,0.001,0.013259788374762889,0.01072457928169447,14.207312657484994,0.010140837014621694,0.01956519779438774
161,0.25,0.001,0.013259277635410469,0.010751176168808595,14.055400935086338,0.010032406092138714,0.02032672769079606
162,0.25,0.001,0.013318646052652153,0.010851892888977015,13.823684684501206,0.00986701262277031,0.027113194887836773
163,0.25,0.001,0.013354419735734948,0.010861604615594402,13.96973651959548,0.009971260899068865,0.0273234318010509
164,0.25,0.001,0.013268180948376819,0.010769568219493571,14.00222530049726,0.009994450607064425,0.022434113547205925
165,0.25,0.001,0.01328220765924815,0.010728600429827682,14.310415162856257,0.010214429095543367,0.017701447553311784
166,0.25,0.001,0.013244942541313729,0.010748667501364693,13.989124345385338,0.00998509946137426,0.0203796715165178
167,0.25,0.001,0.013151241502321784,0.010640393811747554,14.07079118145399,0.010043391278696637,0.02017783559858799
168,0.25,0.001,0.013227440411681644,0.010747508181787555,13.897541122331436,0.009919729566260839,0.013756413711234927
169,0.25,0.001,0.013170598800866237,0.010643311375982997,14.162918282606057,0.01010914938087513,0.013255350291728973
170,0.25,0.001,0.013098400830196283,0.010621529280338899,13.88039003587623,0.009907487534529786,0.010993255224699775
171,0.25,0.001,0.013184355130578205,0.01068976100985751,13.979705679186777,0.009978376644672932,0.0112496018409729
172,0.25,0.001,0.01311599451422527,0.010639185080761424,13.88004057335131,0.0099072380966105,0.013562684102604786
173,0.25,0.001,0.013130379419968806,0.010649474663531649,13.902992222263137,0.009923620429880898,0.01710647251456976
174,0.25,0.001,0.013128244769618366,0.010579038778263512,14.285749574666509,0.010196823393766244,0.01616109162569046
175,0.25,0.001,0.013138057617855466,0.010684618518556937,13.74907355663205,0.009813756999737366,0.017567481535176437
176,0.25,0.001,0.013133854756629499,0.010658920149911533,13.869533071176408,0.009899738095058107,0.01759091066196561
177,0.25,0.001,0.01313093580438989,0.010631899513591584,14.004599539701603,0.009996145281728482,0.01995752922569712
178,0.25,0.001,0.013076809704426892,0.010562016043719674,14.092903780871515,0.010059174718680597,0.01370844958970944
179,0.25,0.001,0.013142889881244868,0.010672379982947646,13.844737680818753,0.00988203974362509,0.02609621888647477
180,0.25,0.001,0.013218789435820475,0.010713153477686331,14.041584085827031,0.010022543958477539,0.023648648522794247
181,0.25,0.001,0.013194661138492018,0.010693152914896156,14.018452478834421,0.010006033175470679,0.023155325169985492
182,0.25,0.001,0.013205433941700241,0.010678441538257375,14.161265767310276,0.010107969855324965,0.02279779928115507
183,0.25,0.001,0.01318475991466978,0.010669723748339766,14.09426334738403,0.010060145144456838,0.02089276056115826
184,0.25,0.001,0.013081946263998008,0.010603756453975337,13.88777533181771,0.009912758980597937,0.01605978887528181
185,0.25,0.001,0.013116039943781273,0.010600606023177464,14.096490825831726,0.010061735064833495,0.015528734773397446
186,0.25,0.001,0.013082394150621963,0.010558629259672376,14.143178598283079,0.010095059670437601,0.010582964091251293
187,0.25,0.001,0.013038257285747317,0.010564172378748902,13.864772352633725,0.009896340009017648,0.017524206700424354
188,0.25,0.001,0.013018423196225948,0.010511817336185083,14.047019204489127,0.01002642341505291,0.01281115117793282
189,0.25,0.001,0.013068338707294675,0.010555540845208588,14.081719214594397,0.010051191445106637,0.012332251217837134
190,0.25,0.001,0.013012863503199471,0.010544720149442513,13.831475520593733,0.00987257353361437,0.015374034332732359
191,0.25,0.001,0.013039113825428257,0.010562192512670989,13.880667555102304,0.009907685621058033,0.012334807543084025
192,0.25,0.001,0.012970255474885797,0.01046186488265423,14.05702066552869,0.010033562216651457,0.012290938679749766
193,0.25,0.001,0.01299860000035651,0.010526551634134832,13.853359627001213,0.009888193880800296,0.013496725975225369
194,0.25,0.001,0.012957628298109557,0.010456359534737327,14.017109684379305,0.010005074721184372,0.01593638692672054
195,0.25,0.001,0.01304446411711618,0.010586498628470524,13.774438900067459,0.009831862169926809,0.014534560187409321
196,0.25,0.001,0.013070459403200254,0.01048475102144332,14.490310844967844,0.010342834293338932,0.013385832232112685
197,0.25,0.001,0.012962083837669086,0.010445565454784997,14.10256913608099,0.01006607361604639,0.015837029398729403
198,0.25,0.001,0.012931761054768542,0.010512906398634444,13.555261010309225,0.00967541828002086,0.012884183243537942
199,0.25,0.001,0.012926648150277695,0.010431779607535229,13.981243401519523,0.009979474233775534,0.013407678188135227
200,0.25,0.001,0.012919426426168315,0.010466231081952897,13.747707243464866,0.00981278175836179,0.01689908079182108
201,0.25,0.001,0.012949750943432661,0.010542360532094952,13.49101655608038,0.009629562138529894,0.019486956143130858
202,0.25,0.001,0.012972582105967953,0.010442416558232024,14.179048025903622,0.0101206624025008,0.015323328164716562
203,0.25,0.001,0.012937852014728485,0.010452900125488598,13.925670563353652,0.009939807682622164,0.01857039223735531
204,0.25,0.001,0.012913554537394815,0.010471789535781569,13.683650442391388,0.009767059559165873,0.016606207160900038
205,0.25,0.001,0.012995683667621993,0.010414772615678218,14.463425315772863,0.010323644051229737,0.018782307393848896
206,0.25,0.001,0.012894653250814798,0.010423642290709925,13.847545805056233,0.009884044114958053,0.015300871649136146
207,0.25,0.001,0.012869958227023113,0.010379088775719164,13.958832554252352,0.009963477911671913,0.011905737919732928
208,0.25,0.001,0.012864138151085409,0.010390205744951553,13.863916998723978,0.009895729478032817,0.01406284817494452
209,0.25,0.001,0.012777562117198939,0.01030294345974019,13.867763062153966,0.009898474705320461,0.011048423902442059
210,0.25,0.001,0.012849858464267793,0.010265648855055496,14.481911675003934,0.010336839168453914,0.012882456028213104
211,0.25,0.001,0.01281247596633582,0.01031308816925471,14.006569717869613,0.00999755154737303,0.01623585680499673
212,0.25,0.001,0.012784601291821187,0.010351046860813274,13.637637855592837,0.009734216884791461,0.015080569544807076
213,0.25,0.001,0.012898368186242981,0.010380928794604524,14.107730770899245,0.010069757866451996,0.011802082105229298
214,0.25,0.001,0.012855622193906919,0.010332927192476664,14.137183520419539,0.010090780528493604,0.012233711468676725
215,0.25,0.001,0.012862814097734522,0.010409124770276145,13.750475305499453,0.009814757534260851,0.012235776676485935
216,0.25,0.001,0.012885155035670302,0.010360805956600619,14.146451776677912,0.01009739598620836,0.015590012927229205
217,0.25,0.001,0.012895586682334748,0.01038519931397819,14.068210509854572,0.010041549257569287,0.016267755379279453
218,0.25,0.001,0.012845147288206852,0.010438510373275799,13.486791881319578,0.00962654666760855,0.013619485776871443
219,0.25,0.001,0.012781657286234632,0.010245888288704982,14.210449568167862,0.010143076065787196,0.012099098647013307
220,0.25,0.001,0.012852892661903351,0.010341716896917045,14.072628152600332,0.010044702464382821,0.016134426385785144
221,0.25,0.001,0.012846251875264749,0.010422929043858505,13.58030062010794,0.009693290949398957,0.016720444429665804
222,0.25,0.001,0.012804795184862843,0.01025738894744435,14.275664376818444,0.010189624822853993,0.012228942631433407
223,0.25,0.001,0.012826209261849235,0.010327497799944943,14.002779495617576,0.009994846178171004,0.016966155730187893
224,0.25,0.001,0.012894953318843336,0.010365971810499992,14.172413019437764,0.010115926494959146,0.025517411219576996
225,0.25,0.001,0.01291233598262318,0.010420038169839987,13.966837533577744,0.009969191672789254,0.023665685982753832
226,0.25,0.001,0.0128612309468515,0.010338996493414085,14.13460365799833,0.010088939084938136,0.02005734046300252
227,0.25,0.001,0.012920562531953016,0.010409375496167618,14.072692051406735,0.010044748073809232,0.022094972897320986
228,0.25,0.001,0.012850835093248317,0.01032142416566364,14.174818259625395,0.010117643297377155,0.01739535255668064
229,0.25,0.001,0.012795642236396464,0.010318421550895556,13.882344913219946,0.009908882878815093,0.015032002081473669
230,0.25,0.001,0.012817646684663847,0.010253862277720092,14.367448596586538,0.010255138184572831,0.01720864426655074
231,0.25,0.001,0.012684716845634226,0.010232276539767248,13.743475417460292,0.00980976118305517,0.015098241157829762
232,0.25,0.001,0.012718558585984483,0.010286062529962253,13.631707774706124,0.00972998413612143,0.01668400930551191
233,0.25,0.001,0.012725842054471496,0.01024425122117208,13.906835091015525,0.009926363376884743,0.01218827860429883
234,0.25,0.001,0.012838442768829748,0.010371548529026758,13.82447512287739,0.00986757681861341,0.01332455788118144
235,0.25,0.001,0.012794502228293208,0.010311359159915243,13.915533725223593,0.00993257225212248,0.018007127412905295
236,0.25,0.001,0.012784818082165292,0.010254388539115424,14.180527342909295,0.010121718303290004,0.013863704012085995
237,0.25,0.001,0.012728288518290547,0.010225880968053479,14.02349242691166,0.010009630568816317,0.012402675735453764
238,0.25,0.001,0.012724727676981244,0.010256401599274522,13.832498687029542,0.009873303845131721,0.011048396350815892
239,0.25,0.001,0.012752640371521315,0.010232701669280359,14.121736334703513,0.010079754700002507,0.023072094656527042
240,0.25,0.001,0.012796102014701228,0.010314250570149789,13.908295917773707,0.009927406079781376,0.014756812869260708
241,0.25,0.001,0.01279071029583531,0.010296615872008742,13.976904201770289,0.009976377017680435,0.0189933682171007
242,0.25,0.001,0.012788142305965594,0.010313534957790343,13.867700169565921,0.009898429814108437,0.02098965784534812
243,0.25,0.001,0.012715933354412392,0.010199914578625485,14.099770496042636,0.01006407601430595,0.012543613401552042
244,0.25,0.001,0.01269889484382858,0.010147985386515944,14.295296616462307,0.01020363784187174,0.019037636152158182
245,0.25,0.001,0.01275786252553798,0.010267522121900205,13.955867488850576,0.00996136151952218,0.023973055959989626
246,0.25,0.001,0.012692143594122622,0.010267933058365153,13.585275802402128,0.009696842114491169,0.022572640717650454
247,0.25,0.001,0.012656310865701723,0.010187212870387007,13.836826064369895,0.009876392622676585,0.019124372008567054
248,0.25,0.001,0.012594526120494876,0.010136609448032767,13.774165045788138,0.009831666699349135,0.011648365296423435
249,0.25,0.001,0.012677593402995551,0.010223899054605278,13.750502255337297,0.009814776770404923,0.01352090590323011
250,0.25,0.001,0.012683496949039707,0.010119975839559368,14.365971483803321,0.01025408385710444,0.014570090143630901
251,0.25,0.001,0.012699716088179878,0.010255291801428335,13.698553082699947,0.009777696704282617,0.01636065946271022
252,0.25,0.001,0.012700087608918342,0.010233353946573478,13.82357506449886,0.009866934378657287,0.013977135453994075
253,0.25,0.001,0.012632285429488035,0.010085276035545779,14.27344001685949,0.010188037128379365,0.016102109104394913
254,0.25,0.001,0.012612338780782112,0.010145171263226957,13.826005720238383,0.009868669322083072,0.014091494803627333
255,0.25,0.001,0.012591596682538014,0.010143466324599322,13.719324043631225,0.009792522515082959,0.012485583079978824
256,0.25,0.001,0.012535838194745632,0.010028731709053693,14.049825502821237,0.01002842648309867,0.010174581392978629
257,0.25,0.001,0.012556911771988737,0.010076187997440662,13.901974814654054,0.009922894228875127,0.015803711488842964
258,0.25,0.001,0.012699182807229275,0.01023170923603796,13.827721763905087,0.009869894192651739,0.014899986640860638
259,0.25,0.001,0.012656219734633264,0.010173588801308768,13.912662923828629,0.00993052314334663,0.016953929793089628
260,0.25,0.001,0.01258173317086598,0.010112772303179276,13.83605721371233,0.009875843835626216,0.01260128477588296
261,0.25,0.001,0.012636832428516272,0.01012479297344678,14.077469754810176,0.01004815828323353,0.019483881381650765
262,0.25,0.001,0.012628642883223608,0.010144151264888853,13.923091381377754,0.009937966724752143,0.026578199428816635
263,0.25,0.001,0.012811260595507202,0.010308096195589084,14.027733876357065,0.01001265801310283,0.022795621771365404
264,0.25,0.001,0.01269837319799609,0.010083067787621304,14.656171930066153,0.010461221934379837,0.021480430538455646
265,0.25,0.001,0.012643891448262801,0.01015472235081117,13.949304706794171,0.009956677164021535,0.015185965457931161
266,0.25,0.001,0.012680264041033002,0.010153405766000267,14.160515102144773,0.010107434048640096,0.016011538294454414
267,0.25,0.001,0.012586720546928155,0.010034865386701976,14.3005974141691,0.010207421423389793,0.017294449266046286
268,0.25,0.001,0.012604213863631746,0.010191782375094648,13.519266906191824,0.009649726556882102,0.013816366903483868
269,0.25,0.001,0.012600418031420918,0.01012234919840475,13.887098556707713,0.009912275914852043,0.011133895876506964
270,0.25,0.001,0.012509674685635186,0.010048833911720222,13.790552373103202,0.009843363578232121,0.00964245293289423
271,0.25,0.001,0.012525013763426749,0.01005125004213211,13.86297136101841,0.009895054504652683,0.013392265109966198
272,0.25,0.001,0.012590705655699919,0.01009297136668906,13.997302544018455,0.009990936862254428,0.011076577318211397
273,0.25,0.001,0.012575213379193272,0.010025283075438058,14.28980935046824,0.010199721163788892,0.014518930887182554
274,0.25,0.001,0.012495328102661065,0.010067389544212458,13.606168523636075,0.009711754834858012,0.01193613993624846
275,0.25,0.001,0.012608810825678763,0.010176407358001086,13.631189769292995,0.009729614396354743,0.016264467189709347
276,0.25,0.001,0.012689182883739143,0.01009542807505643,14.535402098306283,0.01037501934211726,0.01851546826461951
277,0.25,0.001,0.012651849068578117,0.010150981692407414,14.014861088482144,0.01000346972768176,0.016110620306183893
278,0.25,0.001,0.012560189899170038,0.00997096216742247,14.510032296509126,0.010356910989656763,0.01121873160203298
279,0.25,0.001,0.012595704025473477,0.009996024581293264,14.56860366012111,0.01039871781593227,0.011887900764122605
280,0.25,0.001,0.01260235432032547,0.010099640883217994,14.025205956346076,0.010010853644786636,0.01393576106056571
281,0.25,0.001,0.012436441507590703,0.009987899887352443,13.721627348382283,0.009794166558445599,0.008994956966489553
282,0.25,0.001,0.012563327465914497,0.010104191268873772,13.780999840455278,0.00983654521088885,0.014373960128674904
283,0.25,0.001,0.012553558287213329,0.009996013751782004,14.332480178391638,0.010230178571300241,0.013061471904317537
284,0.25,0.001,0.012461478786014493,0.00999377043430306,13.829039384510892,0.009870834678451743,0.016887138752887648
285,0.25,0.001,0.012544016733498777,0.010110724414634639,13.636170279552786,0.009733169364420261,0.014630319162582358
286,0.25,0.001,0.012579873691700378,0.009969850314509114,14.626571103561023,0.010440093578558903,0.015189115578929583
287,0.25,0.001,0.012595465278494129,0.0101455791312021,13.729162760017331,0.009799545153474185,0.014707266818732023
288,0.25,0.001,0.012580466749192762,0.01005343747769095,14.161473103462829,0.010108117846868542,0.014743509702384472
289,0.25,0.001,0.012576057680833766,0.010102471747222683,13.861974584826426,0.009894343029854693,0.015489219687879086
290,0.25,0.001,0.012513641781140294,0.009978142436131958,14.208939152972428,0.010141997967860406,0.013175364738951126
291,0.25,0.001,0.012579420491663057,0.010063872500720432,14.097131153768744,0.010062192115466627,0.016993725672364235
292,0.25,0.001,0.012500556257679114,0.009940697457487425,14.345448010552357,0.010239434697039512,0.011235636503746113
293,0.25,0.001,0.012389302266551279,0.009927373733525435,13.796646877425433,0.009847713688383606,0.012474817068626484
294,0.25,0.001,0.012662595189266298,0.010157629413935599,14.037829215204749,0.010019863822415952,0.015504982167234024
295,0.25,0.001,0.012474268772344288,0.009981640060393772,13.968690598963377,0.009970514346155158,0.011916631056616703
296,0.25,0.001,0.012522795176025758,0.010088134890540244,13.643835790229566,0.009738640821006115,0.01120414383088549
297,0.25,0.001,0.012473370287228714,0.009959720896131079,14.08649214174465,0.010054598245356637,0.013218450204779705
298,0.25,0.001,0.012477365966383418,0.009945118063470712,14.19071782324925,0.01012899202230496,0.009052570986871919
299,0.25,0.001,0.012452682487912908,0.009958859417618307,13.975384956549021,0.009975292617094234,0.009872786390284697
300,0.25,0.001,0.01240331297817309,0.00990503797559042,14.000333941015658,0.009993100600296687,0.011484635605787238
301,0.25,0.001,0.012459546366075346,0.009982601203250162,13.880800320754037,0.009907780385977186,0.01550647608625392
302,0.25,0.001,0.012434681582446762,0.009943946859909647,13.958076779179008,0.009962938457658107,0.014213754485050837
303,0.25,0.001,0.012553104874228971,0.010051466091010031,14.019184511883529,0.010006555683000377,0.017425006643558543
304,0.25,0.001,0.012480314118023089,0.00999326770996916,13.937408181918226,0.009948185711576178,0.016762555576860905
305,0.25,0.001,0.01249227231014366,0.010000997941335535,13.961102299125399,0.009965098000803283,0.01026264779890577
306,0.25,0.001,0.01240288416698534,0.009891899382136249,14.071558970721957,0.010043939308152717,0.010783361736685038
307,0.25,0.001,0.012529652044895432,0.010057860905863858,13.851917637281181,0.009887164623327038,0.015109306977440914
308,0.25,0.001,0.012395437327072475,0.009888357631656913,14.049675513233364,0.010028319424149439,0.014541786319265762
309,0.25,0.001,0.012568674504387476,0.010093284847815175,13.87208371648447,0.00990155868414309,0.01825186377391219
310,0.25,0.001,0.012418507795893785,0.009896488295811596,14.133396808109335,0.01008807766460338,0.013692834104100863
311,0.25,0.001,0.012502445272341903,0.010005619951598243,13.99221024894189,0.009987302104883576,0.011326511157676578
312,0.25,0.001,0.012432857434529576,0.009927968261122046,14.037399612510828,0.010019557182377466,0.01102639501914382
313,0.25,0.001,0.012429063087816737,0.009966630193587013,13.799475467566287,0.009849732667784645,0.01250790385529399
314,0.25,0.001,0.012461915196589202,0.009961242523280385,14.013769044692195,0.01000269025317073,0.010076969085882107
315,0.25,0.001,0.012417467080118242,0.009879987999878968,14.220032529069044,0.010149916152083544,0.01018806795279185
316,0.25,0.001,0.012357553590304595,0.009875761137213095,13.907965696876042,0.009927170376071407,0.014075428014621139
317,0.25,0.001,0.012372520780473045,0.009904802789701246,13.82909216499854,0.009870872351890464,0.0146499735613664
318,0.25,0.001,0.012362524849098411,0.009872269157330523,13.955393859505982,0.009961023454322614,0.010380833564947048
319,0.25,0.001,0.012309921664229439,0.00984705813208559,13.80188749644382,0.009851454315805724,0.009880059553931156
320,0.25,0.001,0.012456263356506004,0.009967239453013442,13.948490363507231,0.009956095905429858,0.015212555105487505
321,0.25,0.001,0.01243615703344263,0.009874373207448599,14.35623718030525,0.010247135746113668,0.011251680242518583
322,0.25,0.001,0.012305815442472943,0.009828166456344042,13.884746252012647,0.009910596896511525,0.012559856909016768
323,0.25,0.001,0.012321305243149606,0.00987652984778743,13.700520192296052,0.009779100779654569,0.01596175351490577
324,0.25,0.001,0.012335408076171868,0.009832975572647307,14.023632330671157,0.010009730428744581,0.01159142516553402
325,0.25,0.001,0.012352357300372985,0.009908706216608526,13.694220201371458,0.00977460399812381,0.013825326381872097
326,0.25,0.001,0.012305435054927817,0.009822536726833704,13.914162853860987,0.009931593757216979,0.012234473833814263
327,0.25,0.001,0.012399738336356547,0.009848825194803644,14.295318343422629,0.01020365335005184,0.01182639505714178
328,0.25,0.001,0.012332239183122626,0.0098392596216898,13.970657740085906,0.009971918444029912,0.013721387212475141
329,0.25,0.001,0.012383105407774285,0.009961773372016662,13.569144947798128,0.009685328299641775,0.010161306243389845
330,0.25,0.001,0.012379867476270054,0.009860708362861606,14.117368193697338,0.01007663682633643,0.01013334592183431
331,0.25,0.001,0.012327111467267528,0.009852259204345794,13.869072165370973,0.009899409111613827,0.009864797660460075
332,0.25,0.001,0.012315286513284547,0.009780052790197623,14.207450811527977,0.010140935625644523,0.009328921170284351
333,0.25,0.001,0.012480310382470283,0.009933208053823838,14.273962425463127,0.010188410011037208,0.013124189805239439
334,0.25,0.001,0.012402877350114593,0.009865662283148648,14.21855203770409,0.010148859413065018,0.0168646724584202
335,0.25,0.001,0.01243907018223413,0.0099136168162849,14.152640555515763,0.010101813387234664,0.01970081062366565
336,0.25,0.001,0.01232058839415798,0.009831321353898397,13.949852289247119,0.00995706801516568,0.010245065825680891
337,0.25,0.001,0.01231249665312941,0.009862605785083836,13.729188664228792,0.00979956364327537,0.013103129342198372
338,0.25,0.001,0.012376914803995737,0.00986227823662528,14.092022851150555,0.010058545932298754,0.012568287240962187
339,0.25,0.001,0.012383093611021672,0.009858984379585288,14.145107487344873,0.010096436464914257,0.011635121190920472
340,0.25,0.001,0.012372205080079638,0.00984209262029609,14.17875045849929,0.010120450006066588,0.01187452208250761
341,0.25,0.001,0.012412571753618967,0.009907045553004774,14.040970381954812,0.010022105911459538,0.015085293135295311
342,0.25,0.001,0.012363565600792732,0.009784835488240417,14.451204003052935,0.010314920773057056,0.01789448627581199
343,0.25,0.001,0.012415489992614291,0.009911050845563575,14.034877251659214,0.010017756782055114,0.015362104245771965
344,0.25,0.001,0.012396023647228548,0.009896866163911078,14.005278663530166,0.009996630023933023,0.017379971221089363
345,0.25,0.001,0.012306310913779518,0.009808666372964205,13.996800125794634,0.009990578248247419,0.011683664051815867
346,0.25,0.001,0.012427545706779996,0.009936759928267029,13.958363711669755,0.009963143263147576,0.010739342619975408
347,0.25,0.001,0.012351593202795864,0.009776613577564064,14.430185370537204,0.010299918180254964,0.010555775836110115
348,0.25,0.001,0.012264954033961967,0.009727723973472257,14.218637637198793,0.010148920511919195,0.010422342534487447
349,0.25,0.001,0.012328743955156363,0.009913708393772444,13.533859368526574,0.009660142304444378,0.011392500251531601
350,0.25,0.001,0.012409936687998864,0.009819654083346369,14.51594409995171,0.01036113069232813,0.021549693153550226
351,0.25,0.001,0.01235638717933463,0.009865953289382877,13.956391174274371,0.009961735313543447,0.01754563193147381
352,0.25,0.001,0.01227176776694611,0.009792316592100895,13.894844709349073,0.009917804931726676,0.013824947100753585
353,0.25,0.001,0.01229292547366179,0.009825317163441136,13.828476695646597,0.009870433044715628,0.012949650331089893
354,0.25,0.001,0.012360632799298967,0.009831653479435392,14.17240044827632,0.010115917521967395,0.01260137977078557
355,0.25,0.001,0.012267816426955964,0.009738694268378837,14.17320088052881,0.010116488851198294,0.012731356158231696
356,0.25,0.001,0.012327067833650375,0.009857093520236738,13.841736189261612,0.009879897351364462,0.015353709924966097
357,0.25,0.001,0.012379494449508584,0.009859656709818473,14.121171549332043,0.010079351569830152,0.027448864964147408
358,0.25,0.001,0.012323903281641893,0.009824189465215877,14.008396794973326,0.009998855670930283,0.023375221838553745
359,0.25,0.001,0.012337502933648664,0.009810229989163803,14.162838891189617,0.010109092713197442,0.025556319237997133
360,0.25,0.001,0.01242068516649819,0.009988792702432506,13.62832600879932,0.009727570313204368,0.022407117610176403
361,0.25,0.001,0.012312229663728847,0.00980834779906864,14.03175376335123,0.01001552731145698,0.02004271241215368
362,0.25,0.001,0.01238851750284926,0.009825359983754552,14.363934453853892,0.010252629874271158,0.024927408900111914
363,0.25,0.001,0.012334563294759139,0.00992377512875339,13.510056004379734,0.00964315203738739,0.01937891325602929
364,0.25,0.001,0.012279614565006302,0.009759325770142978,14.123698896613003,0.01008115552934547,0.01464199631785353
365,0.25,0.001,0.012336762852905211,0.009766486701722315,14.40382728366484,0.010281104413750778,0.016102084424346685
366,0.25,0.001,0.012369326900783156,0.009918467018537777,13.734619293002714,0.009803439895076883,0.0181581093929708
367,0.25,0.001,0.012231381566420238,0.009751544393003807,13.897008514929738,0.009919349403946993,0.016914772024999063
368,0.25,0.001,0.012251503237063891,0.009750600829823122,14.015056893845236,0.010003609488826008,0.01137204833018283
369,0.25,0.001,0.012238329176383077,0.009672262469824845,14.380237608244926,0.010264266672551696,0.010040007376422485
370,0.25,0.001,0.012230934462312496,0.009740475921817227,13.956530174276388,0.009961834528391425,0.009968461468815804
371,0.25,0.001,0.01223225937001715,0.009721222872391713,14.071850122499072,0.010044147125267003,0.01147787676503261
372,0.25,0.001,0.012329934218759872,0.009772294657638415,14.333011551008408,0.010230557852254395,0.020884383469820023
373,0.25,0.001,0.012338559605058067,0.009836733094916856,14.02023674305477,0.010007306740224675,0.012819170641402403
374,0.25,0.001,0.01221420868625736,0.009645010878334526,14.397783975627469,0.010276790846272284,0.010546843831737837
375,0.25,0.001,0.012230213333855156,0.009747579783591193,13.912678581952392,0.009930534319737611,0.011393167388935884
376,0.25,0.001,0.012271469120274891,0.009785593135831442,13.93084732822807,0.009943502732496839,0.012920539360493422
377,0.25,0.001,0.01222431424430497,0.009655890427016686,14.393446344317812,0.010273694749691515,0.012341939068088928
378,0.25,0.001,0.012277991885509208,0.009739913564616655,14.223391398910648,0.010152313632341647,0.014188641682267189
379,0.25,0.001,0.01216455977974516,0.009722255147254664,13.686675983355393,0.009769219117312914,0.010202551881472269
380,0.25,0.001,0.012309012264936916,0.00977982658913395,14.173556782325766,0.010116742885314608,0.014022513603170713
381,0.25,0.001,0.012236852024376556,0.009674205857819106,14.361070225718265,0.01025058545732924,0.012504288150618473
382,0.25,0.001,0.01220743912054077,0.009746822854375708,13.789292351273465,0.009842464205048869,0.012603245209902525
383,0.25,0.001,0.012262330423866093,0.009693161058483373,14.397625736625399,0.01027667789909022,0.016767394340907533
384,0.25,0.001,0.01221072761028923,0.0096422856283623,14.393547772704405,0.010273767146826842,0.011442635208368301
385,0.25,0.001,0.01214403334296932,0.009680682136459126,13.80462090042997,0.009853405353625961,0.011508025073756775
386,0.25,0.001,0.01222442654949246,0.00970131339448871,14.139525804966278,0.010092452394693988,0.010167885106056929
387,0.25,0.001,0.012188133362875662,0.009603627262118762,14.48357364822682,0.010338025444844268,0.00989596825093031
388,0.25,0.001,0.012252198688726944,0.00977166366735191,13.90091978551271,0.009922141174527273,0.018091422350456316
389,0.25,0.001,0.012372326849864862,0.009794425044834777,14.44656199725863,0.01031160742131237,0.028785659077887733
390,0.25,0.001,0.012354767499055416,0.009859947056686583,13.980973879496256,0.009979281855457713,0.03023318573832512
391,0.25,0.001,0.012321244496800847,0.009773185389429413,14.279323887890692,0.010192236893569373,0.022229451841364305
392,0.25,0.001,0.012292810284709636,0.009803591940049133,13.949580431641298,0.00995687396976538,0.024353748963524897
393,0.25,0.001,0.012315126864583368,0.009804152778398564,14.071499209758663,0.010043896652218888,0.020093289048721392
394,0.25,0.001,0.012248347367136932,0.009693178440605806,14.319167268506094,0.010220676137406206,0.014708418787146607
395,0.25,0.001,0.012368416539380537,0.009810274074331295,14.335830333804296,0.010232569831409204,0.014866740287592014
396,0.25,0.001,0.012252658728725654,0.009727583682426244,14.150520810739396,0.010100300364553458,0.015861214449008305
397,0.25,0.001,0.012228267824087426,0.009657050028812788,14.409104486470708,0.010284871153797793,0.011222284752875566
398,0.25,0.001,0.012149703096259724,0.009677869547415043,13.852155730087238,0.009887334568227865,0.010877254729469618
399,0.25,0.001,0.01213943254274442,0.00960669422537581,14.193464289683613,0.01013095238378559,0.01113817390675346
400,0.25,0.001,0.012157076377082954,0.009618415068783708,14.22665863982902,0.010154645710084955,0.010161735971147815
401,0.25,0.001,0.012185630026804515,0.009650814200728393,14.205108259006638,0.010139263568170334,0.010734747008730968
402,0.25,0.001,0.01217929061922981,0.009648755505763138,14.181118594713448,0.010122140324563489,0.013543857649589578
403,0.25,0.001,0.012156297891470026,0.009632975327430841,14.140699838475419,0.010093290391488522,0.01666965785746773
404,0.25,0.001,0.012188798981428803,0.009614893273750612,14.424167396608462,0.010295622695652007,0.013376502164949974
405,0.25,0.001,0.012098210830415904,0.009609750117952665,13.945334881133613,0.009953843598239552,0.011124917306005955
406,0.25,0.001,0.01211496360199757,0.009618428161177918,13.990585434863718,0.00998614235179423,0.011307299913217625
407,0.25,0.001,0.012076935887377781,0.009546219106999638,14.18213761279734,0.010122867675087324,0.01484050260235866
408,0.25,0.001,0.012091050599252718,0.009630985468236047,13.786205977447763,0.009840261225872778,0.012193998011449972
409,0.25,0.001,0.012106894333295258,0.009570772987957171,14.21242506641987,0.010144486128779351,0.012840284733101726
410,0.25,0.001,0.012160987793352486,0.00961860421449767,14.247517880001016,0.010169534532477528,0.013114566759516796
411,0.25,0.001,0.0121971297439588,0.009668997424775247,14.16765351203519,0.010112529273401278,0.013767439406365156
412,0.25,0.001,0.012201051325242218,0.009634463347433028,14.38315938261258,0.010266352164605697,0.018017662689089775
413,0.25,0.001,0.01217320818228252,0.009581474392333636,14.524076385603134,0.010366935321629646,0.014151360839605331
414,0.25,0.001,0.012269037608929573,0.009685302266117298,14.479253366958996,0.01033494173230478,0.013358921743929386
415,0.25,0.001,0.01213268402543114,0.009555095042161049,14.444809086066632,0.0103103562355936,0.010351620769749085
416,0.25,0.001,0.01214335456275004,0.009580577444028592,14.361803795680526,0.010251109061870468,0.010830659264077743
417,0.25,0.001,0.012126496284892244,0.009621614880203052,14.03735547289047,0.01001952567658135,0.015936763336261112
418,0.25,0.001,0.01216251118308749,0.009588801643244162,14.423068438022918,0.010294838285526709,0.01725931620846192
419,0.25,0.001,0.012137743046625259,0.009540068139591493,14.557370388146603,0.01039069977740657,0.011420002828041712
420,0.25,0.001,0.012211977583728217,0.009638964693695717,14.419166107808262,0.010292052896365641,0.011728348210453987
421,0.25,0.001,0.0121779295284886,0.009635526897288223,14.247624349988197,0.010169610528185722,0.011283499111110965
422,0.25,0.001,0.0121600023642716,0.00961358174065913,14.270141985133987,0.010185683072900777,0.013960804790258408
423,0.25,0.001,0.012126275181729275,0.009504186594987047,14.694184894404135,0.010488354671237784,0.01177936140447855
424,0.25,0.001,0.012094512089224886,0.009579614620686563,14.093485501186906,0.010059589936607357,0.012600375184168419
425,0.25,0.001,0.012076506406561402,0.00953160759225775,14.261611980511795,0.010179594561393144,0.012393871943155924
426,0.25,0.001,0.012134943526884741,0.009635886046573642,14.00471869119271,0.00999623032918823,0.011918458466728529
427,0.25,0.001,0.012075103331901154,0.009440418774103001,14.764771156731387,0.010538737442349313,0.009620630492766699
428,0.25,0.001,0.012092213536363824,0.00954944262481179,14.249688240450604,0.010171083683405142,0.018821580490718286
429,0.25,0.001,0.012130198712889156,0.009648818263563407,13.905657516038122,0.009925522852275605,0.023174739908427
430,0.25,0.001,0.012102272841289188,0.009529563919038156,14.417460764735198,0.010290835663622554,0.013260765622059504
431,0.25,0.001,0.012119591646614811,0.009579714054123757,14.233473575476443,0.010159510046735506,0.011637050192803144
432,0.25,0.001,0.012108520614932556,0.009587494900178154,14.127828500815989,0.010084103141196281,0.01119170943275094
433,0.25,0.001,0.012034620204555594,0.00953314345350525,14.018276577153483,0.010005907621094563,0.009047753953685364
434,0.25,0.001,0.012097432993906589,0.00957470558091136,14.137364069620768,0.01009090940015758,0.012537546223029494
435,0.25,0.001,0.012100940367550725,0.009518360662640947,14.47277677551774,0.010330318897585825,0.010428587595621744
436,0.25,0.001,0.012047708840122236,0.009489075162707116,14.33858169997034,0.0102345336902001,0.010265262331813574
437,0.25,0.001,0.012091357553423929,0.009568812176790448,14.136343940230441,0.010090181256410022,0.01065065742780765
438,0.25,0.001,0.012093682550201731,0.009484188261726671,14.623605263134666,0.010437976633215322,0.014582033269107342
439,0.25,0.001,0.012041670755167638,0.009581542673928679,13.786558705584733,0.009840512994707161,0.012108943114678064
440,0.25,0.001,0.012105356722290194,0.009448969169691738,14.886396092816819,0.010625550387449549,0.011313372912506262
441,0.25,0.001,0.01209792582261743,0.009589571059365903,14.056819676696104,0.010033418755671738,0.014923676693191132
442,0.25,0.001,0.01207682977817932,0.009524914556626775,14.300932374539126,0.01020766051002079,0.021494627309342224
443,0.25,0.001,0.012041055212520864,0.009512405108773348,14.170554943977965,0.010114600245523173,0.013161112709591785
444,0.25,0.001,0.01205341487394302,0.009574367775076349,13.89258009540148,0.009916188504926109,0.011303327201555172
445,0.25,0.001,0.01208033557139727,0.009499211431309048,14.464619121604057,0.010324496161030733,0.010904669761657715
446,0.25,0.001,0.012080536852526599,0.009507062555016236,14.421748773453977,0.01029389634079513,0.010925809387117624
447,0.25,0.001,0.01204010540203861,0.009504119144655128,14.211666564310878,0.010143944728273289,0.01257041081165274
448,0.25,0.001,0.012071069491611531,0.009535929603763848,14.206924512038217,0.010140559965766037,0.014388243978222212
449,0.25,0.001,0.012047658089455987,0.00948867011179034,14.340567749065473,0.01023595128412953,0.01616972203676899
450,0.25,0.001,0.012062043941915856,0.009512673740175144,14.286670674305645,0.010197480852466556,0.016899542262156803
451,0.25,0.001,0.012042673928124354,0.009519489497438935,14.139926400723208,0.010092738330280663,0.015537903333703676
452,0.25,0.001,0.01212653898975245,0.009576192105153047,14.292143992484437,0.010201387574935359,0.015237291033069292
453,0.25,0.001,0.012054449645160972,0.009505147876387293,14.286287144852736,0.010197207098395958,0.017415127251297235
454,0.25,0.001,0.012056302150952587,0.009492648221531848,14.366715651898344,0.010254615026337148,0.012688061455264688
455,0.25,0.001,0.011978953771457364,0.009446027285878652,14.194520072831924,0.010131705976325428,0.013533386867493391
456,0.25,0.001,0.012045847413645795,0.009529746748178622,14.100227419009878,0.010064402154896415,0.01933343956867854
457,0.25,0.001,0.012120200716184847,0.009594145138586356,14.156015438153396,0.010104222297040255,0.014549942221492529
458,0.25,0.001,0.012071273151077023,0.009471193274108503,14.57084717238245,0.01040031918085828,0.015730883770932753
459,0.25,0.001,0.012031241445789324,0.009533307014787492,13.998425557265268,0.009991738442016607,0.014677166705951095
460,0.25,0.001,0.012048694477018902,0.009512012377997075,14.215567919833601,0.01014672942172277,0.01295220060274005
461,0.25,0.001,0.012020877506019491,0.00936609854506067,14.877382522772166,0.010619116718609684,0.012963466656704744
462,0.25,0.001,0.011939894510612671,0.009358621997753615,14.465451561058192,0.010325090336229973,0.01340488080556194
463,0.25,0.001,0.01198417603323036,0.009504127611223987,13.898191541351235,0.009920193819665407,0.011008210790654024
464,0.25,0.001,0.011985563457566352,0.009411731131949536,14.423755611598327,0.010295328773446343,0.013029051634172598
465,0.25,0.001,0.012020114362855588,0.009432274263259793,14.502256763868095,0.010351361002047177,0.012191215840478739
466,0.25,0.001,0.012008303950846032,0.00942225504368954,14.492218380131998,0.010344195845918629,0.011770691877851883
467,0.25,0.001,0.011984697224946883,0.009482647341062871,14.021486723718564,0.010008198946265926,0.012646571733057499
468,0.25,0.001,0.011960611819769398,0.009393615950894421,14.385445870643805,0.010267984204599432,0.015584387661268314
469,0.25,0.001,0.011999440071565554,0.009433876402347705,14.377417905928347,0.010262254037065202,0.013528112166871628
470,0.25,0.001,0.012003488630856856,0.009410155223831328,14.533041152743925,0.010373334156134137,0.013840234993646542
471,0.25,0.001,0.01197781295005037,0.009442881380846677,14.205757603500828,0.010139727054604445,0.01753894022355477
472,0.25,0.001,0.012005399248098375,0.009494612488598042,14.070449222217906,0.010043147196443902,0.011457917901376883
473,0.25,0.001,0.01197680534882158,0.009417495359320287,14.34237481214455,0.010237241122158852,0.012054546736180782
474,0.25,0.001,0.0119504905703475,0.009410194552326497,14.235819706246872,0.010161184658277568,0.015141396317631006
475,0.25,0.001,0.0119283853622138,0.009441344726820459,13.937376773718631,0.00994816329316105,0.014867207190642754
476,0.25,0.001,0.012021314845351148,0.009492328557244838,14.17243907865414,0.010115945095399101,0.016748848526428144
477,0.25,0.001,0.011963123447946773,0.0093678441103907,14.543945273091971,0.010381117254169858,0.010007112442205349
478,0.25,0.001,0.011917408666068037,0.009386836120104495,14.181329206986861,0.010122290654523098,0.010345337446779013
479,0.25,0.001,0.012016089063538007,0.009388412623448148,14.72549878532893,0.010510705771112728,0.013249628401050964
480,0.25,0.001,0.012023075147642249,0.00944269300738642,14.460461104211728,0.010321528268530855,0.011158136107648412
481,0.25,0.001,0.011958357187875702,0.00942169334585509,14.215463809073793,0.010146655109974156,0.010427452468623718
482,0.25,0.001,0.01202380284667015,0.00937061943883492,14.868440341686743,0.010612734005486612,0.011874572839587927
483,0.25,0.001,0.012011860107320563,0.009421293141407579,14.517537253618897,0.01036226784697994,0.018227279496689636
484,0.25,0.001,0.011963950913943372,0.00935053762007433,14.64556802271483,0.010453653121138351,0.012011163324738542
485,0.25,0.001,0.011952139231948485,0.00935768079751533,14.53934501879143,0.01037783370363414,0.01668201092009743
486,0.25,0.001,0.011983252961711943,0.009478022108372742,14.039314049334566,0.010020923661195264,0.016453655747075874
487,0.25,0.001,0.011973013637007597,0.00944135749338005,14.1874014904348,0.010126624903950606,0.011754215384523073
488,0.25,0.001,0.011987109332455748,0.00936604952362697,14.688419835954987,0.010484239711602417,0.013913571213682493
489,0.25,0.001,0.011948983510827887,0.009321696607308775,14.723315236325435,0.010509147206513516,0.011169092652077476
490,0.25,0.001,0.011927934332696859,0.009380277474577597,14.277070213612118,0.010190628275240627,0.012847551920761665
491,0.25,0.001,0.011913948387071778,0.009404007591738189,14.06570967629593,0.0100397642229093,0.01307193593432506
492,0.25,0.001,0.011989175429254689,0.009382187673621926,14.609558641417953,0.010427950493517454,0.01755055971443653
493,0.25,0.001,0.012012839471259393,0.009453463170564535,14.342745478816598,0.010237505695086793,0.017142027150839567
494,0.25,0.001,0.012003661641343073,0.009407079329626948,14.551246149152435,0.010386328443363622,0.01423540742446979
495,0.25,0.001,0.011970989852527942,0.009425564189300392,14.26456448000653,0.010181701984301593,0.011724859941750765
496,0.25,0.001,0.011915228080733092,0.00932111869727777,14.5373893243879,0.01037643777615125,0.010209610840926567
497,0.25,0.001,0.011984538769262225,0.009418321865772412,14.38107927443239,0.010264867433570584,0.014626368880271912
498,0.25,0.001,0.011934216398509738,0.009362682310181872,14.410877950263746,0.010286137009467343,0.013244343300660452
499,0.25,0.001,0.011933803622490283,0.00934942565170776,14.482854178457549,0.010337511904680621,0.01033400216450294
500,0.25,0.001,0.011905599462468762,0.009344613595196038,14.351764715735905,0.010243943408805072,0.009597492559502522
