epoch,beta,learning_rate,train_loss,train_reconstruction_loss,train_kl_unnormalized,train_kl_normalized,mean_unclipped_gradient_norm
1,0.0,0.001,0.08769638842344284,0.08769638842344284,38.29320041465759,0.02733276260860642,0.13538720831274986
2,0.02,0.001,0.05382075721025467,0.04994121897220612,271.76161547851564,0.19397688470986127,0.10516061028465629
3,0.04,0.001,0.04362917339801788,0.03886476546525955,166.87340557861327,0.11911021097688314,0.09469976555556059
4,0.06,0.001,0.037787837356328964,0.033614065259695056,97.45757470703126,0.0695628656010216,0.07787766354158521
5,0.08,0.001,0.03644469991326332,0.03187067496776581,80.10262210083008,0.05717531912978592,0.06497227400541306
6,0.1,0.001,0.03512099891901016,0.03189568173885345,45.18668600463867,0.0322531663130897,0.046962501714006066
7,0.12,0.001,0.033892515569925306,0.031079073265194893,32.8469400177002,0.02344535333169179,0.03352847555652261
8,0.14,0.001,0.03278152006864548,0.030088737860322,26.947052139282228,0.019234155702556908,0.020193592295981944
9,0.16,0.001,0.031345713064074514,0.028820837914943696,22.108439559936524,0.015780470777970394,0.023291401914320886
10,0.18,0.001,0.02887078207731247,0.025850146323442458,23.510615844726562,0.016781310381674918,0.02735729794949293
11,0.2,0.001,0.02679739321768284,0.023136705935001372,25.64311396789551,0.01830343609414383,0.03199462476186454
12,0.22,0.001,0.025436586022377014,0.02155005833506584,24.750113632202147,0.017666033998716735,0.026959158247336745
13,0.24,0.001,0.02461306595802307,0.020755592182278633,22.518005889892578,0.01607280934324952,0.037557655246928334
14,0.25,0.001,0.023631728142499923,0.019843231499195098,21.230735961914064,0.015153987124849439,0.043075249530375004
15,0.25,0.001,0.022761513382196428,0.019033066913485528,20.894214111328125,0.014913785946701017,0.050580997369252145
16,0.25,0.001,0.0220750582665205,0.0184590170532465,20.26429570007324,0.01446416538192237,0.03647808078676462
17,0.25,0.001,0.02161781933903694,0.017893219709396363,20.87265702819824,0.014898399020840999,0.024095797271002084
18,0.25,0.001,0.021160297751426697,0.017673787713050844,19.538403411865236,0.013946040979204308,0.023953874013386667
19,0.25,0.001,0.021193468257784842,0.017561528772115708,20.353389266967774,0.014527758220533742,0.04385161667596549
20,0.25,0.001,0.02087906062602997,0.01743877173960209,19.279380142211913,0.01376115641842392,0.05087684839963913
21,0.25,0.001,0.020385943874716757,0.01698442757129669,19.062095794677735,0.013606064093274615,0.032504034345038235
22,0.25,0.001,0.020256257861852645,0.016830381616950035,19.198609909057616,0.013703504574630704,0.032247070921584964
23,0.25,0.001,0.02030692361295223,0.016889678627252578,19.15024028015137,0.013668979500464931,0.031167998793534935
24,0.25,0.001,0.020113903686404228,0.016746697679162027,18.86982456970215,0.013468825531550429,0.044562216149643064
25,0.25,0.001,0.02017877858877182,0.016732225924730303,19.314481964111327,0.013786211252042347,0.051878153113648295
26,0.0,0.001,0.01579598354548216,0.01579598354548216,24.898399505615235,0.01777187687766969,0.035581646487116814
27,0.02,0.001,0.015031642563641071,0.0143544951826334,47.434189300537106,0.0338573799432813,0.02535549772437662
28,0.04,0.001,0.015536759048700333,0.01373093929886818,63.2488381652832,0.045145494764656104,0.023789284750819206
29,0.06,0.001,0.016106237784028053,0.013593201152980327,58.67941021728516,0.0418839473356782,0.020355927757918835
30,0.08,0.001,0.016334325194358824,0.013919002324342728,42.298347442626955,0.03019153993049747,0.030539644416421652
31,0.1,0.001,0.0166707244515419,0.014480162657797337,30.68977638244629,0.021905621971767517,0.035403280053287745
32,0.12,0.001,0.016947927087545396,0.014451358526945113,29.147437942504883,0.020804738003215476,0.03091670968569815
33,0.14,0.001,0.01738717782497406,0.014519391864538192,28.698343338012695,0.02048418510921677,0.031301595154218376
34,0.16,0.001,0.01755811730027199,0.014546737872064114,26.368393005371093,0.018821122773284148,0.039642686606384814
35,0.18,0.001,0.01767945408821106,0.014573007561266423,24.178509887695313,0.01725803703618509,0.023370967363007367
36,0.2,0.001,0.017886753603816034,0.01462172532826662,22.87152407836914,0.016325142097337004,0.025756834540516138
37,0.22,0.001,0.01821079534292221,0.014814175091683864,21.6302950592041,0.015439182768882299,0.03400736569892615
38,0.24,0.001,0.01838386398553848,0.014876582801342011,20.47375454711914,0.014613672053618229,0.022722781752236187
39,0.25,0.001,0.018183015033602715,0.014676396206021309,19.65109230041504,0.014026475589161343,0.013168682344257832
40,0.25,0.001,0.01808972117304802,0.014680423647165299,19.1057052154541,0.013637191445720271,0.023418773314915597
41,0.25,0.001,0.0180719346255064,0.014712395884096622,18.826856369018554,0.013438155866537155,0.024194679223001003
42,0.25,0.001,0.01796089355647564,0.014652770631015302,18.538720352172852,0.013232491329174055,0.018141447333619
43,0.25,0.001,0.017727407425642015,0.014558237433433532,17.76002980041504,0.012676680799725224,0.017194154555909336
44,0.25,0.001,0.01776753205060959,0.014616507157683372,17.658343200683593,0.012604099358089645,0.023453639005310833
45,0.25,0.001,0.017662750750780106,0.014426687203347683,18.134898971557618,0.012944253370133918,0.021157871058676392
46,0.25,0.001,0.017571448922157288,0.014292761020362378,18.373765701293944,0.013114750679010667,0.01769351470284164
47,0.25,0.001,0.017483766689896582,0.014396263346076011,17.30236978149414,0.012350014119553276,0.022898793569765985
48,0.25,0.001,0.017309054404497145,0.014138712875545025,17.766594497680664,0.012681366522256005,0.02110461296979338
49,0.25,0.001,0.017191423773765563,0.014110367968678475,17.26623793029785,0.012324224075872843,0.02237383439205587
50,0.25,0.001,0.01705774253606796,0.014081964410841466,16.67626013183594,0.01190311215691359,0.016600608825683594
51,0.0,0.001,0.013434542879462242,0.013434542879462242,21.843258514404297,0.015591190945327835,0.022579039679840207
52,0.02,0.001,0.013017888478934765,0.012439493216574192,40.516589965820316,0.028919764429564822,0.01714672928210348
53,0.04,0.001,0.013490155279636384,0.011980428233742714,52.87818905639649,0.037743175629119545,0.015596142562571913
54,0.06,0.001,0.01389689216017723,0.011919160068035126,46.18004354858398,0.03296220096258671,0.014969239942729473
55,0.08,0.001,0.014032888479530811,0.012197245940566063,32.1466925201416,0.022945533561842684,0.010235382127575576
56,0.1,0.001,0.014346844896674156,0.012552519254386425,25.138502365112306,0.017943256506147257,0.01164918317226693
57,0.12,0.001,0.014669816270470619,0.012585498578846454,24.33440853881836,0.017369313732204395,0.015520202810876071
58,0.14,0.001,0.014905066967010498,0.012526609137654304,23.801566177368166,0.016988983709756007,0.010739818215370178
59,0.16,0.001,0.01510311858355999,0.012612212404608726,21.810998565673827,0.015568164572215437,0.010781207703985274
60,0.18,0.001,0.01534896144270897,0.012778850853443146,20.004028457641603,0.014278392903384441,0.01142339885700494
61,0.2,0.001,0.015539345905184746,0.012674733869731426,20.06660823059082,0.014323060835539485,0.01691455824766308
62,0.22,0.001,0.0157356016933918,0.01287839737534523,18.195197967529296,0.012987293338707562,0.022842455888167024
63,0.24,0.001,0.01594040748476982,0.012895750224590302,17.77318846130371,0.012686073134406646,0.012772646441590041
64,0.25,0.001,0.015950891733169555,0.012906126566231252,17.06286488342285,0.01217906130151524,0.010882841539569199
65,0.25,0.001,0.015916325211524963,0.012989348247647286,16.40277946472168,0.011707908254619329,0.013147605117410421
66,0.25,0.001,0.015862544313073157,0.012890429943799972,16.65573031616211,0.011888458469780235,0.016533610702026635
67,0.25,0.001,0.015798639014363288,0.01295719052106142,15.923478820800781,0.011365795018415975,0.0217005304293707
68,0.25,0.001,0.015771440491080285,0.01288530994951725,16.17387494659424,0.011544521732044425,0.01590186811517924
69,0.25,0.001,0.015693519935011863,0.012846174404025077,15.956524635314942,0.011389382323565268,0.01531316788168624
70,0.25,0.001,0.015659070312976836,0.012743099860846997,16.34109944152832,0.011663882542132992,0.014982160355430096
71,0.25,0.001,0.015532438412308693,0.012730518907308579,15.70195832824707,0.01120767903515137,0.01197420951211825
72,0.25,0.001,0.015569489195942879,0.01274598751962185,15.822903480529785,0.011294006766973437,0.011451382713858038
73,0.25,0.001,0.015524340450763702,0.012725531607866287,15.68452473449707,0.011195235356528959,0.01575178385246545
74,0.25,0.001,0.015512394219636917,0.012745925605297088,15.503289199829101,0.011065873804303426,0.019007563358172774
75,0.25,0.001,0.01541692377626896,0.012577490665018558,15.912185005187988,0.011357733765301919,0.02141181903425604
76,0.0,0.001,0.012366321682929993,0.012366321682929993,20.047115493774413,0.014309147390274385,0.02370047033764422
77,0.02,0.001,0.012049071878194808,0.011495562493801117,38.773336303710934,0.0276754720226345,0.02253443980589509
78,0.04,0.001,0.012497328363358975,0.011148153200745583,47.25486181640625,0.03372938031149625,0.01860689092427492
79,0.06,0.001,0.01286426965892315,0.011230661660432815,38.14475115966797,0.027226803111825817,0.02386255539022386
80,0.08,0.001,0.012981345809996127,0.011445993833243847,26.887854080200196,0.019191901556174302,0.015848103677853942
81,0.1,0.001,0.01314756865054369,0.011560405880212784,22.236150756835936,0.015871627949204808,0.010510327760130167
82,0.12,0.001,0.01343441167473793,0.011570273391902447,21.763813369750977,0.015534484917738027,0.012688072049058974
83,0.14,0.001,0.013713328421115875,0.011628227576613427,20.86590118408203,0.014893576862299808,0.008588327502366155
84,0.16,0.001,0.013912810623645782,0.011651533573865891,19.800307739257814,0.014132981969491658,0.012708608759567142
85,0.18,0.001,0.014258133620023728,0.011814928732812405,19.016278091430664,0.013573360522077561,0.02159271715208888
86,0.2,0.001,0.014482219532132148,0.011922428704798222,17.93133544921875,0.012798954638985546,0.01819226425141096
87,0.22,0.001,0.014771190218627453,0.012015815436840058,17.546728561401366,0.012524431521342874,0.021467447862960398
88,0.24,0.001,0.01500090356171131,0.012102978818118571,16.916637016296388,0.012074687377798992,0.01918574166484177
89,0.25,0.001,0.015116635754704476,0.012263960048556328,15.986393264770507,0.011410701830671312,0.020328425627667457
90,0.25,0.001,0.015025456145405769,0.012131851099431514,16.21576382446289,0.011574421002471727,0.02031203976366669
91,0.25,0.001,0.014972633846104146,0.012180107101798057,15.649320854187012,0.011170107676079238,0.01655310345813632
92,0.25,0.001,0.014994425594806671,0.01216249530017376,15.870137008666992,0.01132772091981941,0.01263828546507284
93,0.25,0.001,0.014883324161171912,0.012081067875027657,15.703843460083007,0.01120902459677588,0.013892769813537598
94,0.25,0.001,0.014942422404885292,0.01216899985820055,15.542259902954102,0.0110936901520015,0.01665197336114943
95,0.25,0.001,0.014912156373262405,0.012018079407513142,16.21840798187256,0.0115763083382388,0.015165961347520351
96,0.25,0.001,0.014859688699245453,0.012129637099802495,15.29920948791504,0.01092020662948968,0.018598729686345905
97,0.25,0.001,0.014880539655685424,0.01207457022368908,15.724653587341308,0.011223878363555538,0.01194940903224051
98,0.25,0.001,0.014843099988996982,0.012123747698962689,15.23924935913086,0.010877408536139086,0.021742168464697897
99,0.25,0.001,0.01478888151794672,0.011991232700645924,15.678025405883789,0.01119059629256516,0.013803884270600975
100,0.25,0.001,0.014756570085883141,0.011995333023369312,15.473972236633301,0.011044948063264313,0.014500922989100218
101,0.25,0.001,0.01473334613442421,0.011987658590078354,15.38683332824707,0.010982750412738808,0.015828925708774477
102,0.25,0.001,0.014728847153484822,0.012054137162864208,14.989075355529785,0.010698840367972723,0.013834164594300091
103,0.25,0.001,0.014701930768787862,0.011925188958644866,15.560860794067382,0.011106967019320044,0.017106602666899562
104,0.25,0.001,0.014775856219232083,0.01207328524440527,15.1452085647583,0.010810284485908851,0.020434411359019578
105,0.25,0.001,0.014684115827083588,0.011953925177454949,15.29998908996582,0.01092076309062514,0.015156047709751874
106,0.25,0.001,0.014685378178954125,0.011964282795786858,15.249019096374512,0.010884381938882593,0.011579299403820187
107,0.25,0.001,0.014726214610040188,0.011950735837221145,15.553783012390136,0.01110191506951473,0.016064073133748025
108,0.25,0.001,0.014633930303156377,0.011914133310317994,15.241742767333985,0.010879188270759448,0.020442776498384774
109,0.25,0.001,0.014585976220667362,0.011930906385183335,14.879011863708497,0.010620279702861168,0.01746494899271056
110,0.25,0.001,0.014560507483780384,0.011908283300697804,14.863064514160156,0.010608896869493331,0.014120326784905046
111,0.25,0.001,0.014541579745709896,0.011815791338682175,15.275318603515625,0.010903153892587884,0.011051692126784474
112,0.25,0.001,0.014536819137632847,0.011800843022763728,15.332410041809082,0.010943904383875148,0.007776313286740333
113,0.25,0.001,0.014536635279655456,0.011811656206846237,15.27078302001953,0.010899916502512156,0.013428754056803882
114,0.25,0.001,0.014476035691797734,0.011776751279830933,15.126790046691895,0.010797137792071303,0.013474476523697376
115,0.25,0.001,0.014508386835455895,0.011848249942064286,14.907407501220703,0.010640547823854892,0.011093078646808863
116,0.25,0.001,0.01447590111941099,0.011824264809489251,14.859769569396972,0.01060654501741397,0.015062957827467471
117,0.25,0.001,0.01449215928465128,0.011719481974840164,15.538083877563476,0.011090709405826892,0.014839116716757417
118,0.25,0.001,0.014430684953927993,0.011788666166365147,14.805873565673828,0.01056807535023114,0.016156578378286213
119,0.25,0.001,0.0144451864361763,0.011753257013857365,15.085571678161621,0.010767717115033278,0.018478833371773362
120,0.25,0.001,0.014436851479113102,0.011748584404587746,15.065048530578613,0.010753068187422278,0.015333340386860073
121,0.25,0.001,0.014407372698187829,0.011704369403421878,15.147631851196289,0.010812014169304988,0.013914786686655134
122,0.25,0.001,0.014484955877065659,0.01183625415712595,14.843324005126954,0.01059480657039754,0.019448254257440567
123,0.25,0.001,0.014454350985586643,0.011688717775046825,15.498608673095703,0.011062532957241758,0.019518203451298177
124,0.25,0.001,0.014414433285593987,0.011781205728650093,14.756606155395508,0.010532909461381518,0.013131026993505657
125,0.25,0.001,0.01440229046344757,0.011606198966503143,15.669297393798828,0.011184366448107658,0.01701180124655366
126,0.25,0.001,0.014424069680273533,0.01176058716326952,14.926155967712402,0.010653930026918203,0.02137561421841383
127,0.25,0.001,0.014344072714447976,0.011702342107892037,14.80425813293457,0.010566922293315182,0.014563091797754169
128,0.25,0.001,0.014292969152331352,0.011606377370655537,15.055660491943359,0.01074636723193673,0.013548081507906318
129,0.25,0.001,0.014255049422383308,0.011622748032212258,14.751417678833008,0.010529206051986444,0.01163026544963941
130,0.25,0.001,0.014421324551105499,0.011759263031184674,14.918191818237304,0.010648245409162958,0.010345330054406077
131,0.25,0.001,0.01427621278166771,0.01160263753682375,14.98271647644043,0.010694301553490672,0.010474163689650595
132,0.25,0.001,0.014287736602127551,0.011609184950590134,15.010604080200196,0.010714207052248534,0.011090138053987175
133,0.25,0.001,0.014267688296735286,0.011582157015800476,15.04971802520752,0.01074212564254641,0.010913620761130005
134,0.25,0.001,0.014241895593702793,0.0115559136942029,15.0522426071167,0.010743927628206067,0.013061778619885445
135,0.25,0.001,0.01433439788967371,0.011674569576978683,14.905678436279297,0.010639313659014488,0.014412124757654965
136,0.25,0.001,0.014342007033526897,0.011621917881071567,15.243379440307617,0.010880356488442268,0.01904540415853262
137,0.25,0.001,0.014358872547745705,0.011695983782410622,14.9228286819458,0.010651555090610849,0.023800640716217458
138,0.25,0.001,0.014282837681472302,0.011570455476641655,15.200190170288085,0.010849529029470438,0.01364538911730051
139,0.25,0.001,0.01434927336871624,0.011636554323136806,15.202077545166016,0.01085087619212421,0.010821038740687072
140,0.25,0.001,0.014309101700782777,0.011588927879929543,15.24385482788086,0.010880695808623025,0.012769532622769475
141,0.25,0.001,0.014268162176012993,0.011630853444337844,14.77947743988037,0.01054923443246279,0.015916254895273596
142,0.25,0.001,0.014134329289197922,0.011412110105156898,15.255315948486329,0.010888876480004517,0.009608773398213089
143,0.25,0.001,0.014211595065891742,0.011512598179280758,15.125178604125976,0.010795987583244808,0.010590564284939319
144,0.25,0.001,0.014169012054800987,0.011489699609577657,15.014867416381836,0.01071725011875934,0.012983703054487705
145,0.25,0.001,0.01419191700220108,0.011495418004691602,15.111180549621581,0.010785996109651379,0.012079038948286325
146,0.25,0.001,0.01412244474887848,0.01147602915763855,14.830511894226074,0.01058566159473667,0.011070098960772157
147,0.25,0.001,0.014152784213423728,0.011486805006861688,14.940147438049316,0.010663916800891732,0.013666497950907797
148,0.25,0.001,0.014095589734613896,0.011471057273447514,14.707880149841309,0.010498130014162247,0.01418212050339207
149,0.25,0.001,0.014139018476009369,0.011446307554841042,15.089952491760254,0.010770844034090118,0.012587565870489925
150,0.25,0.001,0.014136604025959969,0.011484352499246597,14.863217002868652,0.010609005712254569,0.015196828870102763
151,0.25,0.001,0.014156984642148018,0.011470917120575904,15.05272322845459,0.010744270684121763,0.015472010592930019
152,0.25,0.001,0.014146028615534306,0.011448682144284248,15.11593083190918,0.010789386746544739,0.022204484441317618
153,0.25,0.001,0.014044485494494437,0.011429623022675514,14.65368977355957,0.010459450230949015,0.011960727977566421
154,0.25,0.001,0.014019432038068772,0.011372496142983437,14.833428375244141,0.01058774330852544,0.014300470589660108
155,0.25,0.001,0.014024989470839501,0.011350703828036785,14.986697540283203,0.01069714314081599,0.009894411661662161
156,0.25,0.001,0.014108755379915237,0.011446388199925423,14.91990535736084,0.010649468492049136,0.011667327489703894
157,0.25,0.001,0.014170403100550174,0.011530238561332225,14.79548307800293,0.010560658870808658,0.014089943957515061
158,0.25,0.001,0.014094678863883018,0.011357636757194995,15.338384727478028,0.010948168970362618,0.01504052197560668
159,0.25,0.001,0.014118731141090394,0.011455702722072601,14.92361270904541,0.010652114710239408,0.01906370255164802
160,0.25,0.001,0.01403737099468708,0.011383388794958592,14.872917129516601,0.010615929428634261,0.01833087916020304
161,0.25,0.001,0.014007999204099179,0.011357976719737053,14.850726951599121,0.010600090614988665,0.01121142110787332
162,0.25,0.001,0.01403082562983036,0.011389071971178055,14.804387710571289,0.01056701478270613,0.015549302392173558
163,0.25,0.001,0.013939971551299096,0.011299206838011742,14.798845870971679,0.01056305915130027,0.00919611460994929
164,0.25,0.001,0.014001872278749944,0.011373200476169586,14.731077476501465,0.010514687706282274,0.012073572026565671
165,0.25,0.001,0.01402517142891884,0.011343201220035553,15.029761054992676,0.010727880838681425,0.011328317923471332
166,0.25,0.001,0.013954933278262615,0.011278456062078475,14.998977920532226,0.0107059085799659,0.01123919675592333
167,0.25,0.001,0.013978004224598408,0.011359870955348015,14.672018157958984,0.010472532589549596,0.01358430867549032
168,0.25,0.001,0.013984264686703681,0.01129444144666195,15.073769104003906,0.010759292722343973,0.014506364183034748
169,0.25,0.001,0.013911873772740365,0.011290801391005516,14.688490524291993,0.010484290167231972,0.010842317424248904
170,0.25,0.001,0.013980184972286225,0.011296539783477784,15.039147567749023,0.010734580705031423,0.010953474848065525
171,0.25,0.001,0.01389813194423914,0.011246065251529217,14.862182167053223,0.010608267071415578,0.011834547098260373
172,0.25,0.001,0.013985971339046955,0.01131105587631464,14.99022688293457,0.01069966230045294,0.015574175049550831
173,0.25,0.001,0.013947769351303577,0.011302179716527461,14.825884963989258,0.010582359003561212,0.014850404986646026
174,0.25,0.001,0.013922889955341815,0.011251512013375759,14.970402610778809,0.010685512213261106,0.011351506400387734
175,0.25,0.001,0.013946956008672714,0.011282741822302341,14.930257385253906,0.010656857519810069,0.013173354789614677
176,0.25,0.001,0.013978106759488582,0.011343334801495075,14.765261688232421,0.010539087571900372,0.014526895596645772
177,0.25,0.001,0.0138629394993186,0.01118336796015501,15.016318908691407,0.010718286158951753,0.010939665779005736
178,0.25,0.001,0.013945185288786887,0.011295484095811844,14.848925621032715,0.01059880486868859,0.013894852192606777
179,0.25,0.001,0.01398431121557951,0.011327178224921226,14.890573417663575,0.010628532061144592,0.01465964736416936
180,0.25,0.001,0.013831845864653587,0.011227373346686362,14.595463890075683,0.01041789000005402,0.01172635774128139
181,0.25,0.001,0.013848523929715157,0.011222471825778485,14.716396514892578,0.010504208790073218,0.010926659742835909
182,0.25,0.001,0.013886976554989815,0.011217785187065602,14.958149726867676,0.010676766400333815,0.01721335540059954
183,0.25,0.001,0.013826267577707767,0.011198842883110046,14.724087295532227,0.010509698283748913,0.013364061305765063
184,0.25,0.001,0.013913126446306705,0.0112305406332016,15.033212463378906,0.010730344370720133,0.012214519607368857
185,0.25,0.001,0.013842394180595874,0.011218273282051086,14.705573532104491,0.0104964836060703,0.01196725107729435
186,0.25,0.001,0.013887008503079414,0.011236426174640655,14.853863945007324,0.010602329725201516,0.015189095051027834
187,0.25,0.001,0.013895370423793792,0.011234364360570908,14.912278038024903,0.010644024295520986,0.011069666885305196
188,0.25,0.001,0.01383145309984684,0.011152078337967396,15.015215644836426,0.010717498675828998,0.013088534935377538
189,0.25,0.001,0.013848750852048397,0.01120784457027912,14.799639694213868,0.010563625763179063,0.014673290657810867
190,0.25,0.001,0.013868089616298675,0.011176747158169747,15.082283622741699,0.010765370180400927,0.014075425802730024
191,0.25,0.001,0.013829576678574085,0.011166033767163753,14.926494697570801,0.010654171804119058,0.01284608623245731
192,0.25,0.001,0.013848687991499901,0.0111504999473691,15.120646759033203,0.01079275286155118,0.01562040823046118
193,0.25,0.001,0.013879112303256988,0.011252554163336754,14.719231536865234,0.010506232360360624,0.020768447662703693
194,0.25,0.001,0.01387829291820526,0.011159499168395997,15.236120880126952,0.010875175503302607,0.015161848161369562
195,0.25,0.001,0.013823388174176216,0.011185650154948235,14.781885452270508,0.010550953213612069,0.015310261864215136
196,0.25,0.001,0.01378335802257061,0.011148326195776463,14.766717880249024,0.010540126966630281,0.012083619134500623
197,0.25,0.001,0.013799592360854148,0.01111809777468443,15.02709529876709,0.010725978086200636,0.01136283011874184
198,0.25,0.001,0.013853665068745613,0.011184469848871231,14.95816934967041,0.010676780406616996,0.01443595439195633
199,0.25,0.001,0.013833365462720393,0.011147690899670125,15.050519737243652,0.010742697885255998,0.010676994279492646
200,0.25,0.001,0.01377659249305725,0.011137025251984596,14.792135162353516,0.010558269209388661,0.010855031316168606
201,0.25,0.001,0.013759485870599747,0.011093119002878666,14.94232095336914,0.010665468203689608,0.012416939018294215
202,0.25,0.001,0.013707753121852875,0.011081750236451625,14.716121017456055,0.010504012146649576,0.015298832266125828
203,0.25,0.001,0.013712352357804776,0.011097797363996506,14.651966583251953,0.01045822025928048,0.009782934677787125
204,0.25,0.001,0.013753642581403255,0.011119534745812416,14.761541290283203,0.010536432041601144,0.011949899198953062
205,0.25,0.001,0.0138483764231205,0.011139531143009663,15.180369438171386,0.01083538146907308,0.016036381130106747
206,0.25,0.001,0.013817101344466209,0.011108974911272525,15.176340957641601,0.010832506036860529,0.017655996372923255
207,0.25,0.001,0.01374833607673645,0.011118994690477849,14.734828102111816,0.010517364812356756,0.0173983215354383
208,0.25,0.001,0.013756550803780555,0.011126051545143128,14.741317932128906,0.010521997096451753,0.01440576370805502
209,0.25,0.001,0.013671853631734848,0.011006737276911736,14.93531234741211,0.010660465629844474,0.010279381880536675
210,0.25,0.001,0.01375707557797432,0.011129128396511078,14.727016632080078,0.010511789173504696,0.014217636082321405
211,0.25,0.001,0.013756633467972278,0.011089896291494369,14.944394577026367,0.01066694830622867,0.016578623151872307
212,0.25,0.001,0.013683526940643788,0.011056037798523903,14.724449256896973,0.010509956643038524,0.012832527863793075
213,0.25,0.001,0.013665097787976265,0.011019465684890747,14.826122596740722,0.010582528620086169,0.008857876528054476
214,0.25,0.001,0.013694341368973255,0.011041042178869247,14.869089042663575,0.010613197032593558,0.010331692057661712
215,0.25,0.001,0.013724024027585983,0.011044574521481991,15.015634941101075,0.01071779795938692,0.011463699513114989
216,0.25,0.001,0.013685230173170566,0.011031373061239719,14.872216781616212,0.010615429537199295,0.012055965489707887
217,0.25,0.001,0.013750671468675136,0.01108457276970148,14.94081723022461,0.010664394882387303,0.012684902758337557
218,0.25,0.001,0.013657753676176072,0.01097186291962862,15.051733207702636,0.010743564031193887,0.010216904629487544
219,0.25,0.001,0.013700987286865711,0.011091365702450276,14.624319374084473,0.010438486348382922,0.014886404678691179
220,0.25,0.001,0.013662025481462479,0.010990000799298287,14.974026191711426,0.010688098637909654,0.012986337416805327
221,0.25,0.001,0.013689757227897644,0.01101993776857853,14.961668838500977,0.010679278257316899,0.011045530205592513
222,0.25,0.001,0.013679178461432457,0.011060205765068531,14.676722915649414,0.010475890732083807,0.010932071250863373
223,0.25,0.001,0.0136503911241889,0.010985294498503209,14.93520026397705,0.010660385627392613,0.012173268245533109
224,0.25,0.001,0.013655306190252304,0.011000190444290637,14.879269088745117,0.010620463303886593,0.01446712960023433
225,0.25,0.001,0.0136896403580904,0.011073098167777061,14.663101638793945,0.010466168193286185,0.011708214762620628
226,0.25,0.001,0.013642059311270714,0.010966671578586102,14.99287313079834,0.010701551128335717,0.010452984599396586
227,0.25,0.001,0.013604770265519619,0.011018129408359528,14.495536209106445,0.010346564032195893,0.01031545305158943
228,0.25,0.001,0.013565117873251438,0.01089677945524454,14.953369567871095,0.010673354438166378,0.011374649649951607
229,0.25,0.001,0.013585743859410287,0.010982298985123635,14.589705505371093,0.010413779803976512,0.011970269028097391
230,0.25,0.001,0.013593706354498863,0.01097210219502449,14.691469047546386,0.010486416165272225,0.010955649835523218
231,0.25,0.001,0.013605334855616092,0.010941968247294426,14.925506813049317,0.010653466675980954,0.012905474402941763
232,0.25,0.001,0.013726169757544994,0.011079271852970123,14.83321597290039,0.01058759170085681,0.021163386176340282
233,0.25,0.001,0.013636963315308094,0.011023991234600544,14.643095924377441,0.01045188859698604,0.016500178375281394
234,0.25,0.001,0.013598484709858895,0.010939474575221538,14.901093811035157,0.010636041264122167,0.011683942400850356
235,0.25,0.001,0.013623279429972171,0.010971410684287548,14.861072608947755,0.010607475095608675,0.010547146492172033
236,0.25,0.001,0.013582700155675411,0.01087731934338808,15.160955101013183,0.010821523983592565,0.011830653413198888
237,0.25,0.001,0.013610705465078353,0.010984190553426743,14.718990676879883,0.010506060440313979,0.010832376370672137
238,0.25,0.001,0.013591368786990642,0.010945850774645806,14.825483558654785,0.01058207249011762,0.012827844824641943
239,0.25,0.001,0.01356196952611208,0.01095686762779951,14.598991889953613,0.010420408201251686,0.011870491725858301
240,0.25,0.001,0.013553870514035225,0.010874767221510411,15.013696136474609,0.010716414087419421,0.009670768864452839
241,0.25,0.001,0.013513879887759685,0.010851683653891086,14.918948013305664,0.010648785162959076,0.0117516660830006
242,0.25,0.001,0.013586130946874619,0.010899604298174381,15.055295379638672,0.010746106623582207,0.014346359763294458
243,0.25,0.001,0.013596081398427487,0.010996190324425698,14.569788925170899,0.01039956382952955,0.0157456073211506
244,0.25,0.001,0.013516191840171814,0.01087077984958887,14.824889129638672,0.010581648201026889,0.012512824265286326
245,0.25,0.001,0.01354305049777031,0.010899605229496956,14.813867607116698,0.01057378130415182,0.011443472118116915
246,0.25,0.001,0.013530338041484355,0.010865371972322464,14.934470314025878,0.010659864606727965,0.011471421108581126
247,0.25,0.001,0.013543736256659031,0.010956283651292325,14.500084129333496,0.010349810227932545,0.01298969576600939
248,0.25,0.001,0.013569983124732971,0.010871572352945804,15.121893524169922,0.010793642772426781,0.01695921050850302
249,0.25,0.001,0.013573335692286491,0.010940240003168582,14.75586905670166,0.010532383338116817,0.013435400440357625
250,0.25,0.001,0.013560191184282302,0.010890164405107499,14.962830139160156,0.010680107165710318,0.012094173580408096
251,0.25,0.001,0.013491575755178929,0.010864238053560257,14.723600379943848,0.01050935073514907,0.014321976224891841
252,0.25,0.001,0.013565351456403732,0.01092035285383463,14.822573051452636,0.01057999504029453,0.012901027221232653
253,0.25,0.001,0.013547227092087269,0.010901379361748696,14.827330223083496,0.010583390594634902,0.01454760180786252
254,0.25,0.001,0.013504928342998029,0.010909758374094964,14.54333184814453,0.010380679406241634,0.01629809639416635
255,0.25,0.001,0.013608015581965446,0.01089434953033924,15.207383193969726,0.010854663236238205,0.015070287743583322
256,0.25,0.001,0.013600622326135636,0.010953480824828148,14.834581077575683,0.010588566079640031,0.01631522737443447
257,0.25,0.001,0.013481823176145553,0.01085352386534214,14.72898942565918,0.01051319730596658,0.015183594892732799
258,0.25,0.001,0.013521727010607719,0.01088373712450266,14.78329483795166,0.010551959199108965,0.01721544994506985
259,0.25,0.001,0.013581521525979042,0.01096518848091364,14.66193084716797,0.010465332510469643,0.01841221225913614
260,0.25,0.001,0.013527292400598526,0.010809423118829728,15.23093886566162,0.010871476706396589,0.014920878456905484
261,0.25,0.001,0.013495056629180909,0.010902524374425411,14.52855184173584,0.010370129794243997,0.015381100180093199
262,0.25,0.001,0.01347795994579792,0.010815578423440456,14.919985404968262,0.010649525628100115,0.009466218471061438
263,0.25,0.001,0.013456458747386933,0.010789292268455028,14.946800979614258,0.010668665938339941,0.01035798597149551
264,0.25,0.001,0.013524879336357116,0.010926210798323155,14.562938980102539,0.010394674503998957,0.014817016082815826
265,0.25,0.001,0.013422715738415717,0.010752787247300149,14.962279571533204,0.010679714183820988,0.013078661053441465
266,0.25,0.001,0.013426879823207855,0.01087502310425043,14.300605041503907,0.010207426867597364,0.013657910749316216
267,0.25,0.001,0.013499903373420238,0.010849312826991081,14.853909774780274,0.010602362437387776,0.01678073639050126
268,0.25,0.001,0.013415623560547828,0.010821180872619152,14.5392572555542,0.010377771060352748,0.014429567847400904
269,0.25,0.001,0.013456650465726852,0.01079554245620966,14.912848831176758,0.01064443171390204,0.010063868365250528
270,0.25,0.001,0.013433810219168663,0.010782721281051635,14.856701759338378,0.01060435528860698,0.012057879474014044
271,0.25,0.001,0.013440525211393833,0.010831513546407222,14.620900413513183,0.010436045976811694,0.009892520727589726
272,0.25,0.001,0.013408394634723663,0.010732775017619134,14.994171401977539,0.010702477802981827,0.009333259193226695
273,0.25,0.001,0.013415564984083176,0.01080237177759409,14.6443345413208,0.010452772691877802,0.00890053017064929
274,0.25,0.001,0.013366173863410949,0.010719809547066689,14.830225906372071,0.010585457463506118,0.01051983016077429
275,0.25,0.001,0.013449726060032845,0.010793255977332591,14.886858917236328,0.010625880740354266,0.014047051081433892
276,0.25,0.001,0.013372627303004266,0.010720008306205273,14.86527725982666,0.01061047627396621,0.011045847903005779
277,0.25,0.001,0.013492418825626374,0.010845126837491989,14.835424461364745,0.010589168066641503,0.012644289643503726
278,0.25,0.001,0.013436894096434117,0.010727858051657676,15.181438308715821,0.010836144403080528,0.010237561189569533
279,0.25,0.001,0.013371763080358505,0.010761863134801387,14.625878746032715,0.010439599390458755,0.010871300415601581
280,0.25,0.001,0.013451862409710883,0.010821771241724492,14.739031776428222,0.010520365293667538,0.011905390536412597
281,0.25,0.001,0.013484910778701306,0.010812847837805749,14.97424016571045,0.0106882513673879,0.012335836188867688
282,0.25,0.001,0.013380057647824288,0.010820362687110901,14.344530158996582,0.010238779556742742,0.011408621678128839
283,0.25,0.001,0.013430861443281174,0.010765817776322364,14.934904747009277,0.010660174694510548,0.01399747107643634
284,0.25,0.001,0.013485603593289852,0.010845264375209808,14.796462677001953,0.010561358084940723,0.01115490635856986
285,0.25,0.001,0.013450601391494274,0.010736629143357277,15.209100868225098,0.010855889270681726,0.012916230945847929
286,0.25,0.001,0.013374044492840766,0.0107644170448184,14.624352447509766,0.010438509955395978,0.011277093668468297
287,0.25,0.001,0.013423756219446659,0.010758353613317014,14.936917098999023,0.01066161106281158,0.01118383277207613
288,0.25,0.001,0.013387084290385246,0.010694049082696437,15.091769248962402,0.010772140791550608,0.010393279138952494
289,0.25,0.001,0.01334253480285406,0.010738235615193844,14.594492828369141,0.010417196879635361,0.01015536388149485
290,0.25,0.001,0.013427505925297737,0.01076054836064577,14.945630874633789,0.010667830745634396,0.0104192677536048
291,0.25,0.001,0.013334973186254501,0.01075795765966177,14.441594787597657,0.010308061946893403,0.01028013473842293
292,0.25,0.001,0.013336931511759758,0.010687486842274666,14.847488739013672,0.010597779256969073,0.008725932973902673
293,0.25,0.001,0.013417803607881069,0.010718759387731551,15.125444190979003,0.01079617715273305,0.012150386581197381
294,0.25,0.001,0.013363325513899326,0.010736798748373985,14.719055374145508,0.01050610661966132,0.014116871112491935
295,0.25,0.001,0.013454739235341549,0.01082194036245346,14.754204742431641,0.010531195390743498,0.016043819719925523
296,0.25,0.001,0.01333626415580511,0.010608442544937135,15.2867124710083,0.010911286560319986,0.011131397215649486
297,0.25,0.001,0.013382146142423152,0.01073775327205658,14.819177917480468,0.010577571675574923,0.009896132163703442
298,0.25,0.001,0.013405847042798995,0.010710678867995739,15.103723434448241,0.01078067340074821,0.01249750261195004
299,0.25,0.001,0.01338012470304966,0.010709827236831188,14.964346626281738,0.010681189597631506,0.01464999548625201
300,0.25,0.001,0.013331642806529998,0.010722146131098271,14.623619834899902,0.010437987034189794,0.012809514708351344
301,0.25,0.001,0.013297933414578437,0.010619896039366722,15.007722442626953,0.010712150208870059,0.008965500339400023
302,0.25,0.001,0.013327302381396294,0.010714744187891484,14.640776657104492,0.01045023315996038,0.01022976980311796
303,0.25,0.001,0.013374078854918479,0.010740657068789005,14.757696022033691,0.010533687381894141,0.014429429720621556
304,0.25,0.001,0.01332807520776987,0.010637364909052848,15.078740516662597,0.01076284119676131,0.013576703146100044
305,0.25,0.001,0.01336211758106947,0.01074137869477272,14.68662142944336,0.010482956052422098,0.016018727561458945
306,0.25,0.001,0.013397641345858574,0.010716078259050845,15.027479263305665,0.010726252150824886,0.01504377939272672
307,0.25,0.001,0.013301539495587348,0.010683015279471875,14.674209442138672,0.010474096675330958,0.012518268311396241
308,0.25,0.001,0.013360200963914394,0.010712944589555264,14.835224403381348,0.010589025270079478,0.009807936265133321
309,0.25,0.001,0.013349408447742463,0.01069149000197649,14.894974655151367,0.010631673558280775,0.010542862699367106
310,0.25,0.001,0.013266153603792191,0.010628228329122066,14.782933776855469,0.010551701482409328,0.01397490850649774
311,0.25,0.001,0.013402621507644654,0.010715650826692581,15.057783859252929,0.010747882840294739,0.008163773745764047
312,0.25,0.001,0.013296983420848847,0.010635188922286034,14.916697463989259,0.010647178775152933,0.009204557398334146
313,0.25,0.001,0.013284496396780015,0.01064664689451456,14.7825092086792,0.010551398435888079,0.01036788895726204
314,0.25,0.001,0.013331390164792538,0.010643495202064514,15.062962959289552,0.010751579556951857,0.012536275084130466
315,0.25,0.001,0.013299425072968007,0.010672252386808396,14.722676231384277,0.01050869110020291,0.012672954355366528
316,0.25,0.001,0.013299338310956955,0.010666359283030034,14.755213935852051,0.010531915728659566,0.011400404153391719
317,0.25,0.001,0.013373543962836265,0.010683341033756732,15.0758970413208,0.010760811592662956,0.013279196689836681
318,0.25,0.001,0.013448277242481708,0.010738628156483174,15.184874588012695,0.010838597136340253,0.018075260159093887
319,0.25,0.001,0.013289617747068405,0.01064761633425951,14.805775527954102,0.010568005373272021,0.013375871232710779
320,0.25,0.001,0.013292520336806774,0.010606647484004498,15.051631874084473,0.010743491701701979,0.012982523068785667
321,0.25,0.001,0.013263376481831074,0.010661152064800263,14.582866546630859,0.010408898320221883,0.011098844173830003
322,0.25,0.001,0.013293108753859997,0.010656984753906727,14.772839904785156,0.010544496720046507,0.01156220305711031
323,0.25,0.001,0.013233604907989503,0.010565405078232289,14.952591354370117,0.010672798968144267,0.009394784225150943
324,0.25,0.001,0.013274655401706695,0.010695589251816273,14.453086265563964,0.01031626428662667,0.011625821236521006
325,0.25,0.001,0.013295436047017575,0.01058949574828148,15.164089508056641,0.010823761247720658,0.014032887993380427
326,0.25,0.001,0.013316669166088105,0.01059275321662426,15.264825820922852,0.010895664397518096,0.010372792545240372
327,0.25,0.001,0.013257365673780441,0.01066451895982027,14.530314041137695,0.01037138760966288,0.009766041883267462
328,0.25,0.001,0.01330826386809349,0.010621000170707703,15.05942635345459,0.010749055213029686,0.0114255181979388
329,0.25,0.001,0.013268464744091034,0.010626531653106213,14.805392173767089,0.01056773174430199,0.009870875161141157
330,0.25,0.001,0.013330319628119468,0.010656155161559582,14.986018516540527,0.01069665847005034,0.012184549239464104
331,0.25,0.001,0.01327956435829401,0.01063508228212595,14.819677993774414,0.01057792861796889,0.010875691892579198
332,0.25,0.001,0.013315963573753834,0.010623559571802617,15.088232215881348,0.010769616142670484,0.01408409420400858
333,0.25,0.001,0.01327163228392601,0.01061192674189806,14.904989891052246,0.010638822192043002,0.011113352724350989
334,0.25,0.001,0.013279216915369034,0.010645071931183338,14.76174917602539,0.010536580425428543,0.011783677851781249
335,0.25,0.001,0.013368568658828735,0.010618400223553181,15.411943572998046,0.011000673499641718,0.015616755816154182
336,0.25,0.001,0.013292788982391357,0.010590266719460487,15.144934272766113,0.010810088702902293,0.01607315056025982
337,0.25,0.001,0.013270770333707332,0.0106491951495409,14.691308311462402,0.010486301435733335,0.011147968762088567
338,0.25,0.001,0.01321114644408226,0.010544604994356633,14.943298477172851,0.010666165936597324,0.010787398321554065
339,0.25,0.001,0.013265757173299789,0.010624837525188923,14.799715309143066,0.010563679735291268,0.012327335134614259
340,0.25,0.001,0.013246948286890983,0.010542611554265023,15.155103523254395,0.01081734726856131,0.012973450124263763
341,0.25,0.001,0.013244379103183747,0.010643728137016296,14.57404962158203,0.010402605011835854,0.01091510709375143
342,0.25,0.001,0.01328326826542616,0.01057677448540926,15.167191604614258,0.010825975449403467,0.01262499368749559
343,0.25,0.001,0.013224774494767189,0.010609258204698562,14.657354522705079,0.010462066040474718,0.010082863445859402
344,0.25,0.001,0.013282037571072578,0.010564656123518944,15.22820571899414,0.01086952585224421,0.012688348768278956
345,0.25,0.001,0.013315717309713364,0.010634722784161568,15.024294578552245,0.010723978999680403,0.011245342553593218
346,0.25,0.001,0.013298072770237923,0.01058866149932146,15.183540672302247,0.010837645019487686,0.009761452209204435
347,0.25,0.001,0.013257439330220222,0.01057872424274683,15.011519554138184,0.01071486049545909,0.010799698415212333
348,0.25,0.001,0.013201028667390346,0.01055290650576353,14.840077033996582,0.010592488960739888,0.009355122107081115
349,0.25,0.001,0.013261954978108406,0.010601820863783359,14.907391670227051,0.010640536524073556,0.010704003158025444
350,0.25,0.001,0.013212503023445607,0.010525747135281562,15.056580833435058,0.010747024149489692,0.009853851748630404
351,0.25,0.001,0.01321618127077818,0.010516327202320099,15.129982231140136,0.010799416296317014,0.010218603420071304
352,0.25,0.001,0.013165493160486222,0.010515238754451275,14.852025299072265,0.010601017344091553,0.010166543535888195
353,0.25,0.001,0.013197673186659813,0.010539192467927934,14.898125549316406,0.01063392259051849,0.01190176047384739
354,0.25,0.001,0.013323297180235385,0.010619195893406867,15.153783103942871,0.010816404785112685,0.017142418189905584
355,0.25,0.001,0.013285032153129577,0.010642689511179923,14.807688690185547,0.010569370942316593,0.011100365896709263
356,0.25,0.001,0.013260722160339355,0.010569269873201847,15.082899024963378,0.0107658094396598,0.01432072336319834
357,0.25,0.001,0.013287839576601982,0.010567543148994446,15.244540214538574,0.010881185021083921,0.013196115498431027
358,0.25,0.001,0.013208486400544643,0.010566649995744228,14.804851882934571,0.010567346097740593,0.011856828932650387
359,0.25,0.001,0.013230126067996026,0.01059950278699398,14.74201245880127,0.010522492832834596,0.012804623926058412
360,0.25,0.001,0.013219891138374806,0.010542846627533436,15.002156967163087,0.010708177706754522,0.012925913208164275
361,0.25,0.001,0.013189166754484177,0.010565739572048188,14.701685829162598,0.01049370865750364,0.014273326843976974
362,0.25,0.001,0.01318013571202755,0.010509610757231712,14.965621871948242,0.010682099837222157,0.013002595980651677
363,0.25,0.001,0.013150483384728432,0.010503446459770202,14.833994590759277,0.01058814745949984,0.01247214199975133
364,0.25,0.001,0.013204848282039166,0.01054649243503809,14.897427215576172,0.01063342413674245,0.012362468289211392
365,0.25,0.001,0.013231851130723954,0.010543180324137211,15.067311508178712,0.010754683446237482,0.01263952924637124
366,0.25,0.001,0.013183174267411233,0.010455953650176526,15.283345138549805,0.01090888303965011,0.011911300825886428
367,0.25,0.001,0.013236757718026638,0.010543728351593017,15.091736595153808,0.010772117484049827,0.014365432783961296
368,0.25,0.001,0.013206819646060467,0.01056745984405279,14.790973434448242,0.01055743999603729,0.011818839120678604
369,0.25,0.001,0.013169368475675583,0.010460718043148517,15.179277000427247,0.010834601713367057,0.009759618085809052
370,0.25,0.001,0.013140139885246753,0.010504941210150718,14.767652992248536,0.010540794427015372,0.009106893965508789
371,0.25,0.001,0.013173740051686764,0.0104988252222538,14.99022127532959,0.010699658297879793,0.00990064546931535
372,0.25,0.001,0.013185553371906281,0.010472811192274094,15.20220735168457,0.010850968844885489,0.011172957252711058
373,0.25,0.001,0.013184026181697846,0.010564580336213112,14.679374649047851,0.010477783475408887,0.011865239590406418
374,0.25,0.001,0.013162594646215438,0.010448010608553887,15.21252862548828,0.010858335921119401,0.011681739240884781
375,0.25,0.001,0.013224663183093071,0.01054621621221304,15.010017250061034,0.010713788187052844,0.012071020202711225
376,0.25,0.001,0.01317055630683899,0.010513918161392213,14.887799934387207,0.010626552415693939,0.009775823564268649
377,0.25,0.001,0.013101336978375911,0.010360611520707608,15.359025909423828,0.010962902148054125,0.011766811250708997
378,0.25,0.001,0.013200949750840664,0.010566292323172093,14.76462013244629,0.010538629644858166,0.011441814014688134
379,0.25,0.001,0.013137486375868321,0.010454907730221749,15.033171287536621,0.010730314980397303,0.01208494883030653
380,0.25,0.001,0.013168550357222556,0.010520635560154914,14.838914573669433,0.01059165922460345,0.01242681813891977
381,0.25,0.001,0.013213552489876747,0.010524478890001774,15.069568885803223,0.010756294707925213,0.012006724253296852
382,0.25,0.001,0.013215424098074436,0.010514198824763298,15.137666275024413,0.010804900981459253,0.013343303231522441
383,0.25,0.001,0.013159835726022721,0.010445647642016411,15.210310585021972,0.01085675273734616,0.011976978508755565
384,0.25,0.001,0.01313668467104435,0.010478113412857055,14.898632537841797,0.0106342844666965,0.012672741431742907
385,0.25,0.001,0.01319161406904459,0.010488663032650948,15.14733804321289,0.01081180445625474,0.011075902380980551
386,0.25,0.001,0.013144137494266033,0.010440839283168316,15.149283584594727,0.010813193136755694,0.010725766303949058
387,0.25,0.001,0.013140928916633128,0.010498971916735171,14.80552653503418,0.01056782764813289,0.010711569455452263
388,0.25,0.001,0.013131089337170124,0.010436307422816753,15.101558319091797,0.01077912799364154,0.010185597464442253
389,0.25,0.001,0.013117914929986,0.01049541909992695,14.696467140197754,0.010489983683224664,0.014785108040086925
390,0.25,0.001,0.013179670587182045,0.010457602880895138,15.254467658996582,0.010888270991432249,0.014781823265366256
391,0.25,0.001,0.013158949561417103,0.010457930088043212,15.136513626098633,0.010804078248464407,0.010525947029236704
392,0.25,0.001,0.013123614847660064,0.010512717612087727,14.631469024658204,0.010443589596472664,0.012496316921897233
393,0.25,0.001,0.013119558736681938,0.010407088249921799,15.200685012817383,0.010849882236129467,0.011897809221409261
394,0.25,0.001,0.013155974350869655,0.010514213398098946,14.804429092407226,0.010567044320062259,0.012356557766906917
395,0.25,0.001,0.013150138266384602,0.010456733852624894,15.093838760375977,0.010773617958869363,0.010945009300485253
396,0.25,0.001,0.013136218458414077,0.010459553427994251,15.000030548095703,0.010706659920125412,0.009235845995135605
397,0.25,0.001,0.013053481251001357,0.01041130033135414,14.806781562805176,0.010568723456677498,0.013968644780106843
398,0.25,0.001,0.01305270454287529,0.010402738235890866,14.850411552429199,0.010599865490670378,0.012499558797571808
399,0.25,0.001,0.013080700851976872,0.010413217529654503,14.948576698303222,0.010669933403499803,0.010429203335661441
400,0.25,0.001,0.01312794491648674,0.01047185742855072,14.884714904785156,0.01062435039599226,0.013267302769236267
401,0.25,0.001,0.01310024157166481,0.010355704687535763,15.380385047912597,0.010978147785804852,0.013076612376607955
402,0.25,0.001,0.013164563775062562,0.010514798112213612,14.849286911010742,0.01059906274875856,0.015227547148242593
403,0.25,0.001,0.01309278453141451,0.010372528068721295,15.244317771911621,0.01088102624690337,0.011350498767569661
404,0.25,0.001,0.013128753058612346,0.010420079164206982,15.179408660888672,0.010834695689428032,0.014278895570896566
405,0.25,0.001,0.013103757910430431,0.010407641164958476,15.109038734436036,0.010784467333644566,0.014333443017676473
406,0.25,0.001,0.01314403535425663,0.010481815852224827,14.919077186584472,0.010648877363729102,0.013124598772265017
407,0.25,0.001,0.013109144985675811,0.010397618725895882,15.195393463134765,0.010846105255627955,0.012365216854959726
408,0.25,0.001,0.013124194011092187,0.010470129370689392,14.873377769470215,0.010616258222319925,0.011900288984179497
409,0.25,0.001,0.013152643769979476,0.010480142615735532,14.976697105407714,0.010690005071668604,0.01247520127799362
410,0.25,0.001,0.013088046848773956,0.010368556164205074,15.240026420593262,0.010877963183863856,0.011333538684993982
411,0.25,0.001,0.013087142549455167,0.010397605881094932,15.072164657592774,0.01075814750720398,0.010539741371758282
412,0.25,0.001,0.013030170947313308,0.010376681543886662,14.870155380249024,0.010613958158635991,0.0098687406280078
413,0.25,0.001,0.013095884963870048,0.010393713369965554,15.142969055175781,0.010808685977998417,0.011667678831145167
414,0.25,0.001,0.013050570160150527,0.010383692115545273,14.945183456420898,0.010667511389308278,0.013992905500344932
415,0.25,0.001,0.013072998002171517,0.010428845375776291,14.817831748962403,0.010576610812963886,0.015276681748218834
416,0.25,0.001,0.0131492006406188,0.010436126686632633,15.204067459106446,0.01085229654468697,0.016597147681750357
417,0.25,0.001,0.013141685783863068,0.010475190289318561,14.943040916442872,0.010665982095962078,0.013408974511548877
418,0.25,0.001,0.013164996080100536,0.01042005255818367,15.382663597106934,0.010979774159248347,0.012090311269275844
419,0.25,0.001,0.013156419903039932,0.01041214819252491,15.378899085998535,0.010977087142040353,0.014802492689341307
420,0.25,0.001,0.013033017784357072,0.010379768922924996,14.86880665588379,0.010612995471722904,0.013151702238246799
421,0.25,0.001,0.013097413331270218,0.010377355970442296,15.243201347351075,0.010880229369986491,0.011773258331231773
422,0.25,0.001,0.013065452255308628,0.010411832824349404,14.870883010864258,0.010614477523814602,0.01172570837661624
423,0.25,0.001,0.013056754052639008,0.010381079360842704,14.994480743408204,0.01070269860343198,0.012213013600558043
424,0.25,0.001,0.013047395259141921,0.010322917878627777,15.267971450805664,0.010897909672238162,0.011771457735449076
425,0.25,0.001,0.01307503666728735,0.01035678855329752,15.23306256866455,0.010872992554364419,0.01215435448102653
426,0.25,0.001,0.013085740461945534,0.010384547889232636,15.137482711791993,0.010804769958452528,0.014279920025728643
427,0.25,0.001,0.013058058902621269,0.010347270905971527,15.191255928039551,0.01084315198289761,0.012946877628564835
428,0.25,0.001,0.013103888541460038,0.01038467936962843,15.238448959350587,0.010876837230086072,0.01566091214772314
429,0.25,0.001,0.013023581802845002,0.010325112588703632,15.122221229553222,0.010793876680623284,0.013373211142607033
430,0.25,0.001,0.013011219277977944,0.010383599631488324,14.725180854797363,0.010510478839969566,0.0139443667139858
431,0.25,0.001,0.013011657401919365,0.010291133314371108,15.245816497802734,0.010882096001286748,0.013665678794495761
432,0.25,0.001,0.013126258537173271,0.010391693860292435,15.324499969482423,0.010938258365083813,0.012009064317680895
433,0.25,0.001,0.013052480980753898,0.010369501270353795,15.035419136047363,0.01073191944043352,0.011029906338080764
434,0.25,0.001,0.013024341620504856,0.010297806471586228,15.27950323486328,0.010906140781486995,0.010850780876353383
435,0.25,0.001,0.013082845821976661,0.010348039664328098,15.325854148864746,0.010939224945656493,0.011552935699000955
436,0.25,0.001,0.013180200651288032,0.010439840354025363,15.356980293273926,0.010961442036598091,0.01258950715418905
437,0.25,0.001,0.01304203800857067,0.010279317058622837,15.48228923034668,0.011050884532724254,0.011427972465753555
438,0.25,0.001,0.013046704880893231,0.010344603598117829,15.142576599121094,0.010808405852334828,0.010306212061550468
439,0.25,0.001,0.013037894494831562,0.010318669758737088,15.238536430358886,0.010876899664781503,0.0120954227168113
440,0.25,0.001,0.013039615020155907,0.01035593631863594,15.03933659362793,0.01073471562714342,0.016717822873033583
441,0.25,0.001,0.013019792377948761,0.010376538760960102,14.81279419708252,0.010573015129966109,0.018276458722539246
442,0.25,0.001,0.01299423922598362,0.010294951677322388,15.126807525634765,0.010797150268119032,0.012001496274024248
443,0.25,0.001,0.01297013223171234,0.010264460898935795,15.162582420349121,0.010822685524874462,0.010171781934332103
444,0.25,0.001,0.013005304381251335,0.01031978663802147,15.049641693115234,0.010742071158540496,0.011948832077905536
445,0.25,0.001,0.013057241395115852,0.01037868719547987,15.01061769104004,0.010714216767337643,0.012333044316619635
446,0.25,0.001,0.013059424631297589,0.01031539149582386,15.377561508178712,0.010976132411262463,0.0112977537792176
447,0.25,0.001,0.013034863911569118,0.010275054007768632,15.465974304199218,0.011039239332047979,0.01160845800768584
448,0.25,0.001,0.013138964474201202,0.010412994265556336,15.276337242126464,0.010903880972253008,0.013178074383176863
449,0.25,0.001,0.013021746441721917,0.010257449492812157,15.491119529724122,0.011057187387383385,0.012924760696478188
450,0.25,0.001,0.013036370009183883,0.010348730966448784,15.06153066253662,0.01075055721808467,0.012105076457373798
451,0.25,0.001,0.01293378821760416,0.010234218157827855,15.128390319824218,0.010798280028425566,0.009260573249775916
452,0.25,0.001,0.01299469918012619,0.010330873608589173,14.92807852935791,0.010655302305037766,0.010337413870729506
453,0.25,0.001,0.012972383707761765,0.010239333853125572,15.316011787414551,0.01093219970550646,0.00962786958552897
454,0.25,0.001,0.013023447573184967,0.010286981023848056,15.335158981323243,0.010945866510580474,0.011157502187415957
455,0.25,0.001,0.012967718221247196,0.010260736584663392,15.169925971984863,0.010827927174864286,0.01222785422578454
456,0.25,0.001,0.012998746708035469,0.010263172261416912,15.330158744812012,0.010942297462392586,0.010806480306200683
457,0.25,0.001,0.01301667334139347,0.010305804446339608,15.19170839691162,0.010843474944262398,0.010073673212900758
458,0.25,0.001,0.012973604157567025,0.010262711502611637,15.19184236907959,0.010843570570363732,0.0115037722280249
459,0.25,0.001,0.012980173923075199,0.01031617110967636,14.929071144104004,0.010656010809496077,0.013612014474347234
460,0.25,0.001,0.012985020697116852,0.010336990043520927,14.839564727783204,0.010592123288924485,0.01210779242683202
461,0.25,0.001,0.012981527134776115,0.010255654573440551,15.27578995513916,0.010903490332005111,0.01192263257689774
462,0.25,0.001,0.012991839431226254,0.010272242829203606,15.240619483947754,0.010878386498178268,0.012328338576480746
463,0.25,0.001,0.012967265799641609,0.010227019503712654,15.35633925628662,0.01096098447986197,0.0097378563368693
464,0.25,0.001,0.013038613095879555,0.010300487130880356,15.344457946777343,0.010952503887778261,0.011212808778509498
465,0.25,0.001,0.012943101808428765,0.010211367256939411,15.308639808654785,0.01092693776492133,0.015685356047470123
466,0.25,0.001,0.012885413728654385,0.010225423753261567,14.906584411621093,0.010639960322356241,0.012213300913572311
467,0.25,0.001,0.01295422998815775,0.010280588060617447,14.983089797973633,0.010694568021394457,0.010491319466382265
468,0.25,0.001,0.013011990197002887,0.010292360499501229,15.24080558013916,0.010878519329150007,0.010802415083162487
469,0.25,0.001,0.012933587811887264,0.010249232560396195,15.043127265930176,0.010737421317580426,0.01143929804675281
470,0.25,0.001,0.01297808025032282,0.01025849011540413,15.24058334350586,0.010878360702002755,0.011190445744432509
471,0.25,0.001,0.012982625320553779,0.010247012294828892,15.330376373291015,0.010942452800350475,0.010920180939137936
472,0.25,0.001,0.013004312157630921,0.010282497547566891,15.253049858093261,0.010887258999352792,0.010655857506208122
473,0.25,0.001,0.012914747729897499,0.010209208935499191,15.161839645385742,0.010822155350025512,0.011815654230304062
474,0.25,0.001,0.012993010491132736,0.010264442883431911,15.290892860412598,0.010914270421422269,0.012030202778987586
475,0.25,0.001,0.012980680376291276,0.010292550668120385,15.064279457092285,0.010752519241322117,0.009967732010409236
476,0.25,0.001,0.013012902475893498,0.010277215048670768,15.330792663574218,0.010942749938311363,0.012486061081290245
477,0.25,0.001,0.01308545596897602,0.010356378182768822,15.293752098083496,0.010916311276290861,0.014879814931191504
478,0.25,0.001,0.01299437616765499,0.01018037001043558,15.769690956115722,0.011256024950832064,0.013423859840258956
479,0.25,0.001,0.013010695144534111,0.010251630775630474,15.46179655456543,0.0110362573551502,0.01204077631700784
480,0.25,0.001,0.012944565773010255,0.010263763934373855,15.023214019775391,0.01072320772289464,0.011395851033739746
481,0.25,0.001,0.012933708131313323,0.010213151350617409,15.245999534606934,0.010882226648541708,0.010206298436969519
482,0.25,0.001,0.012987412557005883,0.010282665833830834,15.157399719238281,0.010818986237857445,0.011512798955664039
483,0.25,0.001,0.012943805493414402,0.01018740525841713,15.446867401123047,0.011025601285598178,0.01062161533627659
484,0.25,0.001,0.012972401417791844,0.01021491827070713,15.452936210632323,0.01102993305541208,0.011269666603766382
485,0.25,0.001,0.012923778511583805,0.010211023598909378,15.202279220581055,0.010851020143169918,0.012265651137568057
486,0.25,0.001,0.012954779803752899,0.01025823623687029,15.11143083190918,0.01078617475511005,0.011879047728143632
487,0.25,0.001,0.012959092155098915,0.010264472782611847,15.100647483825684,0.010778477861403058,0.01279993075877428
488,0.25,0.001,0.01288950614631176,0.010173726290464402,15.219230377197265,0.010863119469805328,0.011234946723561734
489,0.25,0.001,0.012877926729619503,0.010167379751801492,15.189905120849609,0.010842187809314495,0.011964318109676242
490,0.25,0.001,0.012971989087760448,0.010229782953858376,15.367323928833008,0.010968825074113496,0.01196475641336292
491,0.25,0.001,0.013006625480949878,0.010293931029736995,15.201939361572265,0.010850777560008754,0.012616632622666657
492,0.25,0.001,0.0129059147387743,0.010197654142975807,15.177092918395996,0.010833042768305493,0.010866631637327373
493,0.25,0.001,0.012875578552484512,0.010156534299254418,15.237523902893066,0.01087617694710426,0.010706968256272376
494,0.25,0.001,0.012838210046291352,0.010149280428886414,15.068762168884277,0.010755718892851018,0.011129841615911573
495,0.25,0.001,0.01286344140768051,0.01017702343314886,15.05468714904785,0.010745672483260423,0.012426585773937404
496,0.25,0.001,0.01289423382282257,0.010157805651426315,15.334944961547851,0.010945713748428159,0.012348134652711451
497,0.25,0.001,0.012899901129305363,0.010203439772129059,15.110968948364258,0.010785845073778914,0.011169462348334491
498,0.25,0.001,0.012918759286403656,0.010188558660447598,15.300045257568359,0.010920803181704753,0.011375391273759305
499,0.25,0.001,0.012926902994513512,0.010195456974208355,15.307024581909179,0.010925784855038671,0.01433012681081891
500,0.25,0.001,0.0130165910795331,0.010250480070710182,15.501286163330079,0.011064444085174931,0.014990045223385096
