epoch,beta,learning_rate,train_loss,train_reconstruction_loss,train_kl_unnormalized,train_kl_normalized,mean_unclipped_gradient_norm
1,0.0,0.001,0.08171042758712849,0.08171042758712849,244.4828207076826,0.17450593912040158,0.10168181070023113
2,0.02,0.001,0.0611158836122749,0.051707920546715073,659.0277789547117,0.47039812916110757,0.08375407672590679
3,0.04,0.001,0.04448402343810611,0.040957222058390585,123.52623787427261,0.08817004844701828,0.10121471848752764
4,0.06,0.001,0.03814528660244163,0.03432133818992307,89.28919808278611,0.06373247543382307,0.05609357232848803
5,0.08,0.001,0.03654972736428424,0.033215694279736696,58.38725486884198,0.04167541389638971,0.048769025339020625
6,0.1,0.001,0.03404312889051482,0.03137000508284927,37.45047035718277,0.02673124222496986,0.04171328018936846
7,0.12,0.001,0.0314431727233065,0.028921028277635798,29.44604106423555,0.02101787370752002,0.02853038079208798
8,0.14,0.001,0.0283623681129367,0.0253915788735111,29.72911324420521,0.02121992380028923,0.04544343757960531
9,0.16,0.001,0.02640423989430154,0.02302208352365704,29.615010413622542,0.021138479952621372,0.030834840714103647
10,0.18,0.001,0.02536290016297887,0.021654211515892738,28.8659589635051,0.0206038250988616,0.06948262028810051
11,0.2,0.001,0.024722109498075205,0.021149384259730297,25.02693803583256,0.017863624579466497,0.09631214145984915
12,0.22,0.001,0.023947154131576446,0.020361960447947258,22.83116542823319,0.016296335066547603,0.06850576545629236
13,0.24,0.001,0.023350715745540988,0.019234568757786088,24.028010252045423,0.017150614027155904,0.05670706130978134
14,0.25,0.001,0.02250862527310177,0.01872022925940732,21.23017157220035,0.015153584277088045,0.04367057130568557
15,0.25,0.001,0.021977598801618668,0.018150537930023605,21.446847253624092,0.015308242151052172,0.06672103123532401
16,0.25,0.001,0.021546071304417238,0.017784880876093822,21.077713381282383,0.015044763298559874,0.0641164924018085
17,0.25,0.001,0.021432969995248383,0.01778806266890346,20.42606079645497,0.014579629405035667,0.1045541370080577
18,0.25,0.001,0.021197189089421035,0.017647768907234997,19.890952609493407,0.014197682091001718,0.0855609259257714
19,0.25,0.001,0.02049370871168364,0.016749902385484433,20.98028872205437,0.01497522392723367,0.0379421923102604
20,0.25,0.001,0.020168243874192908,0.016640275601458372,19.77073378858155,0.01411187279698897,0.0221452707838681
21,0.25,0.001,0.020117090130836388,0.016665333584929498,19.343643088278135,0.013807025758942281,0.060060356847114034
22,0.25,0.001,0.01994894463813551,0.016403348948701685,19.869516719796643,0.014182381670090394,0.05078493757173419
23,0.25,0.001,0.019750614393691183,0.016246446399594786,19.637357092708854,0.014016671729271131,0.025776791282826
24,0.25,0.001,0.01943009846457621,0.01603971424164848,18.999715207441664,0.013561538335076135,0.03162297264983257
25,0.25,0.001,0.01942499916070957,0.016036853148806388,18.987170026181563,0.013552583887353007,0.032446714118123055
26,0.0,0.001,0.015210414654793704,0.015210414654793704,26.037000681177535,0.01858458292732158,0.053992909689744316
27,0.02,0.001,0.014665295958770596,0.013872672838646408,55.52325237624864,0.03963115801302544,0.05017023719847202
28,0.04,0.001,0.015337597243278156,0.013289783371867538,71.72468658504522,0.05119535088154548,0.04382149885512061
29,0.06,0.001,0.015622399719414523,0.01315094195620819,57.708538799751096,0.0411909627407217,0.02855525662501653
30,0.08,0.001,0.015679190061133753,0.013574424278389445,36.85971399275044,0.026309574584404312,0.02829713508900669
31,0.1,0.001,0.01608257067143414,0.013901355805654799,30.558817314162262,0.02181214654829569,0.02754624876090222
32,0.12,0.001,0.016507746019238156,0.01377499533387331,31.904866141628816,0.022772923727072673,0.04075048853539758
33,0.14,0.001,0.01678875984019455,0.013931868389933799,28.58932260724438,0.020406368741787567,0.03530100024201804
34,0.16,0.001,0.017015236683231804,0.01398970837762499,26.492283601027268,0.01890955289152553,0.034918574823273554
35,0.18,0.001,0.017330746818159132,0.014038170925490069,25.627215236928627,0.018292087963546488,0.04401480106429921
36,0.2,0.001,0.017855001714842403,0.014576905733760704,22.963063796510394,0.016390480939693357,0.06376514583826065
37,0.22,0.001,0.017672651837008533,0.014218314671382223,21.99784629206273,0.01570153197149374,0.03631502100163036
38,0.24,0.001,0.01780014510631673,0.014311773052498502,20.363373117643718,0.014534884452279599,0.04819905188762479
39,0.25,0.001,0.01795440936010282,0.014444731651171064,19.668232848004596,0.014038710098504352,0.049210751015279025
40,0.25,0.001,0.017863776555763624,0.01441135222885555,19.347385191783225,0.01380969678214363,0.047295001749363214
41,0.25,0.001,0.01780982429465702,0.01445390956081436,18.806546187982327,0.0134236589493093,0.03360211538771788
42,0.25,0.001,0.017695343565706016,0.014206552126673775,19.551187014266652,0.013955165606186048,0.05009927704102463
43,0.25,0.001,0.017628957187201248,0.014317110631663849,18.559589475449208,0.013247387205888085,0.03524879407551554
44,0.25,0.001,0.017435812574809532,0.014002149501783986,19.242249136346814,0.01373465320224612,0.039053887956672244
45,0.25,0.001,0.017424999392027032,0.01413301883639303,18.448259879679437,0.013167922826323652,0.035501435243835054
46,0.25,0.001,0.017316948999886665,0.013886187854616101,19.225984927637267,0.013723044202453438,0.024779602367844846
47,0.25,0.001,0.017128689403297977,0.013792924771668987,18.693624521509566,0.013343058188086772,0.016581984236836433
48,0.25,0.001,0.01704392536398282,0.013820261692743589,18.065413065296624,0.012894656006635707,0.01816861652251747
49,0.25,0.001,0.016973726947636363,0.013684833020419162,18.430962095564794,0.013155576085342466,0.018778836768534448
50,0.25,0.001,0.01690182412011762,0.013592485209147657,18.545535665515665,0.013237355935414464,0.022109616547822952
51,0.0,0.001,0.012851147487843462,0.012851147487843462,24.795803850184686,0.017698646574007628,0.017605062781108752
52,0.02,0.001,0.012536775602087182,0.01180717834458454,51.108283051854,0.03647985942316488,0.017459803105642397
53,0.04,0.001,0.013198394251473625,0.011439145367949027,61.61769597123309,0.0439812248188673,0.026426246493226953
54,0.06,0.001,0.013424359178118142,0.01141716376659906,46.86801542529022,0.03345325869042842,0.012621141297535764
55,0.08,0.001,0.013562300298397917,0.011803171136128186,30.806751032931274,0.0219891156551972,0.019084690035217337
56,0.1,0.001,0.013959818741561771,0.0119521920525558,28.126851445067445,0.020076267983631296,0.014578946038252778
57,0.12,0.001,0.014220540210828326,0.01186737098065371,27.473251707781994,0.01960974425965881,0.023337405537151627
58,0.14,0.001,0.014477177173612153,0.012016592260736685,24.623425911336188,0.017575607359983005,0.023062038235366344
59,0.16,0.001,0.01482533687973783,0.012133536779969986,23.57007220985742,0.01682374890068338,0.016713109850469563
60,0.18,0.001,0.015050123547034349,0.012205641929891946,22.139546313831552,0.015802674028430802,0.017130467109382153
61,0.2,0.001,0.015267189927608837,0.012278192120955428,20.93792922143417,0.014944988737640379,0.017723159968025155
62,0.22,0.001,0.015502658403543213,0.012350576026382634,20.073033803399465,0.01432764725438934,0.011851568395892778
63,0.24,0.001,0.015815909480148365,0.012639380517934657,18.54298732249419,0.013235536989646104,0.01510596823775106
64,0.25,0.001,0.01589765806470982,0.012611225675476984,18.417168687029584,0.013145730683104628,0.025655379311905965
65,0.25,0.001,0.015946909329219675,0.012633719939326144,18.567112584498766,0.013252757019627956,0.03485514223575592
66,0.25,0.001,0.015790522636716407,0.012596601228916399,17.898735912387412,0.012775685876079523,0.02005309508078628
67,0.25,0.001,0.015706088904144617,0.012504100948082908,17.943941588697022,0.012807952597214149,0.027365563333862357
68,0.25,0.001,0.015665306320053998,0.012515377199127013,17.65220347578038,0.012599716970578429,0.02829376846137974
69,0.25,0.001,0.015581344855393635,0.012470047215024257,17.435710513345743,0.012445189517020516,0.029931930928594537
70,0.25,0.001,0.01560127544679852,0.012379870243286661,18.052756633364908,0.012885622150867172,0.025103813451197412
71,0.25,0.001,0.015476572311589911,0.012397564781609553,17.254758133449876,0.012316030073840025,0.027789878245029185
72,0.25,0.001,0.015409638343368417,0.012253456130470053,17.687245782276033,0.012624729323537497,0.014247158852716288
73,0.25,0.001,0.015357484829596351,0.012262868053693933,17.34223296718347,0.012378467499774068,0.017282458746598825
74,0.25,0.001,0.015418800369855611,0.012329878210392388,17.31032049096771,0.01235568914415968,0.014767865495135387
75,0.25,0.001,0.015362428050439308,0.012141022918567649,18.05275495504125,0.012885620952920236,0.01646954773200883
76,0.0,0.001,0.011674502474827235,0.011674502474827235,23.991364348449135,0.017124457065274188,0.030434964845577877
77,0.02,0.001,0.01150010093543364,0.010800251903232557,49.024428755883655,0.03499245450098762,0.027951779982282057
78,0.04,0.001,0.012066788368598046,0.010471933865552771,55.85978448950104,0.03987136651641759,0.0184814118159314
79,0.06,0.001,0.012255871843190175,0.010547790777700032,39.88369466842451,0.028468019035278024,0.012398934664411677
80,0.08,0.001,0.012385400581762447,0.010821045178913042,27.395772243306517,0.019554441287156686,0.010103764581597514
81,0.1,0.001,0.012744964816822456,0.01081131965159587,27.090367766303373,0.019336450939545592,0.012439561386903128
82,0.12,0.001,0.013061383188707408,0.010908513403310673,25.13475718686102,0.01794058328826625,0.015273157921102311
83,0.14,0.001,0.013412498664565203,0.010994932156468533,24.192934844999332,0.017268333222697597,0.018760912586003542
84,0.16,0.001,0.013696168248819477,0.011165189453685486,22.161884937680014,0.01581861879920058,0.01822724700387981
85,0.18,0.001,0.014059992276453614,0.011286474026977232,21.587215044261367,0.015408433293548442,0.021950354903108545
86,0.2,0.001,0.014406475208797554,0.011448483970051188,20.72072877937589,0.014789956302195496,0.028369971757961646
87,0.22,0.001,0.01458448968743853,0.011587773839371736,19.08363088210573,0.013621435319133283,0.013220019328097502
88,0.24,0.001,0.014820857647995117,0.011550590705203406,19.090183043345725,0.01362611209375141,0.022550110705196857
89,0.25,0.001,0.014962407181958544,0.011752265248636368,17.98963483771061,0.012840567335981878,0.027042357820189662
90,0.25,0.001,0.014907308129024103,0.011701274493719691,17.966613207704356,0.012824135051894616,0.015434297733008862
91,0.25,0.001,0.014782086933838942,0.011640124582103673,17.60755689595922,0.012567849319028709,0.01665298506203625
92,0.25,0.001,0.01479935663530348,0.011696644572936012,17.38759939397701,0.012410848960725916,0.014193344550828138
93,0.25,0.001,0.014879569392057231,0.011718781339965663,17.713056932918125,0.012643152700155692,0.019645197006563347
94,0.25,0.001,0.01483742119028018,0.011614055447909442,18.063741494298654,0.012893462879585049,0.02197223487827513
95,0.25,0.001,0.014824182184773023,0.011763693300018167,17.150980639860286,0.012241956202612625,0.018380632830990687
96,0.25,0.001,0.01474097605766711,0.011621774974546447,17.480002855941457,0.01247680432258491,0.01549083310075932
97,0.25,0.001,0.014770484622043695,0.011659225440229418,17.435496618331708,0.012445036843919849,0.027667102300458483
98,0.25,0.001,0.014807759169104734,0.011767700866675512,17.03648677417977,0.01216023324352589,0.02404986270185974
99,0.25,0.001,0.014753447817621043,0.011584307247070389,17.759863164590403,0.012676561859093792,0.02189418166461918
100,0.25,0.001,0.01458401412931996,0.0115787880844655,16.841286489261247,0.012020903989479834,0.015556166879832745
101,0.25,0.001,0.01461871232362167,0.011495628621338344,17.501760872846248,0.012492334670125801,0.011979391177495321
102,0.25,0.001,0.014482954001546913,0.011435028766657578,17.080573688528553,0.012191701419363706,0.01576856016698811
103,0.25,0.001,0.014612442141094754,0.011644681527735368,16.63133050800488,0.011871042475378214,0.01303288723445601
104,0.25,0.001,0.014605091222497245,0.011469824194181256,17.570035705423265,0.012541067598446299,0.016951942919856973
105,0.25,0.001,0.014645360759677852,0.01159067857682034,17.118439776365125,0.012218729319318434,0.024091041129496362
106,0.25,0.001,0.014588752817397493,0.011559621956877368,16.97524955169792,0.012116523591504584,0.020196305587887764
107,0.25,0.001,0.014470755910644164,0.011453735782794556,16.90738119014432,0.012068080792394234,0.014369348477986123
108,0.25,0.001,0.014430659980378612,0.011413122591952221,16.910280717917722,0.012070150405365968,0.013668975275423791
109,0.25,0.001,0.014473691907681623,0.01146324727453613,16.870532671014097,0.012041779208432617,0.01733985212114122
110,0.25,0.001,0.014453392846275673,0.011430453346591395,16.94055313911939,0.012091758129278651,0.016194018431835704
111,0.25,0.001,0.014449721925645564,0.011311485800773296,17.58667499978815,0.012552944325330587,0.013570005332844125
112,0.25,0.001,0.014414878525399022,0.011407934337169435,16.85091594459863,0.012027777262383034,0.013429104764428403
113,0.25,0.001,0.014378876318739235,0.011383432674782585,16.78646646610568,0.011981774779518686,0.015564231822888056
114,0.25,0.001,0.014362124380206525,0.011304572703383206,17.134519344422877,0.012230206527068434,0.017732187795142334
115,0.25,0.001,0.014449720391496931,0.011398103112602994,17.101263207297833,0.012206469098713656,0.020626398941708937
116,0.25,0.001,0.014446258244382507,0.011472911930400145,16.66263334836119,0.011893385687623976,0.029877411822477978
117,0.25,0.001,0.014382496946202993,0.011227160459821153,17.682506117543404,0.01262134626519872,0.018778918517960444
118,0.25,0.001,0.014335941504092982,0.011416079721100782,16.362906590187976,0.011679447958735172,0.01435152989708715
119,0.25,0.001,0.014328581709100202,0.011297930818309704,16.983768012241843,0.012122603863127654,0.013502235110435221
120,0.25,0.001,0.014307367505320466,0.011273137136497037,17.0038267461265,0.012136921303445038,0.016736746972633734
121,0.25,0.001,0.01430544775419678,0.011409705489049151,16.22773946830077,0.011582968928123319,0.017887469795015123
122,0.25,0.001,0.014284788304153572,0.011289278555514665,16.786836262715468,0.011982038731417179,0.011788041434354253
123,0.25,0.001,0.014302652787004806,0.011225783344756594,17.242776623809988,0.012307477961320477,0.011755207139584754
124,0.25,0.001,0.014279058889798666,0.01123860368145172,17.03871053871026,0.012161820512998044,0.015009195026424196
125,0.25,0.001,0.014251820453028518,0.01121677864538628,17.008374802838123,0.012140167596601087,0.014885013612608114
126,0.25,0.001,0.014347936898665625,0.011325542463817919,16.937498514916168,0.012089577812217108,0.018939633439812396
127,0.25,0.001,0.014202741497173542,0.011197390875256643,16.84198446255911,0.012021402185980808,0.02111291792243719
128,0.25,0.001,0.014262749666722026,0.011297697369114096,16.616154404115946,0.01186021013855528,0.01811731182452705
129,0.25,0.001,0.014180924002549437,0.011189926918910548,16.76154735701169,0.011963988120636466,0.021930808511873085
130,0.25,0.001,0.014160043222735345,0.01117013906972661,16.75542360130439,0.011959617131552027,0.016612048571308453
131,0.25,0.001,0.01420959371612119,0.011220713205439848,16.74968710357208,0.011955522557867294,0.022777765264941588
132,0.25,0.001,0.01416306536274265,0.011185138398959646,16.688301930955383,0.011911707302609124,0.013269482128736045
133,0.25,0.001,0.01414414972598065,0.011139339339302584,16.83895745912591,0.012019241583958538,0.013697665598657396
134,0.25,0.001,0.014158632354653575,0.01123843241769534,16.364800580223328,0.011680799843128713,0.014009403582248423
135,0.25,0.001,0.014146815562589307,0.01111639566425982,16.982473087131865,0.012121679576825029,0.012679418911122613
136,0.25,0.001,0.014206385694262458,0.011147755998454108,17.140561205808485,0.012234519061961803,0.011793246182302633
137,0.25,0.001,0.014149192720651627,0.01110313694022498,17.07009771751418,0.01218422392399299,0.013254118669364188
138,0.25,0.001,0.014242123186895815,0.011259122718454079,16.71673472155773,0.01193200194258225,0.015580158059795698
139,0.25,0.001,0.014164629488428582,0.011160570420464588,16.834747418230066,0.01201623655833695,0.013295073786543475
140,0.25,0.001,0.014078350860003459,0.01113978515450771,16.467722143062282,0.011754262771636177,0.01239655813616183
141,0.25,0.001,0.0141761560293568,0.011148487385467226,16.967055322529003,0.012110674748414705,0.022356677076054945
142,0.25,0.001,0.014185819750403597,0.011214993448533104,16.648511027753017,0.011883305515883666,0.019501701825194888
143,0.25,0.001,0.014123676161283513,0.011122719828549626,16.81735931954733,0.012003825352995953,0.010890403555499183
144,0.25,0.001,0.014068875126330982,0.01111688041154428,16.542978512189624,0.011807978952312365,0.017075758789562516
145,0.25,0.001,0.014044372759773405,0.011124364865723628,16.363724434800712,0.011680031716488732,0.014848572512467703
146,0.25,0.001,0.014022281050933682,0.011014952568955873,16.853069568440795,0.01202931446712405,0.013621213949388929
147,0.25,0.001,0.013966926684564654,0.011029242627029123,16.462781884656838,0.01175073653437319,0.012712888626588715
148,0.25,0.001,0.014050719214648736,0.01102894324788345,16.934033377756545,0.012087104480911168,0.015216743366585838
149,0.25,0.001,0.014014522693562015,0.011059547874091042,16.559679485843507,0.011819899704385087,0.01190300208205978
150,0.25,0.001,0.014045168712078183,0.010994396455530043,17.096528180320984,0.012203089350693065,0.013683245413833194
151,0.25,0.001,0.013918379019407685,0.01100069956459091,16.350676191233337,0.011670718195027364,0.013175332142661015
152,0.25,0.001,0.014001745391658054,0.010967036001524044,17.00651168465391,0.012138837747790085,0.012966591450903151
153,0.25,0.001,0.014021339838517092,0.011048323139338623,16.66078561958184,0.011892066823398887,0.01598536130040884
154,0.25,0.001,0.014028452983297282,0.01104901818380347,16.696751621382322,0.011917738487781814,0.014748712639427848
155,0.25,0.001,0.013984398591361842,0.010992173205075634,16.768430774252142,0.011968901337795962,0.0125264764452974
156,0.25,0.001,0.013924139682867513,0.010918405397985598,16.844135144861735,0.012022937291121867,0.013852233377595743
157,0.25,0.001,0.013967053043895434,0.011018470045018375,16.523858025642095,0.01179433121030842,0.015256849221057363
158,0.25,0.001,0.014006353568767964,0.011010280490536628,16.78999431316669,0.011984292871639322,0.024314430749250784
159,0.25,0.001,0.014069619312477044,0.011079785118742688,16.7550311151186,0.011959336984381586,0.019908990504013166
160,0.25,0.001,0.014013469565177501,0.011100614550008,16.323639853586624,0.011651420309483672,0.0178152724272675
161,0.25,0.001,0.013931715833005717,0.010961307418894365,16.646169401243974,0.011881634119374714,0.012941323220729828
162,0.25,0.001,0.013949581049732152,0.010895120809955512,17.117195412097235,0.01221784112212508,0.011910893023014069
163,0.25,0.001,0.013891615787797082,0.010989453554446993,16.263716899878983,0.01160864875080584,0.013672064265443219
164,0.25,0.001,0.013937450090936939,0.01091597977620296,16.93231988445232,0.012085881430729707,0.017057595981491938
165,0.25,0.001,0.013884070687569104,0.010907190088287527,16.682438741258117,0.01190752229925633,0.01747100313918458
166,0.25,0.001,0.013879488066789358,0.011029256095386356,15.97270065042807,0.011400928372896553,0.018044618268807728
167,0.25,0.001,0.013867191332575864,0.010843110892844805,16.946946929588105,0.012096321862661031,0.013291559078627162
168,0.25,0.001,0.013998075175198672,0.01106099529265239,16.459395081196224,0.011748319115771752,0.01645148193670644
169,0.25,0.001,0.01393607122156119,0.010935209481845877,16.81682970644609,0.012003447327941534,0.016674502338800166
170,0.25,0.001,0.01393257939443691,0.010913829928994402,16.917072229940047,0.012074998022798034,0.020064827313439712
171,0.25,0.001,0.013902048576853848,0.010868136337687441,17.002044241155513,0.012135648994400795,0.01754875387996435
172,0.25,0.001,0.013821068766752282,0.010964768321915595,16.006707976951386,0.011425201982120903,0.01332063962601953
173,0.25,0.001,0.013884623980544521,0.010943993548626747,16.479293304357476,0.011762521987407192,0.013174049970176484
174,0.25,0.001,0.013899950364754861,0.010980363304448956,16.361366991254222,0.011678349030160044,0.015507999497155348
175,0.25,0.001,0.013848676019493232,0.010783288732702245,17.178430641346086,0.012261549351424757,0.011021193116903305
176,0.25,0.001,0.01383428275934639,0.010909632618904225,16.389739864986343,0.011698600902916733,0.013946898385054536
177,0.25,0.001,0.013955146605480903,0.010844796812109384,17.43039933825523,0.012441398528376325,0.011799089558836486
178,0.25,0.001,0.013821902428011063,0.010856729986296361,16.616826696199055,0.011860690004424737,0.010653700006918775
179,0.25,0.001,0.013828743750659319,0.010836857206783979,16.766532794172278,0.01196754660540491,0.012679957008610169
180,0.25,0.001,0.013814045771551065,0.010862690882362412,16.539392331751383,0.011805419223234392,0.013883337378501892
181,0.25,0.001,0.013804336730216055,0.010758038587504772,17.071454278970972,0.012185192204832957,0.015085684394256936
182,0.25,0.001,0.013764702066723223,0.010848326178697439,16.343370473407223,0.01166550354989809,0.015290365968313482
183,0.25,0.001,0.013746252720284418,0.010797537569704467,16.524599941318076,0.011794860771818756,0.013492298829886649
184,0.25,0.001,0.013683761941796732,0.010789211718872274,16.22106042185599,0.011578201585907203,0.014876640505260892
185,0.25,0.001,0.01376231453306344,0.01076393676345109,16.80290970614435,0.011993511567554854,0.013027918835481008
186,0.25,0.001,0.013770999635026334,0.010812827130853011,16.577600006761962,0.01183269093987292,0.01373936753306124
187,0.25,0.001,0.013771301809887055,0.010794907769862751,16.67971271421851,0.011905576526922562,0.0161648274709781
188,0.25,0.001,0.013760929415264564,0.010851721772067878,16.30319938874379,0.011636830398817835,0.013170099351555109
189,0.25,0.001,0.01376651025833265,0.010787493243505987,16.694411413754576,0.0119160681040361,0.014470084777308835
190,0.25,0.001,0.013643763882525643,0.010724938679032209,16.357096369673567,0.011675300763507186,0.014741692692041397
191,0.25,0.001,0.013709253598333077,0.010724855925866856,16.7245653306342,0.011937591242422697,0.013060067055953873
192,0.25,0.001,0.013735988547791348,0.01079218376141328,16.49708194267459,0.011775219088275939,0.018729223248859245
193,0.25,0.001,0.013784727513244966,0.01080625297022917,16.69137191772461,0.01191389858509965,0.017028545029461384
194,0.25,0.001,0.013766277368280051,0.010835499986726616,16.424076796025318,0.011723109775892446,0.016121247162421543
195,0.25,0.001,0.013694575290574813,0.010724890038832379,16.64211563232021,0.011878740636916638,0.012027090415358543
196,0.25,0.001,0.013682642977817532,0.01073889766678242,16.496749312524276,0.011774981664899554,0.010967861033148237
197,0.25,0.001,0.013600570408323357,0.010730536263191454,16.083670446170427,0.011480135935881817,0.015383773742036687
198,0.25,0.001,0.013734596416242351,0.010712418030758735,16.936288465031094,0.01208871410780235,0.018953224851025477
199,0.25,0.001,0.013838880073356024,0.010910250131201565,16.412042750202914,0.011714520164313286,0.02140720918153723
200,0.25,0.001,0.01370665305215467,0.010744349819592307,16.60074785636916,0.01184921331646621,0.01858381378567881
201,0.25,0.001,0.013746857255221978,0.010852171059201627,16.221821108633762,0.011578744545777132,0.016782639341221914
202,0.25,0.001,0.013711944026750203,0.010759395199494112,16.54608349862734,0.01181019521672187,0.01759731096939908
203,0.25,0.001,0.013678067559498672,0.010735192771225217,16.49187018947351,0.011771499064577808,0.017962713311943743
204,0.25,0.001,0.013611004210826828,0.010696961612599651,16.33029449276808,0.011656170230384068,0.013663077209558751
205,0.25,0.001,0.013643444858239807,0.010704311788585351,16.470901825638247,0.011756532352347072,0.011641329102632072
206,0.25,0.001,0.013690344998036383,0.010685394446437176,16.839742889547438,0.012019802205244423,0.012693498697545793
207,0.25,0.001,0.013696625765839392,0.01073831083046842,16.578396870539738,0.01183325972201266,0.015475764353242185
208,0.25,0.001,0.013754669837234279,0.010813150144274754,16.48427672681397,0.01176607903412846,0.018007566531499226
209,0.25,0.001,0.013744100847929772,0.010750605041549085,16.77555037886743,0.011973983139805446,0.015516719780862331
210,0.25,0.001,0.01369762285935778,0.010775421922554665,16.376014698737112,0.01168880421037624,0.014073693503936132
211,0.25,0.001,0.01370851141985988,0.010756757989260202,16.541626076760927,0.011807013616531711,0.012876313904093372
212,0.25,0.001,0.013612844755848622,0.010673605573082284,16.47149725479212,0.011756957355312006,0.013884285878803995
213,0.25,0.001,0.013616969595762847,0.010709850578857184,16.291496266119925,0.011628476992234064,0.012580240248805948
214,0.25,0.001,0.013723181235633692,0.010755635041387063,16.63012931494507,0.011870185092751655,0.012461075559258461
215,0.25,0.001,0.01365136142337859,0.010691463529686208,16.58726701861698,0.011839591019712334,0.013377993367612362
216,0.25,0.001,0.013657908324033413,0.010658294186135842,16.809837616854267,0.01199845654307942,0.013603185303509235
217,0.25,0.001,0.013609176470179942,0.010645816258135588,16.606670150613695,0.01185344050721891,0.012942116086681684
218,0.25,0.001,0.01363600911764781,0.010733329856988412,16.26661474038244,0.011610717159444997,0.012787180124885507
219,0.25,0.001,0.013661682602248764,0.010722755339157402,16.469749225237134,0.01175570965398796,0.01552637992426753
220,0.25,0.001,0.013580392314012793,0.010612389652886713,16.63268710166831,0.011872010779206502,0.012224056757986546
221,0.25,0.001,0.013557709180391751,0.010576227912242483,16.70822128167072,0.011925925254582956,0.012508079616559876
222,0.25,0.001,0.013699026049707106,0.010744267969792377,16.5584646908472,0.011819032613024411,0.014384837096763982
223,0.25,0.001,0.01362018954309357,0.010597113140738145,16.941320043567423,0.012092305527171608,0.011873997696157958
224,0.25,0.001,0.01358195183375819,0.010643147873931598,16.469057491080623,0.011755215910835563,0.011592830324338542
225,0.25,0.001,0.013513105870774943,0.010582755347731301,16.421682887408345,0.011721401061676191,0.0131342312734988
226,0.25,0.001,0.013536676294458629,0.010623570293970895,16.32504637469494,0.011652424250317586,0.012052452553891473
227,0.25,0.001,0.0135618871511231,0.010552639222055618,16.86382427179791,0.012036990914916423,0.011786937299701903
228,0.25,0.001,0.013543667600229802,0.010630299284788614,16.326516679259225,0.011653473718243558,0.015161327086389065
229,0.25,0.001,0.013532183187232679,0.010579110462197555,16.54902049882327,0.011812291576604761,0.01491456613358524
230,0.25,0.001,0.013583070179185433,0.010596296597992055,16.73787829844634,0.01194709371766334,0.01238793900443448
231,0.25,0.001,0.013663788362778373,0.010691744574183147,16.65533274423338,0.01188817469252918,0.020974293040732544
232,0.25,0.001,0.013612941674552648,0.010709431639210256,16.271270780581247,0.011614040528609027,0.017705114351378545
233,0.25,0.001,0.01364231988347326,0.010672916953520076,16.640534440303608,0.011877612020202433,0.013738480707009634
234,0.25,0.001,0.013596602890284044,0.010652900614040095,16.49650861800947,0.011774809862961793,0.012487474932438798
235,0.25,0.001,0.013609679157218387,0.010614751977933393,16.783571211079497,0.011979708216330834,0.0178973488509655
236,0.25,0.001,0.013602890385276381,0.01063253967122893,16.645846025134116,0.011881403301309148,0.015505675743851397
237,0.25,0.001,0.013551427690944797,0.010612434786211482,16.470117583283788,0.011755972579074795,0.012485122308135033
238,0.25,0.001,0.013582069926509044,0.010606781843399688,16.673513874104053,0.011901151944399752,0.01073313183668587
239,0.25,0.001,0.013674880729159986,0.010658215865926156,16.905390039841183,0.012066659557345599,0.014145383197400305
240,0.25,0.001,0.013633571923352204,0.010681019383037067,16.546104846260114,0.011810210454147119,0.014304381381306384
241,0.25,0.001,0.013598465566885069,0.010591299800764889,16.8521574084799,0.012028663389350392,0.018452579466005165
242,0.25,0.001,0.013570948322190017,0.010623244054992919,16.51893531985399,0.011790817501680222,0.018830760589076415
243,0.25,0.001,0.01356582936095196,0.010570618208658516,16.785164126312083,0.011980845200793778,0.016046241857111454
244,0.25,0.001,0.013490951237378828,0.0105651175991176,16.396372163497038,0.011703334877585323,0.010983207159572177
245,0.25,0.001,0.013486171412101717,0.010503071176821251,16.717293998761203,0.011932401141157175,0.011726068436271615
246,0.25,0.001,0.013424596195345077,0.010557225872159676,16.068744042129946,0.011469481828786543,0.012069069573448764
247,0.25,0.001,0.013467902205814564,0.010575608766199165,16.20841219545976,0.011569173587051935,0.012864500905076662
248,0.25,0.001,0.013460703152205662,0.010485348436722835,16.67388826910595,0.011901419178519595,0.010965174064040184
249,0.25,0.001,0.013550055274428837,0.01057645256716695,16.664070059613483,0.011894411177454305,0.01617189238054885
250,0.25,0.001,0.013523802049388134,0.010558397537114808,16.618127690470914,0.011861618622748689,0.015156705863773823
251,0.25,0.001,0.013526324698208756,0.01052798222449886,16.80271312935491,0.011993371255785088,0.011988901429706149
252,0.25,0.001,0.013561642957645106,0.01057600709618424,16.7315035456788,0.011942543572932764,0.01244247280475166
253,0.25,0.001,0.013521205078230342,0.010543592988843654,16.68653955871124,0.011910449363819586,0.01214490184146497
254,0.25,0.001,0.013494459394973617,0.010566064867751907,16.41072226017993,0.011713577630392527,0.011807849320272604
255,0.25,0.001,0.013451082848613526,0.01046947991444011,16.70890342898485,0.011926412154878552,0.013727537563277615
256,0.25,0.001,0.013538726079531056,0.010543407162906528,16.785767950662752,0.011981276196047646,0.01666170958843496
257,0.25,0.001,0.013651067716039815,0.010716048492150168,16.447847988994663,0.011740077079939088,0.01866678593473302
258,0.25,0.001,0.01356046647881813,0.010593166052386528,16.628751897901353,0.011869201925696897,0.019517078788744077
259,0.25,0.001,0.013461523975890417,0.010472328230864447,16.75145283067428,0.011956782891273575,0.01351654695139991
260,0.25,0.001,0.013468392207295989,0.01055721878152739,16.314215887330935,0.011644693709729433,0.014000057967172729
261,0.25,0.001,0.013522265629238304,0.01054395453944998,16.690456100521125,0.011913244896874465,0.015317658945504162
262,0.25,0.001,0.013567228128829548,0.010565078621607896,16.82404564290288,0.012008597889295418,0.013586813790930642
263,0.25,0.001,0.013461424352332083,0.010478961866831242,16.71372016062209,0.011929850221714553,0.015323499735030863
264,0.25,0.001,0.013491487455524602,0.01050743862364518,16.72260883109431,0.011936194740252898,0.01437933836132288
265,0.25,0.001,0.013456219396646542,0.010458618302883731,16.798556726824277,0.01199040451593453,0.012893283118804296
266,0.25,0.001,0.013447991906058944,0.010571829027602866,16.11801576524917,0.01150465079603795,0.01604012834529082
267,0.25,0.001,0.013481469948970018,0.010445675141690036,17.012593668352597,0.012143178921022553,0.017756580375134945
268,0.25,0.001,0.013543211891688056,0.010593973643602506,16.527531457439373,0.01179695321730148,0.018626920982367463
269,0.25,0.001,0.013547967913198873,0.010538948914752556,16.862542909260764,0.012036076309251081,0.01761642357127534
270,0.25,0.001,0.013484027883209163,0.010525249032125464,16.58099675312722,0.011835115455479814,0.014217358703414599
271,0.25,0.001,0.013462482121603574,0.010498704727718128,16.609009497608522,0.01185511027666561,0.015436725535740456
272,0.25,0.001,0.013397131974880513,0.010465781698894545,16.427287668940274,0.011725401619514828,0.013427174598392513
273,0.25,0.001,0.01333051833968896,0.01037529536556124,16.56106969250076,0.011820892000357429,0.012803421769705083
274,0.25,0.001,0.013354908432077624,0.010450912698907655,16.273992606443937,0.011615983302244066,0.011482442573954662
275,0.25,0.001,0.013409907256880352,0.010433709746887156,16.6786112525897,0.011904790330185367,0.012752308199803034
276,0.25,0.001,0.013381819350830161,0.010454629769803882,16.40397063607794,0.011708758483995675,0.013265293815897571
277,0.25,0.001,0.013382587115337992,0.010468824109583254,16.328728466499143,0.011655052438614663,0.014909249368227191
278,0.25,0.001,0.013388909921958679,0.010380072702651958,16.86152391630534,0.012035348976663342,0.010732661156604687
279,0.25,0.001,0.013412972419447567,0.01048477681434065,16.409607821065535,0.01171278217063921,0.012216072736514939
280,0.25,0.001,0.013386927207837521,0.010437152531927566,16.530537505087217,0.011799098861589735,0.011939962446275685
281,0.25,0.001,0.013409662881680882,0.010419853671155102,16.75489091783706,0.011959236914944368,0.013007040083822276
282,0.25,0.001,0.013433004942623021,0.010494177776614228,16.469186373096917,0.011755307903709435,0.015229176833397813
283,0.25,0.001,0.013363467050649882,0.010412522483316528,16.537093278838366,0.011803778214731168,0.013805926156540712
284,0.25,0.001,0.01336165931334415,0.010437908758868866,16.38469792664834,0.011695002088970978,0.011053787906550698
285,0.25,0.001,0.013374576617668315,0.010397969764320085,16.680905723213925,0.011906428067961402,0.011955204316311412
286,0.25,0.001,0.013405288267342504,0.010415440624471453,16.75510670409641,0.011959390937970313,0.011498826348947154
287,0.25,0.001,0.013401275558316796,0.010373669124328955,16.96670734054823,0.012110426367272113,0.015864971818195447
288,0.25,0.001,0.013457334168800494,0.01043094192084631,16.959902790205565,0.012105569443401545,0.013908379297289584
289,0.25,0.001,0.01343110076188482,0.010501374210113936,16.418187558315484,0.011718906180096706,0.010719810353798999
290,0.25,0.001,0.013411267788112722,0.010467364665952565,16.497633420504055,0.011775612719845863,0.009829628591736158
291,0.25,0.001,0.013416183705303616,0.010405640755596572,16.87108255640427,0.012042171703357795,0.010655544543017944
292,0.25,0.001,0.013417965094742364,0.010515794439300698,16.263764776834627,0.011608682924221719,0.011160077320204841
293,0.25,0.001,0.01337558023393937,0.010298013496675702,17.246683281760724,0.012310266439515148,0.012275630194279883
294,0.25,0.001,0.013378869179517422,0.01046547810520844,16.326644740006266,0.011653565124915251,0.014941188713742627
295,0.25,0.001,0.013452874017812968,0.01051247223345021,16.478011211803214,0.011761606860673244,0.01712289545685053
296,0.25,0.001,0.013435220193837754,0.010426179437739094,16.86266393822532,0.012036162696806083,0.013178312116199069
297,0.25,0.001,0.013387008026717528,0.010349725285723218,17.020933688022406,0.01214913182585468,0.013601617266734442
298,0.25,0.001,0.013392921865657392,0.010425654531755322,16.628566945918728,0.011869069911433782,0.013293757620784972
299,0.25,0.001,0.013344408302982015,0.010352552803774936,16.76635930775254,0.01196742277498397,0.012349093953768412
300,0.25,0.001,0.013387072880317302,0.010473548153355914,16.3273921558602,0.011654098612319913,0.016775431525376108
301,0.25,0.001,0.013303359661174425,0.010386158677261833,16.347994750704597,0.011668804247469376,0.01155358718501197
302,0.25,0.001,0.013326622692494187,0.010373733769997423,16.54798914925466,0.01181155542416464,0.011545569946368536
303,0.25,0.001,0.013347736692604719,0.010406598438269426,16.48213772478515,0.011764552266085047,0.011344150536590152
304,0.25,0.001,0.013278256231607907,0.010316088998351267,16.599985462639612,0.011848669138215284,0.010590094659063552
305,0.25,0.001,0.01329604374667661,0.010353338569193016,16.490918923497873,0.011770820073874285,0.012672050442132685
306,0.25,0.001,0.013390194456919496,0.010420557167415995,16.641847306299837,0.011878549112276829,0.013556168518132634
307,0.25,0.001,0.013294218216391934,0.010340191563678727,16.554365730643497,0.011816106874120982,0.013104818502648009
308,0.25,0.001,0.01329717787566261,0.01033455460711503,16.602541823324522,0.011850493806798375,0.013239489040440984
309,0.25,0.001,0.013343064306656818,0.010328142421484329,16.895621992186356,0.012059687360589834,0.01509120294617282
310,0.25,0.001,0.013304280008820163,0.010410442777103823,16.21706257081166,0.011575348016282412,0.014742554631084204
311,0.25,0.001,0.013298306308379205,0.01034391892979561,16.55638662914398,0.011817549342715188,0.012671846534228988
312,0.25,0.001,0.013325512215257474,0.010364237821557844,16.594982601688233,0.011845098216765335,0.014489948542581664
313,0.25,0.001,0.013304580432864336,0.010353520661103233,16.53773956048332,0.011804239514977388,0.01369110681116581
314,0.25,0.001,0.013326504445979005,0.010388650721739313,16.463732018032395,0.0117514147166541,0.011566884505252043
315,0.25,0.001,0.013348651284572107,0.010419245963080963,16.416387235917025,0.011717621153402587,0.01501973583880398
316,0.25,0.001,0.013373078769649507,0.01038238755470984,16.75983321957472,0.011962764610688594,0.013225022599928908
317,0.25,0.001,0.013330667573210782,0.01034120940664472,16.75292373285061,0.011957832785760607,0.017596185931728944
318,0.25,0.001,0.013334700869183156,0.010414974646918882,16.362146499232995,0.011678905424149176,0.01388234862436851
319,0.25,0.001,0.013344829318447363,0.010417030848157338,16.407382199285625,0.011711193575507227,0.015863992791208956
320,0.25,0.001,0.013258422015489936,0.010307711058105806,16.535784597915736,0.011802844109861339,0.014976657927036285
321,0.25,0.001,0.013232766323867927,0.010258471228070488,16.66794987333201,0.011897180494883662,0.011512944888737466
322,0.25,0.001,0.013249461844871012,0.010292120571431702,16.572940894407804,0.011829365377878518,0.013416334572765563
323,0.25,0.001,0.013307979300716023,0.010395265857061794,16.322846802716853,0.011650854248905676,0.01613223407831457
324,0.25,0.001,0.013313229428167414,0.010351014494770128,16.60025260238218,0.011848859816118615,0.013810509815812111
325,0.25,0.001,0.013268912389287358,0.01028526439305262,16.720364601035055,0.011934592862980053,0.014044590811762545
326,0.25,0.001,0.013278362722141323,0.010366357821013646,16.31887514461496,0.011648019375171278,0.013158001936972141
327,0.25,0.001,0.013340329840485754,0.010326108975619022,16.891694450020566,0.012056883975746299,0.012950588638583818
328,0.25,0.001,0.013267258353405554,0.010335367892853092,16.430314334203782,0.01172756198015973,0.011326086810893483
329,0.25,0.001,0.013236732503458661,0.010262281880285905,16.668821556706813,0.01189780268144669,0.011057485412392352
330,0.25,0.001,0.013256856525145596,0.010269359101875078,16.741936209501514,0.011949990156674885,0.01193259490860833
331,0.25,0.001,0.013283889674307258,0.010321925161843229,16.59884942718563,0.011847858263515795,0.01245210019664632
332,0.25,0.001,0.013259746046915063,0.01029099807087297,16.63686313951217,0.011874991534269928,0.01454977546301153
333,0.25,0.001,0.013177595008688842,0.010287816169729376,16.194322131588134,0.011559116439391958,0.012251138997574648
334,0.25,0.001,0.013243667735922627,0.010281598918824885,16.599433716421505,0.011848275315076021,0.01197291672643688
335,0.25,0.001,0.013336186300732517,0.010414929644643254,16.370722718802448,0.011685026922771197,0.017971951514482498
336,0.25,0.001,0.013327181337516595,0.01029746289807066,16.97854125432628,0.012118873129426324,0.014978964916533895
337,0.25,0.001,0.013282245874237165,0.010331809337252636,16.53424582561901,0.01180174577131978,0.012325344348533286
338,0.25,0.001,0.013283647657992356,0.010279375233287324,16.835943336558387,0.012017090175987429,0.011119630187749863
339,0.25,0.001,0.01318567861081232,0.010271535300445266,16.330859382872735,0.011656573435312444,0.012858232379787497
340,0.25,0.001,0.013188882211946636,0.010189959522525433,16.805961701928116,0.011995690008514002,0.012448419195910295
341,0.25,0.001,0.013282186547416572,0.01030750342209668,16.670124681984507,0.011898732820831197,0.011916430667042732
342,0.25,0.001,0.013290217279073892,0.010308979634775678,16.706855713091024,0.011924950544675962,0.016255283314320777
343,0.25,0.001,0.013217216308663755,0.010263785283041045,16.55102803335852,0.011813724506322999,0.015135546421839131
344,0.25,0.001,0.013231982781043308,0.010243877305476237,16.745342675114216,0.011952421609646121,0.012746196240186691
345,0.25,0.001,0.013210296321583399,0.010254967344425074,16.561664284282063,0.011821316405626026,0.013751535262498591
346,0.25,0.001,0.013210993945095374,0.010215567271129052,16.78637093764085,0.011981706593605175,0.013154176943418052
347,0.25,0.001,0.013247856814379316,0.010279863632474563,16.63263386230755,0.011871972778235224,0.01469141948554251
348,0.25,0.001,0.01323778541342794,0.010265148884318,16.65865508074161,0.011890546096175311,0.016596468682918284
349,0.25,0.001,0.013286084670566484,0.010266066133962004,16.92418333200308,0.012080073755890848,0.017306392598483298
350,0.25,0.001,0.013210992680034315,0.010272582355138844,16.466851178969048,0.011753641098478977,0.01370232624726163
351,0.25,0.001,0.013233201875304192,0.010287035184984025,16.51031840540902,0.011784666956037844,0.017262991310821638
352,0.25,0.001,0.013287726492668182,0.010260439238477827,16.964918183117376,0.01210914930986251,0.01715092598978016
353,0.25,0.001,0.013206064645166021,0.010241220540962903,16.614986165603153,0.01185937627808933,0.013196387121246921
354,0.25,0.001,0.01318082040416926,0.010259527445720128,16.370925871113677,0.011685171927989776,0.011327085292173756
355,0.25,0.001,0.01323261833269198,0.010278639081327375,16.554100254910523,0.011815917383947553,0.010471376331730021
356,0.25,0.001,0.01322707943408619,0.010238117917561396,16.75014089330276,0.011955846462029093,0.012803043031858074
357,0.25,0.001,0.01322671318143662,0.010176408904871955,17.09390518947122,0.012201217123105795,0.0151338505351709
358,0.25,0.001,0.013212179841987411,0.010347918881624098,16.051319838017506,0.011457044852260888,0.013840981034768952
359,0.25,0.001,0.013262029494356372,0.010224452413492758,17.022582875407437,0.012150308976022439,0.013367536270784007
360,0.25,0.001,0.013179295521585959,0.010211834738181299,16.629651236042072,0.011869843851564648,0.013589315530326631
361,0.25,0.001,0.013203144898222267,0.010201182247857663,16.822998200751154,0.012007850250357712,0.011838912446465757
362,0.25,0.001,0.01321079606787908,0.010270942944341372,16.474936336782143,0.011759412089066484,0.01209705240196652
363,0.25,0.001,0.013185654162284245,0.01012998566688449,17.123966200937698,0.012222673947849892,0.013192497504254183
364,0.25,0.001,0.013148796590880314,0.010248108854339114,16.25545399542374,0.011602750888953418,0.012953851372003555
365,0.25,0.001,0.013257253598806223,0.010302751765395978,16.557029158715682,0.011818007964822044,0.021581267938017845
366,0.25,0.001,0.013282783359191318,0.010310453532253152,16.656935511118476,0.011889318708864009,0.02023743253408207
367,0.25,0.001,0.013252743418497954,0.010272399415777504,16.701847974623345,0.011921376141772551,0.015477108355197642
368,0.25,0.001,0.013256208326380987,0.010289971127854503,16.62279299723498,0.01186494860616344,0.017408033418986533
369,0.25,0.001,0.013205743480410852,0.010157887811648466,17.080182812674632,0.012191422421609302,0.010461518592718575
370,0.25,0.001,0.013080360250823606,0.01013841467785455,16.486664358715178,0.01176778326817643,0.01242282422673371
371,0.25,0.001,0.013118231440169168,0.010110614837040708,16.85468345198354,0.012030466418260914,0.01201880102356275
372,0.25,0.001,0.013159645628708277,0.010189819285964094,16.64290648598161,0.011879305129180307,0.009984175519396862
373,0.25,0.001,0.013192465011638503,0.010175592204866893,16.906555172202737,0.012067491200715728,0.01148465731077724
374,0.25,0.001,0.0131449527692532,0.01011901171301364,16.957374225637928,0.012103764615016365,0.01211541559961107
375,0.25,0.001,0.01314823434113282,0.010193447629601378,16.558624260421094,0.011819146509936542,0.013762027439143922
376,0.25,0.001,0.013273293114010433,0.010295137792727848,16.689581962284855,0.011912620958090547,0.011699321886731518
377,0.25,0.001,0.013189038983415148,0.010169728358554012,16.92021743531075,0.012077242994511598,0.010766534807367457
378,0.25,0.001,0.013140981445546781,0.010172140281332925,16.637386021426202,0.011875364754765312,0.012539987555808492
379,0.25,0.001,0.013171630756017415,0.010181526905082963,16.756541339809853,0.011960414946331087,0.015342931625329785
380,0.25,0.001,0.013157997521489691,0.01020715781968038,16.536505772517277,0.011803358866893132,0.014686643508159451
381,0.25,0.001,0.013216325847211855,0.010164278746350173,17.103671816455492,0.012208188305821193,0.011600343303547965
382,0.25,0.001,0.013134291668127223,0.010214099433363938,16.364757842015592,0.011680769337627118,0.011575163393798802
383,0.25,0.001,0.013175957932313432,0.010146386517774433,16.977718156453147,0.012118285622022232,0.014265402220189571
384,0.25,0.001,0.013111160702891578,0.010147257058009309,16.60971652276073,0.011855614934161835,0.01253663624326388
385,0.25,0.001,0.013142306790957979,0.0101883072234816,16.55421352923252,0.011815998236425781,0.01578039148201545
386,0.25,0.001,0.013215632280981339,0.010218505751110935,16.795896623192764,0.011988505798139018,0.01641449870334731
387,0.25,0.001,0.013228314388787993,0.010233240792664086,16.78439191850444,0.011980294017490678,0.016861613736384444
388,0.25,0.001,0.013179694428187262,0.010193376560777593,16.73532560752883,0.011945271668471683,0.014022785238921642
389,0.25,0.001,0.013095407933695678,0.010047481376083663,17.0805809117616,0.012191706575133191,0.014147295771787563
390,0.25,0.001,0.013146118863746104,0.01014128904859579,16.83906631756008,0.012019319284482568,0.014973260358803801
391,0.25,0.001,0.013215422186490295,0.010174000822706584,17.044125454958117,0.012165685549577528,0.015971903792685933
392,0.25,0.001,0.013227128159904794,0.010314898046456963,16.320137746785864,0.011648920590139803,0.014365383527345128
393,0.25,0.001,0.01310216180288266,0.010139100617024957,16.604994118996455,0.011852244196285834,0.014482927612132497
394,0.25,0.001,0.013154708942849237,0.010163117436024641,16.764878943981866,0.011966366127039163,0.010246065755685171
395,0.25,0.001,0.013067644127901455,0.010078902006862199,16.748911326195465,0.01195496882669198,0.011818154352820583
396,0.25,0.001,0.013102559832328367,0.010144333096525123,16.57790347916995,0.011832907551156282,0.012175171222123835
397,0.25,0.001,0.013070878392787857,0.010101199448877494,16.642081514755734,0.011878716284622223,0.012146272075672945
398,0.25,0.001,0.013070894179841256,0.010108169608558992,16.603108035690564,0.011850897955525028,0.01284889711274041
399,0.25,0.001,0.013149959954309084,0.010138682142165656,16.875201312954385,0.012045111572415692,0.01596880600684219
400,0.25,0.001,0.013116884546784254,0.010139438414537325,16.68560969225685,0.011909785647578051,0.011744720964796014
401,0.25,0.001,0.013155560549103967,0.010112736292015657,17.0519873885679,0.012171297208114131,0.013726061003075706
402,0.25,0.001,0.01312190703488537,0.010094893664666793,16.963382654744734,0.0121080532867557,0.011235492924849192
403,0.25,0.001,0.013023406377247417,0.010074034191695991,16.52828093809661,0.011797488178512927,0.013147952552470896
404,0.25,0.001,0.013072676451677565,0.01006007334042697,16.882628025749163,0.012050412580834521,0.010240994186864959
405,0.25,0.001,0.013113974929065575,0.010107548011023041,16.848016749627146,0.012025707886957277,0.011702070530090068
406,0.25,0.001,0.013115532444632746,0.010174044346747882,16.484098770828677,0.011765952013439456,0.01370634925034311
407,0.25,0.001,0.013074229965877577,0.010146984292323549,16.40428428578332,0.01170898235958838,0.013731227152877383
408,0.25,0.001,0.013102532098835114,0.010087135632297,16.898282866987905,0.012061586628827912,0.013984092511236668
409,0.25,0.001,0.013101722468494474,0.010233070266277549,16.07592694352313,0.011474608810509015,0.013594433147874143
410,0.25,0.001,0.0130723820192002,0.010039005252073116,16.999044761872426,0.012133508038452838,0.013036187013818158
411,0.25,0.001,0.013050615350675627,0.010104174881222994,16.511852468379665,0.011785761933176063,0.01227828280793296
412,0.25,0.001,0.013067532416370192,0.010065681827001231,16.822370629373232,0.012007402305048702,0.012577311808450354
413,0.25,0.001,0.013022719216699001,0.010055106582284309,16.63050112625895,0.011870450482697322,0.012134266499843862
414,0.25,0.001,0.013029925369676797,0.010109896388946287,16.363842187634553,0.011680115765620665,0.012193679292168882
415,0.25,0.001,0.013046026083083358,0.010087362766671248,16.580349945440524,0.01183465377975769,0.01080360429154502
416,0.25,0.001,0.013041423962191167,0.010056881485664151,16.725375918017992,0.011938169820141321,0.011064392721487416
417,0.25,0.001,0.013076982025832889,0.010084475942766801,16.77000429393203,0.01197002447818132,0.01085087222357591
418,0.25,0.001,0.012978829225039505,0.010089366078223005,16.192551943866665,0.011557852922103259,0.011618594225082133
419,0.25,0.001,0.013114410824724254,0.010083420429287887,16.985669828490067,0.012123961333683132,0.013077645562589169
420,0.25,0.001,0.013130330978621908,0.010105839338132633,16.949251253654094,0.012097966633586078,0.015306755589942137
421,0.25,0.001,0.013121479101772604,0.010123685958112047,16.79963226747781,0.011991172210904934,0.016082476928002305
422,0.25,0.001,0.013124584456238245,0.01010856394067155,16.9017788491598,0.012064081976559457,0.016132705741458468
423,0.25,0.001,0.01296108375752509,0.00997386624823424,16.74036768542893,0.011948870582033496,0.010303809721436765
424,0.25,0.001,0.013043597875264304,0.010023443009110263,16.924948150176714,0.012080619664651474,0.01226413550062312
425,0.25,0.001,0.01304242941315022,0.010088281763637155,16.555044539202893,0.011816591391293998,0.011527178291645315
426,0.25,0.001,0.013069771775385229,0.010035290800412421,17.00523173384103,0.012137924149779464,0.013574711254073514
427,0.25,0.001,0.013064992762612804,0.010140711502792351,16.38767238495274,0.011697125185547995,0.013065629742211766
428,0.25,0.001,0.013100915116661596,0.010081636401393064,16.920037783109226,0.012077114763104373,0.012253355441821946
429,0.25,0.001,0.013150970285538214,0.01005161001817035,17.368814296615056,0.012397440611431162,0.011127760219905112
430,0.25,0.001,0.01308134059800887,0.010118143323732027,16.605756872366786,0.011852788631239676,0.010589754208922386
431,0.25,0.001,0.013054039509264545,0.010110944353994577,16.493104437278763,0.0117723800408842,0.01060713061855899
432,0.25,0.001,0.013022241168646718,0.010055456960514384,16.625858535909742,0.011867136713711451,0.011251044149200121
433,0.25,0.001,0.0130771358775265,0.010159774935030244,16.348891732393017,0.011669444491358328,0.012265682065238556
434,0.25,0.001,0.013097148797497517,0.010048659670378097,17.083733581915133,0.012193956875028646,0.015571321878168318
435,0.25,0.001,0.013043440420592927,0.010067477268402729,16.67729825239915,0.011903853142326302,0.011445934987730451
436,0.25,0.001,0.013166764310751578,0.010160559666033757,16.846771333275772,0.012024818938812114,0.014153888966474269
437,0.25,0.001,0.013118024782660307,0.010106334731849452,16.877510797239378,0.01204676002658057,0.013315821376939615
438,0.25,0.001,0.0131197281174823,0.010138472992975761,16.706953864607534,0.011925020602860482,0.015042781208952269
439,0.25,0.001,0.013127947026972028,0.010088059879965227,17.035527882388116,0.01215954880969887,0.012935199464360872
440,0.25,0.001,0.013007967926799468,0.010030044609677278,16.68828239226207,0.011911693356361221,0.011877212466465102
441,0.25,0.001,0.013053931816573662,0.010016992120299398,17.019009892533465,0.012147758667047441,0.011837378713405795
442,0.25,0.001,0.013063335029397851,0.010099497913797063,16.609343734512187,0.011855348846903774,0.01369023323059082
443,0.25,0.001,0.013108847122884043,0.010059570533696974,17.088146921841332,0.012197107010593384,0.012271299233867062
444,0.25,0.001,0.013174545442716937,0.010134764204385357,17.034936371708454,0.012159126603646292,0.01238598840104209
445,0.25,0.001,0.013045662930182847,0.010125589757934072,16.36409112883777,0.01168029345384566,0.010899974705858363
446,0.25,0.001,0.012998064733538463,0.009933586213143638,17.17333796502949,0.012257914321933967,0.012907155685954623
447,0.25,0.001,0.013032441100850002,0.01005057748372179,16.71036355625174,0.011927454358495173,0.015120365656912327
448,0.25,0.001,0.013017251944312682,0.010125017464580277,16.208082490745674,0.011568938251781352,0.011044379841122363
449,0.25,0.001,0.013056365610580843,0.010000770479985854,17.1235552317206,0.012222380607937617,0.01165577531274822
450,0.25,0.001,0.013029573069392628,0.010028969968265486,16.815378967413984,0.012002411825420403,0.013732311936716238
451,0.25,0.001,0.012982849985724541,0.009986767760263039,16.790045375000915,0.011984329318344693,0.01045032978678743
452,0.25,0.001,0.013113567801314716,0.01013488805980385,16.692521637420942,0.011914719227281186,0.01324381586164236
453,0.25,0.001,0.013019211688140096,0.010094067233826049,16.392509374564852,0.011700577712037724,0.011624262357751528
454,0.25,0.001,0.013064989000628746,0.01006668520738383,16.80249318665009,0.011993214265988643,0.015027723275125027
455,0.25,0.001,0.013011204015889937,0.010010514630259872,16.81586336418567,0.012002757576149657,0.013244932413929038
456,0.25,0.001,0.013063226382669208,0.010061536494495722,16.821469831198286,0.012006759337043744,0.012419608525103994
457,0.25,0.001,0.01301646743347173,0.01000363501679942,16.883912689466637,0.012051329542802738,0.010897071359472143
458,0.25,0.001,0.013016950562736107,0.009999153342300686,16.91173548099024,0.012071188780150066,0.012121413523952166
459,0.25,0.001,0.013017823482823416,0.010016190108282258,16.821154216888026,0.012006534059163474,0.012055404173831144
460,0.25,0.001,0.013031714221927395,0.00999391392243792,17.02383291877904,0.012151201226823012,0.01046886295080185
461,0.25,0.001,0.012968437281379556,0.009949681997355108,16.917105400987236,0.012075021699491246,0.011032434490819773
462,0.25,0.001,0.012974683249519533,0.010015686329167623,16.582218803563215,0.011835987725598298,0.011567114231487116
463,0.25,0.001,0.012956434874804114,0.0099923656886447,16.610643000361172,0.01185627623152118,0.010760021395981312
464,0.25,0.001,0.013082453241924743,0.010074149258085308,16.858535118890302,0.01203321564517509,0.011687661935057905
465,0.25,0.001,0.013057567027186029,0.010027007121194371,16.983258868247887,0.012122240448428185,0.012839838862419128
466,0.25,0.001,0.013002371057294883,0.009986772032465095,16.899417258114127,0.012062396329845916,0.013075862286819352
467,0.25,0.001,0.012981116093737099,0.01004602885010039,16.448229045402712,0.01174034906880993,0.014647325707806481
468,0.25,0.001,0.01303301113841122,0.009919242645084411,17.449559879124052,0.012455074860188474,0.013490774461792575
469,0.25,0.001,0.013007204916754538,0.010039091791685035,16.63330596651861,0.011872452510006145,0.01606650309016307
470,0.25,0.001,0.012989115315938533,0.009986173808854248,16.828485184717806,0.012011766727136193,0.01575753175550037
471,0.25,0.001,0.013067765418251392,0.010095586210461315,16.65609257753526,0.011888717043208609,0.0165335007218851
472,0.25,0.001,0.012957656291255807,0.009966988467714464,16.75970205267643,0.011962670986921078,0.011999562382698059
473,0.25,0.001,0.013021882712547483,0.009901146554714855,17.4886059036398,0.012482944970478088,0.011104148398670886
474,0.25,0.001,0.012912766378911082,0.009987971305106303,16.39055167622235,0.011699180354191542,0.013723112539284758
475,0.25,0.001,0.013000158949512255,0.010092653601481028,16.29365976845346,0.011630021248003896,0.010532048841317495
476,0.25,0.001,0.012906108614176121,0.009895138646952989,16.873475504189898,0.012043879731755816,0.010957647063251998
477,0.25,0.001,0.012919408471915892,0.009973368083264881,16.509610657396728,0.011784161782581532,0.014196537331574492
478,0.25,0.001,0.012967658562910713,0.01002674906970636,16.480857401806688,0.011763638402431612,0.011629909483922852
479,0.25,0.001,0.01291239388133303,0.009923687954319686,16.74870820966939,0.01195482384701598,0.011907812000976669
480,0.25,0.001,0.012919351517958444,0.009896884834844667,16.93790264737986,0.012089866272219744,0.011366863528059589
481,0.25,0.001,0.012970558009468593,0.00995816562436591,16.881447070982396,0.012049569643813273,0.017750810210903484
482,0.25,0.001,0.013034007548726745,0.010075418898874219,16.57993085478305,0.01183435464295721,0.016714865238302283
483,0.25,0.001,0.012893185468554832,0.009933057333749856,16.588559043340343,0.011840513235788967,0.012707359260982938
484,0.25,0.001,0.013082025156794972,0.010095527865635633,16.73633235122652,0.011945990257834774,0.016159413382411003
485,0.25,0.001,0.01299148033710291,0.009948078977157262,17.05522077750086,0.012173605123126952,0.012872287693123022
486,0.25,0.001,0.012937820554967781,0.00992290052195651,16.895610934574204,0.01205967946793305,0.012407965440717008
487,0.25,0.001,0.012997017572258247,0.009936827565167679,17.149304577825664,0.012240759869968353,0.011420709184474416
488,0.25,0.001,0.012945819908218357,0.009897296851602214,17.083924223737018,0.012194092950561754,0.011419614880449243
489,0.25,0.001,0.01302930692256224,0.010050150088784172,16.69519523921201,0.011916627579737337,0.014598703839712672
490,0.25,0.001,0.012953234923825255,0.009931153133791115,16.93574668139946,0.01208832739571696,0.014129028655588627
491,0.25,0.001,0.012939331368115113,0.009982297918628237,16.571215191209518,0.01182813361256925,0.011683026535643471
492,0.25,0.001,0.012907638509825962,0.009925152477415149,16.713852497694862,0.011929944680724384,0.013134732221563658
493,0.25,0.001,0.012967454456491832,0.0099858128628213,16.709119471108043,0.011926566360533936,0.01158074134339889
494,0.25,0.001,0.012998060426389969,0.009988649978912235,16.864736506907622,0.012037642046329495,0.013637855648994446
495,0.25,0.001,0.01299291097787934,0.010022184393922563,16.64795185969426,0.011882906395213604,0.013171606179740693
496,0.25,0.001,0.012955853180858476,0.009948498368486903,16.853216693727877,0.01202941948160448,0.013185430007676283
497,0.25,0.001,0.013037132439998591,0.010019800015926138,16.909130994642876,0.012069329760630175,0.019189381764994726
498,0.25,0.001,0.012997158394172424,0.0099703755411433,16.962091878923196,0.012107131962115058,0.019010114897456434
499,0.25,0.001,0.013029188532766661,0.009969014066357102,17.149218385707147,0.012240698348113595,0.021038196256591216
500,0.25,0.001,0.013012375589984332,0.010089471350873054,16.379955882203063,0.011691617332050723,0.01729808934032917
