epoch,beta,learning_rate,train_loss,train_reconstruction_loss,train_kl_unnormalized,train_kl_normalized,mean_unclipped_gradient_norm
1,0.0,0.001,0.09486616835478813,0.09486616835478813,1.0065344072157336,0.0007184399765993816,0.13118592649698257
2,0.02,0.001,0.08984830542918175,0.08971346962836481,9.445278906053112,0.0067418122098880165,0.10939956083893776
3,0.04,0.001,0.08559078987567656,0.08481116664986457,27.306271091584236,0.019490557524328506,0.10209809616208076
4,0.06,0.001,0.08085473530715512,0.07835699041043559,58.32233428955078,0.041629075153141175,0.1076752208173275
5,0.08,0.001,0.0743859770797914,0.06819304944046083,108.45370311121786,0.07741163676746457,0.1244824007153511
6,0.1,0.001,0.06849499743792319,0.056827180568248994,163.46610826061618,0.11667816435447265,0.12045988440513611
7,0.12,0.001,0.06390657756597765,0.04955898778092477,167.5081280123803,0.11956326053703091,0.11198373883962631
8,0.14,0.001,0.05836619905406429,0.046127863709003694,122.47077302009829,0.08741668309785745,0.10254177823662758
9,0.16,0.001,0.05215652106750396,0.04397813531179582,71.61199052872196,0.05111491115540468,0.07997026294469833
10,0.18,0.001,0.04809008262330486,0.04321605495868191,37.93618522151824,0.027077933776958055,0.08980266377329826
11,0.2,0.001,0.044982263157444614,0.040960448163170966,28.172809231665827,0.020109071542944917,0.09105556458234787
12,0.22,0.001,0.04193184921337712,0.037090227007865906,30.832328181112967,0.022007372006504617,0.04170045256614685
13,0.24,0.001,0.04109126377490259,0.03566807220059057,31.657887366510206,0.02259663623591021,0.05100610479712486
14,0.25,0.001,0.0404336042702198,0.03557420365752712,27.23207664489746,0.01943759931827085,0.04694658890366554
15,0.25,0.001,0.03947755189672593,0.035390770603572166,22.90232443040417,0.016347126645541877,0.05141402408480644
16,0.25,0.001,0.03876305095130397,0.035110839312115026,20.466988840410785,0.014608842855396705,0.03833734057843685
17,0.25,0.001,0.03807884406658911,0.03481323079716775,18.300492748137444,0.013062450212803315,0.028811907395720482
18,0.25,0.001,0.03704624635077292,0.03427482744859111,15.531035700151998,0.011085678586832261,0.017163997516036034
19,0.25,0.001,0.037049384126740116,0.0348301094866568,12.436807263282038,0.008877092978788036,0.016897049266844988
20,0.25,0.001,0.03619204725949995,0.034298662817285906,10.610524116023894,0.007573536128496713,0.013997792731970549
21,0.25,0.001,0.036224602931930173,0.03447360461277346,9.812595582777455,0.007003993991989618,0.030096231028437614
22,0.25,0.001,0.036050446692012975,0.03441022672960835,9.191793995518838,0.006560880796230434,0.026798428036272526
23,0.25,0.001,0.03556292071457832,0.033827367809511,9.726038748218167,0.006942211811718892,0.02153716515749693
24,0.25,0.001,0.0350378092017866,0.03302903665650275,11.257162401753087,0.008035090936297706,0.02601373242214322
25,0.25,0.001,0.034590268207173196,0.03245144770030053,11.985949577823762,0.008555281640131165,0.014048657845705748
26,0.0,0.001,0.032194438120049816,0.032194438120049816,12.608808486692366,0.008999863302421389,0.04837431851774454
27,0.02,0.001,0.03121938027681843,0.030989416364219882,16.10888825693438,0.011498135800809694,0.045236727222800255
28,0.04,0.001,0.030390933696781437,0.02984484050783419,19.12693171347341,0.013652342407903934,0.01982350554317236
29,0.06,0.001,0.02944731195607493,0.02846613694583216,22.910443582842426,0.01635292190067268,0.036789173260331154
30,0.08,0.001,0.028783766913317865,0.02714730306498466,28.65857813435216,0.020455801666204254,0.025975805707275867
31,0.1,0.001,0.02830726298834047,0.025881589840977423,33.983687123944684,0.024256735991395207,0.05062422901391983
32,0.12,0.001,0.02764407965925432,0.024625943793404485,35.236729898760395,0.025151127693619126,0.04475953243672848
33,0.14,0.001,0.027465208884208434,0.023829203339353684,36.3860228753859,0.025971465292923553,0.06060554273426533
34,0.16,0.001,0.02677522257210747,0.022772884957732692,35.045469960858746,0.02501461096421038,0.03784854710102081
35,0.18,0.001,0.02664816758084682,0.022391243627475153,33.1330568867345,0.023649576650060313,0.038185376673936844
36,0.2,0.001,0.02624485870042155,0.021735905339160273,31.585216952908425,0.022544765847900376,0.043228539638221264
37,0.22,0.001,0.0259440302127792,0.021415905125679507,28.83592777867471,0.020582389563650754,0.01602979004383087
38,0.24,0.001,0.025769406809441505,0.021231590139289058,26.489507982807776,0.01890757172220398,0.02615649439394474
39,0.25,0.001,0.025559185853888913,0.021077552449799353,25.11507292716734,0.017926533138591962,0.03431299701333046
40,0.25,0.001,0.02500650731305922,0.020658151817417914,24.368188365813225,0.01739342495775391,0.04556955536827445
41,0.25,0.001,0.024773430559904344,0.020637382422724077,23.178413883332283,0.01654419263621148,0.06547442730516195
42,0.25,0.001,0.024250015556331602,0.020090579746230956,23.309479928785755,0.016637744417405963,0.052232773043215275
43,0.25,0.001,0.024508965652315848,0.020465954597438534,22.65703515083559,0.01617204507554289,0.02859219443053007
44,0.25,0.001,0.024035085172903155,0.02024269368379347,21.2525639687815,0.015169567429537118,0.06879870779812336
45,0.25,0.001,0.023834521491681377,0.020040396901388324,21.26227508052703,0.01517649898681444,0.05696913041174412
46,0.25,0.001,0.023416759506348642,0.019760792233770894,20.488037970758253,0.014623867216815313,0.01707065524533391
47,0.25,0.001,0.023583366926158627,0.020037612427146204,19.870406120054184,0.01418301650253689,0.05627329275012016
48,0.25,0.001,0.02303488047853593,0.01929015461956301,20.985442376905873,0.01497890248173153,0.039677734952419996
49,0.25,0.001,0.02276946484081207,0.019079048667223222,20.68109155470325,0.014761664207496967,0.027795198373496532
50,0.25,0.001,0.022479227593829556,0.018954665009533207,19.751653055990896,0.014098253430400354,0.043490031734108925
51,0.0,0.001,0.019187900147611094,0.019187900147611094,20.18396112995763,0.014406824503895525,0.04046504199504852
52,0.02,0.001,0.018403342774798794,0.018067068510478543,23.556008431219286,0.016813710514788926,0.04897001013159752
53,0.04,0.001,0.018644231161282908,0.017855084471164212,27.63985615391885,0.01972866249387498,0.0163988652639091
54,0.06,0.001,0.018556329151315075,0.017161612669306416,32.566629963536414,0.023245274777684805,0.03907687962055206
55,0.08,0.001,0.018820623356488445,0.016684232519999627,37.41354776197864,0.02670488776729382,0.028183194808661938
56,0.1,0.001,0.019184713822699363,0.01631667179566237,40.18127158380324,0.02868042225824642,0.02606478612869978
57,0.12,0.001,0.019406957311495658,0.015907113079822833,40.86067593482233,0.029165364692949558,0.020581109449267387
58,0.14,0.001,0.019699399810164206,0.015771594499388048,39.30611050513483,0.028055753394100522,0.015277976170182228
59,0.16,0.001,0.019861359149217606,0.015717053004810886,36.28857975621377,0.0259019127453346,0.021492687053978443
60,0.18,0.001,0.019817061722278595,0.015729755944302006,31.8128667031565,0.022707256747435046,0.014988573268055916
61,0.2,0.001,0.019922005553399364,0.015918638797536973,28.043583039314516,0.02001683300450715,0.026883809361606836
62,0.22,0.001,0.02040853976242004,0.016336675132474592,25.930375068418442,0.018508476137343643,0.03903239406645298
63,0.24,0.001,0.02026242678684573,0.01608488973109953,24.386374873499715,0.017406406048179668,0.023205494042485952
64,0.25,0.001,0.020435920345687097,0.016401412506257335,22.609384905907415,0.01613803348030508,0.024124082177877426
65,0.25,0.001,0.02040874982072461,0.016659474721358668,21.01093642942367,0.014997099521358793,0.01259076502174139
66,0.25,0.001,0.020274933247316267,0.016588497426240675,20.658783266621253,0.014745741089665419,0.025035196915268898
67,0.25,0.001,0.019870512668163545,0.016097636052197026,21.143199305380545,0.015091505571292324,0.032537152990698814
68,0.25,0.001,0.019942014688445676,0.015964234608315652,22.29147775711552,0.015911119027205937,0.020601685158908367
69,0.25,0.001,0.01987012908343346,0.01585664503997372,22.491561889648438,0.016053934253853274,0.03200117498636246
70,0.25,0.001,0.02007781594030319,0.016190905304205035,21.782250312066846,0.015547644762360348,0.015939256642013788
71,0.25,0.001,0.019729963894332608,0.015897997805187778,21.474336501090757,0.015327863312698614,0.03313043527305126
72,0.25,0.001,0.01938395586705977,0.015631267440415198,21.030068858977288,0.015010755787992354,0.026029968168586493
73,0.25,0.001,0.01952040844386624,0.015935552396601247,20.089531252461096,0.01433942273551827,0.025708013214170933
74,0.25,0.001,0.018962045590723713,0.015388310796791507,20.02721454251197,0.01429494257138613,0.016377423889935017
75,0.25,0.001,0.019230627484859958,0.01565443952718089,20.04095938897902,0.014304753311191305,0.013519876636564732
76,0.0,0.001,0.015658918287484877,0.015658918287484877,20.32728927366195,0.014509128674990686,0.03598563093692064
77,0.02,0.001,0.015379400353037542,0.015044727693161657,23.44382599861391,0.01673363740086646,0.018865756690502167
78,0.04,0.001,0.015206991003886346,0.014404867865866231,28.0943598593435,0.02005307627362134,0.013271638192236423
79,0.06,0.001,0.015684588001139702,0.014249512955786721,33.50899074923608,0.023917909171474714,0.01838752906769514
80,0.08,0.001,0.01579923981860761,0.013621211202154237,38.14273268176663,0.027225362370996882,0.012951606884598732
81,0.1,0.001,0.01669578596709236,0.013764720560321885,41.064227073423325,0.0293106545848846,0.020273159723728895
82,0.12,0.001,0.01709264895368007,0.013449861878348936,42.529537447037235,0.03035655777804228,0.025279300287365913
83,0.14,0.001,0.017483538377188867,0.013381558170001353,41.049103029312626,0.029299859407075392,0.026942542754113674
84,0.16,0.001,0.017777470811720816,0.01346176556281505,37.78939031785534,0.026973155116242216,0.022459402214735746
85,0.18,0.001,0.018159460156194625,0.013824611691938292,33.73956901796402,0.02408249037684798,0.028199453838169575
86,0.2,0.001,0.018072361787480694,0.014065281698299993,28.069597613426946,0.020035401579890755,0.04421257972717285
87,0.22,0.001,0.018732439906847094,0.014835519836314263,24.81629507003292,0.01771327271237182,0.019235326442867517
88,0.24,0.001,0.018587380767829956,0.014580223228662245,23.391783560475996,0.01669649076407994,0.01817783759906888
89,0.25,0.001,0.018717905085894368,0.01466683514656559,22.702193167901807,0.01620427777865939,0.013503107242286205
90,0.25,0.001,0.018426852961701733,0.014451086040466063,22.28020280407321,0.01590307123773962,0.021060672588646412
91,0.25,0.001,0.01881296608236528,0.014865936861643869,22.119150961599043,0.015788116318057845,0.019162944983690977
92,0.25,0.001,0.018345929081401518,0.014475959263020945,21.68731172623173,0.015479879890243919,0.012026823591440916
93,0.25,0.001,0.018381385012499748,0.014588407751533293,21.255847746326076,0.01517191131072525,0.01910017430782318
94,0.25,0.001,0.01857127645804036,0.014779561589802466,21.248770006241337,0.015166859390607664,0.01231393963098526
95,0.25,0.001,0.018407389341342832,0.014520688342951959,21.781069847845263,0.015546802175478417,0.030486910603940487
96,0.25,0.001,0.018143809130114895,0.014310409765570395,21.48237572946856,0.015333601519963285,0.020738836377859116
97,0.25,0.001,0.017950266419399168,0.014213633573343676,20.940091902209865,0.014946532407002045,0.022023575380444527
98,0.25,0.001,0.01837091532445723,0.01479399835150088,20.04503914617723,0.0143076653434527,0.02797230426222086
99,0.25,0.001,0.018312338078694958,0.01489951716916215,19.125448965257213,0.013651284057999438,0.035450078547000885
100,0.25,0.001,0.01847746487586729,0.015024204227712846,19.352073177214592,0.013813042953043963,0.03833230584859848
101,0.25,0.001,0.018425780318437085,0.014890077553929822,19.814076515936083,0.014142809790104271,0.034547748044133186
102,0.25,0.001,0.01834297306354969,0.014661420857714068,20.63141595163653,0.014726206960482892,0.03148812800645828
103,0.25,0.001,0.018051631207908352,0.014149526885199932,21.867388571462325,0.015608414397903158,0.026403936790302396
104,0.25,0.001,0.017953659918519757,0.01400543578089245,22.12584489391696,0.015792894285451078,0.027584402356296778
105,0.25,0.001,0.017886729189945806,0.014069400817876863,21.392311157718783,0.015269315601512337,0.018468348775058985
106,0.25,0.001,0.017977936914370905,0.014275143313552103,20.75045364133773,0.014811173191532998,0.025012893602252007
107,0.25,0.001,0.017950682630462032,0.014255652384411904,20.706954094671435,0.014780124264576328,0.038091630674898624
108,0.25,0.001,0.018029266187260227,0.014347637222418863,20.6318483660298,0.01472651560744454,0.01589537411928177
109,0.25,0.001,0.017776511188956998,0.013965127959607108,21.358991807506932,0.015245533053181251,0.02566911280155182
110,0.25,0.001,0.017783245973048672,0.01392584152880215,21.616893768310547,0.015429617250756993,0.022549236193299294
111,0.25,0.001,0.01770159193584996,0.013962447372896055,20.954165427915513,0.014956577750118138,0.02224135771393776
112,0.25,0.001,0.017485039008240544,0.013896721986032302,20.108932249007687,0.014353270698792067,0.02692546136677265
113,0.25,0.001,0.01756017222519844,0.014078539015064317,19.511071358957597,0.013926532019241683,0.009584104176610708
114,0.25,0.001,0.017710141597255584,0.014245681164245452,19.414834237867787,0.013857840283988428,0.03048047609627247
115,0.25,0.001,0.017753614653502742,0.014146132785226069,20.21632815945533,0.01442992730867618,0.01617829827591777
116,0.25,0.001,0.017675247884565783,0.013879435136914253,21.27173657571116,0.01518325237381239,0.01848908979445696
117,0.25,0.001,0.017705450916001873,0.01384238631374413,21.64861568327873,0.015452259588350272,0.01037428854033351
118,0.25,0.001,0.017682016436611454,0.01385393324157884,21.452578944544637,0.015312333293750632,0.03797626309096813
119,0.25,0.001,0.01762697479176906,0.01391631725334352,20.79452674619613,0.014842631510489743,0.028097284492105246
120,0.25,0.001,0.01786172732470497,0.014231067931940478,20.346215340398974,0.014522637644824393,0.03235791716724634
121,0.25,0.001,0.01727718667637917,0.013623675301430686,20.474279219104396,0.014614046551823266,0.02218147087842226
122,0.25,0.001,0.017318311598031752,0.013689362203642245,20.336637189311364,0.014515800991656934,0.0264287069439888
123,0.25,0.001,0.01723317615687847,0.013591557500823852,20.407631412629158,0.014566474955481197,0.025996786542236805
124,0.25,0.001,0.017208308582344362,0.013520315710094667,20.667514862552768,0.01475197349218613,0.01871377509087324
125,0.25,0.001,0.017278772568510424,0.013613661751151085,20.539277292067005,0.014660440608184873,0.01886023674160242
126,0.25,0.001,0.01712538662456697,0.013519873181658407,20.205293839977635,0.014422051277642851,0.015496542211622
127,0.25,0.001,0.01731729321181774,0.013835661654030123,19.511063544980942,0.013926526441813664,0.0293482206761837
128,0.25,0.001,0.0173910919336542,0.01392430839158835,19.427854537963867,0.013867133860074137,0.011784209869801998
129,0.25,0.001,0.017258542259373972,0.013712975196540356,19.869360954530777,0.014182270488601554,0.015361189842224121
130,0.25,0.001,0.017126262848896366,0.013508522162033666,20.273820015691943,0.014470963608630937,0.013020469574257731
131,0.25,0.001,0.017262916651464278,0.013597090698538287,20.543290353590443,0.014663305034682685,0.007582601625472307
132,0.25,0.001,0.017129221450417273,0.01342459617843551,20.760718930152155,0.014818500307032231,0.009632118977606297
133,0.25,0.001,0.01702594276397459,0.013278230664230162,21.002173331476026,0.014990844633458976,0.010585876880213618
134,0.25,0.001,0.017105309713271358,0.013371890500908899,20.922077978810957,0.014933674503077057,0.011503295507282019
135,0.25,0.001,0.017232781456362818,0.013499789961403417,20.91968302572927,0.014931965043347088,0.011610303539782763
136,0.25,0.001,0.016788360392374378,0.013111268891201865,20.606423716391287,0.014708368105918121,0.015972057823091745
137,0.25,0.001,0.01719878019104081,0.013636659530382003,19.962127562492125,0.014248485055312008,0.018544123508036137
138,0.25,0.001,0.01695156499983803,0.013391620449481471,19.949928652855657,0.014239777767919813,0.01703882124274969
139,0.25,0.001,0.016934643529595866,0.013321624528015814,20.247360660183816,0.014452077559017713,0.010857529006898403
140,0.25,0.001,0.016734318687550483,0.01305479379070382,20.62005836732926,0.014718100190813177,0.019845965784043074
141,0.25,0.001,0.016864162539282152,0.013268015437549161,20.152807358772524,0.014384587693627783,0.013539483305066824
142,0.25,0.001,0.01665201687043713,0.013140293198727792,19.6796994363108,0.014046894672598714,0.02004239335656166
143,0.25,0.001,0.017083694016741167,0.01363034606460602,19.352565703853482,0.013813394506676291,0.022829986177384853
144,0.25,0.001,0.01667851179597839,0.013090962303742286,20.10462724008868,0.014350197887286708,0.026914259418845177
145,0.25,0.001,0.01647795051816971,0.012866108317769343,20.24076400264617,0.014447369024015824,0.010284129064530134
146,0.25,0.001,0.0165329267901759,0.012941367083018827,20.127103620959865,0.014366240985695835,0.01729565393179655
147,0.25,0.001,0.016754851946907658,0.013254718855023384,19.61474677055113,0.01400053302680309,0.019540128763765097
148,0.25,0.001,0.016368944137807814,0.012908472198872797,19.392487064484627,0.013841889410767043,0.019660654943436384
149,0.25,0.001,0.016489834674904422,0.013046895784716453,19.294231230212795,0.013771756766747177,0.020444429479539394
150,0.25,0.001,0.016623591463412007,0.013126522542968873,19.597572203605406,0.013988274235264386,0.01987243676558137
151,0.25,0.001,0.016511097129794858,0.012881991723852773,20.337506448068925,0.01451642144758667,0.015354664530605078
152,0.25,0.001,0.016531717032194138,0.012788405882254723,20.977517343336537,0.014973245783966123,0.008184518897905946
153,0.25,0.001,0.01672396886973612,0.013005060774664725,20.840763399677893,0.014875634118256884,0.013016022741794586
154,0.25,0.001,0.016530497119792046,0.012914637103676796,20.263279699510143,0.014463440185232079,0.023968463763594627
155,0.25,0.001,0.016426077713408777,0.012964110731357528,19.400862909132435,0.013847867886604165,0.02845685975626111
156,0.25,0.001,0.016378281878367547,0.01301520606202464,18.846676180439612,0.013452302769764177,0.01630134182050824
157,0.25,0.001,0.01654213630864697,0.0131051292823207,19.26098528215962,0.01374802661110608,0.018469889648258686
158,0.25,0.001,0.016569213641266668,0.012895623101822792,20.586802697950795,0.014694363096324622,0.0215598838403821
159,0.25,0.001,0.016429554971475756,0.01265429359890761,21.156565881544545,0.015101046310881189,0.011383124627172947
160,0.25,0.001,0.01662830149214114,0.01296920608729124,20.50556779676868,0.014636379583703556,0.0300816111266613
161,0.25,0.001,0.01627503509723371,0.012821781929702528,19.352031154017293,0.013813012957899566,0.022723262198269367
162,0.25,0.001,0.016590306355107214,0.01325722501402901,18.678589974680254,0.01333232689127784,0.028756311163306236
163,0.25,0.001,0.016457228170287226,0.01310659272055472,18.776960865143806,0.013402541659631553,0.021844258531928062
164,0.25,0.001,0.01649424115255956,0.013002982182848838,19.56501646964781,0.013965036737792869,0.030098396353423595
165,0.25,0.001,0.016297168368774075,0.012604080561187959,20.6960638107792,0.014772351042668951,0.010488363448530436
166,0.25,0.001,0.016197415429257577,0.012386963943079594,21.35377336317493,0.015241808253515296,0.02696935459971428
167,0.25,0.001,0.016373274307097157,0.012688777529664578,20.64792042393838,0.014737987454631249,0.015802092384546995
168,0.25,0.001,0.016354240477085114,0.012852896936237812,19.62152954839891,0.014005374409992085,0.023637802340090275
169,0.25,0.001,0.016224934148692315,0.012857097711774611,18.873353158274004,0.013471344152943614,0.026690755039453506
170,0.25,0.001,0.01645234407436463,0.013093845678433295,18.821025171587543,0.013433993698492179,0.03170180134475231
171,0.25,0.001,0.015935187528450644,0.012388978604107134,19.872952615061113,0.014184834129237054,0.028936898335814476
172,0.25,0.001,0.016056859204846043,0.012390118693151781,20.54841515325731,0.014666962993045903,0.01848194794729352
173,0.25,0.001,0.015761753033486106,0.01210439833061349,20.495816876811364,0.014629419612285057,0.020613644272089005
174,0.25,0.001,0.01611197157011878,0.012583496199259836,19.773579074490456,0.01411390369342645,0.021338877268135548
175,0.25,0.001,0.016494764856273127,0.012989447722511907,19.643797351467995,0.014021268630598141,0.02122692111879587
176,0.25,0.001,0.01598024085885094,0.012446005047569353,19.805855904856035,0.01413694211624271,0.012239651288837194
177,0.25,0.001,0.015843894512903307,0.012298108769520637,19.870583872641287,0.014183143378045172,0.00779887824319303
178,0.25,0.001,0.01590520149517444,0.012418724806799043,19.538214529714278,0.013945906159681854,0.021092341281473637
179,0.25,0.001,0.015830135633868557,0.01239817207979579,19.232723789830363,0.01372785423970761,0.00922511937096715
180,0.25,0.001,0.016164587329952948,0.012717916780421811,19.31514580019059,0.013786685082220263,0.020889490842819214
181,0.25,0.001,0.0157365508738064,0.01219730902343027,19.833907711890436,0.0141569648193365,0.009110728744417429
182,0.25,0.001,0.015700818880671454,0.01212302583359903,20.04995315305648,0.014311172843009623,0.010215317364782095
183,0.25,0.001,0.015775392132420695,0.012309606487472211,19.42226440675797,0.013863143759284777,0.012019028654322028
184,0.25,0.001,0.01595210920899145,0.012586337003496385,18.861791180026145,0.01346309149181024,0.017413557041436434
185,0.25,0.001,0.0161404860235991,0.01285114211420859,18.433486507784934,0.01315737794988218,0.016419810242950916
186,0.25,0.001,0.015705535729085247,0.012356188598900072,18.769737489761845,0.013397385788552351,0.014930527191609144
187,0.25,0.001,0.015477490190777087,0.011948847962963966,19.774510845061272,0.014114568768780351,0.009053683839738369
188,0.25,0.001,0.015905172113449342,0.012281704964416643,20.30590961825463,0.01449386839275848,0.020267981104552746
189,0.25,0.001,0.015578468300161822,0.011968693605834437,20.229176613592333,0.014439098225262193,0.014342794194817543
190,0.25,0.001,0.015817904123856176,0.012341934496596936,19.479333077707597,0.01390387799979129,0.008336283033713698
191,0.25,0.001,0.01582643648068751,0.01244510926546589,18.948958550730058,0.013525309458051433,0.016077266074717045
192,0.25,0.001,0.015595320612192154,0.012186064715346983,19.105470657348633,0.01363702402380345,0.009923851117491722
193,0.25,0.001,0.015685989791827816,0.012213757111420554,19.45839112804782,0.013888930141361755,0.013594042975455523
194,0.25,0.001,0.015553049623004852,0.011993293380064348,19.9488711818572,0.014239022970633262,0.01025287713855505
195,0.25,0.001,0.01551042208748479,0.011882275613325258,20.33213326238817,0.014512586197279206,0.013002905063331127
196,0.25,0.001,0.015340940816508185,0.01174922939389944,20.12795042222546,0.014366845412009608,0.011406776960939169
197,0.25,0.001,0.015421711869778173,0.01199874128665655,19.182327885781564,0.013691882859230238,0.014392948243767023
198,0.25,0.001,0.01554347779000959,0.012307711035734224,18.133237038889238,0.012943067122690392,0.01249695010483265
199,0.25,0.001,0.015449489617059308,0.01222513441837603,18.069287515455677,0.012897421495685709,0.019326476845890284
200,0.25,0.001,0.015514793775735362,0.01211980679222653,19.02550506591797,0.013579946513860078,0.018080302514135838
201,0.25,0.001,0.015423056699575917,0.011860553926277545,19.96426748460339,0.014250012480088073,0.018684981390833855
202,0.25,0.001,0.015304617854135652,0.011724009028365534,20.065734248007498,0.014322437007856887,0.01308513293042779
203,0.25,0.001,0.015727008602792216,0.012226102122616383,19.619083404541016,0.014003628411521068,0.021629879251122475
204,0.25,0.001,0.015341087154323054,0.011877780870324182,19.408370602515436,0.013853226697013159,0.015873638447374105
205,0.25,0.001,0.015494148096730631,0.012011976732361701,19.514087492419826,0.013928684862540917,0.020329092163592577
206,0.25,0.001,0.015372377489843676,0.011836579850604457,19.81460835856776,0.014143189406543726,0.01598773174919188
207,0.25,0.001,0.015406757563112243,0.011855934926819417,19.89881164796891,0.01420329168306132,0.016239643096923828
208,0.25,0.001,0.015380687711219634,0.011892495226235159,19.54783015097341,0.013952769558153754,0.01839131209999323
209,0.25,0.001,0.015167908262341254,0.011787826585913859,18.94197851611722,0.013520327277742484,0.010157972108572721
210,0.25,0.001,0.015269168862892736,0.011960512928424342,18.541706515896706,0.013234622780797078,0.02347305789589882
211,0.25,0.001,0.015258017566896254,0.011927292862486455,18.665380416377896,0.013322898227250461,0.02209280524402857
212,0.25,0.001,0.015094963953860344,0.01167033979248616,19.19159501598727,0.013698497513195768,0.02475384809076786
213,0.25,0.001,0.015237910252424979,0.011798373753986052,19.27516580397083,0.013758148325460977,0.017138502560555935
214,0.25,0.001,0.01536553947915954,0.011907781173865642,19.3772768205212,0.013831032705582584,0.01787578547373414
215,0.25,0.001,0.015295646183433072,0.011790902203609866,19.640585437897712,0.014018976044181094,0.026514820754528046
216,0.25,0.001,0.014928195865884904,0.0114126241795959,19.701263058570124,0.014062286265931565,0.018547154497355223
217,0.25,0.001,0.015497489682128352,0.011969343939375493,19.77172630063949,0.014112581228150956,0.020702236331999302
218,0.25,0.001,0.014981897728097054,0.011457328083774736,19.751687511321038,0.014098278023783753,0.017163746524602175
219,0.25,0.001,0.014931721612811089,0.011547238055256105,18.966648286388768,0.0135379359645887,0.015108348336070776
220,0.25,0.001,0.01506990969421402,0.011796440027894513,18.34452130717616,0.013093876736028664,0.00797766842879355
221,0.25,0.001,0.014879559917796043,0.011609060569636283,18.327878152170488,0.013081997253512126,0.006724607432261109
222,0.25,0.001,0.014939868552309851,0.011641474771163157,18.4841982318509,0.013193574755068452,0.014284368604421616
223,0.25,0.001,0.014832507999193284,0.011499257097321173,18.67953706556751,0.013333002901904003,0.017607021611183882
224,0.25,0.001,0.015072927419697084,0.011701218092874173,18.895062600412675,0.013486839828988347,0.011038245167583227
225,0.25,0.001,0.015007559330232682,0.011618584394454956,18.991811506209835,0.013555896863818584,0.01833100337535143
226,0.25,0.001,0.015213864885510938,0.01182882818243196,18.969744220856697,0.013540145767920555,0.014648831449449062
227,0.25,0.001,0.014853426165157748,0.011403122616391028,19.335503178258097,0.01380121568755039,0.008528641890734434
228,0.25,0.001,0.015052182269432852,0.011529443094566945,19.741431636195028,0.0140909576275482,0.015279233921319246
229,0.25,0.001,0.014674719963823595,0.011102508002471539,20.018674911991244,0.014288847189144357,0.009341559372842312
230,0.25,0.001,0.015180236689986722,0.011657705710780236,19.740263723557995,0.014090123999684507,0.03547323402017355
231,0.25,0.001,0.014888024798804713,0.011388950049877167,19.60881430102933,0.013996298573182962,0.01777477515861392
232,0.25,0.001,0.014846601102861666,0.01145008614947719,19.034069491970925,0.01358605959455455,0.024181192740797997
233,0.25,0.001,0.014779146880872788,0.011532807692645057,18.19248587085355,0.01298535750953144,0.01660499395802617
234,0.25,0.001,0.014694266081337006,0.011438579869366462,18.244868616903982,0.013022747049895776,0.012425204506143928
235,0.25,0.001,0.014744206001200983,0.011418519932175837,18.637147472750755,0.013302746233226805,0.01760444277897477
236,0.25,0.001,0.014679797564543063,0.011346910389200333,18.67749878668016,0.013331548027608966,0.009539685910567641
237,0.25,0.001,0.014762246500580542,0.011481661349534988,18.384399167953,0.013122340590972876,0.011727157980203629
238,0.25,0.001,0.01468340352538132,0.011445398111977884,18.145781609319872,0.01295202113441818,0.00902470201253891
239,0.25,0.001,0.014677511137579717,0.011495261362964106,17.833327570269184,0.012728998979492636,0.013042627833783627
240,0.25,0.001,0.014573459062845476,0.011293523704573032,18.380760069816343,0.013119743090518447,0.007511500967666507
241,0.25,0.001,0.014563393899269642,0.011166817989320524,19.03441023057507,0.013586302805549656,0.012878561858087778
242,0.25,0.001,0.014671050973476903,0.011286382443241535,18.96768299225838,0.013538674512675502,0.009665443561971188
243,0.25,0.001,0.014628551870344146,0.011304821939237656,18.626183540590347,0.013294920442962417,0.0158117669634521
244,0.25,0.001,0.014491985882482222,0.01116951615098984,18.61912118234942,0.013289879502033848,0.012322891037911177
245,0.25,0.001,0.014851214724682992,0.011522246584776909,18.65553763604933,0.013315872688115155,0.023884248919785023
246,0.25,0.001,0.01438204817954571,0.010998002193387478,18.964192236623457,0.013536182895519956,0.016016908921301365
247,0.25,0.001,0.01447127422978801,0.011041834019124508,19.218585475798577,0.013717762652247377,0.013438509777188301
248,0.25,0.001,0.014403303904879478,0.011013541941440875,18.99622400345341,0.013559046397896795,0.015077021438628435
249,0.25,0.001,0.014456039775283105,0.011186714163951336,18.321302229358302,0.013077303518457033,0.024718739092350006
250,0.25,0.001,0.014562047477210722,0.01139738008139595,17.734796770157352,0.012658670071489901,0.02183352503925562
251,0.25,0.001,0.014654052413759692,0.011498114694991419,17.685875738820723,0.012623751419572251,0.03476500045508146
252,0.25,0.001,0.014368559684484236,0.011088856315660861,18.379459750267767,0.013118814953795693,0.028992963023483753
253,0.25,0.001,0.01469601474462017,0.011323560840420185,18.89923304896201,0.013489816594548187,0.02854158729314804
254,0.25,0.001,0.01457914914334974,0.011235992574403364,18.735048109485255,0.013372625345813887,0.02235029824078083
255,0.25,0.001,0.01428849313167795,0.011015972783488611,18.339204542098507,0.013090081757386515,0.013672857079654932
256,0.25,0.001,0.01440568352418561,0.011185898896186583,18.043670346659997,0.012879136578629548,0.016678863670676947
257,0.25,0.001,0.014601759011706999,0.011327110020624052,18.351131131572107,0.01309859466921635,0.014863323885947466
258,0.25,0.001,0.01444996037189999,0.011137103301382834,18.565251319639145,0.013251428493675336,0.01853599911555648
259,0.25,0.001,0.014340254898753858,0.011037988678341912,18.50589979848554,0.013209064809768408,0.018321719020605087
260,0.25,0.001,0.014393174570173986,0.011060702344102244,18.675174159388387,0.013329888764731183,0.019068620167672634
261,0.25,0.001,0.014298594376492885,0.010946833138023653,18.78327117427703,0.0134070458060507,0.020208530128002167
262,0.25,0.001,0.014467731358543519,0.011103382874881067,18.8538084953062,0.013457393644044397,0.01593939121812582
263,0.25,0.001,0.01420486327861586,0.010909301799631888,18.468325707220263,0.013182245329921672,0.011564078275114298
264,0.25,0.001,0.01402478136362568,0.01082780746923339,17.915842425438665,0.012787896092390196,0.012700492050498724
265,0.25,0.001,0.014302399820618091,0.011134256999338827,17.75427350690288,0.012672572096290422,0.012074161786586046
266,0.25,0.001,0.014253364034718084,0.0110399879875683,18.00775817132765,0.012853503334280978,0.02186404913663864
267,0.25,0.001,0.014291701477862174,0.011040707299065205,18.21857052464639,0.013003976106100205,0.012874487321823835
268,0.25,0.001,0.014149704767811683,0.010864841301114328,18.408375032486454,0.01313945398464415,0.012417404912412167
269,0.25,0.001,0.01401155333845846,0.010711054527951826,18.495994998562722,0.013201995002542984,0.009513989789411426
270,0.25,0.001,0.013874465599656105,0.01056729151957458,18.53340099703881,0.013228694501812141,0.008846466429531574
271,0.25,0.001,0.014215850782009863,0.010954121428151284,18.2787290388538,0.01304691580217973,0.009425429860129952
272,0.25,0.001,0.014120931646996928,0.01086300109783488,18.25744265894736,0.013031722097749722,0.01743120327591896
273,0.25,0.001,0.014046543397970738,0.010801012958249739,18.187952964536606,0.012982122030361603,0.009987413417547941
274,0.25,0.001,0.014066737836166736,0.010820603508862757,18.191337770031346,0.012984538022863201,0.01306021399796009
275,0.25,0.001,0.014140381417687862,0.01083824849657474,18.505153286841608,0.013208531967767029,0.010047588963061571
276,0.25,0.001,0.013965679182400626,0.010612311172148874,18.79227416746078,0.013413471925382425,0.013701420743018389
277,0.25,0.001,0.013950696815886805,0.010584973519848238,18.86151602960402,0.013462895096077102,0.016480295918881893
278,0.25,0.001,0.01376936359391097,0.010531068058504213,18.147407900902532,0.012953181942114584,0.007253783056512475
279,0.25,0.001,0.013799120882345785,0.010641566387587977,17.694937183010964,0.012630219259822243,0.01340780733153224
280,0.25,0.001,0.014010318615023167,0.010829476309159109,17.825440806727254,0.012723369597949504,0.009070385713130236
281,0.25,0.001,0.014026122678431773,0.010764445899234663,18.27843549174647,0.013046706275336524,0.01527862623333931
282,0.25,0.001,0.013933469841797505,0.01063650461935228,18.47619253589261,0.01318786048243584,0.01220260327681899
283,0.25,0.001,0.01401808731738598,0.010766491083608519,18.221946839363344,0.013006386038089467,0.01490436727181077
284,0.25,0.001,0.014051722542893502,0.010804639468269964,18.19665410441737,0.012988332694088058,0.022939256858080626
285,0.25,0.001,0.013865906084256788,0.010599711699591528,18.30375179167717,0.013064776439455509,0.007673247018828988
286,0.25,0.001,0.0136854168508322,0.010394638644591454,18.44152173688335,0.013163113302557709,0.012121554464101791
287,0.25,0.001,0.013800455737979181,0.010512667708098888,18.42476414095971,0.013151152134874881,0.007535062497481704
288,0.25,0.001,0.013788368132325911,0.010533567217569198,18.239905265069776,0.013019204329100482,0.00964833702892065
289,0.25,0.001,0.013837379854052298,0.010647083272136027,17.878422398721018,0.012761186580100656,0.010077635990455747
290,0.25,0.001,0.013772623493306099,0.010605421728424488,17.74899753447502,0.012668806234457545,0.012146009597927332
291,0.25,0.001,0.013836694971447992,0.01061921719942362,18.030746767597815,0.01286991203968438,0.007960617076605558
292,0.25,0.001,0.013909824733291902,0.010614992239542546,18.464243365872292,0.013179331453156525,0.01333226403221488
293,0.25,0.001,0.013792808077508403,0.01047183287840697,18.61074367646248,0.013283899840444311,0.007269739639014006
294,0.25,0.001,0.01397540582524192,0.010672118875288194,18.51162233660298,0.01321314941941683,0.01130479434505105
295,0.25,0.001,0.013629508354971486,0.010340507082160442,18.431564454109438,0.013156006034339356,0.007999810623005033
296,0.25,0.001,0.013692936920110256,0.01040850726947669,18.40594414741762,0.013137718877528638,0.007563903694972396
297,0.25,0.001,0.013640637389354168,0.010376336143141793,18.29314422607422,0.013057205015042268,0.012541776988655329
298,0.25,0.001,0.01372283576957641,0.010528529934104412,17.900889550485918,0.012777223090996373,0.010633994359523058
299,0.25,0.001,0.013869449225885252,0.010672718076215636,17.914480209350586,0.01278692377541084,0.012255482375621796
300,0.25,0.001,0.01354254565892681,0.010282593388711252,18.268772617463142,0.013039809148795961,0.011343134101480246
301,0.25,0.001,0.01351205896466009,0.01018431091741208,18.64869874523532,0.013310991252844625,0.0065065911039710045
302,0.25,0.001,0.013436391228629697,0.010130213543532355,18.52781880286432,0.013224710066284312,0.010126573499292135
303,0.25,0.001,0.013615880401865128,0.010415541338584116,17.934700073734408,0.012801356226791155,0.0108266391325742
304,0.25,0.001,0.013744281214331426,0.010556078576032192,17.86668820534983,0.012752810995967047,0.00999266211874783
305,0.25,0.001,0.013683225238515485,0.010447909034067584,18.13071010958764,0.012941263461518658,0.009952584281563759
306,0.25,0.001,0.013512052745828706,0.010245013681630935,18.308485338764807,0.013068155131166886,0.010992859955877066
307,0.25,0.001,0.013499447174610631,0.010209540836513042,18.43663449441233,0.013159624906789673,0.00658145104534924
308,0.25,0.001,0.013561428374340457,0.010265028104186058,18.47302762923702,0.013185601448420427,0.010876930318772793
309,0.25,0.001,0.013504013419151306,0.010247394262302307,18.250093213973507,0.013026476241237336,0.008407729910686612
310,0.25,0.001,0.013506653418223704,0.01026455300950235,18.168729105303363,0.012968400503428524,0.009490212425589561
311,0.25,0.001,0.01356626623460362,0.010329126290255976,18.140933559786887,0.01294856071362376,0.01868230663239956
312,0.25,0.001,0.01345925766133493,0.010213313924689446,18.190270393125473,0.012983776154978924,0.016111436067149043
313,0.25,0.001,0.013706800017145372,0.010480638923904589,18.07940815341088,0.012904645362891421,0.024675458669662476
314,0.25,0.001,0.01345981435189324,0.010222175248688268,18.143729056081465,0.012950556071435736,0.012910856632515788
315,0.25,0.001,0.013304685783242025,0.01001141049088009,18.455515584638043,0.013173101773474692,0.010017815046012402
316,0.25,0.001,0.013442548051957161,0.010156599624503044,18.41445449090773,0.013143793355394525,0.010516897076740861
317,0.25,0.001,0.013533805106436052,0.010275653893909147,18.258678990025675,0.013032604561046164,0.010551293846219778
318,0.25,0.001,0.013259965716110121,0.010061133622882827,17.92625408787881,0.012795327685852113,0.011800301261246204
319,0.25,0.001,0.01328012773827199,0.010135631467546187,17.621758860926473,0.012577986338991059,0.011056394781917334
320,0.25,0.001,0.013332360874741309,0.010184063125521906,17.64305865380072,0.01259318961727389,0.014056285377591848
321,0.25,0.001,0.013515217620278559,0.010361871832320768,17.671350848290228,0.012613383903133638,0.007485504727810621
322,0.25,0.001,0.013432119131809282,0.010224127270761997,17.977586684688443,0.012831967655023872,0.01606458704918623
323,0.25,0.001,0.013436474326637483,0.010153352072642695,18.39861488342285,0.013132487425712243,0.010956075973808765
324,0.25,0.001,0.013229415361439028,0.009946512028334601,18.397388335197203,0.013131611945180015,0.011791444383561611
325,0.25,0.001,0.01323444393253134,0.010020962856229275,18.00834821885632,0.012853924495971678,0.007867630803957582
326,0.25,0.001,0.013429701117978941,0.01027022088847814,17.705726192843528,0.012637920194749129,0.010462739504873753
327,0.25,0.001,0.013574370843989233,0.010361557345717184,18.004608708043254,0.012851255323371344,0.016054371371865273
328,0.25,0.001,0.013426401442097079,0.010181639163244155,18.1836489400556,0.01297904992152434,0.010455724783241749
329,0.25,0.001,0.013310561587493266,0.010081993115525092,18.092896246141002,0.012914272838073521,0.013414875138550997
330,0.25,0.001,0.013269231684746282,0.010070343561951191,17.9265688619306,0.01279555236397616,0.017229487653821707
331,0.25,0.001,0.013379703846669967,0.01020840687617179,17.771946568642893,0.01268518670138679,0.014967885334044695
332,0.25,0.001,0.013141009265617017,0.009903802806811949,18.141306846372544,0.01294882715658283,0.01601809775456786
333,0.25,0.001,0.013412031615453382,0.010114728743510862,18.47808708683137,0.0131892127671887,0.01280086999759078
334,0.25,0.001,0.013104453292344847,0.009839567986707534,18.296417420910252,0.01305954134254836,0.022660069167613983
335,0.25,0.001,0.013389017162544111,0.010243543694096227,17.627234182050152,0.0125818944911136,0.01920019369572401
336,0.25,0.001,0.01328228663412794,0.010168759302506524,17.44820693231398,0.012454109159396131,0.015775303356349468
337,0.25,0.001,0.013415422470819565,0.010222928868907114,17.890735380111202,0.012769975289158603,0.02652198076248169
338,0.25,0.001,0.013275584957051662,0.010036023724223337,18.154501945741714,0.01295824550017253,0.012154613621532917
339,0.25,0.001,0.013358122548989711,0.010102249982376252,18.245910829113377,0.013023490955826823,0.02028032671660185
340,0.25,0.001,0.01319412148046878,0.009967053639552286,18.08448693060106,0.0129082704715211,0.015935858711600304
341,0.25,0.001,0.013406599000577004,0.010214546004370335,17.88826480988533,0.012768211855735425,0.010462583974003792
342,0.25,0.001,0.013176036908501578,0.009959330481867637,18.026422623665102,0.012866825570067882,0.00810554763302207
343,0.25,0.001,0.013221255563680203,0.009961877859407855,18.265552643806704,0.013037510809283871,0.01479940116405487
344,0.25,0.001,0.013346273211702224,0.01004070800638968,18.524387421146518,0.013222260828798372,0.013926700688898563
345,0.25,0.001,0.012962566087803534,0.009654858299801427,18.536393380934193,0.013230830393243536,0.011248995549976826
346,0.25,0.001,0.013039379260472713,0.009811612476985301,18.08840505538448,0.012911067134464297,0.011498264968395233
347,0.25,0.001,0.0130369738044758,0.009878739714622498,17.698744250882058,0.01263293665302074,0.014405201189219952
348,0.25,0.001,0.013071490001053579,0.009908401227045444,17.725948210685484,0.012652354183215905,0.01564527442678809
349,0.25,0.001,0.013162713618047776,0.009964847847098304,17.920839125110255,0.012791462616067277,0.010920033324509859
350,0.25,0.001,0.013135914540579241,0.009904324828136352,18.109830056467363,0.012926359783345727,0.008518459973856807
351,0.25,0.001,0.013022325001657009,0.00977546919978434,18.19537894956527,0.012987422519318538,0.009182070381939411
352,0.25,0.001,0.013083588452108445,0.009834566123543246,18.207521377071256,0.012996089491128663,0.012257016263902187
353,0.25,0.001,0.01297800020585137,0.009729757844921081,18.203151210661858,0.012992970171778627,0.010328212520107627
354,0.25,0.001,0.012989918370881388,0.009752812374743723,18.14074448616274,0.012948425757432361,0.014390879310667515
355,0.25,0.001,0.01308571838683659,0.009868374394793664,18.02999588751024,0.012869376079593318,0.01652429299429059
356,0.25,0.001,0.013133944943547249,0.009898285381495953,18.132633947557018,0.012942636650647408,0.010032197926193476
357,0.25,0.001,0.01300705996372046,0.009789348850327154,18.032053916685044,0.012870845051167056,0.01098235510289669
358,0.25,0.001,0.012876295454559787,0.009704301914861125,17.775850849766886,0.012687973483059877,0.011334067676216364
359,0.25,0.001,0.012953849419230414,0.009806822624898726,17.635939505792432,0.012588108141179466,0.011826282367110252
360,0.25,0.001,0.01292213596283428,0.009749402322115438,17.779998656242125,0.01269093408725348,0.010577463544905186
361,0.25,0.001,0.012840060907746515,0.009643705952311716,17.912373019802956,0.012785419714349005,0.012489743996411562
362,0.25,0.001,0.012868863079817064,0.009643661999894727,18.074027153753466,0.012900804535155935,0.008422411046922207
363,0.25,0.001,0.012803235632036962,0.00956720077703076,18.134740583358273,0.012944140316458439,0.008244087221100926
364,0.25,0.001,0.012933880721609439,0.00974189159610579,17.887908135690996,0.012767957270300497,0.010496334172785282
365,0.25,0.001,0.01289242704308802,0.009693763008521449,17.92531228834583,0.012794655452066973,0.009583028499037027
366,0.25,0.001,0.012861822311195635,0.009664015243611029,17.920512599329793,0.012791229549842822,0.015134445391595364
367,0.25,0.001,0.012825781419392555,0.009608390020026315,18.030261562716575,0.01286956571214602,0.020897350274026394
368,0.25,0.001,0.01291708449923223,0.009677925237244176,18.15224807493148,0.012956636741564227,0.008298671105876565
369,0.25,0.001,0.01295400954662792,0.009740512397500777,18.008437556605184,0.012853988263101487,0.011766582261770964
370,0.25,0.001,0.0127362061832701,0.009590378541859889,17.62921788615565,0.012583310411246003,0.007380760973319411
371,0.25,0.001,0.012891697096488169,0.009758152548343904,17.560383519818707,0.012534178101226772,0.011465833988040686
372,0.25,0.001,0.01298103024882655,0.009812486838669546,17.756519009990075,0.012674174882219896,0.01732121966779232
373,0.25,0.001,0.012836435629475501,0.009598581931523738,18.144933146815145,0.012951415522351994,0.0066330707632005215
374,0.25,0.001,0.012684161324174173,0.009418216413788257,18.302356535388576,0.013063780539178142,0.01594149600714445
375,0.25,0.001,0.012878787433428148,0.009642642952742116,18.13535468809066,0.012944578649600757,0.00801382726058364
376,0.25,0.001,0.01266771690138886,0.009477326406105872,17.87894747334142,0.012761561365696944,0.011233679484575987
377,0.25,0.001,0.012806360039018815,0.00969748129887927,17.42215901036416,0.012435516781130737,0.015970967710018158
378,0.25,0.001,0.012918458200029789,0.009834691341365538,17.281428367860855,0.01233506664372652,0.01684145675972104
379,0.25,0.001,0.012875495117998893,0.009732314115089754,17.61438831206291,0.012572725419031342,0.008913073688745499
380,0.25,0.001,0.01274650093288191,0.009472065845564488,18.349932332192697,0.013097738995141111,0.01798440609127283
381,0.25,0.001,0.012943005820195521,0.009605735840816651,18.70206149931877,0.01334908029929962,0.01215871935710311
382,0.25,0.001,0.012891654886545674,0.009581962780606362,18.54751476164787,0.013238768566486703,0.013577569276094437
383,0.25,0.001,0.012815651844345754,0.009546613320708275,18.31969125809208,0.013076153646032892,0.018205381464213133
384,0.25,0.001,0.012838123816876643,0.009590037347328278,18.202278629426033,0.012992347344344063,0.0064638101030141115
385,0.25,0.001,0.012771200208413986,0.009528555396583772,18.171781662971743,0.012970579345447354,0.014659624546766281
386,0.25,0.001,0.012792399483582666,0.009537455746002736,18.240705182475427,0.01301977529084613,0.016216399613767862
387,0.25,0.001,0.012794293883827424,0.009549731508858742,18.18252975709977,0.012978251075731456,0.010505832266062498
388,0.25,0.001,0.012806995801867978,0.009564803973320992,18.16924193597609,0.012968766549590355,0.012806748040020466
389,0.25,0.001,0.012757768403858907,0.009560346062625609,17.91835372678695,0.012789688598705889,0.009343119105324149
390,0.25,0.001,0.012908822586459498,0.009718392945585711,17.879166879961566,0.012761717972849083,0.011274525430053473
391,0.25,0.001,0.012791479457049601,0.00952646472761708,18.2971435054656,0.013060059604186722,0.009450102224946022
392,0.25,0.001,0.012821353491275542,0.009498208550916563,18.622905546619045,0.013292580689949353,0.011346332728862762
393,0.25,0.001,0.012803527015832162,0.009532373999395678,18.33154038460024,0.013084611266666837,0.014614792075008154
394,0.25,0.001,0.012850732422403751,0.00964852359386221,17.9451777550482,0.012808834942932333,0.00812537595629692
395,0.25,0.001,0.012658678626100863,0.009484695330742867,17.787002440421812,0.012695933219430272,0.009733515093103051
396,0.25,0.001,0.012643032797401952,0.00944522951519297,17.92049229529596,0.01279121505731332,0.009148747194558382
397,0.25,0.001,0.012642590058667044,0.009361229416343474,18.388745154103926,0.013125442651037777,0.012459217105060816
398,0.25,0.001,0.0127425326274768,0.00945822717321496,18.4052488265499,0.013137222574268309,0.020413849502801895
399,0.25,0.001,0.012780013674449536,0.009585096530856626,17.904315456267327,0.012779668419891026,0.0205852584913373
400,0.25,0.001,0.012678102740357,0.009505244122157174,17.780699083881995,0.012691434035604564,0.015133517794311047
401,0.25,0.001,0.012730270714288758,0.009525372346322383,17.96025054685531,0.012819593538083733,0.01690092869102955
402,0.25,0.001,0.01269210003797085,0.009474393160593125,18.03203035170032,0.012870828231049479,0.019004231318831444
403,0.25,0.001,0.012699057858797812,0.009471758659328184,18.08578638876638,0.012909197993409265,0.012551140505820513
404,0.25,0.001,0.012813244014978409,0.009563938143753236,18.20911210583102,0.012997224914940058,0.02306659333407879
405,0.25,0.001,0.012629361703030525,0.009397524228740123,18.111215406848537,0.012927348613025365,0.013280602172017097
406,0.25,0.001,0.012664707527766305,0.009459016844630241,17.964688824069114,0.012822761473282736,0.015874762553721666
407,0.25,0.001,0.01270893080941131,0.00950719749615077,17.942511281659527,0.012806931678557835,0.013062943238765001
408,0.25,0.001,0.012639464690319954,0.009452395862148653,17.860335011636057,0.01274827623956892,0.011602632701396942
409,0.25,0.001,0.012633861433113775,0.009447377505561998,17.85705775599326,0.01274593701355693,0.015405321028083563
410,0.25,0.001,0.012753054830095461,0.009540650663116285,18.00231392152848,0.012849617360120257,0.015116195194423199
411,0.25,0.001,0.012625115172516915,0.00939971764361666,18.075125786565966,0.012901588712752295,0.008318674750626087
412,0.25,0.001,0.012585812488630894,0.009382458433749215,17.95159690610824,0.012813416778092961,0.012356160208582878
413,0.25,0.001,0.01258406697982742,0.009412766043697634,17.771970995010868,0.012685204136338949,0.010066668968647718
414,0.25,0.001,0.012628668768992346,0.00946567261651639,17.72542885811098,0.01265198348187793,0.009936077054589987
415,0.25,0.001,0.012542406457566446,0.009312460379254433,18.100615962859123,0.012919782985623927,0.010299784829840064
416,0.25,0.001,0.012633269382340292,0.009379215087861784,18.23571857329338,0.013016215969517044,0.009794012177735567
417,0.25,0.001,0.01256704949323208,0.009320666653013999,18.192728903985792,0.01298553098071791,0.018213669769465923
418,0.25,0.001,0.01242062188084087,0.009188255475413415,18.114180718698808,0.012929465181084088,0.012641162145882845
419,0.25,0.001,0.012441070870526375,0.009270653969818545,17.767016564646074,0.012681667783473287,0.018178694415837526
420,0.25,0.001,0.012531695496891775,0.009417552470920547,17.451657018353863,0.01245657174757592,0.015695086680352688
421,0.25,0.001,0.012532331229698273,0.009389453116924532,17.6126895412322,0.012571512877396288,0.009249221766367555
422,0.25,0.001,0.01251239888370037,0.00930838713482503,17.955283195741714,0.012816047962699296,0.014833429828286171
423,0.25,0.001,0.012455852281662726,0.009224530159225386,18.108331372660974,0.012925290059001409,0.01246098754927516
424,0.25,0.001,0.012528975464163287,0.009318404710821567,17.99203768084126,0.012842282427438444,0.00791527284309268
425,0.25,0.001,0.01252970117474756,0.00934228400189069,17.86228616776005,0.012749668927737367,0.014259365387260914
426,0.25,0.001,0.012651882765273894,0.009462729336753968,17.87201666062878,0.012756614318792847,0.010834891349077225
427,0.25,0.001,0.012508232897568134,0.009269457250352829,18.150100400370935,0.012955103783276899,0.010081517044454813
428,0.25,0.001,0.01237781916654879,0.009117226506913862,18.27236360119235,0.013042372306347144,0.01020606467500329
429,0.25,0.001,0.012561904026135322,0.009333179362358586,18.09377153458134,0.012914897597845353,0.014282372314482927
430,0.25,0.001,0.012471758940767857,0.009233363813930941,18.147967061688824,0.012953581057593736,0.008359849685803056
431,0.25,0.001,0.012488908524955473,0.00922986684787658,18.263671444308372,0.013036168054467076,0.014780613593757153
432,0.25,0.001,0.012688493956961939,0.009443166064879587,18.18681772293583,0.012981311722295384,0.013214481063187122
433,0.25,0.001,0.01242322841238591,0.009152857706912102,18.327156682168283,0.013081482285630466,0.00972791202366352
434,0.25,0.001,0.012514957977879432,0.009203085735920937,18.55973317546229,0.013247489775490572,0.012047558557242155
435,0.25,0.001,0.012495826599338362,0.009223261247238806,18.33945631211804,0.013090261464752347,0.011592947877943516
436,0.25,0.001,0.012327238226369504,0.009127040904375815,17.93390655517578,0.012800789832388138,0.00868421234190464
437,0.25,0.001,0.012435455896681356,0.009289826446723553,17.628108424525106,0.012582518504300574,0.013849358074367046
438,0.25,0.001,0.0123963828889593,0.009196988427110257,17.929406012258223,0.012797577453431994,0.009131083264946938
439,0.25,0.001,0.012403054192902581,0.009174266319361425,18.094127039755545,0.012915151348861916,0.011870579794049263
440,0.25,0.001,0.01237673462638932,0.009193126382606645,17.840939244916363,0.012734432009219388,0.00725383241660893
441,0.25,0.001,0.012429543139953767,0.009289481466816317,17.59690826169906,0.012560248580798758,0.012372734025120735
442,0.25,0.001,0.012488327890394195,0.00932946672002154,17.702258940665953,0.012635445353794399,0.013502610381692648
443,0.25,0.001,0.012457029443354375,0.0092126450711681,18.18153061405305,0.012977537911529656,0.011017350479960442
444,0.25,0.001,0.012407586969915898,0.009130546763058632,18.36453462416126,0.013108161758858858,0.008215972455218434
445,0.25,0.001,0.012401929665957727,0.009141304199734041,18.272545722223096,0.013042502299945108,0.012400873005390167
446,0.25,0.001,0.01224435102795401,0.009005098874049803,18.152769273327245,0.012957008760404886,0.01171897491440177
447,0.25,0.001,0.012401834190372498,0.009200115718187825,17.9424315421812,0.01280687476244197,0.01348043605685234
448,0.25,0.001,0.012258984989696933,0.009086182641406213,17.780383017755323,0.012691208435228639,0.0099259321577847
449,0.25,0.001,0.012417707682376909,0.009266446584895734,17.659668460969,0.012605045296908637,0.010432638227939606
450,0.25,0.001,0.012258745399453947,0.009088407781335616,17.766572829215757,0.012681351055828521,0.013607555534690619
451,0.25,0.001,0.012182734365905485,0.00896855329553927,18.012272188740393,0.012856725331006704,0.012283792719244957
452,0.25,0.001,0.012368728737196615,0.00910969850637259,18.263606779036984,0.013036121897956448,0.01354888966307044
453,0.25,0.001,0.012326975202848834,0.009019149797818354,18.53705209301364,0.013231300566034004,0.013646736275404692
454,0.25,0.001,0.012244645385972915,0.009006147933823446,18.148541665846302,0.01295399119617866,0.010069256648421288
455,0.25,0.001,0.012286803985555326,0.009183089429092023,17.393218194284746,0.012414859524828513,0.010794751811772585
456,0.25,0.001,0.012341695326951242,0.009285165297408257,17.128796300580426,0.0122261215564457,0.011485934723168612
457,0.25,0.001,0.012339002933473356,0.009208552959945894,17.54304196757655,0.012521800119612098,0.016598917543888092
458,0.25,0.001,0.012270937944131513,0.009010419159406615,18.271947860717773,0.01304207556082639,0.008560709888115525
459,0.25,0.001,0.012403134857454607,0.009038825639553608,18.853587365919545,0.013457235807223087,0.014760697260499
460,0.25,0.001,0.012228777031263998,0.008898558605822825,18.662544619652532,0.013320874103963263,0.010584453120827675
461,0.25,0.001,0.012148794597916065,0.008976944902491185,17.77504564100696,0.012687398744473206,0.009631684515625238
462,0.25,0.001,0.012228590105810472,0.009156065181859078,17.218429073210686,0.01229009926710256,0.01252913847565651
463,0.25,0.001,0.012418031692504883,0.009289147662779978,17.534267856228738,0.012515537370612947,0.010362037923187017
464,0.25,0.001,0.012135502521789843,0.008910740245013468,18.07156882747527,0.012899049841167217,0.01474627060815692
465,0.25,0.001,0.012298308463106233,0.009066672034321292,18.11009240919544,0.012926547044393603,0.011303354054689407
466,0.25,0.001,0.012209160373576226,0.008997343300331024,17.999020299603863,0.012847266452251151,0.008680141996592283
467,0.25,0.001,0.01218099666819457,0.00897077044412013,17.990108736099735,0.01284090559321894,0.011044491548091173
468,0.25,0.001,0.01212553616853491,0.008904287020765966,18.051880067394627,0.012884996479225287,0.010604850016534328
469,0.25,0.001,0.011966536452452983,0.008751036298851813,18.019663903021044,0.012862001358330509,0.008161981822922826
470,0.25,0.001,0.012087165588332761,0.008946475272457446,17.60042910422048,0.012562761673248024,0.007099676877260208
471,0.25,0.001,0.012195274714500673,0.009118723773187207,17.240989623531217,0.012306202443633988,0.00861420575529337
472,0.25,0.001,0.012103962982373853,0.00903013123259429,17.225752492104807,0.012295326546827128,0.009642304852604866
473,0.25,0.001,0.012137419303819057,0.009045222383593359,17.328670747818485,0.012368787114788355,0.010501330252736807
474,0.25,0.001,0.012201754105908255,0.009039588062272917,17.720777696178807,0.012648663594702932,0.01451027998700738
475,0.25,0.001,0.012228132135445071,0.009016658029248637,17.997100522441247,0.0128458961616283,0.014354394283145666
476,0.25,0.001,0.012053068727254868,0.008816357882272812,18.138527962469286,0.012946843656294994,0.011474793776869774
477,0.25,0.001,0.012240275320026183,0.00901430698051568,18.078327855756207,0.01290387427248837,0.015574787743389606
478,0.25,0.001,0.01211206104245878,0.008867740150420897,18.181176093316846,0.01297728486318119,0.014845424331724644
479,0.25,0.001,0.01215298404736865,0.008885018948105073,18.313677018688573,0.013071860827043948,0.014469390036538243
480,0.25,0.001,0.01214547377199896,0.008881886699987997,18.289141562677198,0.01305434801047623,0.01515562366694212
481,0.25,0.001,0.012163331942452539,0.008976840954874792,17.857096026020667,0.012745964329779206,0.022264773957431316
482,0.25,0.001,0.012238970416928492,0.009108737471603578,17.541825325258316,0.012520931709677599,0.021301948465406895
483,0.25,0.001,0.012116044639579712,0.008946265784963485,17.763441147342807,0.012679115736861389,0.012171342968940735
484,0.25,0.001,0.012255692494011695,0.009036962093124467,18.037766856531942,0.012874922809801528,0.01459423964843154
485,0.25,0.001,0.01218593769496487,0.008965611367696715,18.046709922052198,0.012881306154212846,0.01398249575868249
486,0.25,0.001,0.012136100581096064,0.008865880749879344,18.32631271116195,0.013080879879487474,0.011265675071626902
487,0.25,0.001,0.012058852060187248,0.008775172244396902,18.401740043394028,0.013134718089503231,0.011918789707124233
488,0.25,0.001,0.012049700463971785,0.008804453747166742,18.186361682030462,0.012980986211299402,0.009103652089834213
489,0.25,0.001,0.012037027086461745,0.00881857184633132,18.036223626905873,0.012873821289725819,0.009628246072679758
490,0.25,0.001,0.011992695621184764,0.00875963147489294,18.11809059881395,0.012932255959181977,0.008906960021704435
491,0.25,0.001,0.012149428468077414,0.008929866546344372,18.04242589396815,0.012878248318321307,0.009360660100355744
492,0.25,0.001,0.012064071973004648,0.008840089904204491,18.067195646224484,0.012895928369896134,0.008632976794615388
493,0.25,0.001,0.012002021885446964,0.00877364908134745,18.091799705259263,0.012913490153646867,0.01095164380967617
494,0.25,0.001,0.012158602295864013,0.008947588052720792,17.994523263746693,0.012844056576550102,0.019095840863883495
495,0.25,0.001,0.012068257426782962,0.008881017325385925,17.86129366966986,0.012748960506545224,0.011543755419552326
496,0.25,0.001,0.012174725983171694,0.008963179744539721,17.99750401896815,0.012846184167714597,0.012751751113682985
497,0.25,0.001,0.01213217009940455,0.008873804292130855,18.259883080759355,0.013033464011962424,0.017018991522490978
498,0.25,0.001,0.01221190507133161,0.00895585275946125,18.246916678643995,0.013024208906955029,0.01721034711226821
499,0.25,0.001,0.011993473936473169,0.008769728754076266,18.065866347282164,0.012894979548381274,0.010636634891852736
500,0.25,0.001,0.0120467527679378,0.008807888825333888,18.15059446519421,0.01295545643482813,0.011750221718102694
