epoch,beta,learning_rate,train_loss,train_reconstruction_loss,train_kl_unnormalized,train_kl_normalized,mean_unclipped_gradient_norm
1,0.0,0.001,0.06824302583606574,0.06824302583606574,27.842667001877388,0.019873423984209413,0.10617586001753807
2,0.02,0.001,0.050917838367014905,0.04710650759456802,266.9837233271912,0.1905665405618781,0.0839180126786232
3,0.04,0.001,0.04440437803847076,0.04100125451592633,119.1944162132096,0.08507809865325454,0.06867765113711358
4,0.06,0.001,0.039345837476914815,0.03713090810244971,51.71861233676437,0.03691549774215872,0.06356680020689964
5,0.08,0.001,0.03713199656701436,0.03348706120176472,63.83191733812764,0.04556168261108325,0.04751544669270515
6,0.1,0.001,0.03675134844371002,0.03351052187002488,45.40397975392585,0.03240826534898348,0.041099005937576295
7,0.12,0.001,0.03528258362173164,0.03274844130025293,29.586119241087975,0.02111785813068378,0.02641461379826069
8,0.14,0.001,0.034549302999338095,0.032639453799402626,19.11213199587634,0.013641778726535575,0.028297260776162146
9,0.16,0.001,0.03395563315083511,0.03209586887464036,16.284559277722437,0.011623525537275116,0.03252591080963611
10,0.18,0.001,0.03299000706985919,0.030867835656352288,16.51756353447907,0.011789838354374782,0.0325427008792758
11,0.2,0.001,0.03186789617268709,0.029374220252145818,17.46820037730419,0.012468379998075796,0.04734627977013588
12,0.22,0.001,0.03030560191475997,0.027204697978866363,19.7471206275216,0.014095018292306638,0.05460013747215271
13,0.24,0.001,0.029233279862325556,0.02584477855286894,19.78037788224046,0.01411875651837292,0.0431985542178154
14,0.25,0.001,0.02801884351855647,0.024461764638332554,19.93386928530505,0.014228314978804462,0.02264472804963589
15,0.25,0.001,0.026933363428081038,0.023502863059840062,19.224524240424163,0.013722001599160715,0.027217243053019046
16,0.25,0.001,0.026083755694384123,0.02273755694610359,18.752097735439772,0.013384794957487347,0.059755928441882135
17,0.25,0.001,0.02558121512079761,0.02242060854052105,17.712039863976248,0.012642426740882404,0.06259598806500435
18,0.25,0.001,0.02513284755557993,0.02200075177761325,17.552264095222863,0.012528382651836447,0.05381800346076489
19,0.25,0.001,0.024381831791387858,0.02122810352457701,17.673493085986507,0.01261491298071842,0.0314363120123744
20,0.25,0.001,0.024372316026774636,0.02113836981954366,18.12303646115491,0.012935786196398937,0.03984734676778316
21,0.25,0.001,0.023933444770365735,0.020602584592182272,18.666139505205365,0.013323440046542016,0.026491012051701547
22,0.25,0.001,0.02349095444881568,0.02015947697371462,18.6696014961187,0.01332591113213326,0.029395435377955435
23,0.25,0.001,0.023455747138083415,0.020540139889412553,16.33906163960478,0.011662428008283212,0.018169653601944447
24,0.25,0.001,0.023262714749596416,0.02024318175866221,16.92146537947829,0.012078133746950956,0.015098587237298488
25,0.25,0.001,0.023266715493841763,0.020073272192673963,17.896052659863102,0.012773770635162813,0.017227351292967798
26,0.0,0.001,0.019658211455510482,0.019658211455510482,19.35801976614625,0.013817287484758209,0.03357360139489174
27,0.02,0.001,0.019108949201929307,0.01870044463579237,28.615740240055278,0.020425225010746093,0.014739152789115906
28,0.04,0.001,0.019192303116195394,0.018024671210968582,40.89630981779447,0.029190799298925388,0.015922766737639905
29,0.06,0.001,0.019517221386088943,0.017554478923769764,45.830032821989406,0.03271237175017088,0.01951736807823181
30,0.08,0.001,0.019891173939091445,0.01729341713290145,45.493219890733705,0.03247196280566289,0.01977581940591335
31,0.1,0.001,0.02024687053023899,0.017400985447703486,39.87085175340193,0.028458852072378252,0.018648108281195164
32,0.12,0.001,0.020514259726679238,0.017739956573086933,32.38998743043329,0.023119191599167227,0.016371614765375853
33,0.14,0.001,0.020721784391759954,0.01802310348916663,27.0060813374763,0.019276289320111564,0.029288861714303494
34,0.16,0.001,0.020890774776356934,0.018138423915544565,24.100272505822844,0.017202193080530222,0.02100171186029911
35,0.18,0.001,0.021282136657812298,0.018226365674368656,23.784083498655445,0.01697650499547141,0.03768632635474205
36,0.2,0.001,0.0216132200384227,0.018487464731735903,21.895918477190673,0.01562877835631026,0.021929333731532098
37,0.22,0.001,0.021551531977462072,0.018213092900105636,21.25978813728277,0.015174723866725744,0.02190323732793331
38,0.24,0.001,0.021858657037254668,0.018473385527294918,19.761526274855118,0.014105300695828065,0.022720821388065814
39,0.25,0.001,0.021869601912959648,0.01823149629644234,20.38794578775002,0.014552423831370464,0.025830877013504505
40,0.25,0.001,0.022002207210464197,0.018579351722541517,19.18168120140577,0.013691421271524461,0.05674300491809845
41,0.25,0.001,0.021685852662381464,0.018347691758161914,18.70705298263661,0.013352643099669244,0.03411987721920014
42,0.25,0.001,0.02144221031535281,0.018240730896809675,17.941091593164597,0.012805918339161025,0.00933015700429678
43,0.25,0.001,0.02153652030838667,0.018327528597229588,17.983188169716048,0.01283596585989725,0.02355817295610905
44,0.25,0.001,0.02133793772680916,0.017912842632427702,19.194235321379058,0.013700382099485408,0.027380990609526635
45,0.25,0.001,0.02135305099841887,0.018082762218631098,18.326700001737496,0.013081156318156671,0.03391295988112688
46,0.25,0.001,0.021297672382780235,0.01819934670126786,17.363019525569722,0.012393304443661471,0.03539118506014347
47,0.25,0.001,0.021252663928444368,0.018041883792429075,17.993210813424884,0.012843119781174079,0.05760814025998116
48,0.25,0.001,0.021135763394354034,0.01793334399261614,17.94635726761644,0.012809676850547066,0.018518717028200626
49,0.25,0.001,0.02084571253644289,0.01756873261863298,18.36419697225529,0.013107920751074439,0.029068124294281007
50,0.25,0.001,0.02087928175273603,0.017661344042442143,18.033322619695735,0.012871750620767834,0.016737357154488562
51,0.0,0.001,0.01747740412905921,0.01747740412905921,20.335036855544487,0.014514658712023188,0.02350093312561512
52,0.02,0.001,0.01698320115624118,0.016549178569094977,30.40327676369326,0.02170112545588384,0.02150424923747778
53,0.04,0.001,0.016954507896282375,0.015745164649764987,42.357245953413695,0.030233580266533687,0.014994647726416588
54,0.06,0.001,0.01744842619030145,0.015371345962486127,48.49983117876262,0.03461800940668281,0.01287053469568491
55,0.08,0.001,0.01796458051098089,0.01527649411646119,47.075111890361256,0.03360107915086456,0.02021087035536766
56,0.1,0.001,0.01827598401229747,0.015494081932697853,38.97445536703959,0.02781902595791548,0.01985742524266243
57,0.12,0.001,0.018303917802489588,0.015666521446657006,30.791602628944563,0.021978303089896192,0.008016630448400975
58,0.14,0.001,0.01873542362973638,0.016218260175337756,25.189611323558502,0.01797973684765061,0.01369490148499608
59,0.16,0.001,0.0191363323969345,0.016495613218115195,23.122797610985973,0.01650449508278799,0.018732715770602225
60,0.18,0.001,0.019151996793973183,0.016360358559410936,21.72825145025323,0.015509101677554054,0.012816651538014413
61,0.2,0.001,0.019317334599412272,0.016234688895897274,21.593934984972876,0.01541322982510555,0.016117801517248155
62,0.22,0.001,0.019777076903485905,0.0165699601961966,20.423502497429396,0.014577803352911775,0.026226875931024553
63,0.24,0.001,0.020025668067544918,0.01650224770861168,20.567965528390705,0.014680917579151109,0.02688040491193533
64,0.25,0.001,0.02027084392896534,0.016938388850675883,18.675080877150933,0.01332982218212058,0.03205197229981423
65,0.25,0.001,0.020155026706574607,0.016889095374376235,18.30227708468472,0.013063723829182528,0.018987263552844524
66,0.25,0.001,0.019978954708271653,0.016733447320922447,18.18782366453296,0.012982029739138444,0.02287846729159355
67,0.25,0.001,0.020026936447315843,0.01646212095489902,19.97722572827861,0.014259261761797724,0.016576664708554744
68,0.25,0.001,0.020014231453520537,0.016674992213719084,18.713094739148218,0.01335695555970608,0.020008672401309012
69,0.25,0.001,0.020123616132858027,0.016784978609015472,18.70972268598793,0.013354548669513156,0.015463834814727306
70,0.25,0.001,0.019932112432200545,0.01664669199907867,18.411495320118256,0.013141681170676843,0.024024808872491123
71,0.25,0.001,0.01969590111479272,0.016579410754633647,17.464812564153743,0.012465961858782114,0.020760845206677914
72,0.25,0.001,0.01967417777781069,0.01658884544659705,17.29020278819286,0.012341329613271135,0.022586026415228843
73,0.25,0.001,0.01955878723711863,0.016541359279930157,16.909667926983243,0.0120697130099809,0.01641795225441456
74,0.25,0.001,0.019442016952229243,0.016277847226953853,17.732005766708486,0.012656677920562803,0.018727258406579496
75,0.25,0.001,0.019361628029141983,0.016207900673259786,17.673489995246385,0.012614910774622687,0.01226713638752699
76,0.0,0.001,0.01590629760855741,0.01590629760855741,19.695942857839764,0.0140584888350034,0.0314449829980731
77,0.02,0.001,0.015534813114761436,0.015096743638715604,30.686747557925482,0.02190346006989685,0.0172814829275012
78,0.04,0.001,0.015677818919729143,0.014462655546130056,42.5610994213689,0.03037908595386788,0.012182683497667313
79,0.06,0.001,0.016195521737537244,0.01416279612122661,47.46415278859382,0.03387876715816832,0.014452357031404971
80,0.08,0.001,0.0166219046244221,0.014066065505255748,44.7591373415759,0.03194799239227402,0.020343540236353874
81,0.1,0.001,0.016767846937053396,0.014259678019333059,35.13944854179438,0.02508169060799028,0.012118672393262387
82,0.12,0.001,0.01702672642839216,0.014698801290271056,27.17852682962905,0.019399376752054998,0.01006661718711257
83,0.14,0.001,0.017498992723378824,0.01510215658069092,23.98547971683697,0.017120256757199834,0.010611308459192514
84,0.16,0.001,0.017694416449126536,0.015057256125783833,23.09163898273106,0.016482254805660998,0.019464544393122195
85,0.18,0.001,0.017953075427752343,0.015086325939173681,22.312865278146564,0.015926384923730594,0.015436265338212251
86,0.2,0.001,0.018096884345486217,0.015061399947008947,21.263564325597166,0.01517741921884166,0.014576868899166585
87,0.22,0.001,0.01825783884383901,0.01519437560498932,19.50869191302,0.013924833628137047,0.012923287227749825
88,0.24,0.001,0.018605421385625855,0.015448334388924342,18.429497001815015,0.013154530336770175,0.020039944630116224
89,0.25,0.001,0.01875102110750919,0.015369827362851505,18.94820980434,0.013524775020942183,0.0364475566893816
90,0.25,0.001,0.019064574536398378,0.015774174946883733,18.43939753344459,0.013161597097390858,0.03203641287982464
91,0.25,0.001,0.018524520602213206,0.01519894231464306,18.636541018520827,0.01330231336082857,0.01811822094023228
92,0.25,0.001,0.018497485762638766,0.015392044314394032,17.402891340046903,0.012421763982902857,0.016060570999979974
93,0.25,0.001,0.018643697383847548,0.015566401870200669,17.245163298001255,0.012309181511778199,0.03162086699157953
94,0.25,0.001,0.018623041600859078,0.015448585492524787,17.789652190939353,0.012697824547422808,0.026857117377221584
95,0.25,0.001,0.018293825569596602,0.01521761635196035,17.239076607418756,0.012304836978885621,0.019943748787045478
96,0.25,0.001,0.0184441211150728,0.015306325710929223,17.584208871326307,0.01255118406233141,0.01738856639713049
97,0.25,0.001,0.018256770161381605,0.015114834341798385,17.60740738193484,0.012567742599525226,0.012963948398828506
98,0.25,0.001,0.01829591435618209,0.015205377209795652,17.31936961542951,0.012362148190884732,0.015883188135921954
99,0.25,0.001,0.018194757456327006,0.015202236667710499,16.770085940395827,0.011970082755457407,0.017006563767790795
100,0.25,0.001,0.017992576203533332,0.014987267213907555,16.84175506647486,0.012021238448590193,0.010929073393344878
101,0.25,0.001,0.01808746012240431,0.014940835209223477,17.633687193376304,0.012586500494915278,0.011256041005253792
102,0.25,0.001,0.018030749593120423,0.015065529635244043,16.617092257868634,0.011860879555937641,0.01955742686986923
103,0.25,0.001,0.017956613270688232,0.014959663329442052,16.794908286881274,0.011987800347524107,0.014550052396953107
104,0.25,0.001,0.01789112546800697,0.014817062194329978,17.22705163050742,0.01229625384047639,0.016233559511601926
105,0.25,0.001,0.01801753042768823,0.015027784735616976,16.754533955650608,0.011958982123947614,0.02059060484170914
106,0.25,0.001,0.01789889737528606,0.014888418987937217,16.870721775249844,0.012041914186473835,0.02190822772681713
107,0.25,0.001,0.017765563443629413,0.014780893561559438,16.726091774710774,0.01193868078137814,0.022913315147161484
108,0.25,0.001,0.017695018504984186,0.014682009143170215,16.884904193182063,0.012052037254234163,0.013428876549005509
109,0.25,0.001,0.01772392749188155,0.014734185158009947,16.754515891527607,0.011958969230212425,0.017262191325426102
110,0.25,0.001,0.017758332831907447,0.01471549112784819,17.052087895191498,0.012171368947317272,0.017623107135295867
111,0.25,0.001,0.017665032895594616,0.014587508691270856,17.246445460911215,0.012310096688730347,0.018509378377348184
112,0.25,0.001,0.017614101773522198,0.014712857789475552,16.258567879669858,0.011604973504403896,0.013223172537982464
113,0.25,0.001,0.017464367400882017,0.014587508460139707,16.12191684750745,0.011507435294437866,0.013694322854280471
114,0.25,0.001,0.01755930163836392,0.014629675972744496,16.417622816823695,0.011718503081244606,0.017345733288675547
115,0.25,0.001,0.0175206075918718,0.014535759324139922,16.7270903900592,0.011939393568921626,0.017414828576147557
116,0.25,0.001,0.017262191164993893,0.014321287454914873,16.48082284857757,0.011763613739170287,0.012420104444026947
117,0.25,0.001,0.017418139403427603,0.014498528976836345,16.36149743351623,0.011678442136699664,0.02085796482861042
118,0.25,0.001,0.017231997075307107,0.014328294542420954,16.27235096562518,0.011614811538633247,0.017237883061170578
119,0.25,0.001,0.0173163039840921,0.014552734071647163,15.48704624872138,0.011054279977674076,0.02646780926734209
120,0.25,0.001,0.017366789566883204,0.014415997726312519,16.536239603140057,0.011803168881613174,0.02888817936182022
121,0.25,0.001,0.017373175516615817,0.01455187087837797,15.810590402923362,0.01128521798923866,0.021514751575887205
122,0.25,0.001,0.0171821258527084,0.01425786344946301,16.387566392439126,0.011697049530648913,0.013990004733204841
123,0.25,0.001,0.017131996171100297,0.014152549805432341,16.696819987610308,0.011917787285945973,0.013411490619182587
124,0.25,0.001,0.01706557878612602,0.014224687536811307,15.920355469641024,0.011363565645710937,0.010541584715247155
125,0.25,0.001,0.01718068960374289,0.014253237685800469,16.405441019656884,0.011709808008320402,0.012482605315744877
126,0.25,0.001,0.01694476872301885,0.01404495146397474,16.25057740455126,0.011599270096039444,0.012805597484111786
127,0.25,0.001,0.017084407654121843,0.014315676630685364,15.51597009088001,0.01107492511840115,0.019185526482760906
128,0.25,0.001,0.016962159724131117,0.014081252589277978,16.144603235008073,0.011523628290512544,0.01744090598076582
129,0.25,0.001,0.016994379488003516,0.01401329315845331,16.70600827767031,0.011924345665717566,0.011725277453660966
130,0.25,0.001,0.016921180878242438,0.013990645929083338,16.42271942639873,0.011722140918200378,0.01237450484186411
131,0.25,0.001,0.01682572074941475,0.013930496120703047,16.224837101288955,0.011580897288571703,0.010177282430231572
132,0.25,0.001,0.016813362275596953,0.014000235866401752,15.764760915380325,0.01125250600669545,0.011996312998235226
133,0.25,0.001,0.016824551722048407,0.013956739125351836,16.071223941162554,0.011471251920886905,0.015755035728216172
134,0.25,0.001,0.016741354575883733,0.01385558459119205,16.17185573856326,0.011543080470066566,0.01232712846249342
135,0.25,0.001,0.01671720514359483,0.013923404785892823,15.656456954287787,0.0111752012521683,0.01827264577150345
136,0.25,0.001,0.016719240844793565,0.013945148346850471,15.546015412267977,0.011096370743945736,0.013390424847602844
137,0.25,0.001,0.016637951434746275,0.013861922907513858,15.556861376240306,0.01110411233136353,0.013142091408371925
138,0.25,0.001,0.016558462400397246,0.013704456518111873,15.99384820200231,0.011416022985012356,0.011103302799165249
139,0.25,0.001,0.01657257331059362,0.013755262774979547,15.788207450922389,0.011269241578103061,0.014038886409252882
140,0.25,0.001,0.016456378501479643,0.013636774682596216,15.801057954774286,0.011278413957726115,0.012744933739304543
141,0.25,0.001,0.016606999833109606,0.01386248707825685,15.380250582729813,0.010978051807801438,0.0159103374928236
142,0.25,0.001,0.01663832904866142,0.013727689243472405,16.31122689351548,0.011642560238055304,0.011771082878112793
143,0.25,0.001,0.01642904191339103,0.013488946489337152,16.47629498391256,0.011760381858609965,0.012811954971402884
144,0.25,0.001,0.01640293245496106,0.01369108058457827,15.197217969128685,0.010847407543989069,0.011549345962703229
145,0.25,0.001,0.016496626782591325,0.013742763093625108,15.432650503450937,0.01101545360703136,0.014560411125421524
146,0.25,0.001,0.016404335944485055,0.013593199982369034,15.753607756900092,0.011244545151249173,0.013115461729466916
147,0.25,0.001,0.01637977742365677,0.013454438295949549,16.3935992804757,0.011701355660582228,0.01339755803346634
148,0.25,0.001,0.016316575603219714,0.013516329392029422,15.692579652271132,0.011200984762506161,0.011294450238347053
149,0.25,0.001,0.016184525700272435,0.013519628836780134,14.934082121744643,0.010659587524443,0.009663988277316094
150,0.25,0.001,0.016044270437564293,0.013319745564656536,15.268238220771734,0.01089810008620395,0.012175104301422834
151,0.25,0.001,0.016125388212338852,0.013401998057417626,15.261878445200676,0.010893560631834887,0.0109335632994771
152,0.25,0.001,0.01608113563843887,0.01323279944404851,15.962077273069507,0.011393345662433624,0.011803970485925675
153,0.25,0.001,0.016003722664866136,0.013169756838983863,15.8815435910747,0.011335862663151106,0.013013968244194984
154,0.25,0.001,0.01581370066443499,0.01299074846897682,15.819823439103844,0.011291808307711523,0.022057195380330085
155,0.25,0.001,0.015472755937354409,0.012500460531535374,16.656745479054695,0.011889183068561524,0.01968361660838127
156,0.25,0.001,0.015050270642242292,0.01215430268895452,16.22900593193778,0.011583872899313192,0.016961844451725484
157,0.25,0.001,0.01479526122447348,0.011941301133347688,15.993593118486613,0.0114158409125529,0.013622880168259143
158,0.25,0.001,0.014620974557950113,0.011610137094763944,16.872732879471606,0.012043349664148184,0.013779060356318951
159,0.25,0.001,0.014395681488579207,0.011518712882904241,16.12253338055019,0.01150787536084953,0.010201223939657212
160,0.25,0.001,0.014306966004634861,0.011362981724206113,16.498087263455357,0.011775936661995258,0.011669943574815989
161,0.25,0.001,0.014267819342169448,0.011281051883732315,16.73784548348754,0.01194707029513743,0.015078294556587934
162,0.25,0.001,0.014265463381570621,0.011239645207287187,16.956685449085096,0.01210327298293012,0.017743281088769436
163,0.25,0.001,0.014306756837742173,0.011317333492049336,16.75272805151278,0.011957693113142598,0.012739490158855915
164,0.25,0.001,0.014243931903836935,0.011236162523120425,16.85554014331233,0.01203107790386319,0.022378401085734367
165,0.25,0.001,0.014215417777317284,0.011279704531885846,16.451737800653834,0.011742853533657269,0.01732654180377722
166,0.25,0.001,0.01417471547305149,0.011195459980925504,16.695746609764377,0.011917021134735459,0.02357451245188713
167,0.25,0.001,0.014278564207854063,0.011360348902479575,16.353678042001096,0.011672860843683866,0.0242591654881835
168,0.25,0.001,0.014372554165821005,0.011403109925887445,16.640766443127262,0.011877777618220745,0.0308131517842412
169,0.25,0.001,0.014333189295156158,0.011179784442005802,17.67168078457352,0.012613619403692735,0.034005279280245305
170,0.25,0.001,0.014145387635722647,0.011140010591569173,16.842133348005532,0.012021508456820509,0.02040616385638714
171,0.25,0.001,0.01411665689172971,0.01116767889364575,16.52607472273555,0.011795913435214526,0.012862404901534319
172,0.25,0.001,0.01415732002606357,0.011103764339520114,17.11212566125132,0.012214222456282169,0.011212115082889796
173,0.25,0.001,0.0140776855966253,0.010922774842457615,17.680120301072616,0.012619643326961182,0.016298329643905162
174,0.25,0.001,0.014067358752019215,0.011010154000870938,17.132576601348653,0.012228819843931944,0.013502093590795993
175,0.25,0.001,0.013939879508349148,0.01086213861857235,17.247660824852268,0.012310964186190055,0.010532507486641408
176,0.25,0.001,0.013975908062046898,0.010960092224235083,16.90063322025494,0.01206326425428618,0.010965941473841667
177,0.25,0.001,0.013867484718343637,0.01088625956054804,16.70678577283873,0.011924900623011228,0.018015900813043117
178,0.25,0.001,0.01390397903529832,0.010909335225494239,16.781983591344236,0.011978575011666121,0.01753426529467106
179,0.25,0.001,0.013817413064250111,0.010783475395428004,17.00218700492469,0.012135750895734968,0.011115680262446404
180,0.25,0.001,0.013803312949238032,0.010753111036861464,17.09333171983705,0.012200807794316239,0.011763387359678745
181,0.25,0.001,0.013897515874165689,0.010859565687005537,17.024673086013237,0.012151800917925223,0.012386014871299266
182,0.25,0.001,0.01374894517888553,0.010766364797188418,16.714379519441703,0.01193032085613255,0.011773617938160896
183,0.25,0.001,0.013683295258096535,0.010775808781983644,16.293553108716534,0.011629945116856912,0.013590710517019034
184,0.25,0.001,0.013711750942425136,0.01075502432012645,16.56949477648213,0.01182690562204292,0.013693854492157698
185,0.25,0.001,0.013706409895833391,0.010716088333704176,16.75776129395422,0.011961285720167181,0.011416289955377579
186,0.25,0.001,0.01376844300840893,0.01075303958334627,16.89832037208724,0.012061613399062985,0.013976791128516197
187,0.25,0.001,0.013739201614130152,0.010715926929383817,16.94243094172791,0.012093098459477451,0.013258652947843074
188,0.25,0.001,0.013600676014584347,0.010564812397869834,17.012978491121835,0.012143453598231145,0.012055788096040488
189,0.25,0.001,0.013646981094277253,0.010708465261289673,16.467444217988174,0.011754064395423394,0.015656829252839087
190,0.25,0.001,0.013685319593081073,0.01080435192905856,16.144942471580784,0.01152387042939385,0.018419471755623817
191,0.25,0.001,0.013708687706911651,0.01067644261829827,16.99270161399006,0.01212898045252681,0.019709008373320104
192,0.25,0.001,0.013643552392829944,0.01062492290035869,16.9163997677991,0.012074518035545396,0.022356010787189007
193,0.25,0.001,0.013665340025059498,0.010684345250636556,16.705495416683004,0.011923979597917918,0.01566750053316355
194,0.25,0.001,0.01367572731725926,0.010586298893402964,17.31315647598601,0.01235771340184583,0.01224978119134903
195,0.25,0.001,0.013736951878688631,0.010669137160871586,17.192035243458992,0.012271259988193428,0.01551848640665412
196,0.25,0.001,0.013537464609002545,0.010554059197867874,16.719003712173794,0.011933621493343179,0.01357827689498663
197,0.25,0.001,0.013573497166707568,0.010641788832680152,16.429292971200315,0.011726832955888876,0.017094775289297103
198,0.25,0.001,0.013656282770263888,0.010710617636133284,16.507507908953368,0.011782660891472783,0.015780410263687372
199,0.25,0.001,0.013470175200189552,0.010478547101255752,16.76508360535559,0.011966512209390141,0.011620523314923048
200,0.25,0.001,0.013482721454470697,0.010537120044557717,16.507150608257657,0.011782405858856286,0.012416134122759104
201,0.25,0.001,0.013574611300425808,0.010545350719977468,16.975976693369176,0.012117042607686779,0.017450416926294565
202,0.25,0.001,0.013566114001628691,0.010564351631124524,16.82187564877698,0.012007048999840814,0.018898496776819228
203,0.25,0.001,0.013627634173000816,0.01065390472755815,16.66477867460599,0.011894916969740179,0.019193566218018532
204,0.25,0.001,0.01349511530495038,0.01048948252097751,16.843564430292506,0.012022529928831197,0.016879705898463725
205,0.25,0.001,0.013552731297311991,0.01058508098859639,16.630712369932745,0.011870601263335293,0.011166286282241344
206,0.25,0.001,0.013448207272067123,0.010453396252472035,16.782921603126248,0.011979244541846,0.015545097179710865
207,0.25,0.001,0.013559622275405121,0.010601348243653774,16.578167838771847,0.011833096244662274,0.01772610694169998
208,0.25,0.001,0.013329506430258282,0.010399643882402103,16.418951661047274,0.011719451578192201,0.015799504518508912
209,0.25,0.001,0.013415712822419013,0.01048574685017123,16.41952965729428,0.011719864137968794,0.01322697028517723
210,0.25,0.001,0.01361236831404432,0.010618044362559805,16.780191045607964,0.011977295535765856,0.018812626786530017
211,0.25,0.001,0.013563328565363466,0.010436906880379593,17.520468050546018,0.012505687402245553,0.021881658770143985
212,0.25,0.001,0.013578596688045638,0.010491621089133903,17.299411063646748,0.012347902258134723,0.01833869833499193
213,0.25,0.001,0.013358346519679048,0.010375530928047034,16.715699592646022,0.011931263092538202,0.013070981204509734
214,0.25,0.001,0.013352740834718638,0.010318506998519827,17.00384691335859,0.012136935698328757,0.012376718968153
215,0.25,0.001,0.013355006416239878,0.010447697326486562,16.29256011099711,0.011629236339041477,0.012782330624759197
216,0.25,0.001,0.013316815229554246,0.010402368096104503,16.332563678713612,0.011657789920566462,0.014140896685421466
217,0.25,0.001,0.01330386339448882,0.010294488066956944,16.864539188190097,0.012037501204989363,0.01190616637468338
218,0.25,0.001,0.013382568520351048,0.010349097702461873,16.999571097158167,0.012133883723881633,0.015995108522474766
219,0.25,0.001,0.013421279208285964,0.010418759291842036,16.826120453159305,0.012010078838800361,0.015049483254551887
220,0.25,0.001,0.013379922796067966,0.010427064507057632,16.547817689658952,0.011811433040441794,0.015279552526772022
221,0.25,0.001,0.013309065130178946,0.010320482381286413,16.748018355265152,0.011954331445585406,0.011047270521521569
222,0.25,0.001,0.013333690781010328,0.010293277782680344,17.03847477209829,0.012161652228478436,0.012137623690068721
223,0.25,0.001,0.01334100185356436,0.010327938937303358,16.885204203807525,0.012052251394580675,0.014404149167239666
224,0.25,0.001,0.013378408010097315,0.010366131517573865,16.88079795002067,0.012049106316931242,0.011639864929020406
225,0.25,0.001,0.013367997958277264,0.010411696624092377,16.567112344894966,0.011825205099853651,0.013479215279221534
226,0.25,0.001,0.013432692967518403,0.010339435523063161,17.334615428952404,0.0123730302847626,0.02219570241868496
227,0.25,0.001,0.013337628086553003,0.010356374214111019,16.706947027331722,0.01192501572257796,0.018719590455293655
228,0.25,0.001,0.013241838330715678,0.010270224211152888,16.65292554702202,0.011886456493234845,0.013592117559164762
229,0.25,0.001,0.013371860737620044,0.010438710723045098,16.437372611386934,0.011732600008127718,0.014752533473074435
230,0.25,0.001,0.013301387313671791,0.01028770539420147,16.88867362920385,0.012054727786726517,0.022338243015110493
231,0.25,0.001,0.013241719651668177,0.010324456416287996,16.348342777168664,0.011669052660363072,0.014498700574040412
232,0.25,0.001,0.013330627205598094,0.010367796090125602,16.60370615102949,0.011851324875824045,0.01639833953231573
233,0.25,0.001,0.013456280343234539,0.010322197925054679,17.563398221983526,0.012536329922900448,0.018586647883057594
234,0.25,0.001,0.013512437116273129,0.01043715788880839,17.233864359612014,0.012301116602149902,0.019641664065420627
235,0.25,0.001,0.013293760291633814,0.010298220311583828,16.787006670541135,0.011982160364411945,0.018807345442473887
236,0.25,0.001,0.013415679050079227,0.010455281772807131,16.590067230001853,0.011841589743042008,0.014973838999867439
237,0.25,0.001,0.013254071436278577,0.010196368991784806,17.135365632328675,0.012230810586958369,0.014770601131021976
238,0.25,0.001,0.013137905681709739,0.010188045456026593,16.531017199049902,0.011799441255567382,0.011015400756150484
239,0.25,0.001,0.013273515684163049,0.010367492812067053,16.285352755637064,0.011624091902667427,0.010923235863447189
240,0.25,0.001,0.01323108956979139,0.010154180296689925,17.24299933440494,0.012307636926770121,0.012175241485238075
241,0.25,0.001,0.013211110219305013,0.010145927521053456,17.17728371167705,0.012260730700697393,0.01137762824073434
242,0.25,0.001,0.01313118022071184,0.010188014348493006,16.493500953173115,0.011772663064363394,0.014807528350502253
243,0.25,0.001,0.013171412587764055,0.01026611636481146,16.281281178885134,0.01162118570941123,0.01726812943816185
244,0.25,0.001,0.013086821979088505,0.010087331892908925,16.80914295502823,0.011997960710227145,0.012794987298548222
245,0.25,0.001,0.013065013878156234,0.010067553245836365,16.797769435130768,0.011989842566117606,0.010858337860554457
246,0.25,0.001,0.013051904500020247,0.01015362123802413,16.24197819285149,0.0115931321861895,0.011864536628127097
247,0.25,0.001,0.013130135195207423,0.010207181945986991,16.380228669103914,0.011691812040759397,0.012489202246069909
248,0.25,0.001,0.013201514476515951,0.01013945281695928,17.159794911850977,0.012248247617309763,0.011900229752063752
249,0.25,0.001,0.013167311947276123,0.010143690538613031,16.944375017263592,0.012094486093692786,0.01021052449941635
250,0.25,0.001,0.013174734051155783,0.010193879491765133,16.70470924795109,0.01192341844964389,0.013079825229942799
251,0.25,0.001,0.01331689055791519,0.010296129383636218,16.92834652253311,0.012083045340851615,0.0149575125426054
252,0.25,0.001,0.013176650780994092,0.010062350347692515,17.45254090580627,0.012457202645115111,0.015185444988310337
253,0.25,0.001,0.013230734253234237,0.010213246650613137,16.910001455432308,0.012069951074541263,0.01676337905228138
254,0.25,0.001,0.01314625901979034,0.010213099807555224,16.43742461100112,0.011732637124197802,0.013627230376005172
255,0.25,0.001,0.013085018442331875,0.010045501318535884,17.033455298764864,0.012158069449510965,0.013018917199224234
256,0.25,0.001,0.013107210445306161,0.009989698791373385,17.470536183266745,0.01247004724001909,0.013492991402745246
257,0.25,0.001,0.013035457397736337,0.010084758961342113,16.53571394760243,0.011802793681372185,0.01249865274876356
258,0.25,0.001,0.013115984972321639,0.010245683555402896,16.08516985482543,0.011481206177605589,0.013876866921782494
259,0.25,0.001,0.013042099196055945,0.010051917597433947,16.756977359743885,0.011960726166840746,0.013625862821936608
260,0.25,0.001,0.013032688317398955,0.010033813631501945,16.805693229619603,0.011995498379457247,0.012266118638217449
261,0.25,0.001,0.013056874159641945,0.010082406392932808,16.668916145380397,0.011897870196559884,0.013317552767693997
262,0.25,0.001,0.012994887728760712,0.010031471450398437,16.60698527315237,0.011853665434084492,0.009346839785575867
263,0.25,0.001,0.013102565042293854,0.010164138561889639,16.466941485439772,0.01175370555705908,0.009817896969616413
264,0.25,0.001,0.013036420922318515,0.010033478535521423,16.828489178288592,0.012011769577650672,0.010156016051769256
265,0.25,0.001,0.012969493587249822,0.009889484104448861,17.26037358193502,0.01232003824549252,0.013312050513923169
266,0.25,0.001,0.013222225506647225,0.010241098783529587,16.70623402003824,0.01192450679517362,0.011267126724123954
267,0.25,0.001,0.01306796623189954,0.009988055856776064,17.259816705745504,0.012319640760703429,0.009769776370376348
268,0.25,0.001,0.013092829308805674,0.010004736999743176,17.30566958963436,0.012352369442993833,0.01348463650792837
269,0.25,0.001,0.012988133553116427,0.009990893854983966,16.796530452087847,0.01198895820991281,0.014753569476306438
270,0.25,0.001,0.013026804425311785,0.010092667541908521,16.442902906097636,0.011736547399070403,0.013105724565684795
271,0.25,0.001,0.012891988725449046,0.009889687866951427,16.82489390964926,0.012009203361634017,0.010062158480286599
272,0.25,0.001,0.012989382687820135,0.009978248785338262,16.874393490979273,0.012044534968579067,0.010676554031670093
273,0.25,0.001,0.013079942632330595,0.010057934043235588,16.93533670467182,0.012088034764219715,0.011772512085735798
274,0.25,0.001,0.01300952304834432,0.010031586274994116,16.68835962949878,0.011911748486437388,0.011126086302101611
275,0.25,0.001,0.012986293178133285,0.009973693972140768,16.882606937937492,0.012050397528863306,0.01108514741063118
276,0.25,0.001,0.012980320191785803,0.009995797315925143,16.725267869712663,0.01193809269786771,0.0104192647151649
277,0.25,0.001,0.013046805359368776,0.010074756380143391,16.65536231716184,0.011888195800972048,0.011498869210481644
278,0.25,0.001,0.012984418942436685,0.0099509687088158,16.9994556816825,0.012133801343099573,0.011508849915117025
279,0.25,0.001,0.01289643729309531,0.009749072909790234,17.63782918888287,0.012589456951379635,0.01356830056756735
280,0.25,0.001,0.012982069283560679,0.009994450501118699,16.742617266021504,0.011950476278387941,0.011939601972699165
281,0.25,0.001,0.012949098214289568,0.010016057755879677,16.436759802546813,0.011732162599962037,0.012775130104273558
282,0.25,0.001,0.012966639137942425,0.009996468575168265,16.64483692698235,0.01188068303139354,0.014257599040865898
283,0.25,0.001,0.013024929781736683,0.009918785552038763,17.406834010660212,0.012424578166067247,0.017638418637216092
284,0.25,0.001,0.012980225529983966,0.009970793983198865,16.864854548099267,0.012037726301284274,0.016110338270664215
285,0.25,0.001,0.013023698063444918,0.010141717501147821,16.150620648460666,0.011527923375061146,0.015202974155545234
286,0.25,0.001,0.012976779745225488,0.009947265124451505,16.97739983301093,0.01211805841042893,0.014053137600421905
287,0.25,0.001,0.012987613963493466,0.009980792512804487,16.850225727053456,0.012027284601751217,0.021808180026710033
288,0.25,0.001,0.013080387913288862,0.01004768165005167,16.99528655170524,0.012130825518704669,0.013730051554739475
289,0.25,0.001,0.01296640117482765,0.009921528779677231,17.063465668337187,0.012179490127292782,0.013330098427832126
290,0.25,0.001,0.012960449235010756,0.010101158736124091,16.023465574222758,0.01143716315076571,0.015915228240191936
291,0.25,0.001,0.012905695611597413,0.0099097977521537,16.78901307600258,0.011983592488224538,0.011412829905748368
292,0.25,0.001,0.013019229278621012,0.009982921896896658,17.015466676141223,0.012145229604668966,0.013722848892211915
293,0.25,0.001,0.012922052266823985,0.009818625486843343,17.3916036717213,0.012413707117574089,0.011886231787502765
294,0.25,0.001,0.012978023910609475,0.009947138933641632,16.985079841892215,0.01212354021548338,0.013605929352343083
295,0.25,0.001,0.012835605641024827,0.009836091462821855,16.809277945191322,0.011998057062948838,0.01747221052646637
296,0.25,0.001,0.01290406671481846,0.009918555080292433,16.73080823717326,0.01194204727849626,0.012114887312054633
297,0.25,0.001,0.012836489044673686,0.009918858385542883,16.350401947968198,0.011670522446800998,0.013949539326131345
298,0.25,0.001,0.012958372922709389,0.009974157777580902,16.723542290012333,0.011936861020708303,0.015341339260339737
299,0.25,0.001,0.013041685063419116,0.01000500762032984,17.01754160693092,0.01214671064020765,0.012999069318175316
300,0.25,0.001,0.012938489940316572,0.01001220119668402,16.39892159065191,0.011705154597181949,0.014494027011096478
301,0.25,0.001,0.013046669753363533,0.01001656114592822,16.980728511392634,0.012120434340751345,0.01848893389105797
302,0.25,0.001,0.012932623926903645,0.01003019308440224,16.265222605127487,0.011609723486886143,0.017141011357307435
303,0.25,0.001,0.012880181125535147,0.009992874071110774,16.180468510537253,0.0115492280589131,0.021901391632854938
304,0.25,0.001,0.012917290264944526,0.009927165028333228,16.756662034640346,0.011960501095389256,0.017803382687270643
305,0.25,0.001,0.01289704414832331,0.009875689476837207,16.931671365334168,0.012085418533429098,0.015380062721669674
306,0.25,0.001,0.012770487083951487,0.009698632975401234,17.214670069896393,0.012287416181225119,0.017902445048093796
307,0.25,0.001,0.01276084196747002,0.00986891301743088,16.206370256242963,0.011567716100102043,0.010547521524131298
308,0.25,0.001,0.012692873019480357,0.009826388590744813,16.0637783760572,0.011465937456143611,0.015281584858894349
309,0.25,0.001,0.012831809175928143,0.009802777190985035,16.974695616394936,0.012116128205849347,0.015114799048751593
310,0.25,0.001,0.012867564471424932,0.009813585080695849,17.11450040775494,0.012215917493044211,0.01636504577472806
311,0.25,0.001,0.012858663366115006,0.009910207438914881,16.523147081806712,0.011793823755750686,0.014836864173412323
312,0.25,0.001,0.012701224372552259,0.009688788209192074,16.88169348500941,0.012049745528200864,0.014604769460856915
313,0.25,0.001,0.012786898184159812,0.00978447128440777,16.825600909490657,0.012009708001063995,0.01446814090013504
314,0.25,0.001,0.012718166809284339,0.009696532061228351,16.933240862658423,0.012086538802754048,0.011033559311181306
315,0.25,0.001,0.012759064446563703,0.009704604466194219,17.117194238370352,0.012217840284347147,0.01321354303508997
316,0.25,0.001,0.012732592159814208,0.009713274256808914,16.92025758228163,0.012077271650450841,0.013777138106524945
317,0.25,0.001,0.012852966663067358,0.00989922185013764,16.55278652775897,0.011814979677201262,0.013099751994013786
318,0.25,0.001,0.012826239350285843,0.009782232480110044,17.058615162424797,0.012176027953194002,0.012789196893572807
319,0.25,0.001,0.012747856149327582,0.009688749698663715,17.143231941835722,0.012236425368904869,0.01804182268679142
320,0.25,0.001,0.012722936193764646,0.009780067413447112,16.491837104741673,0.011771475449494414,0.01691141976043582
321,0.25,0.001,0.01275385392788988,0.009810178533849054,16.496356894500064,0.011774701566381203,0.018883468769490718
322,0.25,0.001,0.012851475166959048,0.009764055905007098,17.30189842725322,0.012349677678267824,0.015297399275004864
323,0.25,0.001,0.012842123648219735,0.009772679822886512,17.201162505323868,0.012277774807511683,0.014737235568463802
324,0.25,0.001,0.012795711561602398,0.009843654937389559,16.543325452038843,0.011808226589606598,0.012974344380199909
325,0.25,0.001,0.01278526724798836,0.009775734234628452,16.86542356449322,0.012038132451458402,0.013490360416471957
326,0.25,0.001,0.012638681119539006,0.009609038506491776,16.97811722581404,0.012118570468104238,0.012667680345475673
327,0.25,0.001,0.012787864930982138,0.009800165986818989,16.743064177297327,0.011950795272874608,0.010174235515296459
328,0.25,0.001,0.012770680030875833,0.009773826722844239,16.794366634675185,0.011987413729247099,0.012475061602890492
329,0.25,0.001,0.012727584281977075,0.009709667720335678,16.912405000115832,0.012071666666749345,0.014860068447887897
330,0.25,0.001,0.012674288463907956,0.009637643148048516,17.017360311355034,0.012146581235799453,0.0164090134203434
331,0.25,0.001,0.012650671856899331,0.009749586857093947,16.25768098343898,0.011604340459271221,0.017548362724483013
332,0.25,0.001,0.012708112815000715,0.009780777026865169,16.40478970186554,0.01170934311339439,0.013331681489944458
333,0.25,0.001,0.012709807767702716,0.00968543011831106,16.948613368681748,0.01209751132668219,0.011440052837133407
334,0.25,0.001,0.01270584827356965,0.009631607545553332,17.228044704799235,0.012296962672947349,0.013342620898038149
335,0.25,0.001,0.012756239731598944,0.009739794883958614,16.904157039892933,0.012065779471729432,0.017310787364840506
336,0.25,0.001,0.012772723869250638,0.009760073596869942,16.882891244261803,0.012050600459858531,0.015409477055072784
337,0.25,0.001,0.012803587287555646,0.009717561032650245,17.29409060513016,0.012344104643204968,0.01718354467302561
338,0.25,0.001,0.012691518672517617,0.00966280935345775,16.97288815992592,0.01211483808702778,0.01575082093477249
339,0.25,0.001,0.012798932143045168,0.009941112970674995,16.015218804352475,0.011431276805390774,0.022184117697179317
340,0.25,0.001,0.012778388852946949,0.009663381008771213,17.456504264887233,0.012460031595208589,0.023731891997158527
341,0.25,0.001,0.012978197605668628,0.009729925141989315,18.203318394013564,0.012993089503221674,0.019496067985892297
342,0.25,0.001,0.012852251196592829,0.009782159347495023,17.204795099522947,0.012280367665612382,0.02043827809393406
343,0.25,0.001,0.012863950198856148,0.009853025626418365,16.87322159927257,0.01204369850055144,0.017901197262108325
344,0.25,0.001,0.0128309466216686,0.009801185329573869,16.978783614444037,0.01211904612023129,0.012493767589330674
345,0.25,0.001,0.012703299515601927,0.009641163411421062,17.160210616397162,0.012248544337185698,0.014005586132407188
346,0.25,0.001,0.012598091906385266,0.00956588076685902,16.9925120973239,0.012128845180102711,0.014421162940561772
347,0.25,0.001,0.012642666847057586,0.009728575349669822,16.330569719746165,0.011656366680761003,0.010523580014705658
348,0.25,0.001,0.012610381469130516,0.0096927242503114,16.35055173748601,0.011670629362945047,0.011733724735677242
349,0.25,0.001,0.012667086818357454,0.009667608003220418,16.80907849499779,0.011997914700212556,0.012971261329948903
350,0.25,0.001,0.012745724753034812,0.009778684589767108,16.62729466570555,0.011868161788512169,0.014010496437549591
351,0.25,0.001,0.012659809592920934,0.009577932264519869,17.27084125045442,0.012327509814742628,0.012517132237553597
352,0.25,0.001,0.012656007227181952,0.009631478220876986,16.94946050991977,0.012098115995660078,0.015188520774245262
353,0.25,0.001,0.012590428365625603,0.009598312637748291,16.767817156158223,0.011968463352004442,0.012406174279749393
354,0.25,0.001,0.012609760358548947,0.009658320392244053,16.539868904726347,0.0118057593895263,0.009407690726220608
355,0.25,0.001,0.012517923319263614,0.009507131429701826,16.872477761150275,0.012043167566845307,0.010410500131547451
356,0.25,0.001,0.012592686054697872,0.009607356639891646,16.729786775408,0.011941318183731621,0.010766465216875076
357,0.25,0.001,0.012513528081731205,0.009498965783710898,16.89360706301501,0.012058249152758752,0.010817969590425492
358,0.25,0.001,0.012615090739117922,0.009592975496593183,16.935932284724103,0.012088459874892293,0.010889370460063219
359,0.25,0.001,0.012553905245650858,0.00957483081079095,16.694734642975522,0.011916298817255904,0.011917859315872192
360,0.25,0.001,0.012557459831999166,0.009599926612972126,16.57401668938407,0.011830133254378351,0.016073446534574033
361,0.25,0.001,0.012583867436016563,0.009501479817622335,17.273700700189075,0.012329550820977213,0.014652277529239654
362,0.25,0.001,0.012659119000236918,0.009555993445326377,17.389916482633048,0.012412502842707385,0.011591084115207196
363,0.25,0.001,0.012683383685393925,0.009614535770548957,17.197823698503257,0.01227539164775393,0.016013005189597605
364,0.25,0.001,0.012669949982668797,0.009773597930197733,16.231157302856445,0.011585408495971767,0.012838898226618767
365,0.25,0.001,0.012571821451513436,0.009553881198929174,16.912537080528093,0.012071760942561094,0.012534500472247601
366,0.25,0.001,0.012642904721798688,0.0096139444826837,16.974294293535888,0.012115841751274723,0.010849616583436727
367,0.25,0.001,0.012621186578469555,0.00964994921627706,16.65081448798632,0.011884949670225782,0.010992570035159587
368,0.25,0.001,0.01265828144213144,0.00959170976123453,17.185067323002503,0.012266286454677018,0.011785504780709744
369,0.25,0.001,0.012642435566352231,0.009492722523473475,17.650993082645165,0.012598853021160004,0.011098768282681703
370,0.25,0.001,0.012676189578797695,0.009612291772598333,17.170083171259748,0.01225559112866506,0.01170234801247716
371,0.25,0.001,0.012552794626485692,0.009484954830938882,17.192174438142427,0.012271359342000304,0.01121592503041029
372,0.25,0.001,0.012553207270365997,0.009504501456326812,17.084947822737867,0.012194823570833594,0.014935612305998802
373,0.25,0.001,0.012557088730544069,0.009510589450815298,17.072581451304636,0.012185996753250989,0.011863918416202069
374,0.25,0.001,0.012516938007171572,0.009381633367471016,17.570245659264334,0.012541217458432787,0.00943784499540925
375,0.25,0.001,0.012567943777807438,0.009488571836293614,17.256801187557027,0.012317488356571754,0.010460112616419793
376,0.25,0.001,0.012563375443437674,0.009592571078262625,16.648387783635272,0.011883217547205761,0.014918960258364677
377,0.25,0.001,0.01259877950796028,0.009561139947469653,17.022932080456812,0.012150558230161894,0.016184090822935104
378,0.25,0.001,0.012721357200920146,0.009678848332514728,17.05021813664123,0.012170034358773184,0.01322233472019434
379,0.25,0.001,0.01266886602516157,0.009531402199046456,17.5823483849964,0.012549856092074518,0.014782661385834218
380,0.25,0.001,0.012667623321342207,0.00968894218332576,16.692528293080574,0.01191472397793046,0.0185964897274971
381,0.25,0.001,0.012623805307993924,0.009587104887749156,17.01766920437778,0.012146801716186852,0.01252490933984518
382,0.25,0.001,0.01259245016496547,0.009466128383022155,17.519906357257035,0.012505286479127077,0.0145841876976192
383,0.25,0.001,0.012524225851045038,0.009480303602062003,17.058141360317702,0.01217568976468073,0.01443947721272707
384,0.25,0.001,0.012530987089785346,0.00946259255908484,17.195282386167207,0.012273577720319206,0.010945008881390095
385,0.25,0.001,0.012495846698318954,0.009493642493429846,16.824353044050454,0.012008817304818311,0.012452415749430656
386,0.25,0.001,0.012550400175752431,0.009472316287349175,17.249583056373318,0.012312336228674746,0.01549400482326746
387,0.25,0.001,0.01255366862853513,0.00953499120694116,16.916667618020607,0.012074709220571455,0.0188502574339509
388,0.25,0.001,0.012500287835778546,0.009507870498745546,16.769507449908847,0.011969669842904245,0.015069442428648471
389,0.25,0.001,0.012476943344911085,0.009505453546715044,16.65222751311142,0.011885958253469964,0.0213160777464509
390,0.25,0.001,0.012523760672413954,0.0094058319355232,17.472872351207872,0.012471714740333956,0.015553021058440208
391,0.25,0.001,0.012475933845624001,0.009382125432093213,17.33770263282052,0.012375233856402941,0.010042558889836073
392,0.25,0.001,0.012542418007106676,0.009523849913945599,16.916055915999586,0.012074272602426541,0.01244639903306961
393,0.25,0.001,0.012329670485027516,0.00927706450958104,17.106802961252033,0.01221042324143614,0.011996722035109996
394,0.25,0.001,0.012531649253337922,0.0094914531783901,17.037258329182645,0.012160783960872695,0.011912418343126775
395,0.25,0.001,0.012403803775562857,0.009348645602373312,17.121108507587962,0.012220634195280487,0.012500113248825074
396,0.25,0.001,0.012527212616137779,0.009506704931548477,16.92692607684727,0.0120820314609902,0.010523846466094255
397,0.25,0.001,0.012539871961530977,0.009423461797082946,17.46436268047695,0.012465640742667344,0.017813045345246793
398,0.25,0.001,0.012549251916199705,0.009413133222392223,17.574810209065458,0.012544475523958215,0.01573150958865881
399,0.25,0.001,0.012488180832651845,0.0094173390173564,17.208997378384108,0.012283367150880877,0.0110729506239295
400,0.25,0.001,0.012513909081037897,0.009438087783046882,17.23690305835139,0.012303285551999565,0.014429275784641505
401,0.25,0.001,0.012460196689858923,0.00941845209059054,17.04593698821799,0.012166978578314053,0.011375761032104493
402,0.25,0.001,0.012493860792287075,0.009388145134124878,17.404431698096058,0.012422863453316245,0.00969042843207717
403,0.25,0.001,0.01249938278057932,0.009403639765333956,17.34854333418129,0.012382971687495567,0.009224187303334474
404,0.25,0.001,0.012492416616882721,0.009410108983462308,17.27325205559278,0.012329230589288209,0.009399613551795482
405,0.25,0.001,0.012493509785646069,0.009436626476745535,17.130772458375805,0.012227532090204002,0.013246719259768724
406,0.25,0.001,0.012542511220939839,0.009507449534143845,17.00848582191189,0.012140246839337537,0.01228936668485403
407,0.25,0.001,0.012558986466840236,0.00944430383099039,17.454682301430807,0.012458731121649398,0.011607334949076176
408,0.25,0.001,0.012525594242624123,0.009422731470235073,17.388442700796755,0.012411450892788547,0.011443127505481243
409,0.25,0.001,0.012652667925903832,0.009531425101424221,17.491444149156557,0.012484970841653502,0.012609387002885341
410,0.25,0.001,0.012512843851951788,0.009386032058374726,17.5226549997817,0.012507248393848466,0.009622420929372311
411,0.25,0.001,0.012469344180974647,0.009406721606905009,17.162936704872298,0.012250490153370663,0.011137738823890686
412,0.25,0.001,0.012493043940813436,0.009335515592383208,17.69479029021994,0.012630114411291892,0.010412450414150953
413,0.25,0.001,0.01244566217744655,0.00940293624969947,17.051436145810314,0.012170903744332844,0.010444232821464538
414,0.25,0.001,0.012438082007052254,0.009427930112846577,16.868890720562344,0.012040607223813237,0.013895109668374062
415,0.25,0.001,0.012443771354690955,0.009328716692861415,17.45676768783235,0.01246021962015157,0.012500143051147461
416,0.25,0.001,0.01255730407679603,0.00947972820786229,17.246736178432936,0.012310304195883609,0.02174884472042322
417,0.25,0.001,0.012566755029515628,0.009496298700190373,17.206838106586986,0.012281825914765872,0.021235205233097076
418,0.25,0.001,0.01247972769350031,0.009314902405506068,17.735680782011826,0.012659301057824287,0.015009407885372639
419,0.25,0.001,0.012511349412320304,0.009465939521680783,17.066476905432932,0.012181639475683749,0.014532024785876275
420,0.25,0.001,0.012476670712123822,0.009407505059927485,17.19960474445872,0.012276662915388096,0.011529120896011592
421,0.25,0.001,0.012454186736123406,0.009390756827745124,17.167461520563947,0.012253719857647357,0.011879656091332435
422,0.25,0.001,0.012438273506007926,0.009430182859791022,16.857340151376096,0.012032362706192788,0.011598208546638488
423,0.25,0.001,0.012468168117704183,0.00936803450794333,17.373147853099518,0.012400533799500013,0.013482674956321716
424,0.25,0.001,0.01249492315942571,0.009420357005548304,17.22986821362572,0.012298264249554405,0.01297081569209695
425,0.25,0.001,0.012446949645931269,0.009344376970327249,17.386818530785778,0.012410291599418827,0.009864979423582554
426,0.25,0.001,0.012500680670359709,0.009408432052192026,17.328961267958594,0.012368994481055384,0.013590091653168202
427,0.25,0.001,0.012523994060491558,0.009397479814280123,17.520985011636775,0.012506056396600124,0.014383178018033505
428,0.25,0.001,0.012458574951347643,0.009378449311547906,17.26102344485095,0.012320502101963561,0.015513214655220509
429,0.25,0.001,0.012516239603614285,0.009445435265554998,17.20878702706664,0.012283217007185326,0.018616362102329732
430,0.25,0.001,0.012405025616396953,0.009334518778117468,17.207119196870902,0.012282026550229053,0.02226888220757246
431,0.25,0.001,0.01247754633209131,0.00937808430787638,17.369385921171983,0.012397848623249096,0.017704362981021404
432,0.25,0.001,0.012508622737750955,0.009554332951559637,16.555839608185483,0.011817158892352237,0.01702539883553982
433,0.25,0.001,0.012501787734183952,0.009361103516969367,17.600394771046883,0.012562737167057018,0.019407662749290466
434,0.25,0.001,0.012666095945521863,0.009575758421671217,17.318252479943045,0.012361350806526084,0.015296067669987678
435,0.25,0.001,0.012450591742611714,0.009254626107205004,17.910192211178966,0.01278386310576657,0.014296698570251464
436,0.25,0.001,0.012415650830923641,0.009415609034689238,16.812234711473007,0.012000167531386871,0.012169621884822845
437,0.25,0.001,0.012543173343704564,0.00954913243950501,16.778606331261404,0.011976164404897505,0.013595365546643734
438,0.25,0.001,0.01246686818173332,0.0093635681771884,17.390893880468216,0.012413200485701796,0.013987716101109982
439,0.25,0.001,0.012385915550165367,0.009292183675035074,17.33727343761138,0.012374927507217259,0.016336529701948165
440,0.25,0.001,0.012439773030524705,0.009335573946200583,17.395931104673956,0.012416795934813672,0.015492745488882066
441,0.25,0.001,0.012388665881687707,0.009355746196025479,16.99648353131148,0.01213167989386972,0.013619520515203477
442,0.25,0.001,0.012435401076056661,0.009399854027441819,17.011205812440302,0.012142188302955248,0.012333659268915654
443,0.25,0.001,0.012323934646037808,0.009257338975087135,17.185202563766147,0.01226638298627134,0.010580195393413306
444,0.25,0.001,0.012425870083979447,0.009307931809529772,17.472926870749816,0.012471753655067678,0.016053037159144877
445,0.25,0.001,0.012379063476883147,0.009232066422157044,17.63577188366521,0.012587988496549045,0.015237224474549293
446,0.25,0.001,0.01232846049306384,0.009304232555475548,16.94777402390529,0.012096912222630471,0.014540009386837482
447,0.25,0.001,0.012258247751062804,0.009216412120111232,17.046447224860643,0.012167342772919802,0.010903068259358406
448,0.25,0.001,0.01234479487812432,0.009298771483837252,17.069914810848932,0.012184093369628075,0.011001978162676096
449,0.25,0.001,0.012301019168574444,0.009134486616745482,17.7452497273466,0.012666131140147465,0.01300584115087986
450,0.25,0.001,0.012318918141570405,0.009281916768174537,17.019354451311766,0.012148004604790697,0.010422146692872048
451,0.25,0.001,0.01232276863017439,0.00928729949315099,17.010769405504213,0.012141876806212858,0.014544784277677535
452,0.25,0.001,0.012532615191201224,0.009460414902572213,17.21661122175899,0.01228880172859314,0.01664396971464157
453,0.25,0.001,0.01234312254908311,0.009230724576670324,17.44187768532412,0.012449591495591805,0.014026189967989922
454,0.25,0.001,0.012381837941216726,0.009215862904913235,17.74212427905006,0.012663900270556788,0.01646552700549364
455,0.25,0.001,0.012406498316104395,0.009282819593637965,17.505095099010607,0.012494714560321632,0.016551521234214307
456,0.25,0.001,0.012402481793759077,0.009361172247895577,17.043500037088883,0.012165239141391065,0.01537534836679697
457,0.25,0.001,0.012427995837952968,0.00927402261291107,17.674866683291693,0.01261589342133597,0.016844394989311694
458,0.25,0.001,0.012334113111243631,0.009377479682384181,16.568974849951527,0.011826534511028927,0.0132199726998806
459,0.25,0.001,0.012324564498815223,0.009361452851308523,16.605277291179572,0.011852446317758438,0.01180297639220953
460,0.25,0.001,0.012419560230778951,0.00934473588981115,17.23131596084929,0.012299297616594783,0.014557442627847195
461,0.25,0.001,0.01243347871069708,0.009171596116447536,18.279590954745775,0.013047531016949162,0.014149264059960842
462,0.25,0.001,0.0123562889146435,0.0092741367169214,17.27237977076621,0.01232860797342342,0.011492745019495487
463,0.25,0.001,0.012258090323557819,0.009266187756383507,16.766621457399243,0.011967609891077261,0.010092114098370075
464,0.25,0.001,0.012346484399244299,0.009324058016802925,16.937677745401423,0.012089705742613435,0.010743420664221048
465,0.25,0.001,0.012353619513013503,0.009263451816174237,17.3172988473934,0.012360670126619129,0.01120245885103941
466,0.25,0.001,0.012376731628701634,0.009226526568786506,17.653750315199805,0.012600821067237547,0.011576120555400849
467,0.25,0.001,0.01226432297215627,0.009219233436088492,17.064681060122748,0.01218035764462723,0.012814827542752028
468,0.25,0.001,0.012339976385072634,0.00930117717842116,17.02943100198342,0.012155197003557043,0.014609681256115437
469,0.25,0.001,0.012337242429872063,0.00931625388372336,16.92962028336351,0.012083954520602076,0.013944988511502743
470,0.25,0.001,0.012324178265067784,0.009222483996601,17.38189488431833,0.01240677721935641,0.015384908579289914
471,0.25,0.001,0.012433219007658262,0.009262713372544215,17.76751444461572,0.012682023158183954,0.016273821517825127
472,0.25,0.001,0.012457594459019873,0.009308123495429754,17.64963457706201,0.012597883352649542,0.017678744904696942
473,0.25,0.001,0.012431610599975952,0.009333094816491768,17.364081863069185,0.012394062714539033,0.018664282746613026
474,0.25,0.001,0.012437292565013806,0.00931667857361536,17.48792021814054,0.012482455544711307,0.012335057742893696
475,0.25,0.001,0.01230271085145047,0.00922022208598626,17.27426753078934,0.01232995541098454,0.010917278286069632
476,0.25,0.001,0.012315933109961288,0.009186397333812974,17.537919413434327,0.012518143764050197,0.012633363902568816
477,0.25,0.001,0.012227708229074513,0.009136154085234568,17.325071084238317,0.012366217761768963,0.011639468744397164
478,0.25,0.001,0.0123708817128935,0.00926732293323335,17.3923424491047,0.012414234439046894,0.012328886426985264
479,0.25,0.001,0.012328401316691488,0.009248087678893204,17.262076844264122,0.012321253993050766,0.011709341965615749
480,0.25,0.001,0.012378787934562586,0.00919453440791499,17.84455775518487,0.012737014814550227,0.012729254364967347
481,0.25,0.001,0.01239324940953159,0.009252588611340871,17.600263595581055,0.012562643537174201,0.01645300183445215
482,0.25,0.001,0.012330174330540383,0.009247365903897877,17.276060187903635,0.01233123496638375,0.01575665269047022
483,0.25,0.001,0.012221947930970766,0.009127758844436085,17.339836705340087,0.012376757105881575,0.011346634477376938
484,0.25,0.001,0.012322402362079515,0.009285389221388928,17.019420609857043,0.0121480518271642,0.013156856037676334
485,0.25,0.001,0.01245333841002553,0.00926950016487254,17.842230330418495,0.012735353554902566,0.013351748697459698
486,0.25,0.001,0.012304677485223235,0.009142162937698138,17.72273058090767,0.012650057516707829,0.012826460413634777
487,0.25,0.001,0.012307425913312575,0.009205764608226554,17.381709690511663,0.012406645032485127,0.011960439290851355
488,0.25,0.001,0.012388868685675798,0.009319809591737541,17.199007229213297,0.012276236423421339,0.011046100035309791
489,0.25,0.001,0.012233924222634222,0.009107371731015453,17.521198843517443,0.012506209024637718,0.012664834968745708
490,0.25,0.001,0.012440535559380142,0.009273144046021422,17.750062803282354,0.012669566597631944,0.015121802873909473
491,0.25,0.001,0.012380018728329752,0.00925235481198578,17.52742974775551,0.012510656493758394,0.016533337347209454
492,0.25,0.001,0.01239452206522879,0.009298187779113107,17.351858960451,0.012385338301535332,0.01911873184144497
493,0.25,0.001,0.012327133915828962,0.009226438412646743,17.376297999472513,0.012402782297981809,0.01364749763160944
494,0.25,0.001,0.012395841008337745,0.009311976257956376,17.281977159263445,0.012335458357789753,0.011921677179634571
495,0.25,0.001,0.01224671726380169,0.009132750879592486,17.4506671654917,0.012455865214483728,0.011191867478191852
496,0.25,0.001,0.012260249781891377,0.00915208977585944,17.41812884198488,0.012432640144171935,0.015403536334633827
497,0.25,0.001,0.012157782796688759,0.009129362201222973,16.97126867475301,0.012113682137582448,0.012230680417269468
498,0.25,0.001,0.012257972840953917,0.009280322085603745,16.68675511770875,0.011910603224631512,0.015255633741617203
499,0.25,0.001,0.012246563989859427,0.009133298738594474,17.446739892889983,0.012453062022048525,0.015160154737532138
500,0.25,0.001,0.012133373940078011,0.009054442724879206,17.25433131030006,0.012315725417773062,0.013364986889064312
