epoch,beta,learning_rate,train_loss,train_reconstruction_loss,train_kl_unnormalized,train_kl_normalized,mean_unclipped_gradient_norm
1,0.0,0.001,0.07259796977638117,0.07259796977638117,71.3458289650088,0.05092493145254019,0.1261881548497412
2,0.02,0.001,0.05279570195262748,0.04725248501813563,388.30234994213293,0.27716084935198637,0.13851117798023754
3,0.04,0.001,0.04155332462595076,0.03828432536033234,114.49671437562918,0.08172499241658043,0.13546196619669595
4,0.06,0.001,0.03687079692979473,0.03158090302480652,123.5190252037533,0.08816490021681178,0.06905576917860243
5,0.08,0.001,0.034997057098685724,0.03123671613200931,65.85297331489798,0.04700426360806423,0.053195364152391754
6,0.1,0.001,0.03321928671559491,0.03058280799531136,36.937067544179044,0.026364787683211308,0.044471700572305255
7,0.12,0.001,0.03192970830737571,0.02964189403881395,26.71022971788465,0.019065117571652142,0.039656964441140495
8,0.14,0.001,0.030235919810682806,0.027953739746215123,22.838106387323563,0.016301289355691338,0.034691058513191014
9,0.16,0.001,0.028093835129360322,0.025460254502382988,23.060292294150905,0.016459880295610924,0.03191393344766564
10,0.18,0.001,0.026325261754451993,0.023334125874939285,23.281005198206962,0.01661741984168948,0.021284951207538445
11,0.2,0.001,0.02570124491778779,0.02249829319327691,22.436676738482856,0.016014758557089833,0.038765061957140766
12,0.22,0.001,0.025154023628999662,0.02175093038234109,21.671518941972735,0.015468607381850632,0.04778400560220083
13,0.24,0.001,0.02432447372379623,0.020978432412372527,19.53251708181281,0.013941839458824275,0.040910645491547055
14,0.25,0.001,0.023613276477301402,0.02006354331361728,19.892704823488764,0.014198932779078346,0.029927892403470144
15,0.25,0.001,0.022676049517011253,0.01919307556348141,19.518584654681696,0.013931894828466592,0.03474331150452296
16,0.25,0.001,0.02150326717421818,0.018170286953692643,18.678019532274636,0.01333191972325099,0.025047513604578044
17,0.25,0.001,0.02126918987332152,0.01793528477003808,18.683202733145436,0.013335619366984608,0.04799449247204595
18,0.25,0.001,0.02061229033865535,0.01718778167589282,19.190945696268237,0.013698034044445565,0.02537849721395307
19,0.25,0.001,0.020546777457837184,0.01729981039740321,18.196003188671522,0.012987868086132422,0.0501377418016394
20,0.25,0.001,0.020377715272041283,0.01698847776261951,18.99328822708822,0.013556950911554762,0.05279202407432927
21,0.25,0.001,0.020168489453715768,0.01699677252036582,17.77430194259339,0.012686867910487787,0.03466003015637398
22,0.25,0.001,0.01993471515211133,0.016700206916042334,18.126185955456076,0.012938034229447592,0.022688514087349176
23,0.25,0.001,0.01984648582628656,0.016516730175801502,18.6599511632902,0.013319022957380584,0.03455754524717728
24,0.25,0.001,0.01952540779489679,0.016383364593809617,17.60801103456916,0.012568173472212105,0.0159473420224256
25,0.25,0.001,0.019465525146107276,0.016161007603829873,18.51851714457877,0.013218070767008401,0.025678067571587034
26,0.0,0.001,0.015623996051166971,0.015623996051166971,24.581937177211532,0.017545993702506448,0.02985507208440039
27,0.02,0.001,0.014954493659972711,0.01422568512387479,51.053039654629636,0.03644042801900759,0.02114795024196307
28,0.04,0.001,0.01542088775109574,0.013540842776573829,65.84857017115543,0.04700112075028939,0.013806638825270865
29,0.06,0.001,0.015911219442117885,0.013624776364346381,53.38844979869476,0.03810738743661296,0.015653605469399028
30,0.08,0.001,0.015987884036912675,0.013936463121439714,35.92551140343862,0.02564276331437446,0.02028602661771907
31,0.1,0.001,0.0164755356655255,0.01434914288727969,29.790764668459467,0.021263929099542802,0.03068476863619354
32,0.12,0.001,0.01677662522925872,0.014237954830598702,29.638978535813127,0.021155587819995093,0.0264624812019368
33,0.14,0.001,0.016970643888611327,0.014195089683125975,27.775369405313757,0.01982538858337884,0.015445807690007819
34,0.16,0.001,0.01720632198258234,0.014330120060843046,25.1847437496843,0.017976262490852463,0.019973828612516325
35,0.18,0.001,0.017627392173786994,0.014575818029592345,23.751419891246652,0.01695319050053294,0.026143442632423505
36,0.2,0.001,0.017740585558968316,0.014481512826280888,22.829804069117497,0.016295363361254457,0.027215183712542057
37,0.22,0.001,0.018061414979628123,0.014852322445347392,20.436086768896306,0.014586785702281446,0.01975039392709732
38,0.24,0.001,0.018094380360820117,0.014496576575099233,21.00218104450759,0.014990850138834826,0.022398334927856922
39,0.25,0.001,0.01817275012780772,0.01487313217049069,18.4910590073158,0.013198471811074804,0.024893887082321778
40,0.25,0.001,0.018075642383872055,0.014737825232224975,18.705127466828333,0.013351268712939566,0.0283518699515197
41,0.25,0.001,0.018047576797230274,0.014662422550784697,18.970404470897197,0.01354061703847052,0.01877311725790302
42,0.25,0.001,0.01781572888988981,0.014568351793986916,18.19830254244934,0.012989509309385682,0.018522242808507547
43,0.25,0.001,0.01775411040794287,0.014613294122088193,17.60113343655955,0.012563264408679194,0.01529825095915132
44,0.25,0.001,0.017700484898042764,0.014442754172451267,18.256324241901265,0.013030923798644728,0.017174763398038015
45,0.25,0.001,0.01765300335190149,0.014508092109986095,17.624083212629206,0.012579645405160033,0.017891257535666227
46,0.25,0.001,0.017459892774315148,0.014283951777565933,17.797974044744418,0.012703764485898942,0.017261582271506388
47,0.25,0.001,0.017403023587894743,0.014232015418067926,17.77032941482461,0.012684032416006144,0.013276449818578031
48,0.25,0.001,0.017296897531394084,0.014134324885931833,17.72305680705934,0.012650290369064482,0.01741424249485135
49,0.25,0.001,0.01735270595999465,0.014241288894425719,17.436381833306676,0.012445668689012616,0.020428549084398482
50,0.25,0.001,0.017136365722885148,0.014047215271829044,17.311599243357914,0.012356601886765106,0.01883808999425835
51,0.0,0.001,0.013377958244412543,0.013377958244412543,24.09617679132091,0.017199269658330414,0.02139218534446425
52,0.02,0.001,0.012933637694998251,0.012229123326887236,49.351238679972404,0.03522572354030864,0.014465299021038745
53,0.04,0.001,0.013549199525584652,0.011852948383821983,59.411203325551995,0.042406283601393285,0.01580089320325189
54,0.06,0.001,0.013808295800064955,0.011885872031283141,44.888593441778,0.032040395033389006,0.009005027823150158
55,0.08,0.001,0.014027170184492632,0.012296693680128472,30.30496645060295,0.021630953926197682,0.009599141207420163
56,0.1,0.001,0.014388134561059912,0.012448784082235528,27.170298349619344,0.019393503461541287,0.009098895204563936
57,0.12,0.001,0.014591118655490357,0.012283664536468022,26.939527805833766,0.01922878501487064,0.009962003574603133
58,0.14,0.001,0.014928697177399957,0.012551192366627946,23.792033204149636,0.016982179303461555,0.010827965051349666
59,0.16,0.001,0.015198562515666286,0.012580300775946485,22.926156987295826,0.016364137749675822,0.011578928058346113
60,0.18,0.001,0.01549755977111752,0.012715139933363172,21.65649984882445,0.015457887115506387,0.014136651944782998
61,0.2,0.001,0.015660695875310313,0.012752462046629937,20.372178512130155,0.014541169530428376,0.017546052992757823
62,0.22,0.001,0.0159684718534107,0.012955584100188988,19.186618320305854,0.013694945267884263,0.02264570237861739
63,0.24,0.001,0.016180528442759048,0.012979919594558744,18.683553937991604,0.013335870048530768,0.01967063478918539
64,0.25,0.001,0.016290449008291515,0.013024284597317233,18.303584716713797,0.013064657185377443,0.017521659326222207
65,0.25,0.001,0.016067713466954642,0.012991266732464144,17.24040648638661,0.012305786214408716,0.012115297373384237
66,0.25,0.001,0.016062931659650025,0.013021431251440852,17.04456856549327,0.012166001831187203,0.013292659177548356
67,0.25,0.001,0.015999513220197492,0.012855335779339346,17.619969674333685,0.01257670926076637,0.01723691262304783
68,0.25,0.001,0.016019856792193466,0.01299737411772599,16.93799358617156,0.012089931182135305,0.013782416366868548
69,0.25,0.001,0.01600834942961994,0.012954560943461698,17.11342929625468,0.012215152959496559,0.02392557594511244
70,0.25,0.001,0.015966874449268767,0.012937330071241367,16.977567098101773,0.012118177800215398,0.027614802949958377
71,0.25,0.001,0.016105638536372764,0.01297967757745739,17.517886378154998,0.0125038446667773,0.03540264525347286
72,0.25,0.001,0.01601791853413067,0.013095097934080122,16.379486260526626,0.011691282127428,0.028464851383533742
73,0.25,0.001,0.0158381918631156,0.012814006058265964,16.947537011979062,0.01209674304923559,0.021455293003883626
74,0.25,0.001,0.015674580598483284,0.012713522831157202,16.59376664689578,0.01184423029757015,0.01367896127824982
75,0.25,0.001,0.015716610087619286,0.012790931182526418,16.39550556937493,0.011702716323608087,0.012173218031724295
76,0.0,0.001,0.0120753794469061,0.0120753794469061,23.293163701107627,0.0166260982877285,0.0164541680779722
77,0.02,0.001,0.011888272534656978,0.011228547216868012,46.213742257895355,0.03298625428829076,0.011679884408497147
78,0.04,0.001,0.01244065540415081,0.010927475552782822,52.99913098980857,0.03782950106338941,0.011585506869273053
79,0.06,0.001,0.012690769905687568,0.0110487371003644,38.341467654856494,0.027367214600183078,0.009190622561921677
80,0.08,0.001,0.012895592131707715,0.01133799585032052,27.277406290957803,0.0194699545260227,0.008228350534207292
81,0.1,0.001,0.01321436847287979,0.011418439265333806,25.160970528632024,0.017959293739209153,0.007434392399672005
82,0.12,0.001,0.013470472314964621,0.011369846328525059,24.52480925405956,0.017505217169207395,0.008411514779759778
83,0.14,0.001,0.013809746484561214,0.011511601020874432,22.997871000840313,0.01641532548239851,0.01335203538959225
84,0.16,0.001,0.014076084780849908,0.01158135231692486,21.84450278654289,0.01559207907676152,0.00951845980145865
85,0.18,0.001,0.014331622750662307,0.011698716921823102,20.492782350460544,0.014627253640585685,0.008695874259703688
86,0.2,0.001,0.014684605437538802,0.011870839967715222,19.71042508438581,0.014068825898919208,0.014051553017149368
87,0.22,0.001,0.014960162260463147,0.012010202594371867,18.78587963014246,0.013408907658916816,0.009762261373301348
88,0.24,0.001,0.015175797332571768,0.012037216613031991,18.321464981660654,0.01307741968712395,0.014209138539930185
89,0.25,0.001,0.015332965288453224,0.012177562199113806,17.68287970236555,0.012621612921031799,0.01520564386414157
90,0.25,0.001,0.015186097388394082,0.012093714485705547,17.329714136417895,0.012369531860398212,0.012660722403476635
91,0.25,0.001,0.015226448875955034,0.012118171782193946,17.418784132886497,0.012433107875008207,0.01185637784914838
92,0.25,0.001,0.015180044160131535,0.012156548918294171,16.943668112780784,0.01209398152232747,0.012268794752243493
93,0.25,0.001,0.015109822042489224,0.01208305944048017,16.961978990239803,0.012107051384896362,0.011829337105154991
94,0.25,0.001,0.015186204826848043,0.012134257147930387,17.103116646436078,0.012207792038855159,0.016526407872637112
95,0.25,0.001,0.015159425983195297,0.012152845661972266,16.848876430421473,0.012026321506367933,0.01291904536386331
96,0.25,0.001,0.015127495698590244,0.012078291952893977,17.08773646034476,0.012196814033079772,0.018322062885595694
97,0.25,0.001,0.015114617964993155,0.012106929738378784,16.855085764087047,0.012030753578934366,0.013757415684974857
98,0.25,0.001,0.015106666427504562,0.012109995986962059,16.793342168015275,0.011986682489661154,0.010757558513432741
99,0.25,0.001,0.015051500611480481,0.012076790747105968,16.67027448179934,0.011898839744325011,0.011816713493317366
100,0.25,0.001,0.015036379634495655,0.012063284465424486,16.66122546429643,0.011892380773944632,0.01132220852499207
101,0.25,0.001,0.014997585505896168,0.012011602777859261,16.73344775682785,0.011943931303945646,0.015275599331491523
102,0.25,0.001,0.014979081211473028,0.011983046761144311,16.78977649917187,0.01198413740126472,0.01476658715142144
103,0.25,0.001,0.01490430634624296,0.011931721602791342,16.658364820393807,0.011890338915341761,0.012400652954561843
104,0.25,0.001,0.014947985841498833,0.011982367321605474,16.61932622629155,0.011862474108702035,0.010602387496166758
105,0.25,0.001,0.014979261555075105,0.011966732241037536,16.882213900612832,0.012050116988303236,0.022531092063420348
106,0.25,0.001,0.014980547207858947,0.011988209612910956,16.769059857958673,0.011969350362568645,0.01710621655608217
107,0.25,0.001,0.01483273559576154,0.011900144918211576,16.434237930173232,0.01173036254830352,0.011911022011190653
108,0.25,0.001,0.01485514864764986,0.011932894778513973,16.37631096813943,0.011689015680327928,0.013100798500494825
109,0.25,0.001,0.014807164358032594,0.011831642644050549,16.674823151742483,0.011902086475190924,0.013876471771962114
110,0.25,0.001,0.014789942280134142,0.011859856148718598,16.420202293326764,0.011720344249341015,0.010010788113706641
111,0.25,0.001,0.014750231936330587,0.011818676727220498,16.42843485657403,0.011726220454371184,0.011884153354912996
112,0.25,0.001,0.014863926464330046,0.011894417554816187,16.641128643887445,0.011878036148385042,0.014270152172280682
113,0.25,0.001,0.01486786827106982,0.011839026980737593,16.973625854658344,0.012115364635730439,0.014527903300606541
114,0.25,0.001,0.014721793920383155,0.01179525210858473,16.400340407383638,0.011706167314335216,0.009794621314439509
115,0.25,0.001,0.014688879217675291,0.011763592744195419,16.393306109087437,0.011701146401918227,0.011654189477364222
116,0.25,0.001,0.014729553737260145,0.011804540235948109,16.39177526276687,0.011700053720747231,0.01149149751290679
117,0.25,0.001,0.014666887426143766,0.011723521882211773,16.494621695710613,0.011773463023348047,0.013055550296687417
118,0.25,0.001,0.014701216241611867,0.011793929512211934,16.29243474084539,0.011629146852851813,0.014968372829672363
119,0.25,0.001,0.014709696079014433,0.011756754630733748,16.548284274480302,0.011811766077430622,0.014813880901783705
120,0.25,0.001,0.01469675543128146,0.011797285677625134,16.24862915980621,0.011597879485943048,0.014420005906787183
121,0.25,0.001,0.01472328860184242,0.011773463815261362,16.530818395735782,0.011799299354558018,0.011136258693618907
122,0.25,0.001,0.014633854567166248,0.011701078142314986,16.43527929406417,0.011731105848725318,0.017908923431403108
123,0.25,0.001,0.014713635177988755,0.011777732479039533,16.45280067457694,0.011743612187421086,0.02104103761828608
124,0.25,0.001,0.014626063991290688,0.01170182066839425,16.387459649364658,0.0116969733400176,0.014187782071530819
125,0.25,0.001,0.014620812188921844,0.0117003835869544,16.36608108894362,0.011681713839360185,0.010655789636075497
126,0.25,0.001,0.014522814646552565,0.01161359785844702,16.30325131148046,0.011636867460014603,0.011738649828152524
127,0.25,0.001,0.014636007634527345,0.011720117683540995,16.340647287247617,0.011663559805315929,0.010448431078758504
128,0.25,0.001,0.01464078027396691,0.011672171016989408,16.63608799223026,0.011874438252841013,0.010749155189841986
129,0.25,0.001,0.01460970159004799,0.011593999802565943,16.899992030675094,0.012062806588633186,0.014435791824426916
130,0.25,0.001,0.014480471200294482,0.011608086725842282,16.09684356717146,0.011489538591842584,0.010573492281966738
131,0.25,0.001,0.014540155544985228,0.011612977004337874,16.40390906013724,0.011708714532574762,0.018302623234275315
132,0.25,0.001,0.014608871492602864,0.011678604436142475,16.42121631047687,0.011721068030318964,0.024011375072101753
133,0.25,0.001,0.014712156339154701,0.011775753055166744,16.45560504477167,0.0117456138792089,0.026773549305895965
134,0.25,0.001,0.014614080937542089,0.011699373189853453,16.334022489087335,0.011658831184216513,0.022923182282182906
135,0.25,0.001,0.01465022716563053,0.011703926789322479,16.511066935239818,0.011785201238572319,0.02567656110558245
136,0.25,0.001,0.014567851464174513,0.011636142062865023,16.42930002437529,0.011726837990275012,0.015284769961403476
137,0.25,0.001,0.014478847205287316,0.011542526557162647,16.455141846367756,0.011745283259363137,0.012996078158418337
138,0.25,0.001,0.01449946194934488,0.011609916058039384,16.19301555723547,0.011558183838140949,0.010638676687247224
139,0.25,0.001,0.014421933644980246,0.0114586563838372,16.606204585025186,0.011853108197733895,0.010962761058989499
140,0.25,0.001,0.014429004000881838,0.011593856607071934,15.888166624924231,0.011340590024928075,0.013732317524651686
141,0.25,0.001,0.014399648616986244,0.011496683351100573,16.26821793488712,0.011611861481004368,0.011446808878746297
142,0.25,0.001,0.014398060904683953,0.01149117278810692,16.290201443293135,0.011627552778938711,0.01127350071652068
143,0.25,0.001,0.01444566032144422,0.011554108361313,16.204257508155006,0.011566208071488226,0.014452503942367103
144,0.25,0.001,0.014358604083449567,0.011469837575610016,16.188647628479558,0.011555066115973988,0.011622150428593159
145,0.25,0.001,0.014493363955059848,0.011655855352589742,15.90139812393327,0.011350034349702548,0.012116378431932794
146,0.25,0.001,0.01434495288898962,0.011412091389257873,16.435755589479975,0.011731445816902195,0.012950839474797249
147,0.25,0.001,0.014376744753030381,0.011511939449300027,16.054369481635398,0.011459221614300784,0.011863841520001491
148,0.25,0.001,0.0143689136553265,0.011418615494890243,16.53347016419343,0.011801192122907518,0.010032447520643473
149,0.25,0.001,0.014418748790523317,0.01150540636172907,16.3263715927484,0.011653370158992435,0.015919406484398577
150,0.25,0.001,0.014413760396940955,0.011511746263249816,16.26288684353422,0.011608056276612575,0.014989185457428297
151,0.25,0.001,0.014296265650276913,0.011385649422389843,16.311093202303628,0.011642464812493668,0.010562984738498926
152,0.25,0.001,0.01437785485573451,0.011500625842387794,16.12399232798609,0.011508916722331257,0.015646699039886396
153,0.25,0.001,0.014390547068522544,0.011471305127017295,16.359431081588387,0.0116769672245456,0.0128745273169544
154,0.25,0.001,0.014281254631894794,0.01137864764800089,16.26621094026929,0.011610428936666159,0.012577277659955952
155,0.25,0.001,0.014263946975424156,0.011447532668696234,15.783186581952602,0.011265657802964027,0.011877035515175926
156,0.25,0.001,0.014296445027061361,0.01138750824421482,16.301681494323397,0.011635746962400712,0.013704321295436885
157,0.25,0.001,0.014236449301175218,0.011339942062655615,16.23202638920336,0.011586028828838942,0.009760106603304545
158,0.25,0.001,0.01431301862724842,0.011389830835947865,16.381544705094964,0.011692751395499617,0.01165493174145619
159,0.25,0.001,0.014236716151291575,0.011353846766162806,16.155599884891682,0.011531477433898417,0.010341731986651817
160,0.25,0.001,0.014264081767041865,0.011292457916924287,16.652979734805015,0.011886495171167034,0.013275212608277798
161,0.25,0.001,0.014337516168365677,0.011472600407411637,16.05498911724333,0.01145966389524863,0.01717065740376711
162,0.25,0.001,0.014418400486021856,0.011404694489012396,16.888809006789636,0.012054824415981182,0.02220735212581025
163,0.25,0.001,0.014270164555922393,0.011418657779639517,15.979843177726178,0.01140602653656401,0.01595200380931298
164,0.25,0.001,0.014251110142269282,0.011336098602565577,16.335724126189245,0.011660045771726798,0.011217536249508461
165,0.25,0.001,0.014243257120454484,0.011368976038848531,16.107471971459915,0.011497124890406793,0.012101826878885428
166,0.25,0.001,0.014241886894791615,0.011351009935627399,16.200475073120337,0.011563508260614088,0.01100769985674156
167,0.25,0.001,0.014230723377864829,0.01129736303404217,16.43855125025699,0.011733441292117765,0.012895378335896466
168,0.25,0.001,0.014208449755614444,0.0113878036577072,15.806901370981427,0.011282584847238706,0.013472977404793104
169,0.25,0.001,0.014188984381930798,0.011289736010918492,16.247387455076574,0.011596993187063935,0.011067782373478016
170,0.25,0.001,0.014267632967628499,0.011320106972502493,16.517935263050447,0.011790103685260848,0.011905743947459592
171,0.25,0.001,0.014211009559094798,0.011287642066483597,16.382550580531845,0.01169346936511909,0.013531594537198544
172,0.25,0.001,0.014271730078745992,0.011505045750585745,15.504499075417078,0.011066737384309121,0.018542689685192373
173,0.25,0.001,0.014214214309373915,0.011305875802402488,16.298329953922334,0.011633354713720439,0.013211648393836286
174,0.25,0.001,0.014250084881192435,0.01134401687780926,16.285604497698387,0.011624271590077364,0.017358962446451187
175,0.25,0.001,0.01419519988850381,0.011353220778792934,15.926450073394498,0.011367915826834047,0.013564581154949136
176,0.25,0.001,0.01410887036100706,0.011210381575672466,16.243131514685988,0.011593955399490355,0.01096554778309332
177,0.25,0.001,0.01414036689268699,0.011290897530741894,15.968426654213353,0.011397877697511315,0.0105236510021819
178,0.25,0.001,0.014181099419639244,0.011246613110204357,16.444860852997877,0.011737944934331104,0.011956273164186213
179,0.25,0.001,0.01415231366204047,0.011281017246174401,16.090744856264976,0.011485185479132746,0.011362882434493966
180,0.25,0.001,0.01414329388910759,0.0112686798757385,16.109336884181857,0.01149845602011553,0.01463586495568355
181,0.25,0.001,0.014130576052271951,0.011237066837463752,16.215225586657514,0.011574036821311574,0.012170037409911552
182,0.25,0.001,0.014222279265387737,0.011351436031762571,16.08820542060312,0.011483372891222783,0.020135369151830673
183,0.25,0.001,0.014194464970197522,0.011301977025808093,16.209503938844545,0.011569952847141003,0.01820655684504244
184,0.25,0.001,0.014164484482927894,0.011263086861117782,16.259432247459564,0.011605590469278775,0.012943751075201564
185,0.25,0.001,0.014121371093197657,0.011274004823269623,15.956641266436845,0.011389465572046285,0.014723161649372842
186,0.25,0.001,0.01412027391238297,0.011238605610539498,16.148868771949395,0.011526672927872517,0.013338000617093511
187,0.25,0.001,0.014112869144067466,0.011248809787463362,16.05018873785888,0.011456237500256159,0.009548295030577315
188,0.25,0.001,0.0141024855007764,0.011241684206330408,16.03193050460677,0.011443205213852083,0.01056381387429105
189,0.25,0.001,0.014111452217056617,0.011211228602567515,16.252852289300215,0.011600893853890232,0.010114905320935778
190,0.25,0.001,0.014123977036866107,0.01122767449493525,16.23088032883438,0.01158521079859699,0.010287206671718094
191,0.25,0.001,0.014043971710245103,0.011180528390564416,16.046736414333004,0.011453773315012851,0.011685755724708239
192,0.25,0.001,0.014094644146692516,0.011204941314856392,16.19389476187649,0.011558811393202348,0.010769907022929855
193,0.25,0.001,0.0140601349402956,0.011188188260133815,16.09439008681614,0.011487787356756703,0.014311680156323645
194,0.25,0.001,0.014088614324881897,0.011195889381715477,16.210830127695296,0.011570899448747535,0.010788405934969584
195,0.25,0.001,0.01414186005969067,0.011226990946421498,16.334927636785213,0.011659477256806005,0.012400775216519833
196,0.25,0.001,0.014011837454164526,0.011139716075804294,16.09536773626255,0.011488485179345146,0.010262537023259534
197,0.25,0.001,0.014057060730679066,0.011217578910899681,15.912456098788446,0.011357927265373623,0.011998810701900058
198,0.25,0.001,0.014055132188119279,0.011123016304226623,16.431578172313323,0.011728464077311436,0.011319443480008178
199,0.25,0.001,0.014141219106930461,0.01130524963248663,15.892773252649878,0.01134387812466087,0.01171736315720611
200,0.25,0.001,0.01405200656307371,0.011137903485440408,16.33063316691376,0.01165641196781853,0.013383213948044512
201,0.25,0.001,0.014054901945233993,0.011186387432154315,16.075155427797736,0.011474058121197526,0.01114566344767809
202,0.25,0.001,0.01404067283722753,0.011182110726211334,16.019382274302295,0.011434248589794643,0.012924487185147073
203,0.25,0.001,0.014069973009413686,0.011172910075560347,16.235141200292347,0.0115882521058475,0.01521883387532499
204,0.25,0.001,0.013999789299108696,0.0111654028769738,15.88390069951163,0.011337545110286673,0.01412312551918957
205,0.25,0.001,0.013955237643079944,0.011106138496225304,15.966351964296317,0.011396396833901725,0.011251968331634998
206,0.25,0.001,0.014036917240914978,0.011119670618305188,16.348251820475998,0.011668987737670234,0.010915864828146167
207,0.25,0.001,0.013922310395406291,0.011053225794594106,16.07834956693563,0.011476338020653553,0.01039436123230391
208,0.25,0.001,0.013969896050227533,0.011075094918603798,16.222465158590605,0.011579204253098219,0.01181386173185375
209,0.25,0.001,0.013928709759591604,0.011201087890797972,15.285593224956422,0.010910487669490666,0.012869213397304216
210,0.25,0.001,0.014033750908114625,0.011118374305173836,16.337771666677373,0.011661507256729032,0.01731025738020738
211,0.25,0.001,0.014071158479946494,0.011237528670356083,15.87966135582344,0.011334519169038859,0.018139523557490773
212,0.25,0.001,0.014021813724115626,0.011169595988687067,15.9838282192251,0.011408870963044325,0.018315115840070777
213,0.25,0.001,0.0141587688531828,0.011306667453634761,15.983176752356998,0.01140840596171092,0.02262693778094318
214,0.25,0.001,0.014068819835998402,0.01122464162860397,15.938774314852678,0.011376712573056872,0.015411056267718473
215,0.25,0.001,0.013974192307183617,0.011075310694719724,16.24533278020454,0.011595526609710591,0.01094704121351242
216,0.25,0.001,0.013890805677891102,0.011033766066314088,16.010849966544203,0.01142815843436417,0.01138225704845455
217,0.25,0.001,0.013927101198171423,0.011133810199337409,15.65360275587023,0.011173163994197165,0.012710146709448762
218,0.25,0.001,0.013957793006298222,0.011119760398815527,15.904334994279754,0.011352130616902037,0.011286376820256313
219,0.25,0.001,0.013926630352916173,0.01105873460142777,16.0716880895265,0.01147158321879122,0.01065567611820168
220,0.25,0.001,0.013938538878885675,0.01110198621903487,15.896041432223173,0.011346210872393413,0.010702015676846107
221,0.25,0.001,0.013886555537459747,0.011078906698514135,15.73406399313205,0.011230595284177053,0.015276965788669057
222,0.25,0.001,0.013918636618570818,0.011062607963564392,16.005184786289444,0.011424114765374336,0.011440682742330763
223,0.25,0.001,0.013872878389355275,0.011069696756610528,15.709029697895916,0.011212726408205509,0.011237868418296179
224,0.25,0.001,0.013960162326423097,0.011076065515609164,16.162478988702848,0.011536387572236151,0.010985663574602868
225,0.25,0.001,0.013899391403796993,0.011054851309127579,15.940800987008263,0.011378159162746797,0.01209161870388521
226,0.25,0.001,0.01399822394530916,0.011121578220474092,16.1207227931914,0.011506583007274376,0.01561574824154377
227,0.25,0.001,0.013972749260884664,0.011084023886740532,16.18841606389373,0.011554900830759265,0.014211546008785566
228,0.25,0.001,0.013905914287385404,0.0110652831428686,15.918896330679393,0.011362524147522765,0.010834567352301545
229,0.25,0.001,0.013840475398540063,0.010979097175957828,16.035162782063285,0.011445512335519832,0.010925131849944592
230,0.25,0.001,0.013894607870756715,0.011010059512164546,16.165009143780882,0.01153819353588928,0.009183161271115145
231,0.25,0.001,0.013842858925137242,0.011046497670159474,15.670808509992817,0.011185445046390305,0.01191148679289553
232,0.25,0.001,0.013848160956386213,0.01104147281301649,15.7286806816198,0.01122675280629536,0.008629062937365638
233,0.25,0.001,0.013814637574372296,0.010951583075950668,16.044557398330493,0.01145221798596038,0.011036532775809368
234,0.25,0.001,0.013836025042347813,0.01097693152644565,16.02236014399035,0.011436374121335012,0.011594076433943378
235,0.25,0.001,0.01389984016774895,0.011057397239113026,15.929050002470207,0.011369771593483374,0.011125657810933061
236,0.25,0.001,0.013832509318221286,0.010943931480109043,16.187590605983285,0.011554311638817477,0.013157022806505362
237,0.25,0.001,0.01382710156580281,0.011016336546876145,15.751527530095538,0.011243060335542855,0.010735816425747342
238,0.25,0.001,0.013853861799906473,0.011040501357368894,15.766072808073567,0.011253442404049655,0.01527412711746163
239,0.25,0.001,0.013798163874166089,0.010946233520206544,15.982217634654521,0.011407721366634205,0.013260775970088111
240,0.25,0.001,0.013915730741706604,0.0110767315397083,15.909752066901289,0.011355997192649028,0.012966778129339218
241,0.25,0.001,0.013871437969690226,0.011015010174505832,16.007422149505892,0.01142571174126045,0.016393559881382518
242,0.25,0.001,0.013801355263093206,0.010978547338998036,15.819016029094827,0.011291231997926358,0.013824809860024188
243,0.25,0.001,0.013816399460898444,0.01093935559481761,16.122953342223123,0.011508175119359832,0.009917650940931506
244,0.25,0.001,0.013812059648132152,0.010967849736894648,15.938952340404697,0.011376839643400926,0.011641440343939595
245,0.25,0.001,0.013790871557558189,0.011008851492131795,15.590440189340802,0.011128080078044826,0.010995053479241
246,0.25,0.001,0.013810833699717279,0.010982282703130519,15.851199684904621,0.011314203914992592,0.010515458571414152
247,0.25,0.001,0.013789946686631971,0.010913155144739714,16.12153909167447,0.01150716566143788,0.011090642876095243
248,0.25,0.001,0.013866837340966543,0.0110183196656149,15.963093890901487,0.011394071299715551,0.011933392689873775
249,0.25,0.001,0.0137850583569838,0.010946439912106618,15.907618029364224,0.01135447396814006,0.011408946580357023
250,0.25,0.001,0.013825949751340974,0.010959979175453069,16.06089940910547,0.011463882518990344,0.013314983186622461
251,0.25,0.001,0.013831481038374715,0.010993322954190296,15.905037871289815,0.011352632313554472,0.010589828818208642
252,0.25,0.001,0.013842450451450642,0.010914056627806649,16.410718878038132,0.011713575216301307,0.010974470836420855
253,0.25,0.001,0.013780795017463543,0.010959520751776041,15.810421284227319,0.011285097276393518,0.011243970495545201
254,0.25,0.001,0.01375954182558235,0.01093944449133211,15.803825323032164,0.0112803892384241,0.010160620065612925
255,0.25,0.001,0.013728553290646218,0.01095376050474964,15.549939387506669,0.01109917158280276,0.011778707409070598
256,0.25,0.001,0.013867556169872492,0.01094070979361904,16.4020466155452,0.011707385164557601,0.013001643949084811
257,0.25,0.001,0.013838081045951797,0.01101855448398151,15.80062640167624,0.011278105925536217,0.010926484026842646
258,0.25,0.001,0.01380540681377513,0.010911138988558047,16.219476782907808,0.011577071222632268,0.013207780093782477
259,0.25,0.001,0.013693964183195316,0.010889717164751947,15.71500071683077,0.011216988377466645,0.009751706849783659
260,0.25,0.001,0.013705739606097476,0.010856339332737204,15.968039642444756,0.011397601457847791,0.010568231085522307
261,0.25,0.001,0.013900799666634489,0.011091418926031101,15.743770028199128,0.011237523217843775,0.016823142146070797
262,0.25,0.001,0.013833267359019083,0.011020609159056375,15.762136469735424,0.01125063274071051,0.016985730785462592
263,0.25,0.001,0.013786617105323043,0.010999324239668743,15.619990312468984,0.011149172243018547,0.011934477939373918
264,0.25,0.001,0.013749290108951163,0.010900707533430923,15.963456778690732,0.01139433032026462,0.01180523768481281
265,0.25,0.001,0.01376727531527164,0.010962517492594822,15.717862982498971,0.011219031393646661,0.010575678613450792
266,0.25,0.001,0.013756144318574137,0.010920849926228856,15.888989955673633,0.011341177698553629,0.009542972625543674
267,0.25,0.001,0.013770011914539033,0.010928408736312347,15.924343977995663,0.011366412546749225,0.0100855960821112
268,0.25,0.001,0.013803465988236849,0.01090032393501534,16.269209122701046,0.011612568966952924,0.014542363170120452
269,0.25,0.001,0.013774836405489708,0.010915071198111654,16.02612441940446,0.011439060970310107,0.012876900947756238
270,0.25,0.001,0.01376604597623411,0.010985956919428549,15.57961989054879,0.011120356809813554,0.01184906018897891
271,0.25,0.001,0.01377447792573979,0.010862441003295557,16.31905547763388,0.011648148092529537,0.010805842000991106
272,0.25,0.001,0.013725775856855993,0.010950867066366055,15.550588439899867,0.011099634860742232,0.012208518416931232
273,0.25,0.001,0.01370663925018263,0.01076408367293013,16.490081652106475,0.0117702224497548,0.00940039816002051
274,0.25,0.001,0.013658611431799004,0.010924438907073543,15.322302342326585,0.010936689751839104,0.011281156912446022
275,0.25,0.001,0.013685941151909516,0.010793374073835337,16.20994680200428,0.01157026895218007,0.011200856003496382
276,0.25,0.001,0.013691899976853666,0.010968979799650109,15.259244359772781,0.010891680485205411,0.01031857987658845
277,0.25,0.001,0.013673470467126197,0.010825605785808849,15.959433562526252,0.011391458645629016,0.01128365896228287
278,0.25,0.001,0.013716956969019289,0.010933124370697189,15.600598105068865,0.011135330553225457,0.016204013489186764
279,0.25,0.001,0.013747725595201208,0.010880922824279583,16.06556283151173,0.011467211157395954,0.014257499223781956
280,0.25,0.001,0.013777370640700396,0.010933605428386188,15.936460256143837,0.011375060853778613,0.013820858258340094
281,0.25,0.001,0.013667930360416967,0.010838555283641643,15.855818355581073,0.01131750061069313,0.012201414184851779
282,0.25,0.001,0.01369187749834383,0.01085211881039201,15.91400729073803,0.011359034468763763,0.011750639519757695
283,0.25,0.001,0.013751049248836326,0.010947618351238501,15.710426758075583,0.011213723596056805,0.01692423550412059
284,0.25,0.001,0.013722916973751383,0.010911762398310992,15.753709644241471,0.011244617875975355,0.017419798351410363
285,0.25,0.001,0.013756417008471793,0.010913287522693835,15.93289756947983,0.011372517893989886,0.016459060005015798
286,0.25,0.001,0.01371945678248001,0.01087990934756025,15.91282419284329,0.011358190002029473,0.015250271496673426
287,0.25,0.001,0.01370871150375981,0.010865775863225902,15.931810898270236,0.0113717422542971,0.01166430591709084
288,0.25,0.001,0.013774949849368548,0.01092795284799623,15.954572075291685,0.011387988633327397,0.011226726385454336
289,0.25,0.001,0.013691194058005477,0.010832878744091074,16.017999136729163,0.011433261339563999,0.012420922414296202
290,0.25,0.001,0.013659038626590571,0.01082562621574707,15.878443596800096,0.011333649962027192,0.013925733976066113
291,0.25,0.001,0.01368091943016286,0.010851068138237873,15.858485254748114,0.011319404178977954,0.012336441160490116
292,0.25,0.001,0.013654421112363221,0.010844521765375743,15.746676503854742,0.011239597790046211,0.01059660129249096
293,0.25,0.001,0.013676417474305348,0.010937672828454287,15.347923756511156,0.010954977699151432,0.01233508096386989
294,0.25,0.001,0.013651119151276057,0.010844604416451199,15.727708875375738,0.01122605915444378,0.013288224322928322
295,0.25,0.001,0.013690549253186924,0.010873334691902038,15.787671002632043,0.011268858674255562,0.011525977816846635
296,0.25,0.001,0.01363054898900475,0.010766665378548273,16.049202780541837,0.01145553374771009,0.009908917670448622
297,0.25,0.001,0.013739774007005398,0.010888566447256266,15.978167933690786,0.011404830787787855,0.010520315418640772
298,0.25,0.001,0.013585147770720039,0.010772655227858769,15.76120889944087,0.01124997066341247,0.009545042955627045
299,0.25,0.001,0.013631058922764287,0.010767106320066699,16.049590661175237,0.011455810607548349,0.01021038606348965
300,0.25,0.001,0.013647429063618724,0.010820276805363635,15.843361087805995,0.011308608913494644,0.01112082466069195
301,0.25,0.001,0.013655483188570735,0.010769536132212668,16.1728477928037,0.011543788574449465,0.010485705816083483
302,0.25,0.001,0.013640992644288578,0.01085075364869,15.636499515678835,0.0111609561139749,0.012611361220479012
303,0.25,0.001,0.013685523916015607,0.010791407213520982,16.218631200911563,0.011576467666603543,0.010477244491792388
304,0.25,0.001,0.013660674363699237,0.010870981043688074,15.63344048847953,0.011158772654160978,0.009768985211849213
305,0.25,0.001,0.013669880445093294,0.010797927392724421,16.0944257933518,0.011487812843220414,0.011343749447001351
306,0.25,0.001,0.013619007502163603,0.010799968677713196,15.797892753961081,0.011276154713748095,0.01212492398917675
307,0.25,0.001,0.01360533833537528,0.010824932005195565,15.581397844096493,0.011121625870161665,0.012888777587148879
308,0.25,0.001,0.013663419939834496,0.010805113252908154,16.017950930309816,0.011433226930984879,0.013391751899487443
309,0.25,0.001,0.013697575637479118,0.010862499238845441,15.887768276373833,0.011340305693343208,0.012356864909331003
310,0.25,0.001,0.013680988699603427,0.010840968413112818,15.915473332206048,0.011360080893794467,0.01658664798984925
311,0.25,0.001,0.013639679766799273,0.010788012554568193,15.980743806288594,0.011406669383503636,0.014858832582831383
312,0.25,0.001,0.013627774844422747,0.010897154723735232,15.302395303106568,0.01092248058751361,0.011555344797670841
313,0.25,0.001,0.013624562755118913,0.01076909677444969,16.002031643031515,0.011421864127788376,0.011313637822038598
314,0.25,0.001,0.013712575733526432,0.01085307068291193,16.02466713062432,0.011438020792736845,0.013238326232466433
315,0.25,0.001,0.013677983127277473,0.010799171374316333,16.132860702957736,0.011515246754430932,0.011203396444519361
316,0.25,0.001,0.013656621898597144,0.010815050172367675,15.924168134990492,0.011366287034254454,0.015918680777152378
317,0.25,0.001,0.013624584373296281,0.010849410762668954,15.552073276194383,0.011100694701066654,0.019885179069307115
318,0.25,0.001,0.013557484704737438,0.01071954535628025,15.903812401524041,0.011351757602800886,0.012448308472004201
319,0.25,0.001,0.013612626769500506,0.010808796887226848,15.712662435486616,0.011215319368655685,0.011517780419025157
320,0.25,0.001,0.013584889561113667,0.010778112578697624,15.729178766157148,0.011227108327021519,0.01087905414816406
321,0.25,0.001,0.0136157978907525,0.010747541976034534,16.073706625161282,0.011473024000828896,0.010128205435143577
322,0.25,0.001,0.01357306026179215,0.010740580897568682,15.873214043203586,0.011329917232836249,0.009870894874135653
323,0.25,0.001,0.01360623399218284,0.010767419391502702,15.908716776409946,0.011355258227273337,0.009585905457950301
324,0.25,0.001,0.013595204278083008,0.010785028433085786,15.748225715761825,0.011240703580129782,0.011454667896032333
325,0.25,0.001,0.013582680377764408,0.010766412832938175,15.78236360082609,0.011265070378890856,0.011222870761735572
326,0.25,0.001,0.013520068889602126,0.010720554548239643,15.688476882699181,0.01119805630456758,0.012759522431426577
327,0.25,0.001,0.013519416286013412,0.010701604413980798,15.791017470039604,0.011271247301955462,0.01029509057601293
328,0.25,0.001,0.013537802420786418,0.01072413498322782,15.76779151611882,0.011254669176387452,0.01058288404925002
329,0.25,0.001,0.013652639515941352,0.010816580064919272,15.893277344816177,0.011344237933487634,0.013724508022682535
330,0.25,0.001,0.013580257022337559,0.010823196623332379,15.450566272770212,0.011028241450942335,0.014886439674430423
331,0.25,0.001,0.013602844216335166,0.010758630311059107,15.938974510303643,0.01137685546773993,0.013390367229779562
332,0.25,0.001,0.013546938394380568,0.01072941580533765,15.78939735391828,0.011270090902154375,0.0117470214350356
333,0.25,0.001,0.01357082994874506,0.010724697133590436,15.949728674983804,0.011384531531037691,0.010768037599821886
334,0.25,0.001,0.013564783846536912,0.010761379174712348,15.710280079157945,0.011213618900184115,0.013578067637152143
335,0.25,0.001,0.013548253246070901,0.010688199651530672,16.027740651596265,0.011440214597856007,0.01015777513384819
336,0.25,0.001,0.013510359466386901,0.010726065907336622,15.603181671101039,0.011137174640329078,0.010623006150126457
337,0.25,0.001,0.013543622355279386,0.010714217814229795,15.855982655838483,0.011317617884253022,0.013254166839437352
338,0.25,0.001,0.013499901219255912,0.01070732193679537,15.649614867194812,0.011170317535470958,0.012981778321166834
339,0.25,0.001,0.013498847225778982,0.01068413769910805,15.773632752267938,0.011258838509827222,0.010986257241004042
340,0.25,0.001,0.013568914003548519,0.010758683357570327,15.748532733121065,0.011240922721713823,0.012693874848385652
341,0.25,0.001,0.013529729735302297,0.010738747038907235,15.64066679032009,0.011163930614075725,0.012986571528017521
342,0.25,0.001,0.013585267003672958,0.010697206287913551,16.18469224434799,0.011552242858206987,0.011126315945552455
343,0.25,0.001,0.013476777852203583,0.010662977516096754,15.768538082143573,0.011255202057204549,0.011031931317928765
344,0.25,0.001,0.013548133147714792,0.010705694153959002,15.929028633934616,0.011369756341138198,0.012545657447642751
345,0.25,0.001,0.013516310083522663,0.010686258423715126,15.859609790808925,0.011320206845688026,0.008940483391698863
346,0.25,0.001,0.013466444603436222,0.010621504165137527,15.943046625210023,0.01137976204511779,0.009438839378870197
347,0.25,0.001,0.013493830331359499,0.01072359759150962,15.524384711485377,0.011080931271581282,0.010876034800377157
348,0.25,0.001,0.013441814993678875,0.01069425485568449,15.397326825967502,0.010990240418249466,0.009762032371428277
349,0.25,0.001,0.013558890569123513,0.010753887820441255,15.719235847736227,0.011220011311731783,0.010247286823060777
350,0.25,0.001,0.013499466156394318,0.010622301801511792,16.123629568276517,0.011508657793202367,0.010426383724229204
351,0.25,0.001,0.01355898135532701,0.010779007547577258,15.578973863605146,0.011119895691366986,0.01520229751865069
352,0.25,0.001,0.013522817048425034,0.010633792932704767,16.190091290621055,0.011556096567181338,0.01422991624308957
353,0.25,0.001,0.013461745648345692,0.010710636258612094,15.41721751425963,0.01100443791167711,0.011302445497777727
354,0.25,0.001,0.013483775323239949,0.010640181585835351,15.93549926743966,0.011374374923226025,0.01159498043772247
355,0.25,0.001,0.013495744021775068,0.010666906727163524,15.852804831281547,0.011315349629751283,0.012213731391562356
356,0.25,0.001,0.013512525638183427,0.010695173548781288,15.78844120281794,0.011269408424566696,0.01111017597011394
357,0.25,0.001,0.013526171439085596,0.010635240971974474,16.200775438990654,0.011563722654525805,0.011490427578488985
358,0.25,0.001,0.013527489192919052,0.01076734930229544,15.467824028970542,0.011040559620963983,0.01431649975064728
359,0.25,0.001,0.013492232560435354,0.010628158835095849,16.05027017402995,0.011456295627430372,0.011490906330032481
360,0.25,0.001,0.013511852021523482,0.010742341034695804,15.520339564273232,0.011078043943092957,0.011064404000838598
361,0.25,0.001,0.013489918149466847,0.010622646683276024,16.068189385582013,0.011469085928324064,0.010786376790040068
362,0.25,0.001,0.013574601428248597,0.010812663327828185,15.47790128912121,0.011047752526139336,0.01218843822264009
363,0.25,0.001,0.013475434695744038,0.010657115045008663,15.793864383455197,0.01127327936006795,0.009702526395105653
364,0.25,0.001,0.01348012674958217,0.010656221538187155,15.825164559532206,0.011295620670615422,0.012388440366420481
365,0.25,0.001,0.013490353355998894,0.010706821475144198,15.598913641027876,0.011134128223431745,0.014226005516118474
366,0.25,0.001,0.013486832190987851,0.010640968445235502,15.94822031703056,0.011383454901520741,0.013343732286658552
367,0.25,0.001,0.013483039074714301,0.010682286539143746,15.695417660334149,0.011203010464192826,0.0162668874901202
368,0.25,0.001,0.013601374913838619,0.010798130481894349,15.70938245008299,0.011212978194206273,0.017451546258396573
369,0.25,0.001,0.013556354961437452,0.01072692419968532,15.856129609954335,0.011317722776555557,0.017628766182396147
370,0.25,0.001,0.013550946083318733,0.010700804281121157,15.972194903558915,0.011400567382982809,0.013404155874417888
371,0.25,0.001,0.013436710096882173,0.010662427310664512,15.54708042594785,0.01109713092501631,0.011227379449539714
372,0.25,0.001,0.013418560414938442,0.010658544190768863,15.467131502182644,0.011040065312050424,0.010567176155745983
373,0.25,0.001,0.013468205019453044,0.010647413123081253,15.807717641771596,0.011283167481635686,0.011809866771929793
374,0.25,0.001,0.013511694949154088,0.010708220338553677,15.71067145082782,0.011213898251839985,0.012894865021937423
375,0.25,0.001,0.013398879618399155,0.010572642098077845,15.83823477854097,0.01130494987761668,0.009850670790506734
376,0.25,0.001,0.013413509137644525,0.010651295637870765,15.47944513552851,0.011048854486458608,0.010975636852284273
377,0.25,0.001,0.013420834031949892,0.010584421171899715,15.895257776748464,0.011345651518021744,0.010999891389575269
378,0.25,0.001,0.013444239484947412,0.01071259978239149,15.308108902669861,0.010926558817037732,0.011324819280869432
379,0.25,0.001,0.013475258680848158,0.010646891972885049,15.850167376592674,0.011313467078224606,0.011642621726625495
380,0.25,0.001,0.01349853062681083,0.01072414633488374,15.54764978163039,0.011097537317366445,0.0138118840340111
381,0.25,0.001,0.013444594339131227,0.010568532727645227,16.117449499085247,0.011504246608911669,0.01067734147525496
382,0.25,0.001,0.013455942852892483,0.010637185139118436,15.79631900960434,0.01127503141299382,0.009533651173114777
383,0.25,0.001,0.013369151832241761,0.01058788150177082,15.586238509730288,0.011125081020506987,0.009604769500179423
384,0.25,0.001,0.013430131082093434,0.010599635421431974,15.862098136528001,0.011321982966829408,0.01090411924653583
385,0.25,0.001,0.013418288803414294,0.01063627959102284,15.59037987766162,0.011128037029023284,0.013049136122895611
386,0.25,0.001,0.013392955338592537,0.010590954379477756,15.702413524343834,0.011208003943143351,0.011139391559279628
387,0.25,0.001,0.013408332256880841,0.01059119361275283,15.787245961585624,0.01126855529021101,0.010223469283017848
388,0.25,0.001,0.013450565614387691,0.010657480348259914,15.652449419191225,0.01117234077030066,0.009493924470411407
389,0.25,0.001,0.013462831901754853,0.01062339013729738,15.91223156993056,0.011357767002091764,0.011005512852635648
390,0.25,0.001,0.013461036426767355,0.010612327181235524,15.964166251803915,0.011394836725056328,0.011587229350374805
391,0.25,0.001,0.013458220244211207,0.010588810459698826,16.080172054131538,0.011477638868045351,0.010910620292027792
392,0.25,0.001,0.013400180324465848,0.010644248448406937,15.444242442800865,0.011023727653676563,0.013282183557748795
393,0.25,0.001,0.013406057673051764,0.010634967489353974,15.5291897484698,0.011084360991056245,0.012741742241713736
394,0.25,0.001,0.013384406576558488,0.010608861885437516,15.55415312737605,0.01110217924866242,0.01364176120195124
395,0.25,0.001,0.013420393509611135,0.010641649458388342,15.572081941441919,0.0111149764035988,0.010576672852039337
396,0.25,0.001,0.01345688768217979,0.010613767683722363,15.932844646613091,0.011372480118924404,0.011331322395967113
397,0.25,0.001,0.01342223651247427,0.01061139458421949,15.751959260708624,0.011243368494438704,0.010079367396732172
398,0.25,0.001,0.013365699236911676,0.010513457329352192,15.983964734847662,0.011408968404602185,0.010333922484682666
399,0.25,0.001,0.013446797985252256,0.010616245611947699,15.862415331028767,0.01132220937261154,0.012661525669197241
400,0.25,0.001,0.013378889200204946,0.01056585389911155,15.764249218353992,0.011252140769703064,0.012433128120998541
401,0.25,0.001,0.013423928578541413,0.010602882405753144,15.809143064675444,0.011284184914115236,0.014464238244626258
402,0.25,0.001,0.01339343237181865,0.010592882026210022,15.694284532550459,0.011202201664918244,0.013933808853228888
403,0.25,0.001,0.013414819270183084,0.010540806191437583,16.10596961767401,0.011496052546519636,0.010779488210876783
404,0.25,0.001,0.013418675576101739,0.010655353384974756,15.485658114272324,0.01105328916079395,0.012632822462668022
405,0.25,0.001,0.013373555470183627,0.010609402306066884,15.490314474988546,0.011056612758735578,0.010720106462637583
406,0.25,0.001,0.013380017871892387,0.010572828786843161,15.73148809803376,0.011228756672400971,0.01012815690288941
407,0.25,0.001,0.013362103843294124,0.010528172055316816,15.881354896213095,0.011335727977311274,0.01261803600937128
408,0.25,0.001,0.01340310873899832,0.01060053087033994,15.70564650450774,0.011210311566386681,0.01278643361810181
409,0.25,0.001,0.013451365907820189,0.01064736201358577,15.713638103159715,0.011216015776702152,0.012674798671570089
410,0.25,0.001,0.0133346402679592,0.010502312518318206,15.872365189983277,0.011329311341886708,0.013618984673586156
411,0.25,0.001,0.013436271611283348,0.010672079666286112,15.490531229064166,0.011056767472565428,0.016322973287767835
412,0.25,0.001,0.013433280429665925,0.010580876020684216,15.984874981501141,0.01140961811670317,0.012234379951324727
413,0.25,0.001,0.013365165524847279,0.010505962232888393,16.022975686241193,0.011436813480543321,0.011258107403086292
414,0.25,0.001,0.013354624868345238,0.010551832394907673,15.706848812622514,0.011211169744912573,0.011469663431247076
415,0.25,0.001,0.013394461719897287,0.010580331967727783,15.770383109630993,0.011256518993312628,0.012644425448444154
416,0.25,0.001,0.01343514199982213,0.010593194827207528,15.926272291886178,0.011367788930682497,0.011569630095942153
417,0.25,0.001,0.013448641239961241,0.01059117387412302,16.0132471922305,0.011429869516224484,0.01259950196577443
418,0.25,0.001,0.01332643800017892,0.01048020947514991,15.950264773221717,0.011384914185026207,0.011241848787499798
419,0.25,0.001,0.013338426415370726,0.010493743880744854,15.94160098475683,0.01137873018183928,0.01042186375707388
420,0.25,0.001,0.013384420931771966,0.01057201757445634,15.76070767348994,0.011249612900421084,0.011802443199687533
421,0.25,0.001,0.013400557983375937,0.010579150501374973,15.811168452572693,0.011285630587132544,0.011396352615621354
422,0.25,0.001,0.01335542269402645,0.010556295412692315,15.686309245017826,0.011196509097086242,0.012543256911966536
423,0.25,0.001,0.013362483079198701,0.010526211641580137,15.894465423971685,0.011345085955725686,0.01336520817130804
424,0.25,0.001,0.013442705015224252,0.010631060405226996,15.756456259158043,0.011246578343439003,0.013385843382113509
425,0.25,0.001,0.013383093726113033,0.010602499939798768,15.582447695861926,0.011122375229023502,0.01210475019696686
426,0.25,0.001,0.013326358087293249,0.01049650597560157,15.858491932199135,0.011319408945181395,0.010159921935862966
427,0.25,0.001,0.01343945972959489,0.010602049286157812,15.900846910563224,0.011349640906897376,0.012495917371577688
428,0.25,0.001,0.013328313685534438,0.010505177484598761,15.820855303381835,0.011292544827538784,0.012264238256547186
429,0.25,0.001,0.013441298148525497,0.010589128950046217,15.983556065498808,0.011408676706280377,0.0120671217640241
430,0.25,0.001,0.013457367409649432,0.010612692618015781,15.94155849519096,0.011378699853812249,0.010248530863059891
431,0.25,0.001,0.013389640739576353,0.010559629432573076,15.859383782111582,0.011320045526132465,0.014397181674010225
432,0.25,0.001,0.013368786261932495,0.01054925394469294,15.800659989704886,0.011278129899860732,0.012044754293229844
433,0.25,0.001,0.013357681915258648,0.010510425620835727,15.956025294946024,0.011389025906456834,0.011780818717347251
434,0.25,0.001,0.013330083519571921,0.010515075962916152,15.775301810401322,0.011260029843255762,0.01092470520072513
435,0.25,0.001,0.01340421074206946,0.010562603431204486,15.924369351617221,0.011366430657828138,0.013978916013406383
436,0.25,0.001,0.013359503808706836,0.010544300381898773,15.776401100920246,0.0112608144903071,0.017380941555731826
437,0.25,0.001,0.013378870239085813,0.010535297565459664,15.93538131125393,0.011374290728946418,0.014476116332742903
438,0.25,0.001,0.013287511500386274,0.010487250679471748,15.69266283101049,0.011201044133483575,0.014102360388884941
439,0.25,0.001,0.013334660402105313,0.010556060873215407,15.57127255406873,0.011114398682418793,0.014729282922214933
440,0.25,0.001,0.013386581431121012,0.010570094743219564,15.783591189098878,0.01126594660178364,0.012528310012486246
441,0.25,0.001,0.013328799504631228,0.010481169029813388,15.958120685307387,0.011390521545544173,0.009531759863926305
442,0.25,0.001,0.013342964623508782,0.010529716487318114,15.765441001435157,0.011252991435713887,0.013297431843562258
443,0.25,0.001,0.01336512954131499,0.010473609433768016,16.20407970933862,0.011566081162982599,0.012147421120769449
444,0.25,0.001,0.013294510563629292,0.010548872124410476,15.38655800308809,0.01098255389228272,0.010299588087946177
445,0.25,0.001,0.013297441839739112,0.010542466739588122,15.438880705790165,0.01101990057515358,0.017585117887291644
446,0.25,0.001,0.013345030619815235,0.010523942351584643,15.809378769350138,0.01128435315442551,0.016623075637552474
447,0.25,0.001,0.013268907789391096,0.010422053016695158,15.953773564305799,0.01138741867545025,0.010919074527919292
448,0.25,0.001,0.013265158176530295,0.010485789150391755,15.575585457028149,0.01111747712849975,0.00927664546502961
449,0.25,0.001,0.013272637881663123,0.010432189114107843,15.917875397226988,0.011361795429855095,0.009520477822257413
450,0.25,0.001,0.013345091813286181,0.010573841790295123,15.530085426925964,0.011085000304729453,0.010527581286927065
451,0.25,0.001,0.013300893475012532,0.010391121353284741,16.306363043464895,0.011639088539232616,0.012140755955543783
452,0.25,0.001,0.01333944256436046,0.010537450247445903,15.702364476752583,0.01120796893415602,0.01069689490314987
453,0.25,0.001,0.013307690224906061,0.010487201665874617,15.806018408759753,0.01128195461010689,0.011707681852082411
454,0.25,0.001,0.01330059627155535,0.01045613520577577,15.940358830017534,0.011377843561754128,0.009864115363193883
455,0.25,0.001,0.013303206178838026,0.010518023328426312,15.608165599040673,0.011140732047852014,0.012015618539104858
456,0.25,0.001,0.013319790997151996,0.0104864388873324,15.878105506273883,0.011333408641166226,0.01187207829207182
457,0.25,0.001,0.013408127345631538,0.010577161145648377,15.864734178878868,0.01132386451026329,0.014042254019942548
458,0.25,0.001,0.013307335009010756,0.010419616007504684,16.182777951719974,0.011550876482312615,0.01334185442990727
459,0.25,0.001,0.0133296294499547,0.010566432047601512,15.48495903638227,0.011052790175861719,0.011619357909593318
460,0.25,0.001,0.013371016319753255,0.010523264262548052,15.95880192031445,0.011391007794656995,0.01131544303562906
461,0.25,0.001,0.013327807397623893,0.01050152419855017,15.838491180198378,0.011305132890933888,0.01284103664673037
462,0.25,0.001,0.013294866656759474,0.010496820453317759,15.680251791343066,0.011192185432793052,0.011412335197544761
463,0.25,0.001,0.013311876009426295,0.010450116742382031,16.03730018601876,0.011447037962897045,0.012483201196624173
464,0.25,0.001,0.013277923544622051,0.010441131474020909,15.897383155061199,0.011347168561785295,0.010406216709978051
465,0.25,0.001,0.013267610225481693,0.010446602182831284,15.808929159507128,0.011284032233766688,0.009124538395553827
466,0.25,0.001,0.013299714812768891,0.010482016085442528,15.790383593356761,0.01127079485607192,0.01048736253546344
467,0.25,0.001,0.013250976726547993,0.01043358140248136,15.788683948412997,0.011269581690516058,0.010472046418322457
468,0.25,0.001,0.013252791941855543,0.010464348297856897,15.626437597395936,0.01115377415945463,0.010253010110722648
469,0.25,0.001,0.013339144681426553,0.010481604956387933,16.013651943033707,0.011430158417582947,0.011998023941285081
470,0.25,0.001,0.013275504642979203,0.01044880000438318,15.840853682447042,0.011306819188042144,0.011234074934489198
471,0.25,0.001,0.013273867051676592,0.010408422262314877,16.05795313701872,0.011461779541055475,0.009377815191530518
472,0.25,0.001,0.013283606679491468,0.010463055601840443,15.806367507214555,0.011282203788161709,0.012342195750938522
473,0.25,0.001,0.013228836798949165,0.010452167453842674,15.560455725543513,0.011106677891180238,0.009556795573896833
474,0.25,0.001,0.013306181438388928,0.010488697998698957,15.789177429005369,0.011269933925057365,0.014896035918758975
475,0.25,0.001,0.013361049124703974,0.010480885469978388,16.14043624517922,0.01152065399370394,0.020702321599755023
476,0.25,0.001,0.013323236554320191,0.010531792222790947,15.64325447220984,0.011165777638979186,0.0160031837100784
477,0.25,0.001,0.013259916426022342,0.01040415996229259,16.0036592621985,0.01142302588308244,0.010966023119787375
478,0.25,0.001,0.013187005215015148,0.010397998421721687,15.629594017070348,0.011156027135667629,0.009423471728546752
479,0.25,0.001,0.013268262117479111,0.010462441223043063,15.723820265754382,0.011223283558711194,0.010032325879567199
480,0.25,0.001,0.013266701766791771,0.01044629971596485,15.805533509505423,0.011281608500717646,0.01204390280569593
481,0.25,0.001,0.013261261252439606,0.010483561616100222,15.56622858791732,0.011110798421068751,0.013782933975259462
482,0.25,0.001,0.013251666616844503,0.010368069973579877,16.159674969861815,0.011534386131236127,0.010978638401461972
483,0.25,0.001,0.01331382945937167,0.010509304648194252,15.716557040621279,0.011218099243841028,0.011473249230119918
484,0.25,0.001,0.013299396160158402,0.010398412288966066,16.25711357788252,0.011603935458874034,0.011590264841086335
485,0.25,0.001,0.013307972148588153,0.010485141377510696,15.81914430780982,0.011291323560178316,0.014145784442209534
486,0.25,0.001,0.013250772766904152,0.010446101193825044,15.717379213461209,0.011218686090978735,0.014721875078976154
487,0.25,0.001,0.013408318216052116,0.010586937429711304,15.811018408967449,0.011285523489627016,0.01511410323696004
488,0.25,0.001,0.013303162349208838,0.010426227569566557,16.122342426417745,0.011507739062396678,0.012652032646454044
489,0.25,0.001,0.013313764565964035,0.010508052653171623,15.723208764936444,0.011222847084180188,0.01526142501582702
490,0.25,0.001,0.013305648853715015,0.010466311556268518,15.9116462077506,0.011357349184689936,0.01339854227585925
491,0.25,0.001,0.013297969554829835,0.010470229905849143,15.846653188854294,0.011310958735798925,0.011921063324229585
492,0.25,0.001,0.013226706524482656,0.010404886816460944,15.813478476771857,0.01128727942667513,0.011162690714829497
493,0.25,0.001,0.013210758120632864,0.010426994266086504,15.600212633717947,0.011135055413074909,0.009802255365583632
494,0.25,0.001,0.013159088405041859,0.010340378988202925,15.796046873186114,0.01127483716858395,0.009264036806093322
495,0.25,0.001,0.01318873223863853,0.01045253909042548,15.333626797324733,0.010944772874607232,0.010844042835136255
496,0.25,0.001,0.013234843968155163,0.010369870441538129,16.055312123791925,0.011459894449530283,0.012761236996286444
497,0.25,0.001,0.013246475002253445,0.010417505353351146,15.85354678124568,0.011315879215735673,0.010187068850629859
498,0.25,0.001,0.013260549902848345,0.010446621798073532,15.769252617865423,0.011255712075564184,0.01093231276091602
499,0.25,0.001,0.013286606745013524,0.010464046622023068,15.817627287170632,0.011290240747445134,0.015466720797121525
500,0.25,0.001,0.013242369632620344,0.01037965500608979,16.042653182457233,0.011450858802610445,0.020629220228228305
