epoch,beta,learning_rate,train_loss,train_reconstruction_loss,train_kl_unnormalized,train_kl_normalized,mean_unclipped_gradient_norm
1,0.0,0.001,0.0726812301992296,0.0726812301992296,3.157363053914663,0.0022536495745286676,0.09534279629588127
2,0.02,0.001,0.06681760417314263,0.06610382200629862,50.000585745046806,0.03568921180945525,0.11105938628315926
3,0.04,0.001,0.062156607170362733,0.057608564023499016,159.29520258173213,0.11370107250658967,0.09858572110533714
4,0.06,0.001,0.05848230696744747,0.05115486906321199,171.0956500629047,0.12212394722548515,0.09098708257079124
5,0.08,0.001,0.05327479799722766,0.047123531198447886,107.72404658687007,0.07689082554380448,0.06602249667048454
6,0.1,0.001,0.047173891753495276,0.043220758471671526,55.383376765895534,0.03953131817694185,0.07217200845479965
7,0.12,0.001,0.043057006154511426,0.04047810027862454,30.10873050517864,0.021490885442668552,0.11900051683187485
8,0.14,0.001,0.037712495774030685,0.034479084080672476,32.35721660304714,0.023095800573195675,0.08037633448839188
9,0.16,0.001,0.03625342706302265,0.03126308489758689,43.69667723372176,0.031189633999801396,0.07737903669476509
10,0.18,0.001,0.036268797644355276,0.030898825676591548,41.79627849819424,0.029833175230688253,0.062476541846990585
11,0.2,0.001,0.0366680713387223,0.03162398749777862,35.33380092586483,0.025220414650867114,0.06429585069417953
12,0.22,0.001,0.036237574845283956,0.031258440232491705,31.708023174388988,0.02263242196601641,0.059154750779271126
13,0.24,0.001,0.03504824390014013,0.030499474523035256,26.553442001342773,0.018953206282186132,0.06612628698348999
14,0.25,0.001,0.03401543069127444,0.030438327440270432,20.04608204128506,0.014308409736820172,0.046793943271040916
15,0.25,0.001,0.0335159700464558,0.03089359808746759,14.695771457912686,0.010489487121993352,0.024434754624962807
16,0.25,0.001,0.03256430819227889,0.03046428435691842,11.768531988332937,0.00840009421008775,0.010862712748348713
17,0.25,0.001,0.032572631732569086,0.03066640481487051,10.68249763454403,0.007624909089610299,0.03733062371611595
18,0.25,0.001,0.03197271829924068,0.030079177001843583,10.611408405475789,0.007574167312973439,0.028344308957457542
19,0.25,0.001,0.03185950912669435,0.029858647417780514,11.212834435540277,0.008003450703454873,0.051573118194937706
20,0.25,0.001,0.031232308160077344,0.028867873522612424,13.250293250556465,0.009457739650647013,0.04530130885541439
21,0.25,0.001,0.031326166513535356,0.028958206409001135,13.270047909504658,0.009471840049610748,0.02969660982489586
22,0.25,0.001,0.031020024405406403,0.028582926302611292,13.657497955872133,0.009748392545233499,0.03755881730467081
23,0.25,0.001,0.03047750980870144,0.027906278265757603,14.409182282181474,0.010284926682499267,0.03846019506454468
24,0.25,0.001,0.030053463957465446,0.027685614571243793,13.26942724794955,0.009471397036366559,0.017559682950377464
25,0.25,0.001,0.030009598748103994,0.027918128128927033,11.7206033758215,0.008365883922784798,0.05591331608593464
26,0.0,0.001,0.028000049880361772,0.028000049880361772,12.06103448610048,0.00860887543618878,0.04877471923828125
27,0.02,0.001,0.026897431007242418,0.026703995576984173,13.550158517854708,0.009671776244007644,0.02692110138013959
28,0.04,0.001,0.02673097929774641,0.02626756810255953,16.23095868084882,0.011585266724374602,0.046896396204829216
29,0.06,0.001,0.026100569866127795,0.025168508224122157,21.763631081795907,0.01553435480499351,0.03711976949125528
30,0.08,0.001,0.026108033854413678,0.024578214748888404,26.79095342137792,0.019122736203695874,0.06817346252501011
31,0.1,0.001,0.026178941281663405,0.02409521584306751,29.192995088594454,0.02083725559499961,0.06423038430511951
32,0.12,0.001,0.026308973193974107,0.023551160519992984,32.19746278642534,0.022981772153051635,0.0916915126144886
33,0.14,0.001,0.025879909443828435,0.02288679233206822,29.952558397172808,0.021379413559723632,0.03749917447566986
34,0.16,0.001,0.026346324548662245,0.023345881250796018,26.272632427043742,0.018752771182757845,0.07516868226230145
35,0.18,0.001,0.0258704495725331,0.022834598145506403,23.629043063601934,0.01686584087337754,0.07213359791785479
36,0.2,0.001,0.02559162719963907,0.022748863324522972,19.91356557553953,0.014213822680613511,0.06851316522806883
37,0.22,0.001,0.025085615749294694,0.022249941487570066,18.058083525649064,0.012889424358065,0.03544275090098381
38,0.24,0.001,0.02531038624075082,0.022185941839271837,18.238948478355063,0.013018521397826598,0.07518081553280354
39,0.25,0.001,0.025019034072085545,0.02189030721448026,17.533383446770745,0.012514906100478762,0.0451120575889945
40,0.25,0.001,0.025366431068595464,0.022246205054961884,17.485751504296655,0.012480907569091117,0.05881694331765175
41,0.25,0.001,0.024612556438188295,0.021346032686598668,18.3055997968794,0.013066095500984582,0.04038453474640846
42,0.25,0.001,0.024593116010765772,0.021311849758431717,18.38821675755956,0.013125065494332306,0.05886737396940589
43,0.25,0.001,0.024115669280961826,0.0210635078450044,17.104311040929847,0.012208644568829299,0.061776403337717056
44,0.25,0.001,0.02416784534448976,0.021181649704639975,16.73464278487472,0.011944784286134703,0.045822275802493095
45,0.25,0.001,0.023910489805915335,0.02078480552042927,17.516338365571993,0.012502739732742322,0.05079792067408562
46,0.25,0.001,0.023520023805332614,0.02039067235750121,17.5368872290259,0.012517407015721557,0.026375563349574804
47,0.25,0.001,0.023647732629969314,0.020484055367273254,17.729247952366734,0.012654709459219654,0.050823137164115906
48,0.25,0.001,0.023706040085033252,0.020444172325434985,18.279505205584,0.013047469811266239,0.03604405000805855
49,0.25,0.001,0.023248685658112302,0.02004373224603163,17.96055743930576,0.012819812590510892,0.02312058722600341
50,0.25,0.001,0.022922318965733587,0.019848768624502258,17.224175633610905,0.012294201023276876,0.017318931873887777
51,0.0,0.001,0.019760082115058426,0.019760082115058426,16.94798890534822,0.012097065599820284,0.06112645007669926
52,0.02,0.001,0.019801084371703165,0.01952368816411173,19.431598646146757,0.013869806314166136,0.04419512860476971
53,0.04,0.001,0.019813224270537094,0.019163916256647925,22.74200477256431,0.01623269434158766,0.015459319110959768
54,0.06,0.001,0.0199056220584893,0.01873514562979475,27.330612320083755,0.01950793170598412,0.034629715606570244
55,0.08,0.001,0.020054538809769863,0.018221151570344832,32.10719017509942,0.02291733774097032,0.021404110826551914
56,0.1,0.001,0.020504119747259596,0.018033670144038158,34.61100332586615,0.024704499161931584,0.03301471844315529
57,0.12,0.001,0.020862552110810537,0.017958179233713192,33.90856311557529,0.024203114286634755,0.02912897616624832
58,0.14,0.001,0.02119757986820496,0.01805351969895062,31.46306833490595,0.022457579111281906,0.024163398426026106
59,0.16,0.001,0.021349378165092553,0.01811294032780974,28.339061187194275,0.02022773817786886,0.04024984873831272
60,0.18,0.001,0.021184398985660827,0.0180506974559378,24.39064472645253,0.01740945376620452,0.027000876143574715
61,0.2,0.001,0.02158199614836826,0.018498866592307348,21.597318752391917,0.01541564507665376,0.027739543467760086
62,0.22,0.001,0.021781781268817885,0.018607675391543017,20.21328285148552,0.014427753641317287,0.04429494310170412
63,0.24,0.001,0.022048506281665853,0.018825963978563343,18.811594095316018,0.01342726202378017,0.027952118311077356
64,0.25,0.001,0.0222366682111143,0.018966849641622725,18.324061539796023,0.01307927304767739,0.04597122222185135
65,0.25,0.001,0.022010836498560133,0.018762556668203156,18.203358710349143,0.012993118280049353,0.031928311102092266
66,0.25,0.001,0.022033319699468912,0.018848915894826252,17.845398361618454,0.012737614819142365,0.012230712454766035
67,0.25,0.001,0.02195601888537944,0.018819740092432178,17.57570725518304,0.012545115813835146,0.05275328457355499
68,0.25,0.001,0.02171182491489359,0.01857563126664441,17.57522813264314,0.012544773827725297,0.028494269121438265
69,0.25,0.001,0.021753793901151366,0.01864911191299692,17.39864273758622,0.01241873143296661,0.026649992913007736
70,0.25,0.001,0.02164988535213041,0.018623156993238774,16.961787077757688,0.012106914402396637,0.03247153665870428
71,0.25,0.001,0.021543297631380794,0.01852066751133214,16.938818012271916,0.012090519637595942,0.009317484684288502
72,0.25,0.001,0.021729759486006188,0.018724223095420246,16.843023901587134,0.012022144112481894,0.03260733839124441
73,0.25,0.001,0.021787036596252037,0.018842118850967905,16.503320848619616,0.011779672268821996,0.022676856257021427
74,0.25,0.001,0.021989547857293137,0.019054608067145217,16.44740412256739,0.011739760258791856,0.04960563965141773
75,0.25,0.001,0.02161495896005953,0.018620139860489347,16.782968899151225,0.011979278300607583,0.048126514069736004
76,0.0,0.001,0.01822712837911404,0.01822712837911404,17.247139148883992,0.01231059182646966,0.022825834341347218
77,0.02,0.001,0.0187718624601493,0.018497809818064846,19.197373948655688,0.013702622375914124,0.029406842309981585
78,0.04,0.001,0.01871496600073737,0.01806929803176506,22.614543433661932,0.016141715512963548,0.011973897460848093
79,0.06,0.001,0.018636790817385323,0.01751203625253192,26.26302124573304,0.01874591095341402,0.027596256230026484
80,0.08,0.001,0.018901777663477906,0.01723438185882998,29.200268736830704,0.02084244734962934,0.01469380408525467
81,0.1,0.001,0.01923491985344135,0.01700295804924256,31.269784463418496,0.022319617746908278,0.0134306401014328
82,0.12,0.001,0.019834317015232267,0.017110784596822283,31.79724829046576,0.022696108701260355,0.030611425638198853
83,0.14,0.001,0.020203548374476733,0.01721934437214791,29.863354811797272,0.021315742192574785,0.02836501505225897
84,0.16,0.001,0.020492985290852753,0.017327234820202663,27.72010660601092,0.019785943330486024,0.02797825075685978
85,0.18,0.001,0.020567913329950324,0.017263715734352935,25.717673946071315,0.018356655207759684,0.031186627224087715
86,0.2,0.001,0.020674712922390516,0.017407373785301373,22.88771275357083,0.016336697183134068,0.0237300805747509
87,0.22,0.001,0.02066445889303813,0.017403913343006425,20.7637493030445,0.014820663314093147,0.013557473896071315
88,0.24,0.001,0.020733167526421247,0.017429208366183547,19.286866007624447,0.013766499648554208,0.031055975705385208
89,0.25,0.001,0.021245730185025447,0.018031643082698185,18.01174531541429,0.012856349261537682,0.019658789969980717
90,0.25,0.001,0.021282501267017546,0.018228448407204303,17.1149141122629,0.012216212785341112,0.04058413300663233
91,0.25,0.001,0.021160804339357325,0.018086457994204382,17.228633571315456,0.012297382991659854,0.026236794888973236
92,0.25,0.001,0.020891380689299858,0.017781672495845204,17.426802557867926,0.01243883123331044,0.035722095519304276
93,0.25,0.001,0.021077312428403546,0.018032286869915756,17.064322548943597,0.012180101747996858,0.020765582099556923
94,0.25,0.001,0.020850797594936046,0.017821091017476073,16.978476532944686,0.012118826932865586,0.017888451926410198
95,0.25,0.001,0.020986292913958832,0.0179390787474207,17.07658710995236,0.012188855895754719,0.028733822517096996
96,0.25,0.001,0.021096221582443866,0.017945321478150988,17.657645371583133,0.0126036012645133,0.012496949639171362
97,0.25,0.001,0.021208946383348456,0.01797801632064957,18.106128623893667,0.012923717790073995,0.014897113665938377
98,0.25,0.001,0.020818526311232162,0.01765820875696771,17.710420522603904,0.012641270894078446,0.02206394262611866
99,0.25,0.001,0.02070536249661231,0.017703404868239753,16.822969092979086,0.012007829473932252,0.01791338250041008
100,0.25,0.001,0.020742867410451442,0.01800242064705303,15.357464713019294,0.010961787803725406,0.03014714363962412
101,0.25,0.001,0.02092872190851349,0.018317234794701542,14.634778546857405,0.010445951853574165,0.021283079870045185
102,0.25,0.001,0.020851171852366346,0.018193621255524525,14.892913173984837,0.010630202122758628,0.020099573768675327
103,0.25,0.001,0.02107997335963421,0.018156926693008828,16.380752099526894,0.011692185652767233,0.02162601612508297
104,0.25,0.001,0.021220455667725555,0.01797332607948028,18.19691637400034,0.012988519895788966,0.024159845896065235
105,0.25,0.001,0.020670979275359765,0.01730410051574041,18.86799109519065,0.013467516841677837,0.026127883233129978
106,0.25,0.001,0.020854834131560883,0.01767007686063513,17.847378052032745,0.012739027874398819,0.01671071443706751
107,0.25,0.001,0.021048980991582613,0.01806790388382233,16.705956776936848,0.011924308905736508,0.01865355297923088
108,0.25,0.001,0.02039856238810866,0.017472469877149607,16.397826547021264,0.011704372981457005,0.0351398391649127
109,0.25,0.001,0.020552888210560824,0.017730417250244466,15.817126231150585,0.011289883105746313,0.02200934197753668
110,0.25,0.001,0.020577989032005403,0.01779042040039827,15.621531031153223,0.011150271970844556,0.04729592800140381
111,0.25,0.001,0.020638503872596466,0.01778760775588117,15.976421674092611,0.011403584349816281,0.02551848767325282
112,0.25,0.001,0.02043193426016752,0.017485304223793047,16.51291613535838,0.011786521153003842,0.03987403213977814
113,0.25,0.001,0.020577805318139696,0.017537131720969268,17.039934003675306,0.012162693792773238,0.03885144554078579
114,0.25,0.001,0.020231508205200102,0.017181384268107714,17.092897810377515,0.01220049808021236,0.025680833496153355
115,0.25,0.001,0.020437640179921914,0.01744131067650275,16.791429047111993,0.011985316950115626,0.044009172823280096
116,0.25,0.001,0.020478653545315202,0.017581330444495957,16.236597379048664,0.011589291491112538,0.034863139502704144
117,0.25,0.001,0.020170163262534787,0.017329651023353543,15.918234275268004,0.011362051588342616,0.02371326321735978
118,0.25,0.001,0.02056786142759495,0.017716954772671063,15.976476720861486,0.011403623640871868,0.030782810412347317
119,0.25,0.001,0.02007664706524428,0.01710329706537294,16.662654859525663,0.011893401041774207,0.020968857686966658
120,0.25,0.001,0.02023278195243161,0.0171666418848274,17.182651004275762,0.01226456174466507,0.016537509858608246
121,0.25,0.001,0.020103888384796476,0.017016397168238957,17.302300805444116,0.01234996488611286,0.010613910621032119
122,0.25,0.001,0.02022447457184663,0.017234449484595307,16.756102450259096,0.011960101677558241,0.020009145606309175
123,0.25,0.001,0.020065087422325805,0.017291379521961685,15.543855606972635,0.011094829127032572,0.0145855110604316
124,0.25,0.001,0.02063894758487607,0.017982868024626293,14.884668444727993,0.010624317233924334,0.032282618805766106
125,0.25,0.001,0.019751244149095303,0.016973436902369465,15.566831700436703,0.01111122890823462,0.012166823726147413
126,0.25,0.001,0.020304503405953314,0.017331293809252815,16.661867846239794,0.01189283929067794,0.03324057161808014
127,0.25,0.001,0.020378681352815113,0.0172533156635525,17.514554668117214,0.012501466572531915,0.01904671685770154
128,0.25,0.001,0.020176604524389043,0.016996944390304455,17.818819853636594,0.012718643721368019,0.026793026365339756
129,0.25,0.001,0.019964854560188344,0.01689835327366988,17.184673240592886,0.012266005168160518,0.011839441489428282
130,0.25,0.001,0.01945665418296247,0.01653722217222592,16.360500971476238,0.011677730886135787,0.014644843991845846
131,0.25,0.001,0.020015025427481077,0.017177008595821018,15.904246098286396,0.01135206716508665,0.01614549895748496
132,0.25,0.001,0.019777342576432873,0.0168505412534819,16.40179379781087,0.011707204709358224,0.01544759189710021
133,0.25,0.001,0.019455421128654265,0.016488035637381916,16.629228557552302,0.011869542153856032,0.022128036711364985
134,0.25,0.001,0.019613499509858655,0.016671457185267326,16.48720426817198,0.01176816864252104,0.023246577475219965
135,0.25,0.001,0.019726559435864828,0.016912666862612374,15.769055443841058,0.011255571337502539,0.026453722268342972
136,0.25,0.001,0.01984360735225785,0.01709940806366839,15.378494176778707,0.010976798127607929,0.021803331561386585
137,0.25,0.001,0.019861390797404555,0.017056537070521363,15.71840086928359,0.011219415324256667,0.03148459643125534
138,0.25,0.001,0.019603640847914928,0.0167183718971304,16.169047707909936,0.011541076165531718,0.025781906209886074
139,0.25,0.001,0.019670213195117744,0.016769568544921575,16.25521756936838,0.011602582133739029,0.028435217682272196
140,0.25,0.001,0.01966124152143796,0.0166899040676989,16.651380083582424,0.011885353378716934,0.024494103156030178
141,0.25,0.001,0.01968891609896411,0.01671331404364324,16.6752744107633,0.011902408572993076,0.015647529624402523
142,0.25,0.001,0.0196378308071478,0.016708856364628218,16.413971514315218,0.01171589686960401,0.013077965006232262
143,0.25,0.001,0.019519042727109547,0.016647611845385383,16.09150183737815,0.011485725793988686,0.01983727142214775
144,0.25,0.001,0.019536069669836276,0.0166996538907558,15.8952717652192,0.011345661502654675,0.025513838976621628
145,0.25,0.001,0.019388213048915606,0.016591132341607195,15.674838109059376,0.01118832127698742,0.01480851462110877
146,0.25,0.001,0.01944186098806493,0.016690123406750662,15.420736940057427,0.011006949992903232,0.01656325114890933
147,0.25,0.001,0.01891209621418704,0.016131283648244968,15.583672532090196,0.011123249487573301,0.02294017653912306
148,0.25,0.001,0.019379818358936825,0.016624546416842186,15.440547101132504,0.011021090007946113,0.011326435953378677
149,0.25,0.001,0.019256230863230722,0.01654083256584567,15.217094653361553,0.010861595041657068,0.017701755743473768
150,0.25,0.001,0.01932311022805201,0.016586271173379442,15.33724578651222,0.010947356021778886,0.014671279583126307
151,0.25,0.001,0.019339895412862837,0.016495050979895634,15.942507443127331,0.011379377189955268,0.01008764561265707
152,0.25,0.001,0.019292817241302482,0.016322340044352384,16.64655137276864,0.01188190676143372,0.009681275580078363
153,0.25,0.001,0.019137963887538995,0.016116249534460874,16.933684804418064,0.01208685567767171,0.021810664795339108
154,0.25,0.001,0.01933072918505819,0.016413272736040322,16.349427687155234,0.011669827042937356,0.0254139662720263
155,0.25,0.001,0.01898510940372944,0.01622389833367354,15.473829303775823,0.011044846041238988,0.014990817289799452
156,0.25,0.001,0.01936124271906174,0.01672389059587642,14.779724662368363,0.010549410893910323,0.02109405305236578
157,0.25,0.001,0.018699621932732093,0.016014992939056578,15.044658901455167,0.0107385145620665,0.017489449121057987
158,0.25,0.001,0.019076508310464053,0.016286637919308903,15.63443561931988,0.011159482954546667,0.020185020752251148
159,0.25,0.001,0.019047182858795732,0.016183700748123565,16.046957213599402,0.011453930916202285,0.01857514353469014
160,0.25,0.001,0.019144285654833726,0.016327495871296338,15.785288080438837,0.011267157801883539,0.011506164912134409
161,0.25,0.001,0.01904071505005295,0.01629649260425353,15.378626127500791,0.010976892310849957,0.01866965740919113
162,0.25,0.001,0.018933097286535812,0.016253804116769955,15.014757259471997,0.010717171491414702,0.015642521902918816
163,0.25,0.001,0.01889759313885693,0.016159463338218293,15.344478658727697,0.010952518671468734,0.015453425236046314
164,0.25,0.001,0.019053529545262054,0.016226694424141635,15.841584471968917,0.011307340807972103,0.026534593664109707
165,0.25,0.001,0.018794927729276923,0.01594431387881438,15.974839356568483,0.011402454929741958,0.029961390420794487
166,0.25,0.001,0.019018242873989784,0.016159334178040694,16.021324690397794,0.011435635039541609,0.038847438991069794
167,0.25,0.001,0.019242228352808737,0.01641396090791032,15.849609306266716,0.011313068741089734,0.03320228308439255
168,0.25,0.001,0.018917317745519115,0.016067649145518337,15.969546197770953,0.011398676800693043,0.03229500073939562
169,0.25,0.001,0.018720970061179752,0.015851172089979455,16.08234924453873,0.011479192894031928,0.023009521886706352
170,0.25,0.001,0.01887426156181473,0.016066868344808485,15.732631073341713,0.011229572500600794,0.03792317025363445
171,0.25,0.001,0.01894174282950861,0.016254471077978075,15.059470571913161,0.010749086775098617,0.020226135849952698
172,0.25,0.001,0.018895841430167894,0.016197733950239043,15.120195088085827,0.010792430469725786,0.03259790036827326
173,0.25,0.001,0.018911238054971437,0.016187906911311386,15.261549880912712,0.010893326110572957,0.03841832932084799
174,0.25,0.001,0.01858799105828947,0.01574739260045258,15.918716946163693,0.011362396107183221,0.028480246663093567
175,0.25,0.001,0.018684278233899728,0.015863447038976995,15.807936986287435,0.011283324044459269,0.03322760574519634
176,0.25,0.001,0.01854838466120733,0.015830041236571363,15.2335952380756,0.010873372760939044,0.021069085225462914
177,0.25,0.001,0.018474068207381008,0.01585254496013796,14.691015484096768,0.010486092422624388,0.020903694443404675
178,0.25,0.001,0.018503629208148062,0.0159501957933645,14.309439074885738,0.010213732387498743,0.014177195727825165
179,0.25,0.001,0.018553690481427555,0.016008629706931544,14.262521211091462,0.010180243548245154,0.017621565610170364
180,0.25,0.001,0.01824978858165376,0.01556124919941565,15.066574784012529,0.010754157590301591,0.015846516471356153
181,0.25,0.001,0.018653398916662275,0.015854777583667823,15.683476473834064,0.011194487133357647,0.031590623781085014
182,0.25,0.001,0.018417444147236714,0.015624489568106763,15.651715536375303,0.011171816942452036,0.02619492495432496
183,0.25,0.001,0.018427806193227165,0.015761507373001124,14.941936578836527,0.010665193846421504,0.024741943459957838
184,0.25,0.001,0.018303172444706566,0.01573972504686665,14.365560419924625,0.010253790449625001,0.014977238606661558
185,0.25,0.001,0.01840209064854158,0.015857024638502446,14.262545731690553,0.01018026105045721,0.02636575046926737
186,0.25,0.001,0.01828491310211452,0.01568799882053255,14.553107158557788,0.010387656786979149,0.013062385376542807
187,0.25,0.001,0.0184242257361745,0.015732019602715433,15.087122633650496,0.010768824149643466,0.02394525334239006
188,0.25,0.001,0.0184258095550913,0.01566753157221519,15.457389298860017,0.011033111562355473,0.01876578852534294
189,0.25,0.001,0.01836497652101087,0.015626595934500564,15.34588757935945,0.01095352432502459,0.020746001973748207
190,0.25,0.001,0.018451830288311384,0.015808385234695296,14.813870034776292,0.010573783036956668,0.024027548730373383
191,0.25,0.001,0.018304439345458605,0.015719909338398022,14.483705520629883,0.01033811957218407,0.02088032802566886
192,0.25,0.001,0.01836983728650454,0.01577603823698319,14.535647022831547,0.010375194163334437,0.034313405863940716
193,0.25,0.001,0.018349556084554474,0.015730018484162854,14.679890014029837,0.010478151330499527,0.018131336197257042
194,0.25,0.001,0.01847977278468845,0.015759204388470262,15.246068232768291,0.0108822756836319,0.028178011998534203
195,0.25,0.001,0.01828948874865566,0.015478575384026175,15.752360799291113,0.011243655102991515,0.026402438059449196
196,0.25,0.001,0.018369746738457465,0.015519798909490174,15.97110787812654,0.011399791490454347,0.031909562181681395
197,0.25,0.001,0.01827697838480408,0.015499661575902152,15.564087635761982,0.011109270261072078,0.023607617244124413
198,0.25,0.001,0.018172196909651026,0.015519551295149434,14.865427695953095,0.010610583651643893,0.020817475393414497
199,0.25,0.001,0.01837410420380734,0.015728103970219422,14.828185218948502,0.010584000870056032,0.04809819906949997
200,0.25,0.001,0.01819227150901481,0.015463627975534749,15.291319048082507,0.010914574623899005,0.01858392171561718
201,0.25,0.001,0.01809410304502324,0.015325475282765724,15.515390473443109,0.011074511401458322,0.04727723449468613
202,0.25,0.001,0.018079250245480925,0.01537050383148698,15.179818093239724,0.010834987932362402,0.015777974855154753
203,0.25,0.001,0.01812357114846105,0.015435276007665708,15.065207240817783,0.010753181470962015,0.033193462528288364
204,0.25,0.001,0.018078142558937676,0.015422385580300747,14.882858585666966,0.010623025400190554,0.019038615748286247
205,0.25,0.001,0.018117729960395408,0.015440075020599473,15.00557720768559,0.010710618991924048,0.04050454869866371
206,0.25,0.001,0.018026423162302456,0.015245282368080036,15.585517316251188,0.011124566250000849,0.021521396934986115
207,0.25,0.001,0.01827186181604325,0.015523073036928434,15.404212144044068,0.01099515499217992,0.03750541526824236
208,0.25,0.001,0.018176247978264146,0.015502451776384233,14.983949308996802,0.010695181519626553,0.02909805066883564
209,0.25,0.001,0.017900654878299515,0.015258883050567395,14.804489376308682,0.010567087349256732,0.028721065260469913
210,0.25,0.001,0.018055426930119325,0.015412603538516943,14.81038407162503,0.010571294840560335,0.02100959187373519
211,0.25,0.001,0.017978993001150655,0.015345209471143043,14.759722589372515,0.01053513389676839,0.018836691044270992
212,0.25,0.001,0.017934958475667076,0.015293645924208937,14.801916345819697,0.010565250782169662,0.014817964285612106
213,0.25,0.001,0.01799518945584963,0.015248174435115076,15.394273551734718,0.010988061064764253,0.016643659211695194
214,0.25,0.001,0.017720547076818104,0.014900708118000545,15.802381807619387,0.011279358891948171,0.017393975984305143
215,0.25,0.001,0.018087155882034217,0.01529005193361291,15.674970446406183,0.01118841573619285,0.021213343366980553
216,0.25,0.001,0.01794959571178969,0.015229257461321246,15.244777619301736,0.010881354474876329,0.03531644120812416
217,0.25,0.001,0.017871006601699838,0.015271309226214348,14.56870548145191,0.010398790493541692,0.021947424858808517
218,0.25,0.001,0.017786330316920538,0.01527465432714503,14.075428395657926,0.01004670121031972,0.03709190059453249
219,0.25,0.001,0.017722400509425112,0.01521565833103818,14.047786008130323,0.01002697074099238,0.02452960447408259
220,0.25,0.001,0.01771291820248505,0.015167152483922404,14.266468469087068,0.010183061005772353,0.03909957781434059
221,0.25,0.001,0.017811362136591662,0.015256180218211166,14.319235303380468,0.01022072469905815,0.03470965288579464
222,0.25,0.001,0.017725773390617455,0.01510258010580196,14.700374422846613,0.010492772607313785,0.04194851964712143
223,0.25,0.001,0.01794478206618412,0.015252227475447161,15.089074736242896,0.010770217513378227,0.03291713306680322
224,0.25,0.001,0.01754867658019066,0.014821200992341514,15.284771902067167,0.010909901429027242,0.020163504406809807
225,0.25,0.001,0.017673228154177063,0.014972357079386711,15.135677294688183,0.010803481295280644,0.016776866745203733
226,0.25,0.001,0.017524785253110232,0.014965781690301123,14.340659124357206,0.010236016505608283,0.02236932795494795
227,0.25,0.001,0.01762433591726664,0.015152111288730626,13.854349952560288,0.00988890075129214,0.013367790263146162
228,0.25,0.001,0.01750662671150388,0.015019279594222704,13.939094251340574,0.009949389187252373,0.013873076066374779
229,0.25,0.001,0.01729978381043619,0.01478158674194469,14.111975626902538,0.010072787742257344,0.015828384552150965
230,0.25,0.001,0.017602145269110397,0.015061599445772601,14.237217739895657,0.010162182540967636,0.015017710626125336
231,0.25,0.001,0.017501279023719264,0.014935964399629884,14.376024710165488,0.01026125960754139,0.021496728993952274
232,0.25,0.001,0.01732676875618127,0.01481613274328075,14.069603120958483,0.010042543269777647,0.013287642039358616
233,0.25,0.001,0.017404743914937112,0.0149598082376493,13.701423541919604,0.009779745568821987,0.02285646926611662
234,0.25,0.001,0.017411461183885195,0.014939847779837815,13.850921854242548,0.00988645385741795,0.01676522847265005
235,0.25,0.001,0.01720248186239251,0.014649061788175557,14.309362445865666,0.010213677691552937,0.012725972104817629
236,0.25,0.001,0.017233542376407632,0.014638565740808173,14.542247102067277,0.010379905140661868,0.01719542220234871
237,0.25,0.001,0.017408043146133423,0.014842875905939051,14.375199042998993,0.010260670266237682,0.013321766629815102
238,0.25,0.001,0.017310229977508924,0.014825438896009515,13.92476882590904,0.009939164044189179,0.011367551516741514
239,0.25,0.001,0.01714266640310352,0.014715020284727888,13.604525540326092,0.009710582113009346,0.011353143956512213
240,0.25,0.001,0.017281658662197826,0.01484109639181747,13.676909360799703,0.009762247937758532,0.01567569375038147
241,0.25,0.001,0.017220597177206934,0.014708901067507697,14.075543343483865,0.010046783257304686,0.019777190405875444
242,0.25,0.001,0.017245693014817196,0.01459851834151122,14.834763054375175,0.010588695970289204,0.011661994270980358
243,0.25,0.001,0.01733897839513448,0.014621254442645623,15.230123889338863,0.010870894995959217,0.027265523560345173
244,0.25,0.001,0.017077149571599188,0.014408420444138953,14.955558905730376,0.01067491713471119,0.015631468500941992
245,0.25,0.001,0.017177910669832618,0.014649071009108075,14.171616451160327,0.01011535792374042,0.015432668384164572
246,0.25,0.001,0.017297652860482533,0.014879236232724276,13.552803958858455,0.009673664495973202,0.024131656624376774
247,0.25,0.001,0.017301872657897236,0.014840713223895512,13.792336017161876,0.009844636700329677,0.028280838392674923
248,0.25,0.001,0.01692626962589251,0.014372194789954135,14.31303883458043,0.010216301809122363,0.009591206209734082
249,0.25,0.001,0.0171289309892837,0.014535739640327724,14.532247990101308,0.01037276801577538,0.025691970251500607
250,0.25,0.001,0.017029762922509295,0.014440217516846486,14.511810835417327,0.010358180467821075,0.019958026707172394
251,0.25,0.001,0.017035778494434314,0.014472262145162703,14.365947551555461,0.010254066774843298,0.023381321458145976
252,0.25,0.001,0.01692229074736436,0.01443648945775118,13.930431881466427,0.00994320619662129,0.028477984480559826
253,0.25,0.001,0.017193876072630152,0.014762163120279979,13.627318682971302,0.009726851308330694,0.021886796690523624
254,0.25,0.001,0.016798851390679676,0.014354215162965629,13.699740006043031,0.009778543901529643,0.010924815200269222
255,0.25,0.001,0.01685622463690805,0.014332996580649066,14.140167296469748,0.010092910275852782,0.019022053806111217
256,0.25,0.001,0.016857995139854448,0.014319652330700879,14.22487347405236,0.010153371501821813,0.013629518914967775
257,0.25,0.001,0.017123047044282563,0.014622203921815296,14.014720384065095,0.010003369296263451,0.02595438715070486
258,0.25,0.001,0.016904452144428418,0.014411718467133003,13.96927668597247,0.009970932680922534,0.01043886854313314
259,0.25,0.001,0.016797225939126702,0.014319876863344296,13.88306458791097,0.009909396565246946,0.022752816788852215
260,0.25,0.001,0.01686333066171354,0.014392786852277076,13.84492997006253,0.009882176995048201,0.011729010846465826
261,0.25,0.001,0.01688104643075316,0.01440240071901867,13.890332935092685,0.009914584536111838,0.020254584029316902
262,0.25,0.001,0.01691916621885858,0.014455663904480569,13.805464770342853,0.009854007687610888,0.012929435353726149
263,0.25,0.001,0.01662126733913078,0.014143311922010538,13.886463818249402,0.009911822853853962,0.014938326086848974
264,0.25,0.001,0.01692975574248546,0.014457047656849699,13.857057141828108,0.009890833077678877,0.016437126323580742
265,0.25,0.001,0.016752700547914248,0.014263597342210848,13.948933154613048,0.009956411959038578,0.022593049332499504
266,0.25,0.001,0.016742802703300037,0.014254365661726878,13.945204081836048,0.009953750236856565,0.028603164479136467
267,0.25,0.001,0.01679363408805551,0.014322648261178721,13.84740551097973,0.009883943976430928,0.01952288206666708
268,0.25,0.001,0.016834500035992614,0.014363578898278443,13.847040356816473,0.009883683338198767,0.04604844003915787
269,0.25,0.001,0.01680155830071853,0.01435859208540605,13.690380629118499,0.009771863404081727,0.017130700638517737
270,0.25,0.001,0.01667560767885801,0.014250354019102749,13.59112548828125,0.00970101747914436,0.0310639850795269
271,0.25,0.001,0.01676587310728726,0.014345080348419713,13.566122458861754,0.009683170919958425,0.018123709596693516
272,0.25,0.001,0.016787359440648877,0.014302050141063897,13.927669224438366,0.009941234278685486,0.016870722640305758
273,0.25,0.001,0.016769788823686203,0.014227076869894256,14.249355737153474,0.0101708463505735,0.01963969599455595
274,0.25,0.001,0.016614085566755886,0.014090629235782602,14.141445623861777,0.010093822715104766,0.0131941307336092
275,0.25,0.001,0.016688862647693436,0.014212600349842964,13.876974904859388,0.009905049896402132,0.013856528326869011
276,0.25,0.001,0.016606143096814286,0.014174438534757576,13.627272245046255,0.00972681816206014,0.016327067743986845
277,0.25,0.001,0.016540419494917802,0.014164295970453872,13.315791765848795,0.009504490910670089,0.022360756061971188
278,0.25,0.001,0.016539163014910242,0.014135818030718748,13.468344018266007,0.00961337902802713,0.011716628447175026
279,0.25,0.001,0.016566888068441872,0.014114295895974915,13.74433067253044,0.009810371643490677,0.012847346253693104
280,0.25,0.001,0.01644421447706115,0.013952477944192585,13.963695027806738,0.009966948627984824,0.010504612233489752
281,0.25,0.001,0.016657913691020227,0.01415123327358349,14.047437770946607,0.010026722177692082,0.011615253984928131
282,0.25,0.001,0.016514738333654834,0.013994300964514952,14.124531711544002,0.010081749972551035,0.011035678209736943
283,0.25,0.001,0.016508494881359307,0.013967143656971218,14.241731652268419,0.010165404462718358,0.014707955997437239
284,0.25,0.001,0.016524697712681315,0.01401030382997281,14.090665172886204,0.010057576854308498,0.01150595536455512
285,0.25,0.001,0.016376123251812952,0.013899534546375812,13.878803321907112,0.009906354976379095,0.012332281097769737
286,0.25,0.001,0.01656979194901011,0.01413026240629119,13.671121855039853,0.009758116955774342,0.025982108898460865
287,0.25,0.001,0.01638020602734508,0.013857197427601964,14.13894118919029,0.010092035110057308,0.01892728405073285
288,0.25,0.001,0.0164121549979255,0.013835011704547985,14.442311862567523,0.010308573777707011,0.014950235839933157
289,0.25,0.001,0.01648606806322261,0.013947264484322822,14.227454168302518,0.010155213539116716,0.016176037723198533
290,0.25,0.001,0.016478418406132643,0.014035821229487926,13.68831139641839,0.00977038643570192,0.01272724661976099
291,0.25,0.001,0.016174633408317696,0.013788336183171015,13.372808731354034,0.009545188245077826,0.010521142277866602
292,0.25,0.001,0.016329164792959754,0.01397565164947295,13.189083580498222,0.009414049664880958,0.012306972406804562
293,0.25,0.001,0.0162854423528319,0.013918503632282352,13.264326980522087,0.009467756588523973,0.012096887454390526
294,0.25,0.001,0.016118152285212867,0.013709990844667496,13.49533379185307,0.00963264367726843,0.013432941865175962
295,0.25,0.001,0.016188792615860433,0.013726850501723118,13.796725273132324,0.00984776964534784,0.008272017585113645
296,0.25,0.001,0.016293669606114294,0.013811404590268393,13.910613609863832,0.009929060392479537,0.01251326035708189
297,0.25,0.001,0.01625685986164991,0.013772509539046802,13.922299281970874,0.009937401343305407,0.025744646787643433
298,0.25,0.001,0.016157342943253817,0.013716173979143301,13.68030884029629,0.00976467440420863,0.017411182168871164
299,0.25,0.001,0.016325755481113185,0.013911702309374337,13.528357703406531,0.0096562153486128,0.012608049903064966
300,0.25,0.001,0.01605991418431471,0.013659312884818326,13.452967463312921,0.009602403614070608,0.010110403876751661
301,0.25,0.001,0.01615990236032385,0.013740233061751267,13.5598286379565,0.009678678542438614,0.012207143008708954
302,0.25,0.001,0.016008304952232686,0.013540802590616114,13.827882964331824,0.009870009253627283,0.009329672204330564
303,0.25,0.001,0.016077558367370483,0.013580516358283726,13.993425248979449,0.00998816934259775,0.014047571923583746
304,0.25,0.001,0.016401946460744284,0.013880195029012792,14.1318978318223,0.010087007731493434,0.013868974056094885
305,0.25,0.001,0.01605575870688971,0.013527842985281537,14.166437698914125,0.010111661455327712,0.009062230121344328
306,0.25,0.001,0.01589230511773814,0.013379120142073245,14.083889780817804,0.010052740742910639,0.007818401325494051
307,0.25,0.001,0.016148390349101375,0.01368481562649076,13.805874343390938,0.009854300030971404,0.02361572440713644
308,0.25,0.001,0.0161178769745134,0.013617927737131313,14.009719049608385,0.00999979946438857,0.0215856502763927
309,0.25,0.001,0.016228378272137127,0.013658371661697422,14.402317124444085,0.010280026498532538,0.02273533446714282
310,0.25,0.001,0.016102852853568824,0.013465666975658219,14.778786521774155,0.010548741271787405,0.027320695109665394
311,0.25,0.001,0.016117832203907473,0.013539006690251397,14.45174031644254,0.010315303580615661,0.0114397001452744
312,0.25,0.001,0.015956258048882354,0.013434856727316574,14.129934121896556,0.010085606082724165,0.014765910804271698
313,0.25,0.001,0.01590418355824711,0.013447026151593204,13.769911740277264,0.009828630792489124,0.009437697473913431
314,0.25,0.001,0.015932432887656195,0.013541394072744224,13.399380881507117,0.009564154804787377,0.010485982289537787
315,0.25,0.001,0.016003514933693515,0.013613779332723704,13.392081956605654,0.009558945008283836,0.011578246019780636
316,0.25,0.001,0.015944374624539067,0.013517728763389157,13.59892293569204,0.009706583108987895,0.010820958064869046
317,0.25,0.001,0.015931305467142717,0.013458231556321587,13.859106106801075,0.009892295579444023,0.014333351515233517
318,0.25,0.001,0.01599778469886866,0.013474471531472765,14.14064511307725,0.010093251329819593,0.011070092441514134
319,0.25,0.001,0.015912844589701644,0.013371671608707926,14.240736076423714,0.010164693844699296,0.020673951134085655
320,0.25,0.001,0.01573307580641798,0.013207971017707038,14.1506885236448,0.010100420073979157,0.01474712835624814
321,0.25,0.001,0.0159974264333377,0.013515208117865227,13.910355043840838,0.00992887583429039,0.0296027772128582
322,0.25,0.001,0.0158448405983346,0.013392330667524188,13.743864239873114,0.009810038715112858,0.02532588690519333
323,0.25,0.001,0.015938182420156023,0.013475311819363284,13.801925788054595,0.009851481647433687,0.013547128532081842
324,0.25,0.001,0.01582944633120352,0.013328515781878351,14.015211423238119,0.010003719788178529,0.0166926933452487
325,0.25,0.001,0.01576187079017227,0.013284835754683963,13.881302206365913,0.009908138619818638,0.01887891534715891
326,0.25,0.001,0.015872134382391836,0.013421523636458692,13.733220298011023,0.009802441326203443,0.015149851329624653
327,0.25,0.001,0.015877401707945642,0.013407732930604939,13.840025661227939,0.009878676417721584,0.014607520308345556
328,0.25,0.001,0.015738663767036552,0.013220040505198209,14.114368120829264,0.01007449544670183,0.011325183790177107
329,0.25,0.001,0.015917377093353786,0.013367454982824154,14.289766543620342,0.010199690609293606,0.015258267056196928
330,0.25,0.001,0.0157664472170107,0.013208931353916455,14.332321338825398,0.010230065195449963,0.014721275074407458
331,0.25,0.001,0.015868821877751266,0.013314650184265128,14.313576887319753,0.010216685858186834,0.014386337250471115
332,0.25,0.001,0.015707470510188525,0.013164162149166202,14.252704053311735,0.01017323629786705,0.01250850735232234
333,0.25,0.001,0.0158373082039861,0.013341999134501896,13.98371273762471,0.00998123678631314,0.020882396958768368
334,0.25,0.001,0.01571644750331436,0.013226773153554212,13.952132792086214,0.009958695783073672,0.010885660070925951
335,0.25,0.001,0.015616352510479119,0.013122081848885025,13.97789478302002,0.009977084070678101,0.013314576353877783
336,0.25,0.001,0.01569972066460429,0.013190911839472817,14.059362652065518,0.010035233870139557,0.014146700501441956
337,0.25,0.001,0.015577185899019241,0.013068501006912541,14.058668265471587,0.010034738233741318,0.02591840550303459
338,0.25,0.001,0.015585113669166694,0.013077331186683328,14.05361068141353,0.010031128252258052,0.016937106382101774
339,0.25,0.001,0.015735996098400238,0.013248063321854617,13.942373817031449,0.009951730062120948,0.032956747338175774
340,0.25,0.001,0.015602461976913718,0.013113659051423138,13.947250220152709,0.009955210721022633,0.013838940765708685
341,0.25,0.001,0.015594750172920056,0.013060729774470264,14.200650378390476,0.010136081640535671,0.025426162872463465
342,0.25,0.001,0.015630671955846453,0.013086189087983724,14.25928377031206,0.010177932741122098,0.02245601313188672
343,0.25,0.001,0.015601781112989327,0.013065556701910388,14.213004112243652,0.010144899437718524,0.01118007441982627
344,0.25,0.001,0.015495309925025649,0.012943959383814185,14.297768910725912,0.010205402505871458,0.014985478948801756
345,0.25,0.001,0.015537753432720632,0.01298118114202946,14.327031496408823,0.010226289433553764,0.018507256638258696
346,0.25,0.001,0.015251376330516897,0.012723028055719426,14.168862488892701,0.010113392211914847,0.01168350549414754
347,0.25,0.001,0.015471369363703169,0.013014154550661374,13.77023273330551,0.00982885990956853,0.014724655542522669
348,0.25,0.001,0.015690095982774422,0.013291090475143614,13.444029619027903,0.009596023996451037,0.015439098235219717
349,0.25,0.001,0.015474883294118955,0.013052435163911935,13.575399587820241,0.009689792710792464,0.02141590788960457
350,0.25,0.001,0.015534446616699029,0.013034393104749757,14.010296993427449,0.01000021198674336,0.012951842974871397
351,0.25,0.001,0.015388369979756372,0.0128100680371931,14.448803025322992,0.01031320701307851,0.03078030701726675
352,0.25,0.001,0.015174043490677266,0.01255889679095498,14.655284151300654,0.010460588259315241,0.009644061559811234
353,0.25,0.001,0.015497257169503887,0.012926886604914258,14.404358219456029,0.01028148338290937,0.031175966374576092
354,0.25,0.001,0.015262291875776943,0.01276690379489918,13.984158326913645,0.009981554837197463,0.022714869119226933
355,0.25,0.001,0.015456926186678108,0.012975818351716609,13.904130720877433,0.009924433062724792,0.013311786577105522
356,0.25,0.001,0.015411626581136172,0.012870406782304918,14.240994075397113,0.010164877998142122,0.021032522898167372
357,0.25,0.001,0.015393147169536835,0.012784628910725718,14.618139507534268,0.010434075308732525,0.011837541125714779
358,0.25,0.001,0.015395530742836429,0.012753186797773515,14.807695698093724,0.01056937594439238,0.0230844272300601
359,0.25,0.001,0.015350936979122527,0.012739679381788315,14.633487890432546,0.010445030614155993,0.014036063104867935
360,0.25,0.001,0.015431417806728466,0.012856196637290556,14.431539088756114,0.010300884431660324,0.013433127198368311
361,0.25,0.001,0.0153425278410584,0.012804953045807444,14.220566534781241,0.010150297312477689,0.012808138504624367
362,0.25,0.001,0.01530181770087094,0.012785084369416172,14.103774345672882,0.010066933865576647,0.017801440320909023
363,0.25,0.001,0.01552212345707524,0.012978905308488253,14.252192634719986,0.01017287125961455,0.023228788748383522
364,0.25,0.001,0.015311926922148413,0.012711652621693976,14.571937028352204,0.010401097093756034,0.010827339254319668
365,0.25,0.001,0.015365210957489573,0.012697501242295042,14.94984582952551,0.010670839278747688,0.020250581204891205
366,0.25,0.001,0.015293876564985997,0.012607850285397994,15.052493439064369,0.010744106665998836,0.009311588481068611
367,0.25,0.001,0.015220462487221838,0.01259691561865914,14.702356484559205,0.010494187355145757,0.018764983862638474
368,0.25,0.001,0.015193188999284495,0.012663250638021005,14.177775846945273,0.010119754351852443,0.029043124057352543
369,0.25,0.001,0.015257303846312,0.01281214676596023,13.70265971862518,0.009780627921930891,0.01593812834471464
370,0.25,0.001,0.015386011208164262,0.012933139135507313,13.74589779999879,0.009811490221269658,0.03464869223535061
371,0.25,0.001,0.015225384568980148,0.012620383823240126,14.598425444181975,0.01042000388592575,0.02072358038276434
372,0.25,0.001,0.01509979239723704,0.012391763110015844,15.175794893556887,0.010832116269490996,0.019856007304042578
373,0.25,0.001,0.01525120071328438,0.012592956071367135,14.896803598146182,0.010632979013666083,0.010954088997095823
374,0.25,0.001,0.01513820509887762,0.012556737733518218,14.466542656357223,0.010325869133731066,0.010728002991527319
375,0.25,0.001,0.015104061479235554,0.012578247844971515,14.154659116590345,0.010103254187430653,0.012486065737903118
376,0.25,0.001,0.015067119956822009,0.012563667058743335,14.029350607244819,0.010013811996605866,0.01482158456929028
377,0.25,0.001,0.014925421895207586,0.012391197167941043,14.201798353109274,0.010136901037194342,0.013011854141950607
378,0.25,0.001,0.015049861148335375,0.01248512007631697,14.372808490787541,0.010258963947742714,0.01164926402270794
379,0.25,0.001,0.015158881995457786,0.01254418400863001,14.652766330822095,0.010458791099801638,0.012374550104141235
380,0.25,0.001,0.015140938228583551,0.012454451288323145,15.05507012960073,0.010745945845539423,0.008533973013982177
381,0.25,0.001,0.015165041209206925,0.012457496226505117,15.173084533966339,0.010830181680204382,0.018114242237061262
382,0.25,0.001,0.015011573780898575,0.012331258153190484,15.020487656464448,0.010721261710538508,0.014444207772612572
383,0.25,0.001,0.0150562540485381,0.012421180536081124,14.766953459731093,0.01054029511758108,0.015387638472020626
384,0.25,0.001,0.014897735319561787,0.012310802718406325,14.497170027311858,0.010347730212214032,0.008958158316090703
385,0.25,0.001,0.014867398887872696,0.012288196582917695,14.453852473078546,0.010316811187065345,0.010136154480278492
386,0.25,0.001,0.015002464405722447,0.012465216924209852,14.218733821903264,0.01014898916624073,0.015216154046356678
387,0.25,0.001,0.014895915339054825,0.012349649852661937,14.269270321270367,0.010185060900264359,0.017237627878785133
388,0.25,0.001,0.014905693957598897,0.012355673781319245,14.290314889168954,0.010200082005117026,0.014816191978752613
389,0.25,0.001,0.014854484640464589,0.012238443619361869,14.660292831627098,0.010464163334494717,0.015149958431720734
390,0.25,0.001,0.014906906497639578,0.012283699922599233,14.70044821661872,0.010492825279527994,0.017484489362686872
391,0.25,0.001,0.01473804441624665,0.01210277899260725,14.768028302235646,0.010541062314229584,0.008464299608021975
392,0.25,0.001,0.014873783582368412,0.012276383385330707,14.555830929730389,0.010389600949129472,0.011989371152594686
393,0.25,0.001,0.014799877833407204,0.012244990254911754,14.317589802784962,0.010219550180431808,0.009739334229379892
394,0.25,0.001,0.014953176239253702,0.01241054847366638,14.248885068807516,0.010170510398863323,0.01732588652521372
395,0.25,0.001,0.014761896602608062,0.01219008597838986,14.412428185746476,0.010287243530154516,0.015497668413445354
396,0.25,0.001,0.014941562285965628,0.012314887767707979,14.71988295649623,0.010506697327977323,0.020972583442926407
397,0.25,0.001,0.014863896670306588,0.012194040424383438,14.961874893119743,0.010679425334132579,0.022703932598233223
398,0.25,0.001,0.014929831346815772,0.01226781794448962,14.917920628109494,0.010648051840192359,0.019212709739804268
399,0.25,0.001,0.014694010385790386,0.012024250695364433,14.961332149333781,0.010679037936712193,0.010325522162020206
400,0.25,0.001,0.014735114794258063,0.012105489216812022,14.736421851424483,0.010518502392165941,0.0093084080144763
401,0.25,0.001,0.014743827602213568,0.012086702519104825,14.890529847359872,0.01062850096171297,0.011711751576513052
402,0.25,0.001,0.01487268487343917,0.012153449644510811,15.238592182193791,0.010876939459096211,0.021207912359386683
403,0.25,0.001,0.014944660175289656,0.012207117544168287,15.34118973671853,0.010950171118285888,0.01636505499482155
404,0.25,0.001,0.014861660396999068,0.012189308844238252,14.975860226261723,0.010689407727524428,0.023225251585245132
405,0.25,0.001,0.014760097656566818,0.012153642881359603,14.606570999901574,0.010425817987081781,0.01213297201320529
406,0.25,0.001,0.01478234649140824,0.01213795885544371,14.819147848868155,0.010577550213324878,0.016857012175023556
407,0.25,0.001,0.014573035602298405,0.011856500411758552,15.223463152979946,0.010866140723040646,0.011876417323946953
408,0.25,0.001,0.01470984078876607,0.012025421149693094,15.04348762615307,0.010737678534013612,0.013045767322182655
409,0.25,0.001,0.014639732520188298,0.012014638783561217,14.711023751679841,0.010500373841313235,0.020676512736827135
410,0.25,0.001,0.014702087595454744,0.012086509894747455,14.657697617470681,0.010462310933241029,0.012177215423434973
411,0.25,0.001,0.01457804241763042,0.011926758732344653,14.857794375032991,0.010605135171329758,0.020342329517006874
412,0.25,0.001,0.014370595516116769,0.011675779254653969,15.101749703690812,0.010779264599351043,0.01640654867514968
413,0.25,0.001,0.014439757258908168,0.011752525906640667,15.059244456591907,0.010748925379437477,0.01391965989023447
414,0.25,0.001,0.014551154841240999,0.011872334682659523,15.01210796940434,0.010715280492080186,0.028546178713440895
415,0.25,0.001,0.014280067093938857,0.011588435712362732,15.08390152561772,0.010766525000440914,0.02510164398699999
416,0.25,0.001,0.014315476271886009,0.011642549673581982,14.979082975301656,0.010691708048038298,0.02072323579341173
417,0.25,0.001,0.014209711068385356,0.011518443171102722,15.081864898269242,0.010765071304974477,0.021884167566895485
418,0.25,0.001,0.014080506824963802,0.011409510623428735,14.968262603691032,0.010683984727830859,0.008121517719700933
419,0.25,0.001,0.013910855653251076,0.01125498840098714,14.883480578929454,0.010623469363975343,0.01178066711872816
420,0.25,0.001,0.013767399699301333,0.011089712037360883,15.005759222013456,0.010710748909360069,0.013046380132436752
421,0.25,0.001,0.01382671579349417,0.011074080249412102,15.425771515648645,0.011010543551497961,0.010135648772120476
422,0.25,0.001,0.013687581285364457,0.010843813503244976,15.936473434035843,0.011375070259840003,0.011766667012125254
423,0.25,0.001,0.013354340937357765,0.010492243283839376,16.03919386648917,0.0114483896263306,0.021304729860275984
424,0.25,0.001,0.013324847344208407,0.010545299824763526,15.576585546270147,0.01111819096807291,0.00915989512577653
425,0.25,0.001,0.01344990721895351,0.010760250862117286,15.072835509841507,0.010758626345354395,0.0282137393951416
426,0.25,0.001,0.013268797146575945,0.010515914718108671,15.42715222985895,0.011011529071990685,0.012551406864076853
427,0.25,0.001,0.013191550189780223,0.010359298697932883,15.87193742528692,0.011329006013766537,0.013884864747524261
428,0.25,0.001,0.013154197702402467,0.01031166636426975,15.929547455933717,0.011370126663764251,0.011721636168658733
429,0.25,0.001,0.01309804886848003,0.010289648606500647,15.738274917946205,0.011233600940718205,0.016459628473967314
430,0.25,0.001,0.013109226526507924,0.010324041552103317,15.608175741659629,0.011140739287408729,0.013365772552788258
431,0.25,0.001,0.012946053785649506,0.010114703461662069,15.866885924124503,0.011325400374107425,0.014241020195186138
432,0.25,0.001,0.013029327053945881,0.010133060198780653,16.23067855834961,0.011585066779692798,0.020195743069052696
433,0.25,0.001,0.013107328415588216,0.010216391771226315,16.200809324109876,0.011563746840906407,0.013859865255653858
434,0.25,0.001,0.012718707230781112,0.009865729834649476,15.988085368732074,0.011411909613656013,0.011795134283602238
435,0.25,0.001,0.012947487904950305,0.010130329544211293,15.78735368745821,0.011268632182339908,0.013349810149520636
436,0.25,0.001,0.013014711682928039,0.010156988761983477,16.01468055312698,0.011430892614651663,0.019342297688126564
437,0.25,0.001,0.013080276565643045,0.010170127726621457,16.308473672952736,0.011640595055640782,0.017461118288338184
438,0.25,0.001,0.012850798918186006,0.009945201544879793,16.282965703053517,0.011622388082122424,0.023517413064837456
439,0.25,0.001,0.012886422367447668,0.010005024563823198,16.14735443527634,0.011525592030889608,0.017990306485444307
440,0.25,0.001,0.012762011851074997,0.009849365506958854,16.322470759486293,0.011650585838319981,0.02216148190200329
441,0.25,0.001,0.013007652719278593,0.010067039353957584,16.479198249610693,0.011762454139622194,0.022048693150281906
442,0.25,0.001,0.012814678385988012,0.009858648871650567,16.56559079831785,0.011824119056615167,0.011870611924678087
443,0.25,0.001,0.012698341731552605,0.009734298446559691,16.610496744379265,0.011856171837529812,0.009463579626753926
444,0.25,0.001,0.012683974570586337,0.009739903095471967,16.49857641340376,0.011776285805427382,0.009724264964461327
445,0.25,0.001,0.012791445277429916,0.00986415806419409,16.404518926465833,0.011709149840446706,0.008332228288054466
446,0.25,0.001,0.012655027563104758,0.009748009872530494,16.29092702779684,0.011628070683652278,0.009654502384364605
447,0.25,0.001,0.012795804496351126,0.009899670845484949,16.229934030824953,0.011584535353907889,0.013233485165983438
448,0.25,0.001,0.01289252824410125,0.009973950281336501,16.355709642977327,0.011674310951447057,0.012921230867505074
449,0.25,0.001,0.01270912820892828,0.009734986224085898,16.667088938188982,0.011896565980149166,0.009192585479468107
450,0.25,0.001,0.012612135334124972,0.00960965663496707,16.8258915978509,0.0120099154874025,0.011013621464371681
451,0.25,0.001,0.012576175870390626,0.00954995920193625,16.958918356680655,0.012104866778501538,0.011505226604640484
452,0.25,0.001,0.012600108276347857,0.009577917195185347,16.936360024117135,0.01208876518495156,0.013565348461270332
453,0.25,0.001,0.012594740577713327,0.009634507601862555,16.589146622666366,0.011840932635736164,0.01278756046667695
454,0.25,0.001,0.012728456844080676,0.009784683828485442,16.4969032734364,0.011775091558484224,0.016432485077530146
455,0.25,0.001,0.012749724434101366,0.009765359589846822,16.724380510347384,0.011937459322160874,0.014382576569914818
456,0.25,0.001,0.012617655324976187,0.009619415544711792,16.802136773461694,0.011992959866853458,0.013777862302958965
457,0.25,0.001,0.012682875979121204,0.009648301076513153,17.005757684106225,0.012138299560389882,0.010427563218399882
458,0.25,0.001,0.012674204233261916,0.009673213737236487,16.817549800013637,0.012003961313357342,0.00963592017069459
459,0.25,0.001,0.012625392492826994,0.009662151387011682,16.606003340300138,0.01185296455410431,0.009667225647717714
460,0.25,0.001,0.012528762548557809,0.009576645788845714,16.54366329983548,0.011808467737213047,0.01321601727977395
461,0.25,0.001,0.012520087077408223,0.009580569056508777,16.473061089043146,0.01175807358247191,0.01634912146255374
462,0.25,0.001,0.012611765531940503,0.009658432615971243,16.55047844551705,0.011813332223780906,0.016337847337126732
463,0.25,0.001,0.012438975585003694,0.009491634018182217,16.516902476817638,0.011789366507364481,0.011100154835730791
464,0.25,0.001,0.012367447301208435,0.00945566302618465,16.317642108814137,0.01164713926396441,0.020433657336980104
465,0.25,0.001,0.012448810947102469,0.009572562283358059,16.118498174993842,0.011504995128475262,0.02383823599666357
466,0.25,0.001,0.01255211547889688,0.009645139261543213,16.290694812396627,0.011627904933901947,0.014862209558486938
467,0.25,0.001,0.012522752472275012,0.009527080256055604,16.78774880074166,0.011982690079044725,0.015230181161314249
468,0.25,0.001,0.012253503373882792,0.009220177534262877,16.998758522239893,0.012133303727508846,0.011298503261059523
469,0.25,0.001,0.012526729395864782,0.0095151062081526,16.877138223733986,0.012046494092600989,0.014599900227040052
470,0.25,0.001,0.012542443316396291,0.009615160499674242,16.404494586291612,0.011709132467017568,0.019100815057754517
471,0.25,0.001,0.012368676739300156,0.009473147583907252,16.226544783996033,0.011582116191289103,0.02820881176739931
472,0.25,0.001,0.01232344616909285,0.009451026717821756,16.09703814016806,0.011489677473353362,0.02732659224420786
473,0.25,0.001,0.012452695778831168,0.009555522394408513,16.235758566641593,0.011588692767053243,0.015683730831369758
474,0.25,0.001,0.012564874447143829,0.009615951427468308,16.525764705898524,0.011795692152675607,0.027069982141256332
475,0.25,0.001,0.01254781747555679,0.009527809179580963,16.924126771119266,0.01208003338409655,0.01599723380059004
476,0.25,0.001,0.012355374709308685,0.009318424237741006,17.019068726548202,0.012147800661347753,0.012266376987099648
477,0.25,0.001,0.012294957716320012,0.009295234607683646,16.8104488441536,0.011998892822379445,0.01175448577851057
478,0.25,0.001,0.012336490986247858,0.00939393914430528,16.490060496974635,0.011770207349732074,0.01736308285035193
479,0.25,0.001,0.012284561236565178,0.009359791824543799,16.390408232405377,0.011699077967455658,0.011020549573004246
480,0.25,0.001,0.012368849889786393,0.009477152220636338,16.205072987187016,0.011566790140747334,0.008884808514267206
481,0.25,0.001,0.01253294543707156,0.009604688540839398,16.409951295938576,0.011713027334717043,0.01358163682743907
482,0.25,0.001,0.012478909975437968,0.009459689284699995,16.919711430867512,0.012076881820747688,0.013791822828352451
483,0.25,0.001,0.01219222369931034,0.009125858746670388,17.183907105042053,0.012265458319087832,0.012982705608010292
484,0.25,0.001,0.012473098447059726,0.009423887994778049,17.087776046615463,0.012196842288804756,0.01173708913847804
485,0.25,0.001,0.0125024929005015,0.0094644377880671,17.02526092529297,0.012152220503421105,0.02488645166158676
486,0.25,0.001,0.012441088873389605,0.009435060467604582,16.84578311335933,0.012024113571277181,0.021466307807713747
487,0.25,0.001,0.012277696969675587,0.009255130238294064,16.938465290241414,0.01209026787312021,0.01282575074583292
488,0.25,0.001,0.012482337972468085,0.009492444520530937,16.75536434070484,0.011959574832765768,0.017929466906934977
489,0.25,0.001,0.012374354710987022,0.009349199792219175,16.9529707968772,0.012100621553802426,0.01364556374028325
490,0.25,0.001,0.012200682726059411,0.009198368719971931,16.8249673585634,0.01200925578769693,0.00932452967390418
491,0.25,0.001,0.012274576426559203,0.009329070328726425,16.506617623406488,0.011782025427128114,0.013001476414501667
492,0.25,0.001,0.012268967658012837,0.009321856580943137,16.515611579826285,0.011788445096235748,0.015549684874713421
493,0.25,0.001,0.012276682667098604,0.009287975762072985,16.748714584488052,0.011954828397207747,0.009919235482811928
494,0.25,0.001,0.012343166547047126,0.009342106277341241,16.817943194964986,0.012004242109182717,0.02175716497004032
495,0.25,0.001,0.012319870125334541,0.00939690194151423,16.380314715273744,0.011691873458439504,0.01646309904754162
496,0.25,0.001,0.012150129857095512,0.0092594545032527,16.199345270792644,0.011562701834969767,0.013802376575767994
497,0.25,0.001,0.01222479002768392,0.00932710139533958,16.238646481488203,0.011590754090998004,0.016128089744597673
498,0.25,0.001,0.01228699834832737,0.009368456497385696,16.355509044887782,0.011674167769370294,0.011968988459557295
499,0.25,0.001,0.012288644507124618,0.009276671167295258,16.879100284060918,0.012047894563926423,0.014889602549374104
500,0.25,0.001,0.01236471730947226,0.009248886274190637,17.46111675640484,0.012463323880374619,0.013646331615746021
