epoch,beta,learning_rate,train_loss,train_reconstruction_loss,train_kl_unnormalized,train_kl_normalized,mean_unclipped_gradient_norm
1,0.0,0.001,0.08953523834090714,0.08953523834090714,42.28199978049742,0.03017987136366697,0.10977660225970405
2,0.02,0.001,0.06476685674775631,0.05869581813522435,425.27625743620985,0.303551932502648,0.12859412282705307
3,0.04,0.001,0.05381099551642707,0.04264892774437545,390.951454372581,0.27905171618314134,0.10760531627706119
4,0.06,0.001,0.043986299100818985,0.04025976065922221,87.01468217482261,0.06210898085283555,0.09408875102443355
5,0.08,0.001,0.03978718027745912,0.03558660288332799,73.56262543004587,0.05250722728768442,0.05548165978065559
6,0.1,0.001,0.037888297623177185,0.034820986279380434,42.97301980114858,0.030673104783118188,0.04748918302357197
7,0.12,0.001,0.036400172415129634,0.03402089580483393,27.778060965581773,0.019827309754162577,0.0423307368265731
8,0.14,0.001,0.03428916575028262,0.03211125538368291,21.794661408170647,0.015556503503333796,0.02748211020869868
9,0.16,0.001,0.03144392325038757,0.028822078343925125,22.957525760755626,0.016386528023380177,0.030151986383966038
10,0.18,0.001,0.028200815799176146,0.02490462525106898,25.655348821517524,0.018312169037485743,0.02901997191033193
11,0.2,0.001,0.026257010586901542,0.022512493296227325,26.230342637508286,0.018722585751255023,0.04125935171863863
12,0.22,0.001,0.02489130046867996,0.020897739301991024,25.431722116032873,0.018152549690244733,0.04537278440381799
13,0.24,0.001,0.02364124349156104,0.01985561287184374,22.098618428641505,0.015773460691392936,0.034595862829259465
14,0.25,0.001,0.022891234298911663,0.018984848753027958,21.89138548964754,0.015625542819163125,0.07216888559716088
15,0.25,0.001,0.021798016588895693,0.018026871316203282,21.133498813034198,0.015084581593885937,0.04493104466902358
16,0.25,0.001,0.02132840179453749,0.017429600512489266,21.848882307700062,0.015595205073304827,0.030582832837743417
17,0.25,0.001,0.020519435576616077,0.016691194334571516,21.45346195325939,0.015312963564068086,0.031622656754084995
18,0.25,0.001,0.019837309170616876,0.015954614915979017,21.758620025914745,0.01553077803420039,0.03864624204912356
19,0.25,0.001,0.01935355864260175,0.015517272157680005,21.49854878766821,0.015345145458721064,0.03204834700695106
20,0.25,0.001,0.018846691475002043,0.014981771981634131,21.65900820110916,0.015459677516851648,0.042832271328994205
21,0.25,0.001,0.018504208090518594,0.01467903358263707,21.43627702205553,0.01530069737477197,0.04241169589970793
22,0.25,0.001,0.018721669758541868,0.015095727415669948,20.3197822920773,0.01450377037264618,0.09239389534507479
23,0.25,0.001,0.018729462741164986,0.01475570381644669,22.268945064019718,0.01589503573448945,0.09814527950116567
24,0.25,0.001,0.018082839992204936,0.014311890818452069,21.132399165302242,0.015083796691864555,0.05221540028495448
25,0.25,0.001,0.017769926201996453,0.014022983209050576,20.99787029651327,0.014987773230915966,0.04269771144858429
26,0.0,0.001,0.013185458659373839,0.013185458659373839,26.692264276906986,0.019052294273309768,0.02926735207438469
27,0.02,0.001,0.012376733671087738,0.011681703329428073,48.68688149408463,0.034751521409053986,0.027245852963200638
28,0.04,0.001,0.012898436414265852,0.010987063844201214,66.94582317947248,0.04778431347571198,0.021595802158117294
29,0.06,0.001,0.013499476793093965,0.010619803177995966,67.24037635873218,0.04799455842878814,0.020480856033308164
30,0.08,0.001,0.013689418331882275,0.010758014310390578,51.33621264816424,0.03664255007006727,0.014364385977387428
31,0.1,0.001,0.013985086232423782,0.01145211697786773,35.48689570995646,0.025329690014244437,0.027645850820200785
32,0.12,0.001,0.014357494378308638,0.011687609461059264,31.17090778175844,0.022249041957001028,0.027118002862802575
33,0.14,0.001,0.01467994445029202,0.011726150477151259,29.559038949668953,0.021098528871997826,0.0331575982272625
34,0.16,0.001,0.014879204751496468,0.011486030414427093,29.711483631658993,0.021207340208179153,0.01863310153463057
35,0.18,0.001,0.015070285631019042,0.01165830014153905,26.556620939062277,0.018955475331236458,0.020535388961434364
36,0.2,0.001,0.015439096923678293,0.011988012188481629,24.174848784000503,0.01725542382869415,0.020027182331042632
37,0.22,0.001,0.01570456960332503,0.011812091873394787,24.788005898851868,0.017693080584476707,0.019783211206751212
38,0.24,0.001,0.015950607990316296,0.012040942129807188,22.822676492393562,0.016290275868946155,0.030475202814808915
39,0.25,0.001,0.01600159307377874,0.012096162859794743,21.88603213948941,0.015621721726973169,0.016500118853790418
40,0.25,0.001,0.015881093201834128,0.012074255999690349,21.33351668961551,0.015227349528633484,0.02589150132345302
41,0.25,0.001,0.01577702446610009,0.012019062970141206,21.05961692880053,0.015031846487366544,0.016755023172923496
42,0.25,0.001,0.015934052697699003,0.012241380776218865,20.6937345627251,0.0147706884816025,0.0397877377857055
43,0.25,0.001,0.01579662918224247,0.012015578653150743,21.189008607776888,0.015124203146164802,0.04449398283447538
44,0.25,0.001,0.015799283314872226,0.012082374611989074,20.829556438901008,0.014867634860029271,0.04224410945815699
45,0.25,0.001,0.015358937135256759,0.011881220735472823,19.48912347566097,0.013910866149650944,0.03346450041447367
46,0.25,0.001,0.015250906758352157,0.011673638819281114,20.0470097568057,0.014309071917777088,0.0207696218442704
47,0.25,0.001,0.015211465973577915,0.011724049242538049,19.54348284170168,0.013949666553677145,0.021788007313651696
48,0.25,0.001,0.015031461270714025,0.011460147208508548,20.013644157199685,0.014285256357744244,0.015594289771148137
49,0.25,0.001,0.015025966399169843,0.011414178177167516,20.240461559470642,0.014447153147373763,0.014393307734280825
50,0.25,0.001,0.014964710510925416,0.011388809377447181,20.03934951222271,0.014303604220001934,0.017603784200868437
51,0.0,0.001,0.010782784961779182,0.010782784961779182,23.322822885775786,0.01664726829819828,0.02556879645479577
52,0.02,0.001,0.010178545472818778,0.009540298099228002,44.70922638079442,0.0319123671526013,0.01484386423336608
53,0.04,0.001,0.010724300228127646,0.008921883359483075,63.12965018596124,0.04506042126050053,0.012447241294596876
54,0.06,0.001,0.011357972150617237,0.008770217469662701,60.42407349052779,0.04312924588902769,0.011321648423160826
55,0.08,0.001,0.01151996273376526,0.008990518945277831,44.29688672406958,0.031618049053582856,0.013168563667152609
56,0.1,0.001,0.01185044310474341,0.009661036133424405,30.67359026637646,0.02189406871261703,0.016066770002778088
57,0.12,0.001,0.012234373411180777,0.009859031083386972,27.732124066134112,0.019794521103593227,0.015477499458938837
58,0.14,0.001,0.012479796134140513,0.009680194711876571,28.01601243675302,0.01999715377355676,0.015325905888208322
59,0.16,0.001,0.012760237491595636,0.009757886726169958,26.28933535584616,0.018764693330368423,0.013599156069436244
60,0.18,0.001,0.013045989968087694,0.009953237266852221,24.07192303718777,0.017181957913767143,0.015207780990749598
61,0.2,0.001,0.013509209293427818,0.010221223432331457,23.032340005997124,0.016439928626693166,0.017399666165666922
62,0.22,0.001,0.01374897723077634,0.01016542710227157,22.820698764346062,0.016288864214379774,0.022332365225468363
63,0.24,0.001,0.013878631089395339,0.01025014520204122,21.181286768082085,0.015118691483284857,0.019433474700365747
64,0.25,0.001,0.013976295743513546,0.010405254387937555,20.01211490106145,0.014284164811607032,0.01235076758478369
65,0.25,0.001,0.01397659120346428,0.010395390160996979,20.069051375082875,0.014324804693135528,0.011872610210308008
66,0.25,0.001,0.0139661326560132,0.010323023295388856,20.415984669956593,0.014572437309033971,0.02026346791535616
67,0.25,0.001,0.013766380240542626,0.010386346574496785,18.94170836352427,0.013520134449339237,0.026960532447057112
68,0.25,0.001,0.013780352873129582,0.01026173582761933,19.718328965913265,0.014074467498867427,0.015973578872425214
69,0.25,0.001,0.013794398396660428,0.010318668456662685,19.477990719156526,0.013902919856642774,0.010283727265362228
70,0.25,0.001,0.013766916520004972,0.010286855135420594,19.5022644077966,0.013920245829976158,0.01652189756610564
71,0.25,0.001,0.013633998529558334,0.010207384756398857,19.20274367026233,0.013706455153649056,0.013578381123287337
72,0.25,0.001,0.013541250600727327,0.010171559545288393,18.883749463142603,0.013478764784541472,0.012442154011556081
73,0.25,0.001,0.013583663210204435,0.010183596479441595,19.053974396591887,0.013600267235254737,0.015296229826552528
74,0.25,0.001,0.013444890832067083,0.010019277085746648,19.197139897477737,0.013702455315829934,0.011855473409273795
75,0.25,0.001,0.01339265013780069,0.010052135752496916,18.72024303401282,0.013362057840123355,0.012844887296003955
76,0.0,0.001,0.00949443681934558,0.00949443681934558,23.32736130810659,0.01665050771456573,0.020945852489343712
77,0.02,0.001,0.009074546627426914,0.008444245315131244,44.15261074381137,0.03151506833962268,0.00836439257753747
78,0.04,0.001,0.009637515385284883,0.007936867483712117,59.56519009651394,0.0425161956434789,0.009254638970430409
79,0.06,0.001,0.010154233715676387,0.007829922234314845,54.272676660380235,0.038738527237958766,0.01078015472739935
80,0.08,0.001,0.010325574512601993,0.008165552511537841,37.82738921839163,0.02700027781469781,0.010051347647926636
81,0.1,0.001,0.010542842157936971,0.008600586751868965,27.21099948008126,0.01942255494652481,0.011443245357700757
82,0.12,0.001,0.010980015304452235,0.008805790557227003,25.384076547185217,0.018118541432680383,0.011497095626379763
83,0.14,0.001,0.0112684499728707,0.00864585525774901,26.244678409821397,0.018732818279672662,0.013387634285858699
84,0.16,0.001,0.011588310745946311,0.008759619164015723,24.7687322984048,0.01767932355346524,0.016882637848279307
85,0.18,0.001,0.012012443496683322,0.009006673880263206,23.39490561529037,0.016698719211484917,0.023868885955640247
86,0.2,0.001,0.012187581201758953,0.009131162529896706,21.410212823010365,0.015282093378308612,0.01969616474317653
87,0.22,0.001,0.012495066962042533,0.009185364572416753,21.07678705617922,0.015044102110049407,0.014427765937788146
88,0.24,0.001,0.012730538221332459,0.009320975870850984,19.903320190009723,0.014206509771598659,0.014613348192402295
89,0.25,0.001,0.012819530408180088,0.009373455163125597,19.311805165142093,0.013784300617517554,0.012037102399127824
90,0.25,0.001,0.012801696076442342,0.009371445386098066,19.2231259652234,0.013721003544056674,0.011384688184729643
91,0.25,0.001,0.012731046185170838,0.009343705165686958,18.982659348654092,0.01354936427455681,0.010641661206526416
92,0.25,0.001,0.012719144369689149,0.00934117739387882,18.9301278175564,0.013511868535015275,0.011739664444965976
93,0.25,0.001,0.012694987118107463,0.00939554018780179,18.4901005456207,0.013197787684240328,0.016164764628878663
94,0.25,0.001,0.012689891929199936,0.009394348906609444,18.468223484284287,0.013182172365656166,0.012191017956605979
95,0.25,0.001,0.012661645086396724,0.00932428094669493,18.702589769975855,0.01334945736614979,0.014895268782441105
96,0.25,0.001,0.012656710161870225,0.009368412760556291,18.42761991658342,0.013153190518617717,0.013967082303549563
97,0.25,0.001,0.012626820081554422,0.009317268207327489,18.546729184071953,0.013238207840165562,0.017787028636251177
98,0.25,0.001,0.012713284411151474,0.00939592422592804,18.590486753971206,0.013269440937880947,0.01831302578960146
99,0.25,0.001,0.012612465700698555,0.009297251974770783,18.578458261052404,0.01326085528983041,0.01856200210750103
100,0.25,0.001,0.01247980695115317,0.009212535831632965,18.30978773274553,0.013069084748569259,0.013782519181924207
101,0.25,0.001,0.01241603530430739,0.009252478394213073,17.728573352918712,0.012654227946408789,0.009498194924422674
102,0.25,0.001,0.012462801590493513,0.009209130976109876,18.233570903813074,0.01301468301485587,0.013872402054922921
103,0.25,0.001,0.012379867204148834,0.009158499350925104,18.052545250008958,0.01288547127052745,0.011410618866128581
104,0.25,0.001,0.012351289630756466,0.009119506566486227,18.110912830457774,0.012927132641297483,0.011533512933445829
105,0.25,0.001,0.012410129924569654,0.00921590712536639,17.900425762211512,0.012776892050115283,0.010658119139926774
106,0.25,0.001,0.01231446877600403,0.009147621340912963,17.747014036966025,0.01266739046178874,0.014365616321031536
107,0.25,0.001,0.012335445962572864,0.00908667384860439,18.206119694841018,0.012995089004169177,0.01701819377818278
108,0.25,0.001,0.012283757935628432,0.009071249625893361,18.002897297570463,0.012850033759864713,0.013572974130511284
109,0.25,0.001,0.012354679491131677,0.009094375741044316,18.270742276392944,0.013041215043820803,0.013717683697385448
110,0.25,0.001,0.012276057606785122,0.009107760879971566,17.755134495026475,0.012673186648841168,0.018408014039908136
111,0.25,0.001,0.012194261518776964,0.009013349224531323,17.825832541929472,0.01272364920908599,0.019035849986331805
112,0.25,0.001,0.012232580017127575,0.009075740694042739,17.690928695398732,0.0126273580980719,0.016693768756730214
113,0.25,0.001,0.012119690597125697,0.008938829025783397,17.825548959434578,0.01272344679474274,0.011897725585315908
114,0.25,0.001,0.012064005427677696,0.008909557706787499,17.677526473999023,0.01261779191577375,0.016453872168702737
115,0.25,0.001,0.012118299098668295,0.009007219208079741,17.43449219869911,0.012444319913418352,0.01240787176149232
116,0.25,0.001,0.012087420039220687,0.008870139290843534,18.029640302745573,0.012869122271767005,0.011432477539139134
117,0.25,0.001,0.012083634170233656,0.008959057288022217,17.51012914115136,0.012498307738152291,0.017021181993186474
118,0.25,0.001,0.01205645622941879,0.008937631733715534,17.47789255194708,0.012475298038506123,0.010147963450955493
119,0.25,0.001,0.01191344512882856,0.008796946812045136,17.4648564364932,0.012465993173799572,0.011657451279461384
120,0.25,0.001,0.011937213121751033,0.008885150108862361,17.10376086803751,0.012208251868692014,0.011569320623363768
121,0.25,0.001,0.011973288798824363,0.008871332853348977,17.383360381520124,0.012407823255903014,0.012322573789528437
122,0.25,0.001,0.012039856532366451,0.008932813002360523,17.4118721988223,0.01242817430322791,0.018237130849489143
123,0.25,0.001,0.01196131426328366,0.008815798609423529,17.627469946485046,0.012582062774079262,0.015323771562959467
124,0.25,0.001,0.01200039176389985,0.008954523652450207,17.069045758028643,0.012183473060691395,0.01743910780974797
125,0.25,0.001,0.011953136849499077,0.00885428274648452,17.365977576019567,0.012395415828707757,0.013144799109016145
126,0.25,0.001,0.011919339289974183,0.008816125050802296,17.390412566858693,0.01241285693565931,0.012325132598302193
127,0.25,0.001,0.01194326688937091,0.00880878381089333,17.56564283808437,0.012537932075720463,0.011955389087753636
128,0.25,0.001,0.011820861770677458,0.00867638361870969,17.621656312855013,0.012577913142651687,0.009673596160220248
129,0.25,0.001,0.0117831590388893,0.008700204346704921,17.27687800696137,0.012331818705896766,0.009771795544241155
130,0.25,0.001,0.011828222081338593,0.008731601725614399,17.3534608543466,0.01238648169475132,0.01135254358606679
131,0.25,0.001,0.011798776096638736,0.008664929214010545,17.562077513528525,0.012535387233068183,0.014041639066168241
132,0.25,0.001,0.011768592085791837,0.00861271639106744,17.685528221480343,0.01262350337007876,0.013805021132741655
133,0.25,0.001,0.011738818514784541,0.008639077433820712,17.37094980642336,0.01239896488681182,0.01080183551779815
134,0.25,0.001,0.011717471259928077,0.00861596504926955,17.380840493998395,0.012406024620983865,0.00962029058220131
135,0.25,0.001,0.011813338598185176,0.008690445530100153,17.50069411741484,0.012491573245835004,0.010164096485823393
136,0.25,0.001,0.011735109817407547,0.008649234984651071,17.293242848247562,0.012343499534794834,0.012926438956388406
137,0.25,0.001,0.011658284573926838,0.008555286350326801,17.3892013129838,0.012411992371865669,0.01587377940969808
138,0.25,0.001,0.011779233710754901,0.008712759890824283,17.184520266471655,0.012265895978923379,0.012125584962112563
139,0.25,0.001,0.01171887572000333,0.008587514135747328,17.548151576190914,0.012525447234968533,0.012025678929473673
140,0.25,0.001,0.011641841945708345,0.008532656096092878,17.42387741858806,0.012436743339463282,0.010067212727985211
141,0.25,0.001,0.01158764354303616,0.008516623356610263,17.20999684465041,0.012284080545789014,0.012131597979792528
142,0.25,0.001,0.01167313587945809,0.008590140405598037,17.27710669631258,0.012331981938838386,0.01518192035811288
143,0.25,0.001,0.011550678418727096,0.008468522083595258,17.27240427699658,0.012328625465379427,0.011079902361546243
144,0.25,0.001,0.011646614350173452,0.008633533766100166,16.885304582228354,0.01205232304227577,0.014167802940521921
145,0.25,0.001,0.01165095166465558,0.008487601790132873,17.727413054999957,0.012653399753747293,0.013568014837801456
146,0.25,0.001,0.01153885369795725,0.008482207381807336,17.129446782103372,0.012226585854463507,0.012457499280571938
147,0.25,0.001,0.011569435503162922,0.008578745802061274,16.759825645236795,0.011962759204308919,0.012897433446986335
148,0.25,0.001,0.011621992103755474,0.008461554765427879,17.711090350369794,0.012641749000977726,0.011981497651764325
149,0.25,0.001,0.011516106707992357,0.008395310576765909,17.488941910070018,0.012483184803761612,0.009094771862562214
150,0.25,0.001,0.011538682590930834,0.00850320085370486,17.01083998723861,0.012141927185752042,0.008116226776369981
151,0.25,0.001,0.011534163489117535,0.00842950995498841,17.398478534243523,0.0124186142285821,0.010883464344910212
152,0.25,0.001,0.011552353005070206,0.00839361292096453,17.701579067685188,0.01263496007686309,0.011706451353217875
153,0.25,0.001,0.011530903663588773,0.008475451627660781,17.12275239087026,0.012221807559507681,0.012097423230963094
154,0.25,0.001,0.011481595242720678,0.008457122430410406,16.949145465815832,0.012097891124779324,0.010250757182283061
155,0.25,0.001,0.011474358191320656,0.00837879859492046,17.34751615611785,0.012382238512575198,0.00859603245875665
156,0.25,0.001,0.01139734400043247,0.008355186278120093,17.04825250818095,0.01216863134060025,0.012245573635612215
157,0.25,0.001,0.011550470819235395,0.008525411359145554,16.952433122407406,0.012100237774737621,0.014504791370459966
158,0.25,0.001,0.011511677696685726,0.008405846107853662,17.405080217833913,0.01242332635105918,0.012877347346927439
159,0.25,0.001,0.01140803730098206,0.008357533548505755,17.095023023972818,0.01220201500640458,0.012013760129255908
160,0.25,0.001,0.011386836366300735,0.008351541953075916,17.009788705668317,0.01214117680632999,0.012579524623496192
161,0.25,0.001,0.011539018234460179,0.008525946160453723,16.885255761102798,0.012052288194934188,0.014668156658964497
162,0.25,0.001,0.0115442415357593,0.008388784936193478,17.683179715357788,0.012621827063067657,0.01197170399661575
163,0.25,0.001,0.011446594141013578,0.008445620613702394,16.817455536728605,0.012003894030498648,0.013751698923962457
164,0.25,0.001,0.011494587329344465,0.008387672253499885,17.411153005897454,0.012427660960669131,0.015221889662955488
165,0.25,0.001,0.01146409564027819,0.0083417665862709,17.497533518239994,0.012489317286395428,0.01140556630811521
166,0.25,0.001,0.011358931036922364,0.008381152064155002,16.68747313963164,0.011911115731357344,0.011037115606346301
167,0.25,0.001,0.011383871231740767,0.008286649267266103,17.35683222429468,0.012388888097283855,0.011054285269762789
168,0.25,0.001,0.011313667999358352,0.008304567268511297,16.8629999773218,0.012036402553405995,0.014158889119114195
169,0.25,0.001,0.011358353505850932,0.00833986305691507,16.91562068134273,0.012073961942428787,0.011690410386238779
170,0.25,0.001,0.011403873246675784,0.00835185879072465,17.10348997203582,0.012208058509661543,0.011882815510034561
171,0.25,0.001,0.011340353689199193,0.008304887681926063,17.010751286777882,0.012141863873503128,0.013971978266324316
172,0.25,0.001,0.01133698494165042,0.008276149707444764,17.152921326663517,0.012243341418032488,0.011441804734723908
173,0.25,0.001,0.011326899495693522,0.008231640101299374,17.345834032111213,0.012381037853041552,0.014859962277114391
174,0.25,0.001,0.01134018157395201,0.008306810948485082,16.999009473608176,0.012133482850541168,0.013293325235801083
175,0.25,0.001,0.011312137451877287,0.008206720387033366,17.402757172190814,0.012421668217124064,0.012195397101874863
176,0.25,0.001,0.01128855381810337,0.008214061344982287,17.229457032789878,0.012297970758593775,0.009035662082689149
177,0.25,0.001,0.01129407784260741,0.008225160586827119,17.1982126323455,0.012275669259347251,0.01359619093792779
178,0.25,0.001,0.011272764798903137,0.008122673121477486,17.653114353844877,0.012600367133365365,0.011761889393840517
179,0.25,0.001,0.011239577990469582,0.008194100846527913,17.0668544594301,0.012181908964618201,0.009887713739382369
180,0.25,0.001,0.011231430908750504,0.008247177193471051,16.723757805080588,0.011937014850164587,0.011518132872879505
181,0.25,0.001,0.011303315955906286,0.008188838241707295,17.45353271764353,0.012457910576476466,0.012157971571598734
182,0.25,0.001,0.011251153005714264,0.008119791054055778,17.548153483539547,0.01252544859638797,0.013879346262131418
183,0.25,0.001,0.011269745322952577,0.008313195596218383,16.56850494594749,0.011826199104887572,0.01203229437981333
184,0.25,0.001,0.011293868030156565,0.008154121295916378,17.595141174596385,0.012558987276656948,0.013534062542021275
185,0.25,0.001,0.011397204840333637,0.008350286077400413,17.074932815831737,0.012187675100522296,0.02127823592828853
186,0.25,0.001,0.011321917637635808,0.008280831551469794,17.042246249837614,0.012164344218299511,0.019811714201101234
187,0.25,0.001,0.011214722434930298,0.008166350919855844,17.083073992247975,0.012193486075837241,0.012142375244625978
188,0.25,0.001,0.01120808664196675,0.0081959491074427,16.88001826925015,0.012048549799607532,0.013250106280403478
189,0.25,0.001,0.011219351099581894,0.008180732172358474,17.028419940843495,0.012154475332507847,0.01288947622690882
190,0.25,0.001,0.011196995606868092,0.008167357679559003,16.978092071113238,0.01211855251328568,0.017400027518825873
191,0.25,0.001,0.011165636480538123,0.008186944709116713,16.69258885864818,0.011914767208171435,0.01491033791431359
192,0.25,0.001,0.011259082157950882,0.008185343368303611,17.225232640537648,0.012294955489320233,0.013533903485430139
193,0.25,0.001,0.011257581498234644,0.008147938416228382,17.426439460264433,0.012438572063001023,0.019288705262754644
194,0.25,0.001,0.011180498996117246,0.00822231755378323,16.57764874029597,0.011832725724693769,0.02026641182601452
195,0.25,0.001,0.011154117618063722,0.008097014535184301,17.13200633897694,0.01222841280440895,0.013576986534254891
196,0.25,0.001,0.011152165446327914,0.008064230011109638,17.304789446909492,0.012351741218350816,0.010856340240154947
197,0.25,0.001,0.011032057199798046,0.008009762844976481,16.936937227161653,0.012089177178559353,0.01014766309942518
198,0.25,0.001,0.01113231269933215,0.008117699653867189,16.89389284816357,0.012058453139303048,0.01153231505304575
199,0.25,0.001,0.011124236244332352,0.007984904324584598,17.592816466585212,0.012557327956163607,0.011887436067419392
200,0.25,0.001,0.011159075287367226,0.008108701086987595,17.09429560670065,0.012201495793505105,0.009921038855931588
201,0.25,0.001,0.011068898056625226,0.008020777656876166,17.081666456450016,0.012192481410742338,0.01053696611363973
202,0.25,0.001,0.011045500174711604,0.008024849574329383,16.927726395633243,0.012082602709231437,0.008382230797516448
203,0.25,0.001,0.011158153346372306,0.008055619664763638,17.38659758961529,0.012410133896941676,0.010738116422934192
204,0.25,0.001,0.011096204460145684,0.008013482320917035,17.275574937872932,0.012330888606618795,0.013902899410043443
205,0.25,0.001,0.011117441178120057,0.008087932379967576,16.977366981156376,0.01211803496156772,0.013944365350263459
206,0.25,0.001,0.011108761567861662,0.008014769951274635,17.33872921094982,0.012375966603104796,0.015960976348391602
207,0.25,0.001,0.011141372289200988,0.008167768679046577,16.664075693952928,0.01189441519910987,0.017999388809714998
208,0.25,0.001,0.011134018506342118,0.008054051907100809,17.260133375815297,0.012319866792159384,0.014391537689204727
209,0.25,0.001,0.011058086059440713,0.008019016739493663,17.03094506919931,0.012156277708207928,0.014377955214253493
210,0.25,0.001,0.010937953803585757,0.007942894678733764,16.784311872009837,0.011980236882234003,0.011234261095523834
211,0.25,0.001,0.01103024119767574,0.00806016889358059,16.644285674488874,0.011880289560663008,0.015336242637463979
212,0.25,0.001,0.011092787386353957,0.008069924882040658,16.940122709361784,0.012091450898902059,0.013471117642308985
213,0.25,0.001,0.011036181284131807,0.007938060114894984,17.361871859349243,0.012392485267201459,0.010646362988544362
214,0.25,0.001,0.011028594901323865,0.008003198422081427,16.954322858687934,0.012101586622903594,0.008974432745682341
215,0.25,0.001,0.010957382670646413,0.00798623275370636,16.650324445252025,0.011884599889544628,0.010439513849892787
216,0.25,0.001,0.011019341733067407,0.007922272949795658,17.3559745123627,0.012388275883199643,0.011086641810834408
217,0.25,0.001,0.011052256168096984,0.00798055443297559,17.21381724646332,0.012286807456433492,0.011063509620726109
218,0.25,0.001,0.011022723946344414,0.007948003418811965,17.23073373147107,0.012298882035311256,0.00970740815890687
219,0.25,0.001,0.010961060420772351,0.007941844334842962,16.91968677240774,0.012076864220134004,0.00908092356153897
220,0.25,0.001,0.010937128626151916,0.007922334716134115,16.89490467036536,0.012059175353579843,0.009367314100797688
221,0.25,0.001,0.010916629951413072,0.007914068758350993,16.826353405593732,0.012010245114627931,0.011940962634980679
222,0.25,0.001,0.010951746537119424,0.007948480990775135,16.83029925495113,0.01201306156670316,0.01509838564587491
223,0.25,0.001,0.010985668748617172,0.007941673851546344,17.058547851142535,0.01217597990802465,0.014675292984715529
224,0.25,0.001,0.010959242342398801,0.007921228022955426,17.02503272590287,0.012152057620201906,0.013694877603224345
225,0.25,0.001,0.010963417598208703,0.007978602662819242,16.726903407945546,0.011939260105599961,0.01062544368739639
226,0.25,0.001,0.01097339681358239,0.00793275317826539,17.039766784108014,0.012162574435480382,0.012009123606341226
227,0.25,0.001,0.010981543220306209,0.007898013568867783,17.280100848696648,0.012334119092574338,0.011951500217297248
228,0.25,0.001,0.010949404192490315,0.007865203779464194,17.283858675475514,0.012336801338669176,0.014611643739044666
229,0.25,0.001,0.010877810367340342,0.007881730948703005,16.790029560754057,0.011984318030516814,0.014912716512169157
230,0.25,0.001,0.010981274512382823,0.007920819445760972,17.150791063221224,0.012241820887381316,0.012312751662518297
231,0.25,0.001,0.011021536202469004,0.007913713467333022,17.41623745489558,0.012431290117698486,0.013582963230354446
232,0.25,0.001,0.011029691196157845,0.008011982468631836,16.91123978151094,0.012070834961820799,0.015256385052842754
233,0.25,0.001,0.010986785737609644,0.007898983648132294,17.30404257118155,0.012351208116475054,0.016378477481859072
234,0.25,0.001,0.010969298558497648,0.007950951968994709,16.914814660308558,0.012073386624060356,0.016329505214733735
235,0.25,0.001,0.011046788569779024,0.007974708683515361,17.21593597832076,0.012288319756117603,0.016230410896241665
236,0.25,0.001,0.010987360338005452,0.007912495361487254,17.231542447291382,0.012299459277153021,0.013249248931450503
237,0.25,0.001,0.010921583476758331,0.00791325127928082,16.858694706488095,0.012033329554952244,0.009476330131292343
238,0.25,0.001,0.010898493435404716,0.007953342785118916,16.50462463798873,0.011780602882218936,0.014340557690177645
239,0.25,0.001,0.010964860866239311,0.007862539521905534,17.38541069380734,0.012409286719348565,0.012534053197928838
240,0.25,0.001,0.01089406324499244,0.007842740231971129,17.099613014711153,0.012205291231057212,0.012553808412381582
241,0.25,0.001,0.010792324960300135,0.007812667381736117,16.69800179157782,0.011918630829106224,0.009236109243439776
242,0.25,0.001,0.010833417979675696,0.007837198875468531,16.79081197616157,0.011984876499758438,0.011077208710568292
243,0.25,0.001,0.0108711448489526,0.007776926058011317,17.340001779958744,0.012376874932161844,0.009830506385437079
244,0.25,0.001,0.010801458902178554,0.00781643412016127,16.728078824664475,0.01194009908969627,0.014048826747706957
245,0.25,0.001,0.01098053477738702,0.007941501155290583,17.030744990077586,0.012156134896557877,0.012538746930658817
246,0.25,0.001,0.010864546915533346,0.0077086692214558975,17.685537425749892,0.012623509939864306,0.01019804020013128
247,0.25,0.001,0.010880055914231397,0.007897709701381145,16.71306873461522,0.01192938524954691,0.009189030089016472
248,0.25,0.001,0.010888217905655913,0.007794070433517662,17.339603406573655,0.012376590582850575,0.009962057561746665
249,0.25,0.001,0.01086166341267868,0.007822089931081742,17.033770779950903,0.01215829463237038,0.011798213102987834
250,0.25,0.001,0.010829043352480876,0.007827116766038839,16.82279613039909,0.012007706017415482,0.010492977087518998
251,0.25,0.001,0.010847553294664676,0.007824084482266815,16.94351883984487,0.012093874974907116,0.012069978618196078
252,0.25,0.001,0.010894930263588188,0.007850138880654212,17.063011746887767,0.012179166129113324,0.011660259416592973
253,0.25,0.001,0.010917047440253813,0.007808975935187362,17.417633179130902,0.012432286351984942,0.012713527040822166
254,0.25,0.001,0.01082865434160473,0.007818780198624921,16.867334873304454,0.01203949669757634,0.012222536972590856
255,0.25,0.001,0.010882434426644527,0.007788124126852106,17.340514016807624,0.012377240554466542,0.015854128237281526
256,0.25,0.001,0.0108331458369663,0.0078081397527675015,16.952134298622063,0.012100024481528953,0.01638472406193614
257,0.25,0.001,0.01081504201123474,0.007851787167814893,16.60608058894446,0.011853019692322957,0.011622975314302104
258,0.25,0.001,0.010795651875231245,0.007703707100601372,17.32725943119154,0.012367779751028936,0.01193734151976449
259,0.25,0.001,0.010837595286104111,0.007880852694426654,16.56958531020978,0.011826970242833534,0.01329100304948432
260,0.25,0.001,0.010891565224241227,0.007819278934679994,17.217092269057527,0.01228914508854927,0.012076709153396743
261,0.25,0.001,0.010758248115078025,0.007758467723060092,16.8107687398928,0.0119991211562404,0.00965432875922748
262,0.25,0.001,0.010854242463519266,0.007844460705175586,16.866816249462442,0.012039126516390037,0.01076488955212491
263,0.25,0.001,0.010787974248443721,0.007697372278625812,17.319734958333708,0.012362408963835623,0.010028700078172343
264,0.25,0.001,0.010853580096651107,0.007849032999178685,16.837483099841197,0.012018189221870947,0.010717191999512059
265,0.25,0.001,0.010841915725704726,0.007715419481653686,17.520886342459864,0.012505985968922101,0.00987131946853229
266,0.25,0.001,0.010788308405274645,0.007733491445900104,17.119195273163122,0.012219268574706012,0.009223623334297113
267,0.25,0.001,0.010811734978758961,0.007752011094344865,17.146692538480146,0.012238895459300604,0.011950300740344184
268,0.25,0.001,0.010742669728576043,0.00765943411019964,17.27845295197373,0.012332942863650057,0.01000489919845547
269,0.25,0.001,0.010722028031740168,0.007710236201592542,16.878081995412845,0.012047167734056279,0.010723801728870188
270,0.25,0.001,0.010826608730018686,0.007823671248459488,16.828461515794107,0.012011749832829485,0.011789764809821333
271,0.25,0.001,0.010848308366578106,0.007751292027874824,17.355680080728792,0.012388065725002707,0.011488665693572589
272,0.25,0.001,0.01073534260375784,0.007675212197039926,17.148972187567196,0.012240522617820982,0.014263228513300419
273,0.25,0.001,0.010788309627101509,0.007760255358292969,16.969216477980307,0.012112217329036622,0.015054192660110337
274,0.25,0.001,0.010792962437786094,0.007738229733199702,17.11872246068552,0.012218931092566396,0.014956799734916006
275,0.25,0.001,0.010778854045709338,0.007730301153427417,17.084091186523438,0.012194212124570619,0.015627874992787838
276,0.25,0.001,0.01069666866486499,0.007699197021509529,16.79783255025881,0.011989887616173313,0.00962412217631936
277,0.25,0.001,0.010719099389645485,0.007721227815870298,16.8000725037461,0.011991486440932264,0.012195606050746781
278,0.25,0.001,0.01076184526735216,0.007724568828803684,17.020897454078046,0.012149105962939362,0.011473431118897029
279,0.25,0.001,0.010720087352012275,0.0077126540687926315,16.85365559639187,0.012029732759737238,0.01087633879589183
280,0.25,0.001,0.010680977972822452,0.007622045883481656,17.142256325538007,0.012235728997528913,0.01052954965936286
281,0.25,0.001,0.010674199542252842,0.007693850965059678,16.701874304255213,0.01192139493522856,0.009205427885587727
282,0.25,0.001,0.010671324874146269,0.007693964603502269,16.68512603339799,0.011909440423553169,0.010066184813955001
283,0.25,0.001,0.010655940535965316,0.007598331898724268,17.13483707182998,0.012230433313226253,0.011003153930817331
284,0.25,0.001,0.010785382522970711,0.007784102923757986,16.819170628118954,0.012005118221355427,0.010239936943565096
285,0.25,0.001,0.010715331070535227,0.007692172661970515,16.9417794253848,0.01209263342282998,0.013011703666831766
286,0.25,0.001,0.01072393455158133,0.0076906146874668405,16.99872412375354,0.012133279174699172,0.012397454519357
287,0.25,0.001,0.010778884044549334,0.0077366300627862645,17.04879116793291,0.012169015822935697,0.012342742777296476
288,0.25,0.001,0.01073316195894272,0.007676856912706697,17.127532749001038,0.012225219663812304,0.012228363592709814
289,0.25,0.001,0.010751170935023814,0.00775101391273901,16.812879457386263,0.012000627735464856,0.012392920508448566
290,0.25,0.001,0.010771700027270601,0.0076875981550082705,17.283306716778956,0.012336407363867919,0.013072671767856394
291,0.25,0.001,0.01063669305465637,0.007621742998583055,16.895779163465587,0.012059799545657092,0.01294725454811539
292,0.25,0.001,0.010766841488283708,0.00779278172231322,16.666630613694497,0.011896238839182368,0.016932496135788306
293,0.25,0.001,0.0107173422402745,0.007668074378487441,17.088095726223166,0.012197070468396264,0.014779352849083287
294,0.25,0.001,0.010698146434552079,0.007741749303740099,16.567649736316927,0.011825588676885743,0.010545541665383748
295,0.25,0.001,0.010653460176166045,0.007673019620188333,16.70238951586802,0.011921762680847981,0.012241199346525329
296,0.25,0.001,0.010758823099964803,0.007698780780128383,17.148476994365726,0.012240169160860619,0.012969869588102614
297,0.25,0.001,0.010729785034552627,0.007697491821140871,16.992971910249203,0.012129173383475519,0.010360897119556154
298,0.25,0.001,0.010707566369359099,0.007709125449898046,16.80326355050463,0.011993764133122507,0.011334312946668692
299,0.25,0.001,0.010746339079710322,0.007687687121946877,17.140685842671527,0.0122346080247477,0.011753460259309836
300,0.25,0.001,0.010723572156024635,0.007626327429684477,17.35696083908781,0.01238897989942028,0.01137505897453853
301,0.25,0.001,0.01071382760830702,0.007756013205326205,16.575591621048954,0.011831257402604534,0.010413952837032931
302,0.25,0.001,0.010668104779351196,0.007639167616741919,16.974164437810217,0.01211574906339059,0.009074304119816847
303,0.25,0.001,0.010628424038033966,0.007505059199527316,17.503335235315724,0.012493458412074035,0.010492783971130848
304,0.25,0.001,0.01055677970785887,0.007610088880729238,16.51325496183623,0.011786762999169328,0.008949951069163424
305,0.25,0.001,0.010582199021148573,0.007635451259450355,16.513574722710004,0.011786991236766598,0.011373284006757396
306,0.25,0.001,0.010617439421491886,0.0075542668111348915,17.166019562187543,0.012252690622546426,0.015545375112976347
307,0.25,0.001,0.010645239502875083,0.007638098646399625,16.85201592401627,0.012028562401153655,0.012319918721914291
308,0.25,0.001,0.010656567324602276,0.0075900638646899015,17.184685943323537,0.012266014235063195,0.010840064180748803
309,0.25,0.001,0.010626337627683757,0.0076495080699272655,16.68215413924751,0.011907319157207358,0.012399105887327875
310,0.25,0.001,0.01070346749054456,0.007631237332392997,17.216777819012282,0.012288920641693278,0.014012780572686876
311,0.25,0.001,0.010673797219444852,0.007659747880464847,16.89073331640401,0.01205619794175875,0.011787462846509047
312,0.25,0.001,0.010611928743096667,0.007636258160746699,16.675657744801374,0.01190268218758128,0.009154354488211018
313,0.25,0.001,0.010650987659982585,0.007609759406143919,17.043044396496693,0.012164913916128974,0.01157673541456461
314,0.25,0.001,0.010622689534628063,0.007632530200372048,16.756851913732127,0.011960636626504017,0.01497593176152025
315,0.25,0.001,0.010719087581500548,0.007772458999187028,16.512907019448935,0.011786514646287605,0.018431222199329307
316,0.25,0.001,0.010792604758651979,0.007727394354692019,17.177439838374426,0.012260842140167327,0.019217131127204214
317,0.25,0.001,0.01074294014534819,0.007625457933258026,17.470369688961483,0.012469928400400773,0.016839426809123585
318,0.25,0.001,0.010619097807948742,0.007700759917497635,16.354365217576333,0.011673351333030931,0.014396464585193567
319,0.25,0.001,0.010681820409628777,0.007636500317432465,17.065973579336745,0.012181280213659346,0.013287666918975967
320,0.25,0.001,0.010638449580297558,0.007546104529206086,17.329502018219834,0.01236938045554592,0.01297821184354169
321,0.25,0.001,0.010607998783982128,0.007654939308215719,16.548945190709667,0.011812237823490127,0.013016404783619302
322,0.25,0.001,0.010571734210766784,0.007510890295609422,17.152969920307125,0.012243376103002945,0.011427805492920535
323,0.25,0.001,0.010554099839966778,0.007469633953013552,17.28534736983273,0.012337863932785676,0.011676337702998094
324,0.25,0.001,0.010592435290097096,0.007613396460036619,16.69453414427031,0.01191615570611728,0.011491245723196439
325,0.25,0.001,0.010602876287671405,0.007585903941525505,16.907112489052867,0.012067889000037735,0.01171593155179705
326,0.25,0.001,0.010552013583412958,0.007604085857373312,16.520186817974125,0.0117917107908452,0.010893001487212521
327,0.25,0.001,0.010609512242975586,0.007615192250750207,16.780169478250205,0.011977280141506213,0.010224180429109506
328,0.25,0.001,0.010544775694677043,0.00750334544637061,17.04417704660958,0.012165722374453661,0.010180952692670482
329,0.25,0.001,0.010561178788679456,0.0075965343521685776,16.613867549721252,0.011858577837060137,0.011886650297258581
330,0.25,0.001,0.010584694068502942,0.007534993214344759,17.090523221077174,0.012198803155658225,0.011545047030917235
331,0.25,0.001,0.010581055365571189,0.00755371066203358,16.965239393601724,0.012109378582156834,0.010348608318184103
332,0.25,0.001,0.010598409767134474,0.007613365734935901,16.72818722856154,0.011940176465782685,0.011458932022963251
333,0.25,0.001,0.010588034175746485,0.007554872768905458,16.997836699179555,0.012132645752447933,0.0111433102616242
334,0.25,0.001,0.010569538357197691,0.007557870512571904,16.877387790504944,0.012046672227341145,0.012667590818767036
335,0.25,0.001,0.010532568918045509,0.007504637964035666,16.968525597808558,0.012111724195437943,0.010441755742899008
336,0.25,0.001,0.01050704220361119,0.007514888668484097,16.768029326692634,0.011968614794213158,0.009931745672864574
337,0.25,0.001,0.010560708880902978,0.007542721166728286,16.912803649902344,0.012071951213349282,0.011708106845617294
338,0.25,0.001,0.010514432658364466,0.007500187980882618,16.891826367159503,0.01205697813501749,0.011661734964166368
339,0.25,0.001,0.010561722305116303,0.007548869074826394,16.88402925718815,0.012051412746030086,0.010493577591010503
340,0.25,0.001,0.010536592009417508,0.007568260236139144,16.634531248600112,0.011873327086795227,0.011959637382200785
341,0.25,0.001,0.010531207025392886,0.007518376031497477,16.88390406337353,0.01205132338570559,0.013311523411955153
342,0.25,0.001,0.010566057321196849,0.007564052631822201,16.82323473309158,0.012008019081435818,0.012121628703815597
343,0.25,0.001,0.010534104592072855,0.007473506845123724,17.151589332370584,0.012242390672641388,0.010585407061236245
344,0.25,0.001,0.010519114639097398,0.007522524129428448,16.79289291101858,0.011986361820855518,0.010871461459568568
345,0.25,0.001,0.010578327573015602,0.007519873948511454,17.139574558363048,0.012233814816818735,0.01026130560785532
346,0.25,0.001,0.010613266737499369,0.007609223985378075,16.834654729300684,0.012016170399215336,0.010229421646467276
347,0.25,0.001,0.010537182126160062,0.007506640935573009,16.98315296698054,0.012122164858658488,0.010262673188533102
348,0.25,0.001,0.01050368662274212,0.007561282476905836,16.489232072042764,0.011769616040001972,0.010069146752357483
349,0.25,0.001,0.010641789422669542,0.007637071312157386,16.83844022138403,0.012018872392137066,0.011595948998417174
350,0.25,0.001,0.010561397589674783,0.007485162048096503,17.239223795199614,0.0123049420379726,0.010347759683749505
351,0.25,0.001,0.010545849244734016,0.007589094093018169,16.569656914527265,0.011827021352267856,0.01000557906393494
352,0.25,0.001,0.010553631470154185,0.007507357143993498,17.071321837398983,0.012185097671234107,0.009548725759876626
353,0.25,0.001,0.010501457737126482,0.007459475150451474,17.047270433618387,0.012167930359470655,0.010748613093580519
354,0.25,0.001,0.010573941086410382,0.0076076329190181485,16.623191588515535,0.011865233111003237,0.01098510277058397
355,0.25,0.001,0.010487430011255478,0.007496785782619354,16.759570200508886,0.0119625768740249,0.011102006637624331
356,0.25,0.001,0.010507575877079177,0.007522731656294077,16.72706654749879,0.011939376550677224,0.011687807738780975
357,0.25,0.001,0.01055032641994297,0.007467893836592589,17.27395313157948,0.012329731000413617,0.011226514088256019
358,0.25,0.001,0.010542709568361624,0.007604656736750942,16.4648494720459,0.011752212328369663,0.011368281607116972
359,0.25,0.001,0.01051505853276734,0.007509561704147026,16.84280498749619,0.012021987856885219,0.012461617322904723
360,0.25,0.001,0.010583356193719654,0.007543246445476735,17.036774976537863,0.012160438955416034,0.01670841752950634
361,0.25,0.001,0.010563499319854133,0.007578421768587117,16.728375496120627,0.011940310846624287,0.013487305359116622
362,0.25,0.001,0.010606323736249854,0.007535177317166001,17.210704855962632,0.012284585907182463,0.014804136673254626
363,0.25,0.001,0.010526671903122455,0.007524728749391683,16.822890290426553,0.012007773226571416,0.016421024155403887
364,0.25,0.001,0.01053090592624124,0.007571422905071613,16.584942703947014,0.011837931979976455,0.014988955775541919
365,0.25,0.001,0.010606518151973365,0.0075271830364309865,17.25659407169447,0.012317340522265859,0.015971077872174128
366,0.25,0.001,0.010608486233091135,0.0075306558571414115,17.248161630892973,0.012311321649459653,0.01684303887720619
367,0.25,0.001,0.01045656988585214,0.007464426074074496,16.76797455603923,0.011968575700242136,0.012586050068161317
368,0.25,0.001,0.01049586497418104,0.007500215783851956,16.787618724578017,0.011982597233817286,0.012171334587037563
369,0.25,0.001,0.010416534831832856,0.007449244977820904,16.628692408220484,0.011869159463397918,0.012368346564471722
370,0.25,0.001,0.010519084819686522,0.007467823769521276,17.09926678718777,0.012205044102203974,0.011635054568094867
371,0.25,0.001,0.01051274041961366,0.00748053444293114,16.99248319153392,0.012128824547847196,0.012772103771567345
372,0.25,0.001,0.01050446332868086,0.007514800662772918,16.75406986201575,0.011958650865107601,0.014457819717270988
373,0.25,0.001,0.010478902471448304,0.007428666192252155,17.09352360296687,0.012200944755865003,0.011804872192442417
374,0.25,0.001,0.010505637888788083,0.007478882943134789,16.961934815853013,0.012107019854284806,0.012911640240677766
375,0.25,0.001,0.010594112123576326,0.007626801361799787,16.628808695241947,0.011869242466268342,0.013703835329839162
376,0.25,0.001,0.010569291086782008,0.007469887994742448,17.369054566829575,0.012397612110513616,0.015552203304001264
377,0.25,0.001,0.010513840080879697,0.007524938305515215,16.7498056779214,0.01195560719337716,0.012750765574829919
378,0.25,0.001,0.010489042950879544,0.007423071635015514,17.18170311254099,0.012263885162413269,0.011221441706376416
379,0.25,0.001,0.010519369018323925,0.007543978042080315,16.674091461601606,0.011901564212420846,0.011083340937537807
380,0.25,0.001,0.010495946426457221,0.007505953269198947,16.755921635059043,0.011959972616030722,0.010851886123418808
381,0.25,0.001,0.010535063973944122,0.007527295709374027,16.855533722343793,0.01203107332073076,0.011128160969487258
382,0.25,0.001,0.010447214383187645,0.007432966787846537,16.89184372578192,0.012056990525183385,0.011188656756920474
383,0.25,0.001,0.01045045195950554,0.007401258641973548,17.08768015170316,0.01219677384132988,0.009485195923064436
384,0.25,0.001,0.01037662693324986,0.007456640644562901,16.363604458100205,0.011679946080014422,0.01043155902464475
385,0.25,0.001,0.010433404296294812,0.007451706489018344,16.70943365184539,0.011926790615164447,0.011155627534857817
386,0.25,0.001,0.010529574126415297,0.0074521199364317664,17.246055113066227,0.01230981806785598,0.013216092517333371
387,0.25,0.001,0.010474635715331507,0.007423965315924052,17.095957467315394,0.012202681989518483,0.011436963586934976
388,0.25,0.001,0.010439576008656156,0.007405253328007022,17.00434392526609,0.01213729045343761,0.010160177546952451
389,0.25,0.001,0.010470074088816795,0.007517498341141218,16.54623444583438,0.011810302959196559,0.015339000416653497
390,0.25,0.001,0.010386591811382443,0.007398763410917936,16.743790915252966,0.011951314000894336,0.01257306829627071
391,0.25,0.001,0.010468640586856854,0.007455899820176013,16.88340031335113,0.012050963821092884,0.010074414046747344
392,0.25,0.001,0.010495598120358558,0.007522856457791197,16.659244554852126,0.011890966848573966,0.012717570843441146
393,0.25,0.001,0.010487251624533343,0.00747362267516485,16.888376393449416,0.012054515627016,0.014784872132752622
394,0.25,0.001,0.01037711903897174,0.00733090268123314,17.070997028175842,0.012184865830246853,0.010561419850481408
395,0.25,0.001,0.010494046511316519,0.007439003787387949,17.1204597228164,0.012220171108362883,0.011067322721438748
396,0.25,0.001,0.010501899363455969,0.007538835723123966,16.6050089389906,0.011852254774440114,0.011612068196492535
397,0.25,0.001,0.010523281846229636,0.007440605324718657,17.275319405651967,0.012330706213884345,0.011994985597474235
398,0.25,0.001,0.010446606725112561,0.007429353636475878,16.908686121669383,0.012069012221034535,0.012456568224089486
399,0.25,0.001,0.010544710185959798,0.007579695570086121,16.61594144138721,0.011860058130897367,0.018077464242066656
400,0.25,0.001,0.010411517199026336,0.0073686433451916646,17.052265552205778,0.01217149575460798,0.01440149372709649
401,0.25,0.001,0.010503766425979246,0.007515551876960271,16.74595484602342,0.011952858562472106,0.014143092025603567
402,0.25,0.001,0.010348840505568259,0.007335863810955384,16.884722604664095,0.012051907640730974,0.008598484298480409
403,0.25,0.001,0.010378102199473513,0.007428170275797538,16.53141868661303,0.011799727827703804,0.01228556748745697
404,0.25,0.001,0.010418537525682274,0.007359980460290515,17.140154409846033,0.012234228700818011,0.011654034656073366
405,0.25,0.001,0.010387249282398902,0.0073860679975275055,16.818619106887677,0.012004724558806336,0.010700835513749294
406,0.25,0.001,0.010377836652920334,0.007355972398243366,16.93452747589951,0.01208745715624519,0.010545419196465186
407,0.25,0.001,0.01045285365245211,0.007469123015778327,16.720827715112527,0.011934923422635637,0.01277799385466746
408,0.25,0.001,0.010495664227172869,0.007429321262336105,17.18378640096122,0.012265372163426996,0.01589429218854223
409,0.25,0.001,0.010501083687221238,0.007470405455507817,16.983920193593438,0.012122712486504952,0.017815788010401384
410,0.25,0.001,0.010436340124098532,0.007410798631950256,16.955134960489534,0.012102166281577112,0.015803751269621507
411,0.25,0.001,0.010444539957978857,0.007425608681600302,16.918092237700016,0.012075726079728776,0.013127386969115053
412,0.25,0.001,0.010368051673841038,0.007407557321797817,16.590610031687884,0.011841977181790067,0.011302592498915536
413,0.25,0.001,0.010412541858920264,0.007418121954579966,16.78072847138851,0.011977679137322277,0.011941058893821068
414,0.25,0.001,0.01042732531461147,0.007419546339831768,16.855593742580588,0.012031116161727758,0.012278441738869463
415,0.25,0.001,0.010424440350691113,0.0073520962165993286,17.2174162033501,0.012289376305032192,0.012054831587842532
416,0.25,0.001,0.010340045795801583,0.007422688596565789,16.3488701461652,0.011669429083629694,0.010442456430090325
417,0.25,0.001,0.010399819582427314,0.007397370301870578,16.825726272862987,0.012009797482414694,0.01069219530160938
418,0.25,0.001,0.010430701734891178,0.007391755763919802,17.030253489083105,0.012155784075005786,0.015146969551486629
419,0.25,0.001,0.010441078009818671,0.007484735015335433,16.567346389140557,0.01182537215498969,0.011698758362659387
420,0.25,0.001,0.010505105078288722,0.007440596310541444,17.173506588017176,0.012258034680954443,0.011500676162540913
421,0.25,0.001,0.010352179074847917,0.007329372919822504,16.939806421962352,0.012091225140586975,0.010327651032379695
422,0.25,0.001,0.010405101574137123,0.007479469787431966,16.395240136242787,0.011702526863842103,0.01587873258228813
423,0.25,0.001,0.010353182399765067,0.00735601510664602,16.796125691965084,0.011988669301902273,0.012331647665372916
424,0.25,0.001,0.010353680563355805,0.007388597926757204,16.616322421152656,0.011860330065062567,0.014305120067937034
425,0.25,0.001,0.01042902378211601,0.00741793316951312,16.874152769736195,0.012044363147563308,0.01480886499796595
426,0.25,0.001,0.010426363053330041,0.007407291706890688,16.91887640296866,0.012076285797979059,0.016796818668288842
427,0.25,0.001,0.010424700326397331,0.007465714041929726,16.58215972480424,0.011835945556605453,0.015548509678670339
428,0.25,0.001,0.010376585527844385,0.007331379620922268,17.065334635043364,0.012180824150637662,0.01364890964967864
429,0.25,0.001,0.010417518966378422,0.007434662299042721,16.715927229015104,0.011931425573886585,0.0110982922571046
430,0.25,0.001,0.010305751362866765,0.007297657613873208,16.85735777758677,0.012032375287356725,0.010238902044615575
431,0.25,0.001,0.01033318528068175,0.007359929395617422,16.6621259286863,0.011893023503701857,0.013515122767005647
432,0.25,0.001,0.010414003625238708,0.007389815652384123,16.947548385060163,0.012096751167066497,0.012315345129796438
433,0.25,0.001,0.010355349296891908,0.007300437932167578,17.119722436327454,0.01221964485105457,0.010925576356904847
434,0.25,0.001,0.010378503163746737,0.007415479006365352,16.604787984025588,0.011852097062116766,0.011738696268626623
435,0.25,0.001,0.010365816439852255,0.007381284532538794,16.72531775378306,0.011938128303913676,0.011181508323975973
436,0.25,0.001,0.010317914760372507,0.007262878431810425,17.12042329070765,0.012220145104002605,0.011866131930478982
437,0.25,0.001,0.0102653096968291,0.007376483321155703,16.1889827885759,0.01155530534516481,0.011620217934250832
438,0.25,0.001,0.010361280181197398,0.007459762207138429,16.260106952912217,0.011606072057753188,0.009482432822031634
439,0.25,0.001,0.010394757237592969,0.007342630377842472,17.10411888962492,0.012208507415863613,0.010461936305676187
440,0.25,0.001,0.010266972910783706,0.007287774995447846,16.69542587350268,0.01191679220092982,0.011030143525983607
441,0.25,0.001,0.0103134795117679,0.00740358183468017,16.307067372383326,0.011639591272222216,0.014011807340596403
442,0.25,0.001,0.01032921596678025,0.007387142893302878,16.487377831695277,0.011768292527976643,0.013709204803620065
443,0.25,0.001,0.010395625196055535,0.007353598145135773,17.04752038378234,0.012168108767867482,0.013182778842747211
444,0.25,0.001,0.01040674778504656,0.007380633862740403,16.958343348371873,0.012104456351443164,0.013050294348171778
445,0.25,0.001,0.01032323362049433,0.007362245881092658,16.593375179745735,0.011843950877762837,0.011464278346725873
446,0.25,0.001,0.010341363224209449,0.007297112153620895,17.059982159815796,0.01217700368295203,0.01271293658230986
447,0.25,0.001,0.010359656971392281,0.007416800040444103,16.49176984314525,0.011771427439789614,0.010822900970067297
448,0.25,0.001,0.01036372907254674,0.007343689180534641,16.924303107305406,0.012080159248611996,0.012283807088221823
449,0.25,0.001,0.01032645943138851,0.007332981811887627,16.77544831792149,0.011973910291164519,0.012258821167051792
450,0.25,0.001,0.01038717258926652,0.007361361056292822,16.956647907922026,0.012103246186953623,0.013177725353411265
451,0.25,0.001,0.010385791771113873,0.0073912625303577395,16.781341780216323,0.011978116902367112,0.011301304213702679
452,0.25,0.001,0.010405397563830975,0.0073407426510655556,17.174327535366793,0.012258620653366734,0.01236909202166966
453,0.25,0.001,0.010321290411670273,0.0073123115644610805,16.86231761897376,0.012035915502479485,0.013431775250605174
454,0.25,0.001,0.010309999663416945,0.007326248960586589,16.720939268759633,0.011935003046937639,0.011143809317478113
455,0.25,0.001,0.010297201214990484,0.007372552033411254,16.389733664486386,0.011698596477149454,0.010780201692666327
456,0.25,0.001,0.010240892589160609,0.007309595204103704,16.426990491534593,0.011725189501452243,0.011402949092111416
457,0.25,0.001,0.010344062581521655,0.00735729487629932,16.737846322015884,0.011947070893658733,0.009084614925086498
458,0.25,0.001,0.010321216315988008,0.007247385961952012,17.22574568232265,0.012295321686168915,0.00965277651058776
459,0.25,0.001,0.01033167720456189,0.007353860513230256,16.687685327792387,0.011911267186147314,0.009363151088889157
460,0.25,0.001,0.010293412099190808,0.007319055083250508,16.66829688395929,0.011897428182697565,0.012537198274263315
461,0.25,0.001,0.010368749294259133,0.007330236208855832,17.027827989070786,0.012154052811613695,0.011381651141813822
462,0.25,0.001,0.010297069206423716,0.0072583938316536055,17.028737164418633,0.012154701759042565,0.010597335573818003
463,0.25,0.001,0.010240602144680986,0.007297331616795117,16.494088234157736,0.011773082251361696,0.011071524981941496
464,0.25,0.001,0.010296725018650567,0.007322726873766392,16.666285891051686,0.011895992784476579,0.011190088598855905
465,0.25,0.001,0.010337266045699426,0.007333017120975146,16.835810705062446,0.012016995506825444,0.010673134587705135
466,0.25,0.001,0.010374088703287303,0.007390412373827138,16.720522084367385,0.011934705270783287,0.010866095311939716
467,0.25,0.001,0.010306441242199971,0.0072415882781353014,17.17543519746273,0.012259411275847773,0.010437107245836939
468,0.25,0.001,0.01033252538310005,0.007305465023451989,16.963647142462776,0.012108242071707905,0.010525805343474661
469,0.25,0.001,0.010297989267684998,0.0073458139032740654,16.54399122885608,0.011808701805036459,0.010252620625708784
470,0.25,0.001,0.010279077711865443,0.007294889026825581,16.72339360648339,0.011936754893992428,0.011012523168964046
471,0.25,0.001,0.010271121576906891,0.007305596382656229,16.618804004214226,0.011862101359182173,0.010563875947679793
472,0.25,0.001,0.010267474953461132,0.007247824136407004,16.922124083982695,0.012078603914334542,0.01030363900853055
473,0.25,0.001,0.010318706546901563,0.0073373485698339045,16.707530196653593,0.011925431974770587,0.01134711317718029
474,0.25,0.001,0.010277583597039957,0.0073124199909149505,16.61677666760366,0.011860654295220313,0.011841444697763239
475,0.25,0.001,0.010265536478148141,0.007305668188481156,16.587102155072973,0.011839473344092058,0.0110539368220738
476,0.25,0.001,0.010277851843574179,0.007276963545094936,16.816976967207882,0.012003552439120544,0.01056629978120327
477,0.25,0.001,0.010320533861602666,0.0073118723048871265,16.86054122994799,0.012034647558849386,0.011733567076069968
478,0.25,0.001,0.010399342172804776,0.007416678015826219,16.71484966453062,0.011930656434354477,0.013612603635660239
479,0.25,0.001,0.010260064940933787,0.00725960368375986,16.814584574568162,0.012001844806972278,0.011157768512410777
480,0.25,0.001,0.010391118825165503,0.007418494005132159,16.658589826811344,0.011890499519494179,0.014424740869019712
481,0.25,0.001,0.01022648825011122,0.0072367400306900705,16.75454825655036,0.011958992331584841,0.011621883139014244
482,0.25,0.001,0.010271692785237907,0.00730104841838736,16.647491630064238,0.011882577894407022,0.010276180958109242
483,0.25,0.001,0.010272553908305431,0.007252377842407708,16.925067061677986,0.012080704540812266,0.011582940284694945
484,0.25,0.001,0.01027156304943999,0.00726515818985367,16.847892656238802,0.012025619312090507,0.01086699403822422
485,0.25,0.001,0.010306703020741633,0.0073054928819589115,16.818781354011744,0.012004840366889181,0.01012288685888052
486,0.25,0.001,0.010313214409515398,0.007322525332143547,16.759820465647845,0.011962755507243288,0.009860869896199023
487,0.25,0.001,0.010293813969153878,0.007282051497027962,16.877916913513744,0.012047049902579402,0.013183943927288055
488,0.25,0.001,0.010296425525816756,0.007288872836789953,16.85432631816339,0.012030211504756168,0.010648185254207678
489,0.25,0.001,0.010276055014734968,0.007300867904148517,16.672947909853875,0.011900747972772217,0.011350341141223907
490,0.25,0.001,0.010273395541952838,0.007271132355026149,16.824683093149726,0.01200905288590273,0.014627393069011825
491,0.25,0.001,0.010285365523411593,0.007312603401652443,16.659358155836753,0.011891047934216097,0.012426255337361778
492,0.25,0.001,0.010301968774869354,0.0073486851750437275,16.550202115960076,0.011813134986409762,0.010725055821239948
493,0.25,0.001,0.010347730369059317,0.00729993839722571,17.07982673994992,0.012191168265488878,0.012036130098359925
494,0.25,0.001,0.010245559583289907,0.007287943334139268,16.574482191593276,0.01183046551862475,0.011629758668797356
495,0.25,0.001,0.010330648238369084,0.007324980409525403,16.843763298944594,0.012022671876477226,0.01305419352969953
496,0.25,0.001,0.01023393812153591,0.007181918791093684,17.103515450013887,0.012208076695227613,0.011873731788780009
497,0.25,0.001,0.01021698911016414,0.00729327411775332,16.384499261138636,0.011694860286323081,0.01138727686234883
498,0.25,0.001,0.01019804769221249,0.007221669556761007,16.679623280096493,0.01190551269100392,0.012940460283841406
499,0.25,0.001,0.010344580994970208,0.007326797035377507,16.911661393051848,0.012071135897967057,0.01162149996629783
500,0.25,0.001,0.010229995115361082,0.007212730654335897,16.908750595302756,0.01206905824075857,0.010617324816329139
