epoch,beta,learning_rate,train_loss,train_reconstruction_loss,train_kl_unnormalized,train_kl_normalized,mean_unclipped_gradient_norm
1,0.0,0.001,0.08606180361112876,0.08606180361112876,40.970004731458,0.029243400950362597,0.09173062017985753
2,0.02,0.001,0.06888925382226499,0.06320983452795559,397.84329738132396,0.28397094745276513,0.12598994374275208
3,0.04,0.001,0.05892423971386209,0.047600746541940034,396.60536548006615,0.28308734152752757,0.0989397583263261
4,0.06,0.001,0.04660845756978141,0.043759111641942766,66.53222950501475,0.04748910028908976,0.1173663501228605
5,0.08,0.001,0.039558686832219844,0.036908433219852405,46.41256683032452,0.033128170471323715,0.09578000221933637
6,0.1,0.001,0.03796981329283318,0.035092089523068755,40.31690579033339,0.0287772346826077,0.08382226872657027
7,0.12,0.001,0.03673058288821447,0.03449996820635939,26.0424303006355,0.018588458458697714,0.03959113199795995
8,0.14,0.001,0.0359729516898512,0.03417637089899726,17.978637400180034,0.012832717630392601,0.05434685519763401
9,0.16,0.001,0.03533297443362361,0.0334894525244247,16.142334990908864,0.011522009272597333,0.072418355516025
10,0.18,0.001,0.0338056641297445,0.03191969024907909,14.679158217361838,0.010477628991692961,0.06556655519774982
11,0.2,0.001,0.032125295077474234,0.029989406156760164,14.96190195105643,0.010679444647434996,0.036595529477511136
12,0.22,0.001,0.030425231383283197,0.027894915948357375,16.11350639642799,0.011501432117364733,0.07345358122672353
13,0.24,0.001,0.029153378633029466,0.026219577246773602,17.126066212290706,0.012224172885289583,0.06636305791991097
14,0.25,0.001,0.027919357651134836,0.024724427068618923,17.904392934010705,0.01277972372163505,0.057757998151438575
15,0.25,0.001,0.027121084163666598,0.02434830750418315,15.53864310354889,0.011091108567843604,0.06275335805756706
16,0.25,0.001,0.026047382224136082,0.022751868179812167,18.468060944977864,0.013182056349020603,0.04969378055206367
17,0.25,0.001,0.025187447215441194,0.022279535005122905,16.295941815365268,0.01163165011803374,0.035673165560833046
18,0.25,0.001,0.024350925505711905,0.02124594959836909,17.400285394857992,0.012419903922097068,0.03311776715729918
19,0.25,0.001,0.023587770626706007,0.02014994876799077,19.26555311101689,0.013751287017142675,0.07555244197802884
20,0.25,0.001,0.022877690023108112,0.019709882354385307,17.75239478853503,0.012671231112444704,0.07765658971454416
21,0.25,0.001,0.02185806803250423,0.018323058542079242,19.810192385666916,0.014140037391625207,0.07750672421285085
22,0.25,0.001,0.021350303574467367,0.01802650307827816,18.626578403675527,0.0132952022867063,0.06399394305688995
23,0.25,0.001,0.020853547779434548,0.017335058445880926,19.71761263435487,0.014073956198682992,0.08296382640089307
24,0.25,0.001,0.020396704916728285,0.016957794834470363,19.271654137838244,0.013755641782896677,0.04179721551814249
25,0.25,0.001,0.019962432344743066,0.016513132858014822,19.329873607009993,0.013797197435410417,0.029591903622661318
26,0.0,0.001,0.015859552803201983,0.015859552803201983,25.714913762469216,0.018354685055295656,0.056775693382535665
27,0.02,0.001,0.014984851513772032,0.014320506292715772,46.53738256194575,0.033217260929297464,0.030370110579367195
28,0.04,0.001,0.015445534460349804,0.013643256141255689,63.12479765365636,0.04505695764001168,0.024423773400485516
29,0.06,0.001,0.01594939736292351,0.013335944116803845,61.0241369198982,0.04355755668800728,0.02062879822083882
30,0.08,0.001,0.016091126965801932,0.01354175459972086,44.64588895625936,0.0318671584270231,0.020422857387789657
31,0.1,0.001,0.0163359712921169,0.014040356714872098,32.16155993084985,0.02295614556092066,0.03331896476447582
32,0.12,0.001,0.01654381729129005,0.014056056058227878,29.044610259164013,0.020731342083628847,0.01966733924512352
33,0.14,0.001,0.016918523783427737,0.014063770433255487,28.567924856313656,0.02039109554340732,0.014528950011091573
34,0.16,0.001,0.017177296583013778,0.01405625217583452,27.328644459572455,0.01950652709462702,0.019385222478636673
35,0.18,0.001,0.017317602853989766,0.014021421354651176,25.655277031949154,0.01831211779582381,0.025541333481669426
36,0.2,0.001,0.01747694062649791,0.014203076739096477,22.93341803165286,0.016369320507960642,0.011717988976410456
37,0.22,0.001,0.017814468867715455,0.014363470412016466,21.976584828753396,0.01568635605192962,0.026838220922010287
38,0.24,0.001,0.018190407131822225,0.014569422341969217,21.137501366419276,0.015087438519928106,0.035224220981555324
39,0.25,0.001,0.01813987849869574,0.01452999087115083,20.229809001191384,0.01443954960827365,0.03509476035833359
40,0.25,0.001,0.01799942742749257,0.014527523511586234,19.45654935154023,0.013887615525724645,0.05147409013339451
41,0.25,0.001,0.017839370579318968,0.014359067133939706,19.5036211123918,0.013921214212984869,0.0345364663350795
42,0.25,0.001,0.017822319947131512,0.014320706228099712,19.6230415494007,0.014006453639829193,0.030824485767100538
43,0.25,0.001,0.01794092385550019,0.014458088987177844,19.517806183108007,0.013931339174238406,0.033081840191568644
44,0.25,0.001,0.017620578382430946,0.014096881944780813,19.74679572477627,0.014094786384565502,0.03587301341550691
45,0.25,0.001,0.01762512093517439,0.014223200279797748,19.064362114075976,0.013607681737384709,0.034726559184491634
46,0.25,0.001,0.017484934789754502,0.014042116738167564,19.29355257928509,0.013771272362087859,0.035681770183146
47,0.25,0.001,0.017322030296983676,0.013868001014355561,19.356379665348324,0.013816116820377105,0.051331802271306515
48,0.25,0.001,0.01762812763160013,0.014377476400147271,18.216648872675027,0.013002604477284102,0.05179929307528904
49,0.25,0.001,0.01763021380277071,0.0138666351448409,21.091093992801518,0.015054314056246623,0.04258261115423271
50,0.25,0.001,0.017167915785835743,0.013884445947033567,18.400565550453944,0.013133879764777976,0.021566165345055715
51,0.0,0.001,0.013479542477576892,0.013479542477576892,23.211510603202132,0.01656781627637554,0.031157034848417555
52,0.02,0.001,0.012777635382432448,0.012142307942358918,44.50469375152235,0.03176637669630432,0.013394435402005911
53,0.04,0.001,0.013239846091640051,0.011517916395227848,60.31059386713675,0.04304824687161796,0.02185703255236149
54,0.06,0.001,0.013763400844317661,0.0113708882014037,55.865171710007736,0.03987521178444521,0.014711677895060607
55,0.08,0.001,0.01391542122611135,0.011621069300739098,40.179839444766145,0.028679400031952993,0.01541329561067479
56,0.1,0.001,0.014153170470346204,0.012063468410687277,29.276725200802844,0.02089702012905271,0.011461183029626097
57,0.12,0.001,0.014545051522948726,0.012237735324932851,26.93791543198513,0.019227634141317007,0.01845782795654876
58,0.14,0.001,0.01483071168914747,0.012076599932088587,27.560791619104823,0.01967222813640601,0.01936189830303192
59,0.16,0.001,0.015034386251491708,0.012192129819948596,24.88750786373852,0.017764102686465753,0.012558593481246914
60,0.18,0.001,0.015414067079457206,0.012378991144874906,23.623006433042036,0.016861532072121366,0.026040042750537395
61,0.2,0.001,0.015777120056968637,0.01257340776718998,22.442005457008133,0.016018562067814514,0.03482757156182613
62,0.22,0.001,0.015927328463583565,0.012502141333428184,21.812214915251346,0.015569032773198677,0.02599282336554357
63,0.24,0.001,0.016214459983945995,0.012710468495139899,20.454552877307215,0.014599966364958755,0.022400412442428724
64,0.25,0.001,0.016261773816294813,0.012900051736115858,18.839091060893917,0.013446888694428207,0.015580914249377591
65,0.25,0.001,0.01613551688834371,0.012578398017234257,19.934093735234566,0.014228475185749155,0.014623932407370635
66,0.25,0.001,0.01593744999559179,0.01258755920295696,18.772787622711675,0.013399562899865578,0.02027928110744272
67,0.25,0.001,0.01601299994967138,0.012802087682499345,17.993952427394944,0.012843649127334008,0.020005907198148116
68,0.25,0.001,0.01593658110389258,0.012647872321806659,18.429924020040392,0.013154835132077368,0.025890808419457505
69,0.25,0.001,0.015875678526680686,0.012505801476314492,18.88479157022736,0.013479508615437088,0.022867373323866298
70,0.25,0.001,0.015833720302437248,0.012585248679834618,18.204436079734467,0.012993887280324388,0.013821081990110022
71,0.25,0.001,0.015759420036994282,0.012442087855697642,18.590328674668804,0.013269328104688654,0.027919931337237358
72,0.25,0.001,0.015694686415977346,0.012466715902571866,18.08954606265449,0.012911881557926119,0.019722704642585347
73,0.25,0.001,0.0156056649647395,0.01236513753015092,18.159917355684982,0.012962110889139887,0.026488785232816423
74,0.25,0.001,0.015549239831574382,0.012442219393719289,17.411741772094445,0.012428081207776191,0.03377748972603253
75,0.25,0.001,0.01568012947848983,0.012423885676485011,18.247989253689454,0.013024974485145934,0.03024860019130366
76,0.0,0.001,0.0118440873404711,0.0118440873404711,22.061348661814772,0.015746858430988418,0.026874504185148647
77,0.02,0.001,0.011452297574687775,0.010897951774884179,38.831928121024966,0.027717293448269068,0.009713102597743273
78,0.04,0.001,0.011984872169293653,0.010512660655427475,51.56420936320175,0.036805288624697896,0.011931357240038258
79,0.06,0.001,0.012465017750928089,0.01039411236831002,48.35564384724747,0.03451509196805672,0.016780213319829533
80,0.08,0.001,0.012634236537625554,0.010635192084446653,35.0082677792732,0.024988056944520484,0.010357621125876904
81,0.1,0.001,0.012910306563398716,0.011008237101412948,26.647992849900596,0.019020694396788433,0.017508288446281637
82,0.12,0.001,0.013182409081874763,0.01101545012162409,25.299246636053706,0.018057991888689298,0.014643706913505281
83,0.14,0.001,0.013479428931502904,0.010964633124788006,25.165921169395535,0.01796282738714885,0.0122398491948843
84,0.16,0.001,0.013810966030520325,0.011130042055806717,23.47484406698108,0.016755777349736673,0.0146627277135849
85,0.18,0.001,0.014077777569945773,0.011221828915643361,22.228799974119966,0.015866381137844374,0.02270890918693372
86,0.2,0.001,0.01436999438472488,0.011385964707193968,20.90312904023133,0.014920149207873898,0.020168711431324482
87,0.22,0.001,0.01457164385603358,0.011455365452339,19.84502875612184,0.01416490275240674,0.016919146291911602
88,0.24,0.001,0.014791900315698383,0.011492600217117448,19.259665262341223,0.013747084412806011,0.01348259938614709
89,0.25,0.001,0.01508481523955529,0.011744898913845454,18.716891035472,0.013359665264433974,0.013454651859189783
90,0.25,0.001,0.015021459251108813,0.011594789491979273,19.203059062120822,0.013706680272748625,0.021355942956038883
91,0.25,0.001,0.014906108590148338,0.011576658876195516,18.65823606090237,0.01331779875867407,0.02341382298618555
92,0.25,0.001,0.014975443757709124,0.011774241868363518,17.939536030793576,0.012804808016269504,0.023506654226886376
93,0.25,0.001,0.014897822675576936,0.011683209209894336,18.014692949643035,0.012858453211736641,0.023169122636318207
94,0.25,0.001,0.01485811537626365,0.011665272636136887,17.892691380983138,0.012771371435391247,0.025462123033191477
95,0.25,0.001,0.014820958132797522,0.011634023731045304,17.859580817453857,0.012747737913957072,0.020215325855783055
96,0.25,0.001,0.014831063365585258,0.011592896420758123,18.14668839963424,0.012952668379467694,0.018152220706854547
97,0.25,0.001,0.014713483468971406,0.011512758132870423,17.93686461063235,0.012802901221008103,0.01632312372592943
98,0.25,0.001,0.01470056378151404,0.011595520195196324,17.400663983739275,0.012420174149706835,0.013727425996746336
99,0.25,0.001,0.014702785487004984,0.011565788782375927,17.579728978886063,0.012547986423187768,0.012655344259526049
100,0.25,0.001,0.014682531614914777,0.011478136940999063,17.95742782874691,0.012817578749997793,0.025261594647807733
101,0.25,0.001,0.014691313388854196,0.011605589867808252,17.2923940698214,0.012342893697231547,0.024060862404959544
102,0.25,0.001,0.014781340242602258,0.011607177699668715,17.788009123769147,0.012696651765716736,0.018231716938316822
103,0.25,0.001,0.0146564651844167,0.011482916522865759,17.78456671628886,0.012694194658307538,0.022822285603199686
104,0.25,0.001,0.014590416495058057,0.011461445668122922,17.534753539545708,0.012515884039647186,0.016763415852827684
105,0.25,0.001,0.014556933265377275,0.011462286116843549,17.34240294493924,0.012378588825795319,0.02549200544932059
106,0.25,0.001,0.014579105365152447,0.011399129941181967,17.820582709191303,0.012719902005132979,0.029973281813519343
107,0.25,0.001,0.014480184604506294,0.011340484384438732,17.59487937944866,0.012558800413596473,0.02325680053659848
108,0.25,0.001,0.014485508889630953,0.01141433581907741,17.210854739570177,0.012284692890485494,0.012498127562659127
109,0.25,0.001,0.014459401110991595,0.011242028205347943,18.03015827416823,0.012869491987272113,0.011853711546531745
110,0.25,0.001,0.014342640890088148,0.011238834011964242,17.39373333074204,0.01241522721680374,0.012727040464856796
111,0.25,0.001,0.014401872265937697,0.011325051945657846,17.242502432772525,0.012307282250372966,0.012027612621230739
112,0.25,0.001,0.014326967707648013,0.01119467483158062,17.55337015200432,0.01252917212848274,0.014957224551056112
113,0.25,0.001,0.014378117046837306,0.011291294661942035,17.298553502036572,0.01234729015134659,0.012474425137043
114,0.25,0.001,0.014321095542444505,0.011193562473232834,17.526695088481244,0.012510132111692537,0.01792872996468629
115,0.25,0.001,0.01426408559032318,0.01119346989589737,17.20773004439356,0.012282462558453647,0.01969368476420641
116,0.25,0.001,0.014235064408830076,0.011180376468385477,17.118471652200537,0.012218752071520726,0.013004315883985587
117,0.25,0.001,0.014239181306290571,0.011130715161131793,17.419844845426,0.01243386498602855,0.019012281937258586
118,0.25,0.001,0.014188809621451083,0.011154800092083065,17.002589435004747,0.012136038140617235,0.015354586499077933
119,0.25,0.001,0.014172321232788557,0.01107806318351358,17.340222660443523,0.012377032591323,0.009299089999071189
120,0.25,0.001,0.014116680086106406,0.011064465215760896,17.10461125803324,0.012208858856554776,0.013768208745334829
121,0.25,0.001,0.014083848532728042,0.011019089786168059,17.174908349475466,0.012259035224465,0.01403377324874912
122,0.25,0.001,0.01411954768638688,0.011064724123436639,17.119230939939996,0.01221929403279086,0.012618953229061194
123,0.25,0.001,0.014106234877561725,0.011039094767139636,17.1882524424282,0.012268559916080087,0.01590998949749129
124,0.25,0.001,0.014146120248762483,0.011038573712592313,17.414690678444526,0.012430186065984672,0.01155262946018151
125,0.25,0.001,0.01416939302556234,0.011095350642643404,17.226933767834105,0.012296169712943686,0.014486437663435936
126,0.25,0.001,0.014127004435651572,0.01098438355787797,17.61124749657188,0.01257048358070798,0.013278429795588766
127,0.25,0.001,0.014098683103282375,0.011095824834243255,16.82801863998519,0.012011433718761733,0.015948828110205277
128,0.25,0.001,0.014066483296333504,0.011010777904258452,17.12417347051255,0.012222821891871911,0.012723884545266628
129,0.25,0.001,0.014073158033605123,0.011022333703143629,17.09682017495946,0.012203297769421457,0.015596969585333551
130,0.25,0.001,0.014022739681546463,0.010990099402845732,16.994915871917513,0.01213056093641507,0.013433408723878009
131,0.25,0.001,0.01396355126698353,0.010906368922055043,17.132450425322006,0.012228729782528197,0.012699655257165432
132,0.25,0.001,0.013936824696547164,0.010900554651562254,17.015256231981944,0.012145079394705171,0.01418163999915123
133,0.25,0.001,0.013922178816678342,0.010847671695191232,17.229538043156506,0.012298028581839048,0.011753156781196594
134,0.25,0.001,0.013915437241418258,0.01086914787116282,17.07140603186627,0.012185157767213612,0.016159763825791224
135,0.25,0.001,0.013876508783729744,0.010847072536448408,16.976959867235145,0.012117744373472622,0.01682843454182148
136,0.25,0.001,0.01388689138072674,0.010819313664841046,17.190706993085406,0.012270311915121632,0.014043838317905153
137,0.25,0.001,0.013926642297339082,0.010910171546540965,16.90430313885625,0.012065883753644717,0.013905715995601245
138,0.25,0.001,0.013871145254005323,0.010781761005039027,17.312909974236963,0.01235753745484437,0.016736823533262526
139,0.25,0.001,0.013831576117363869,0.010782770769494235,17.08550498997642,0.012195221263366468,0.013577994624418872
140,0.25,0.001,0.013795851852409283,0.010729520080512171,17.183723216244033,0.012265327063700237,0.00993971067613789
141,0.25,0.001,0.013759142446049918,0.01074049431039128,16.916504377580956,0.012074592703483909,0.011664546693542175
142,0.25,0.001,0.01376880317771545,0.010767207227165511,16.82094391168678,0.012006383948384568,0.011453417129814625
143,0.25,0.001,0.013758126274181432,0.010715534334129053,17.050685371592746,0.01217036785980924,0.01262324143733297
144,0.25,0.001,0.013809774075279885,0.010780860953824488,16.97402972602404,0.012115652909367622,0.012176189704665117
145,0.25,0.001,0.01377552424882287,0.010679536810957808,17.349912555333372,0.012383949004520608,0.011008222055222307
146,0.25,0.001,0.013762740035461773,0.010699989110678779,17.16365669285728,0.012251004063424184,0.01385936074491058
147,0.25,0.001,0.013805761453684841,0.010753112640791072,17.107044794818272,0.012210595856401336,0.010938359224902732
148,0.25,0.001,0.013688637395378624,0.01064931972094276,17.032336695364936,0.012157271017391103,0.016194939546819245
149,0.25,0.001,0.013722876581528997,0.010678628866085418,17.059963944327198,0.012176990681175729,0.011048297796930586
150,0.25,0.001,0.013722673335970825,0.010695697352565463,16.963175088648985,0.012107905131084215,0.017000716711793627
151,0.25,0.001,0.013691090187165396,0.010649091678114467,17.04736007884248,0.012167994346068866,0.016955789045563767
152,0.25,0.001,0.013707894104904996,0.01065242792507655,17.122832895151188,0.01222186502152119,0.01891918107867241
153,0.25,0.001,0.01369040603287019,0.010680895971938727,16.865295053354313,0.012038040723307861,0.018827596812375953
154,0.25,0.001,0.013702467028008598,0.010657368819326093,17.06473041737052,0.012180392874639914,0.017396377931748117
155,0.25,0.001,0.013638606103563006,0.01059773319785851,17.04105147258239,0.012163491415119477,0.013249053486755915
156,0.25,0.001,0.013557770295933268,0.010506628229611879,17.0986011496317,0.012204568986175376,0.01651744158672435
157,0.25,0.001,0.013596599558088713,0.010587055459790638,16.86548516271296,0.012038176418781557,0.01233540422150067
158,0.25,0.001,0.013532106807631792,0.010533389904241639,16.80481003283353,0.011994867974899022,0.012479590651180063
159,0.25,0.001,0.013548747804144926,0.010519532611546286,16.975722249055295,0.012116860991474158,0.014033075555094652
160,0.25,0.001,0.013631825027750767,0.010623422345925148,16.85908846161382,0.012033610607861399,0.015364145327891623
161,0.25,0.001,0.013573890016360453,0.010479148350415137,17.342931795891108,0.012378966306845901,0.010293331795505114
162,0.25,0.001,0.013625301235714631,0.0105526305769525,17.219248421472987,0.012290684098124902,0.013049570045300893
163,0.25,0.001,0.013519414715623745,0.010446439411138415,17.22095359555568,0.01229190121024674,0.011988375535500901
164,0.25,0.001,0.013529399848665706,0.010538193336999856,16.76272251754655,0.011964826921874767,0.015848454221018722
165,0.25,0.001,0.0135349416567602,0.010617496185520917,16.349364441481804,0.011669781899701501,0.015280352240162236
166,0.25,0.001,0.013512385254145082,0.010466348887453453,17.069989078865316,0.012184146380346407,0.015785290992685726
167,0.25,0.001,0.013531945316727525,0.01053403269318868,16.800302932774496,0.011991650915613487,0.01658869587949344
168,0.25,0.001,0.013500493695189441,0.010459030361084684,17.0443608061546,0.012165853537583583,0.01279649870204074
169,0.25,0.001,0.013464998836708675,0.010454752882533894,16.869418547280116,0.012040983973790232,0.01617517588394029
170,0.25,0.001,0.013475737829131288,0.010461586742612423,16.891303047021598,0.012056604601728478,0.012125058498765742
171,0.25,0.001,0.013360999440709795,0.0103381550451418,16.940019149427876,0.012091376980319682,0.013435100537857838
172,0.25,0.001,0.013561510319625809,0.010548029262701578,16.88754804139875,0.012053924369306747,0.0205685483025653
173,0.25,0.001,0.01354743134204565,0.010455427093401241,17.327591603127143,0.012368016847342714,0.01151466675634895
174,0.25,0.001,0.013448280473745172,0.010387923161974542,17.150243671056028,0.012241430172059977,0.00989006838894316
175,0.25,0.001,0.013440096505657355,0.010423530258806143,16.904837029084874,0.012066264831609474,0.01169283062751804
176,0.25,0.001,0.013432931780866745,0.010420398438224615,16.882237863871023,0.012050134092698802,0.012536647197391306
177,0.25,0.001,0.01345041199365747,0.010381872832396565,17.196093081326737,0.012274156374965551,0.014943734742701054
178,0.25,0.001,0.013402052694720843,0.010430380962272853,16.653248203268777,0.011886686797479498,0.02247305028140545
179,0.25,0.001,0.013460341819473833,0.010485065515920967,16.67344882251484,0.011901105512144782,0.020654400012322834
180,0.25,0.001,0.013390258139571471,0.010340812471942594,17.08909361136703,0.012197782734737352,0.018153405083077296
181,0.25,0.001,0.013339165167981977,0.010407516569346534,16.428958888417302,0.011726594495658316,0.012752606200852565
182,0.25,0.001,0.013429486607878918,0.01043907280873688,16.75827898109207,0.01196165523275665,0.014656472552035536
183,0.25,0.001,0.013338067674230758,0.010269539181237684,17.19603353504771,0.012274113872268174,0.01364613710237401
184,0.25,0.001,0.013445969649502367,0.01045054975277626,16.78633361270191,0.011981679951964247,0.018320207484066486
185,0.25,0.001,0.013408850955908073,0.0103543983002389,17.11715391216322,0.012217811500473392,0.02035079976277692
186,0.25,0.001,0.013316526378808204,0.010298317235918161,16.9140444837046,0.012072836890581442,0.012745962744312627
187,0.25,0.001,0.01334334703433321,0.010355676737276292,16.742904839284424,0.011950681541245128,0.014927431275801999
188,0.25,0.001,0.013305487109059962,0.010228055002335588,17.245928806190403,0.012309727913055249,0.014892772239233767
189,0.25,0.001,0.01332234915165235,0.01025257469531295,17.20301662471498,0.012279098233201271,0.015396071730979852
190,0.25,0.001,0.013308580179739632,0.010353236603303263,16.561746302157573,0.011821374948006834,0.011571032660348075
191,0.25,0.001,0.013326557484341412,0.010303510372326914,16.941156171485954,0.012092188559233372,0.01690931711345911
192,0.25,0.001,0.013212701553095984,0.010143081298394786,17.20215156502316,0.012278480774463356,0.013325523851173264
193,0.25,0.001,0.013291936247301983,0.01040570300898362,16.1744517619285,0.01154493344891399,0.014251981196658952
194,0.25,0.001,0.013317773361662382,0.01024789721049007,17.203586988030626,0.012279505344775607,0.015214711959872926
195,0.25,0.001,0.013209033832728312,0.010242625094485614,16.6237551973268,0.011865635401375304,0.013671951235405036
196,0.25,0.001,0.013233911194440675,0.01016556904554436,17.194989942237907,0.012273368980897864,0.014118992856570653
197,0.25,0.001,0.01318715110541629,0.010181013542048926,16.846395382429655,0.012024550594168204,0.01351437544716256
198,0.25,0.001,0.01319719322765672,0.01020768072507742,16.753228815268148,0.011958050546229941,0.013488594043467726
199,0.25,0.001,0.013349298783524206,0.01028610394695477,17.166144223466482,0.012252779602759802,0.013857857058090823
200,0.25,0.001,0.013315261509398527,0.01026573276908651,17.089559171822,0.012198115040558172,0.013587784953415394
201,0.25,0.001,0.013181522193926173,0.010130661701047943,17.097021433277437,0.012203441422753345,0.012689340260944195
202,0.25,0.001,0.013229881963901239,0.01025447595916155,16.67417596063768,0.011901624525794205,0.018685224199933664
203,0.25,0.001,0.013302894020947793,0.010250801394755928,17.103926537493912,0.012208370119553114,0.017306446629975523
204,0.25,0.001,0.013140288534344069,0.010131325172669067,16.862231084986593,0.012035853736607134,0.011651361627238137
205,0.25,0.001,0.013190721684322622,0.01014093364917998,17.0910131661501,0.012199152866631048,0.015562516371054309
206,0.25,0.001,0.013232627799669947,0.010235337469528922,16.79681470047244,0.011989161099552063,0.014673306340617793
207,0.25,0.001,0.013186355603226476,0.010206661492534515,16.698206428016857,0.011918776893659427,0.016065742820501328
208,0.25,0.001,0.013201658261238702,0.010165516583907136,17.01453791259343,0.012144566675655553,0.01672899111041001
209,0.25,0.001,0.01318356106122289,0.010195488381193087,16.745159972897852,0.011952291201211886,0.018700144519763335
210,0.25,0.001,0.013139207105369546,0.010148477858883129,16.760046410505545,0.011962916781231653,0.01730354822107724
211,0.25,0.001,0.01313929072867296,0.010196605716631953,16.49080737248304,0.011770740451451135,0.014286689726369721
212,0.25,0.001,0.013210402928533647,0.01021948504513323,16.761104900897514,0.0119636723061367,0.017198140865990093
213,0.25,0.001,0.013159198701536545,0.010090562276215256,17.196638287903255,0.01227454553026642,0.015565395754362856
214,0.25,0.001,0.013158809247385822,0.010089806945646058,17.198689123774788,0.012276009367433824,0.015637978246169432
215,0.25,0.001,0.013115063554867586,0.010087732380518463,16.965164792455095,0.01210932533365817,0.015768144944948808
216,0.25,0.001,0.013141050642274544,0.010126320333338362,16.894549292725173,0.012058921693593985,0.013656955345400743
217,0.25,0.001,0.013074013002337265,0.010044585599394099,16.976912366325255,0.012117710468469134,0.015146552984203612
218,0.25,0.001,0.013062622430400952,0.010059203444947823,16.831160635650846,0.012013676399465273,0.020148643026394502
219,0.25,0.001,0.01303043327451303,0.010084594920380836,16.508478706483203,0.011783353823328482,0.013947520405054092
220,0.25,0.001,0.01318659514240387,0.010180597907624812,16.84560819806458,0.012023988720959727,0.013046014521803175
221,0.25,0.001,0.01313568823529928,0.010067659746382308,17.193231736815278,0.012272114016284995,0.01285899882870061
222,0.25,0.001,0.013053929942980512,0.010146183682300202,16.295009987458897,0.011630985001755101,0.017449155715959414
223,0.25,0.001,0.012998751328083714,0.00995862692396649,17.036857640220166,0.012160497958758149,0.010758555228156703
224,0.25,0.001,0.013156234753462238,0.01019803330293635,16.57776075367564,0.011832805677141785,0.014798551398728575
225,0.25,0.001,0.013135201461165799,0.010007002513520161,17.530426148729568,0.012512795252483631,0.017002614081970284
226,0.25,0.001,0.01302719133202735,0.009980367176131481,17.07440247656842,0.012187296557150906,0.01745312474668026
227,0.25,0.001,0.013020655871573276,0.010099786385360408,16.368553029472228,0.011683478250872396,0.016941670328378677
228,0.25,0.001,0.013163394120459469,0.010105667898203429,17.135497998420416,0.012230905066681239,0.019736616872251034
229,0.25,0.001,0.013117141425867692,0.010069883400552818,17.07683381747979,0.012189031989635826,0.01722217896687133
230,0.25,0.001,0.013067082196525696,0.010086741679139418,16.701827963285027,0.011921361858162047,0.019760838842817714
231,0.25,0.001,0.013071656749770906,0.010112595372332162,16.582580037810786,0.011836245565889211,0.01780860871076584
232,0.25,0.001,0.013119036389846036,0.010031973444114656,17.299901605478336,0.012348252395059484,0.015332928326513087
233,0.25,0.001,0.013142459741933378,0.010109980874555079,16.99401224678163,0.012129915950593597,0.01729968549417598
234,0.25,0.001,0.012963130467896098,0.009913271546845624,17.091410370401643,0.012199436381443,0.01108711159655026
235,0.25,0.001,0.013033097515239726,0.010056107733011521,16.68305135819433,0.011907959570445631,0.011809817914451872
236,0.25,0.001,0.013108602709913365,0.010059785786112791,17.085569491837923,0.01219526730323906,0.019510881177016666
237,0.25,0.001,0.01308446436019197,0.009989414512508874,17.344659690768836,0.01238019963652308,0.02115526143461466
238,0.25,0.001,0.012997604508649807,0.01000285270144221,16.78258963710441,0.011979007592508502,0.022941129016024724
239,0.25,0.001,0.013078077704867233,0.010110102462696285,16.63253345004956,0.01187190110638798,0.026450194817568575
240,0.25,0.001,0.013070446836996574,0.009995952515279998,17.22946628632226,0.012297977363541941,0.023873685326959406
241,0.25,0.001,0.013024319083737445,0.010102875315633713,16.371771911550614,0.011685775811242407,0.0162256799106087
242,0.25,0.001,0.013000720057972034,0.009941215906507286,17.145461498727425,0.012238016772824715,0.015252770722976752
243,0.25,0.001,0.013044095682044779,0.010017231911179926,16.962545240723784,0.012107455560830682,0.014041899304304804
244,0.25,0.001,0.0130107530691676,0.009944254009797308,17.184661992978278,0.012265997139884566,0.015209712886384555
245,0.25,0.001,0.013079125264242257,0.010067835876042793,16.87526549588175,0.012045157384640792,0.01317796457026686
246,0.25,0.001,0.012980106536204352,0.00989418668246572,17.29349548657001,0.01234367986193434,0.015552610158920288
247,0.25,0.001,0.013007805482688732,0.01004979649115586,16.5766816568705,0.011832035443876161,0.012219619804194995
248,0.25,0.001,0.012976471769169627,0.009928614221616512,17.080194178134136,0.012191430534000097,0.01559492533228227
249,0.25,0.001,0.012906211260577135,0.009903335479232235,16.82811617245575,0.01201150333508619,0.013843369071504899
250,0.25,0.001,0.012924520010623315,0.009974300618311411,16.533030344762647,0.011800878190408742,0.013217847661248274
251,0.25,0.001,0.012864381601866206,0.009835671173197844,16.972893712702305,0.0121148420504656,0.013817793290529932
252,0.25,0.001,0.012909974627558133,0.009960264522436034,16.530174968974972,0.011798840092059223,0.01445632694022996
253,0.25,0.001,0.012868499297295928,0.00987255573272705,16.78926789017252,0.011983774368431493,0.01676386102501835
254,0.25,0.001,0.01289455784919218,0.009843036427009877,17.100724376652035,0.012206084494398313,0.014720366602497441
255,0.25,0.001,0.012905602259496893,0.009893677670586054,16.878825744910824,0.012047698604504513,0.012666055134364538
256,0.25,0.001,0.012911365991221703,0.009978127560425576,16.43786899487361,0.011732954314684947,0.013893388544342347
257,0.25,0.001,0.012820869658409034,0.009800374963886468,16.92685273943542,0.012081979114514934,0.010198612564376422
258,0.25,0.001,0.012980217709879264,0.00995527356475867,16.951787301078955,0.012099776803054215,0.012001778797379561
259,0.25,0.001,0.012866711241836222,0.009826363004124605,17.03811190034721,0.012161393219377025,0.014884194625275475
260,0.25,0.001,0.012942078770686793,0.009935185037914655,16.85063291642187,0.012027575243698694,0.014201174889292036
261,0.25,0.001,0.012940634674377584,0.009969171166729707,16.652081584269677,0.011885854092983353,0.011611068887369973
262,0.25,0.001,0.012958455820058152,0.009855112086714829,17.391138556923107,0.012413375129852324,0.013721369073859282
263,0.25,0.001,0.012982327245846907,0.009938207175367562,17.059248684184933,0.01217648014574228,0.013311427751822131
264,0.25,0.001,0.012889871051143554,0.009905147546897997,16.726391120540626,0.011938894447209584,0.013947132043540478
265,0.25,0.001,0.012910010605000872,0.009880285875712614,16.97857705440037,0.01211889868265551,0.014750947643603598
266,0.25,0.001,0.01287824645483604,0.009900337820722103,16.688201137833452,0.011911635358910388,0.015194382119391645
267,0.25,0.001,0.0128653949453532,0.009847191158105678,16.914014203994434,0.012072815277654842,0.016560581379703114
268,0.25,0.001,0.012916469550745317,0.009805066455112595,17.43630277972849,0.012445612262475723,0.014702981470951013
269,0.25,0.001,0.012950882586644098,0.009905810424881636,17.06458450299763,0.01218028872448082,0.012309124560228415
270,0.25,0.001,0.012862359119824394,0.009848357492296442,16.89046595883975,0.01205600710837955,0.012561495415866375
271,0.25,0.001,0.012912693153851715,0.009857012414939133,17.124034154773035,0.012222722451658126,0.010744629693882806
272,0.25,0.001,0.012829284289073173,0.009803887656685524,16.954323497710547,0.012101587079022518,0.01048204502356904
273,0.25,0.001,0.012823629242477737,0.009742042013200959,17.2692146829865,0.012326348810125983,0.010102274029382638
274,0.25,0.001,0.01284706088613211,0.009848391108094406,16.804544726365158,0.011994678605542583,0.012759688709463392
275,0.25,0.001,0.01286857003909611,0.009838095352088056,16.98277992354254,0.012121898589252349,0.01411309971341065
276,0.25,0.001,0.012867673833620053,0.00986709548741166,16.815240507588374,0.012002312996137313,0.016155356408229897
277,0.25,0.001,0.012861135043634004,0.009856671460540686,16.83701373357971,0.012017854199557252,0.012546622859580176
278,0.25,0.001,0.012822347632921182,0.009782836505794774,17.033419774255908,0.012158044092973525,0.01244572816150529
279,0.25,0.001,0.012880443227552652,0.009888768789743442,16.765343298262316,0.01196669757192171,0.012878293437617165
280,0.25,0.001,0.012888734568744967,0.009798719098159128,17.31644598716401,0.012360061375563176,0.01344129562910114
281,0.25,0.001,0.012965273307786941,0.009953797498059741,16.876310507089382,0.012045903288429253,0.01585460959800652
282,0.25,0.001,0.012822744513993038,0.009654666813344245,17.753907633158132,0.012672310944438353,0.012127560563385487
283,0.25,0.001,0.01286811474925789,0.009838183647060367,16.97973356180874,0.01211972416974214,0.012294287261153971
284,0.25,0.001,0.012768036225599863,0.009748521729804765,16.921359659067203,0.012078058286272094,0.013025251749370779
285,0.25,0.001,0.012773147341096237,0.00978780904995583,16.72983675685821,0.011941353859284945,0.014198468066751957
286,0.25,0.001,0.01283861637571461,0.009783585024588929,17.120395849813764,0.012220125517354578,0.019180621818772385
287,0.25,0.001,0.012803449805215104,0.009762611928423887,17.040856196203077,0.01216335203155109,0.015718808929835047
288,0.25,0.001,0.012796724731356388,0.009840361651368697,16.56745900513118,0.011825452537566866,0.013144569205386298
289,0.25,0.001,0.01281798195188508,0.00973656162077574,17.268279809048764,0.012325681519663644,0.012518104831022876
290,0.25,0.001,0.012771439164291904,0.009762829687988374,16.860247314664562,0.012034437769210964,0.01468339070145573
291,0.25,0.001,0.01279532715385698,0.009807067015584705,16.74620939347265,0.01195304025230025,0.017668205313384533
292,0.25,0.001,0.012831909203467414,0.009809998674941945,16.934786983780718,0.012087642386710005,0.019110380405826227
293,0.25,0.001,0.01275718678004059,0.009715235202764667,17.047095693011208,0.012167805633840977,0.015088779452655996
294,0.25,0.001,0.012805900467650032,0.009736369557541045,17.201650795705323,0.012278123337405656,0.010177603922784328
295,0.25,0.001,0.012822511448905595,0.009759990117721277,17.162369880059575,0.012250085567494344,0.009992149259362901
296,0.25,0.001,0.012718262097112163,0.00969424771949408,16.94657596649804,0.012096057078157061,0.010722736428890909
297,0.25,0.001,0.012743310250049376,0.009674921982403302,17.19524840339502,0.012273553464236274,0.011180749828261989
298,0.25,0.001,0.012694890866826092,0.00967401163932151,16.92900760729924,0.012083517207208594,0.01436773341681276
299,0.25,0.001,0.012764413161396843,0.009776326890079859,16.745235086313297,0.011952344815355672,0.016634847968816757
300,0.25,0.001,0.012696385940678814,0.00966285512401931,16.999907473768978,0.012134123821391134,0.01602355843143804
301,0.25,0.001,0.012668463248785318,0.009735520062301368,16.43621385675655,0.011731772917028229,0.011198636942676135
302,0.25,0.001,0.01275156378126585,0.009668605729042795,17.276898033899744,0.012331833000642216,0.012196755036711693
303,0.25,0.001,0.012663199323257452,0.009604710818851243,17.13977094830872,0.012233954995223926,0.015227637918932098
304,0.25,0.001,0.012705748487805936,0.009768802126306033,16.45864763325962,0.011747785605467251,0.013436400996787208
305,0.25,0.001,0.012799390185168378,0.009695551710904471,17.393910899173306,0.01241535396086603,0.014748874519552504
306,0.25,0.001,0.012767235735564667,0.009790201208986531,16.683301044666738,0.011908137790625795,0.019032594747841358
307,0.25,0.001,0.012731825158550612,0.009697387397168827,17.00498858885732,0.012137750598756117,0.01380693500063249
308,0.25,0.001,0.01264355714297391,0.00960337820163913,17.037161719165827,0.012160715002973466,0.013013364880212716
309,0.25,0.001,0.012655211849176857,0.009673246425548548,16.710933108252686,0.011927860890972652,0.012364486498492104
310,0.25,0.001,0.012671446432004624,0.009678242085006854,16.773917667309625,0.011972817749685671,0.012702056073716708
311,0.25,0.001,0.012675158014869441,0.009601117681720516,17.226922733403793,0.012296161836833542,0.01431729578013931
312,0.25,0.001,0.012710658487095981,0.009745330162621673,16.617700268434874,0.011861313539211188,0.016293742960052832
313,0.25,0.001,0.012665824478548063,0.009662472161165423,16.83078606409509,0.012013409039325545,0.015238383385751928
314,0.25,0.001,0.012633990173767951,0.0095801381888965,17.11378649035447,0.01221540791602746,0.010948711074888706
315,0.25,0.001,0.012715743312625082,0.009701199898405934,16.8935008015974,0.012058173305922485,0.011417635716497898
316,0.25,0.001,0.012686905498437876,0.009592980137804638,17.33835766552227,0.012375701402942377,0.014424367142575127
317,0.25,0.001,0.012732146957385898,0.009699971804408224,16.992308821468924,0.012128700086701588,0.013799130650503295
318,0.25,0.001,0.012686181058526452,0.009632186260822876,17.114586299341216,0.012215978800386306,0.01414812050227608
319,0.25,0.001,0.012615888379514217,0.009554648268580712,17.155191289359923,0.012244961662640916,0.017865410606775965
320,0.25,0.001,0.012729554228467424,0.009704119792556514,16.954535292698107,0.012101738253174952,0.017173634975084236
321,0.25,0.001,0.012724628493482328,0.009667875423734927,17.130043963637142,0.012227012108234934,0.015254905048225607
322,0.25,0.001,0.012697515886612495,0.009676758737645303,16.928322115891525,0.012083027919979675,0.018370301462709904
323,0.25,0.001,0.012721599587271587,0.009723320657142178,16.802355667184738,0.01199311610791202,0.01595218213541167
324,0.25,0.001,0.012677511761683377,0.009577774064180896,17.37093075979114,0.012398951291785254,0.014648595957883767
325,0.25,0.001,0.01278286742145415,0.009689288810712843,17.336414500141803,0.012374314418373878,0.02012986144317048
326,0.25,0.001,0.012674057150719897,0.009647132125500306,16.962887871898626,0.012107700122697093,0.01903148674006973
327,0.25,0.001,0.012726196976202189,0.009698184488844514,16.968981137176584,0.012112049348448669,0.021204034531755105
328,0.25,0.001,0.012690954116833403,0.009591924127698909,17.366962943836942,0.012396119160483185,0.02050829106675727
329,0.25,0.001,0.012627428733070508,0.009623838601500553,16.832119499012723,0.012014360812999803,0.011509453478668417
330,0.25,0.001,0.012642302604146973,0.009595743743982381,17.07291634804107,0.012186235794461863,0.014925370924174786
331,0.25,0.001,0.012695181254495374,0.009707262853534751,16.74429545061142,0.011951674126060971,0.019997676834464073
332,0.25,0.001,0.012694090809113847,0.009631817450630747,17.16098005722081,0.012249093545482377,0.019481295320604528
333,0.25,0.001,0.01267793792026767,0.009663176361480019,16.89472496261773,0.012059047082525146,0.012521562432604176
334,0.25,0.001,0.012610759949591226,0.009542391102064151,17.195140402531788,0.012273476375825687,0.009875777975789138
335,0.25,0.001,0.0126259572606095,0.00956795180719733,17.13706376425939,0.01223202267256202,0.011210339942148753
336,0.25,0.001,0.012558627439185323,0.00953785262089954,16.928422214252567,0.012083099367774852,0.011235696130565234
337,0.25,0.001,0.012587177070335208,0.009588574590570106,16.80416888618029,0.011994410339886002,0.01403231838984149
338,0.25,0.001,0.012552493882062253,0.00952725792970448,16.95342297366805,0.012100944306686689,0.01242187965129103
339,0.25,0.001,0.012565101694754447,0.00952728237853521,17.02394015464166,0.012151277769194618,0.013292936209057058
340,0.25,0.001,0.012563804910877423,0.00952716589868757,17.017324289053196,0.012146555523949462,0.013197116021599089
341,0.25,0.001,0.01264829760499075,0.009601536150978703,17.07405233493303,0.01218704663449895,0.015532973488526685
342,0.25,0.001,0.01258530458715028,0.009574142284691334,16.874553781734054,0.012044649380252716,0.013015119624989373
343,0.25,0.001,0.012556181259143573,0.009565525320433855,16.759635863623497,0.011962623742771947,0.015455872884818487
344,0.25,0.001,0.012568127815600906,0.009478612075931894,17.313647770165847,0.01235806407577862,0.013560242152639798
345,0.25,0.001,0.012641858348222857,0.009599847433008856,17.047429456997136,0.012168043866521868,0.012530214818460601
346,0.25,0.001,0.012586345822995584,0.009482303847221112,17.395051850457666,0.012416168344366643,0.014481799144830023
347,0.25,0.001,0.012582757462925916,0.009610517085992299,16.656437047909918,0.011888962917851477,0.01697866725070136
348,0.25,0.001,0.012579015030269673,0.009516562513714575,17.161984917197987,0.01224981079029121,0.015129591604428632
349,0.25,0.001,0.012547894531546921,0.00949669229490446,17.098937834107574,0.01220480930343153,0.014297929991568838
350,0.25,0.001,0.012623818208383908,0.009565876340859206,17.136705367724836,0.012231766857762196,0.018141136238617555
351,0.25,0.001,0.012611991360215749,0.009580158206954702,16.990393165077403,0.012127332737385726,0.012967628426849842
352,0.25,0.001,0.012633101233898492,0.009544801595029325,17.306832130731667,0.012353199236782061,0.01387133342879159
353,0.25,0.001,0.012576106075395338,0.00956830402135023,16.855722255574637,0.012031207891202452,0.014227071244801794
354,0.25,0.001,0.012581095381211877,0.009526294782998655,17.119102240159386,0.012219202169992423,0.01716898488146918
355,0.25,0.001,0.012561193845873618,0.009552590826453156,16.860211066230615,0.01203441189595333,0.018165195493825843
356,0.25,0.001,0.0126752586901945,0.009589844875846394,17.290659483806092,0.012341655591581792,0.016110696962901523
357,0.25,0.001,0.012545347856852391,0.009528080885477071,16.908764422903435,0.012069068110566334,0.019115755334496498
358,0.25,0.001,0.012527532296956412,0.009536061321942277,16.764203263210096,0.011965883842405493,0.017130374376262938
359,0.25,0.001,0.012663105347862694,0.009598056921266519,17.17653176745972,0.01226019398105619,0.018981475116951124
360,0.25,0.001,0.012659632508356907,0.009548380256869226,17.435458004887604,0.01244500928257502,0.018554996166910444
361,0.25,0.001,0.01258677338394089,0.009603799744476898,16.716584071276095,0.01193189441204575,0.01567993113504989
362,0.25,0.001,0.012515624881857538,0.0095760247177567,16.473518640284727,0.01175840017150944,0.011773317120969296
363,0.25,0.001,0.01254356880919625,0.009471173722976626,17.217702165211595,0.012289580417709918,0.011249768547713757
364,0.25,0.001,0.01249308500215239,0.00952067271769735,16.65739887581136,0.011889649447402827,0.011147989758423396
365,0.25,0.001,0.012575742255199451,0.009489062708946628,17.297751948684798,0.012346718021902068,0.014560815612120288
366,0.25,0.001,0.012528795260703728,0.009516369624549468,16.881633005296386,0.012049702359240818,0.014974633497851235
367,0.25,0.001,0.012535509831910872,0.00950647624291256,16.974705416390858,0.012116135200850005,0.013783633043723447
368,0.25,0.001,0.012524364094570382,0.009433642625550612,17.32040293827894,0.012362885751805096,0.01415249239653349
369,0.25,0.001,0.012586424161634874,0.009525621215238582,17.152740038019406,0.012243212018572024,0.015878145849066123
370,0.25,0.001,0.012502666687545546,0.009459179864796287,17.055700227239665,0.012173947342783487,0.012967008698199476
371,0.25,0.001,0.012526187206904552,0.00946530496903779,17.153183904035537,0.012243528839425793,0.013146353087254934
372,0.25,0.001,0.012550118488988755,0.009473786680737626,17.239763017614774,0.012305326921923465,0.012435466849378176
373,0.25,0.001,0.01248152262593596,0.00945605272663796,16.954734599617833,0.012101880513645849,0.013725135608443193
374,0.25,0.001,0.012449714624028283,0.009410629399533773,17.031034496034266,0.012156341538925244,0.014078850857913494
375,0.25,0.001,0.012533178742260911,0.009458845818961602,17.228561978417236,0.012297331890376328,0.020379966257938316
376,0.25,0.001,0.012499956336672531,0.009474862442194865,16.952626759130464,0.012100375987958932,0.01798616655703102
377,0.25,0.001,0.012493308607755577,0.009391644010298798,17.381727852942486,0.01240665799639007,0.013124545903078147
378,0.25,0.001,0.012557298289160254,0.009555786245827312,16.82047394186465,0.012006048495263846,0.017071875211383616
379,0.25,0.001,0.012560164684958876,0.009458947086848715,17.37922425303118,0.012404870987174289,0.01625377219170332
380,0.25,0.001,0.012485604281547989,0.009420285631599244,17.17804551510007,0.012261274457601763,0.014294321382684367
381,0.25,0.001,0.012502356679727244,0.009443111132666916,17.144012473196685,0.012236982493359519,0.012877446333212512
382,0.25,0.001,0.012447470332351761,0.00943812313672439,16.864380966433203,0.01203738827011649,0.01457297442747014
383,0.25,0.001,0.012502947669502081,0.009420649475454596,17.2731986849743,0.012329192494628338,0.014406946354678698
384,0.25,0.001,0.01254300958547939,0.00950087573998726,17.048117820440208,0.012168535203740333,0.016127131214099272
385,0.25,0.001,0.012525994442489351,0.009433646507853723,17.32951824108943,0.012369392035038852,0.011966773441859655
386,0.25,0.001,0.0124171956573499,0.009444929977693955,16.656576804145654,0.011889062672480839,0.011378323659300804
387,0.25,0.001,0.01247407968089363,0.009447300591555534,16.962069839583258,0.012107116230965923,0.01658215280622244
388,0.25,0.001,0.01243948690834139,0.009332348850682619,17.412403049424945,0.012428553211580975,0.013568950816988945
389,0.25,0.001,0.012465563938279764,0.009477843932686997,16.743183572077587,0.011950880493988285,0.012969364146036761
390,0.25,0.001,0.012450637001174289,0.009404787970126088,17.068938592289665,0.012183396568372352,0.013140456351850714
391,0.25,0.001,0.0124397913088665,0.009465470069085892,16.66809586399422,0.011897284699496233,0.013932367919811181
392,0.25,0.001,0.012490416238166168,0.009398847528008474,17.325150813571852,0.012366274670643721,0.011994793878069945
393,0.25,0.001,0.012490435342108681,0.009417750197301423,17.219327014808567,0.012290740196151725,0.01262592404548611
394,0.25,0.001,0.012453139716582953,0.009452815999988871,16.813814462745437,0.012001295119732646,0.015093413979879447
395,0.25,0.001,0.012440805267499584,0.009359688216317058,17.26658034379708,0.012324468482367653,0.01178910636476108
396,0.25,0.001,0.012417597932779762,0.009385606000849474,16.99128284410296,0.012127967768810108,0.012706005679709571
397,0.25,0.001,0.012514836292533207,0.009486087636622077,16.97310735777399,0.012114994545163448,0.015064521293554987
398,0.25,0.001,0.012450129808922563,0.009335828159976639,17.452547646009343,0.012457207456109452,0.012339446427566665
399,0.25,0.001,0.01244017208859703,0.00943843816250012,16.821716797544553,0.012006935615663492,0.016641826501914432
400,0.25,0.001,0.01245522012774925,0.009337861959846136,17.469675447318625,0.012469432867465114,0.017223032723580087
401,0.25,0.001,0.012522434230730385,0.009516785366516603,16.843656332883768,0.012022595526683631,0.01752853619733027
402,0.25,0.001,0.012448817259238444,0.009394672183066125,17.115430224024397,0.012216581173464951,0.013296840180243765
403,0.25,0.001,0.012415718160328772,0.00933214816249752,17.280326301451367,0.012334280015311469,0.012838352604636125
404,0.25,0.001,0.012337246384927638,0.009342527115936918,16.78240780687222,0.011978877806475533,0.012734832375177316
405,0.25,0.001,0.012503806069304018,0.009526741209140963,16.683471988034853,0.01190825980587784,0.016526871227792332
406,0.25,0.001,0.01232535431406721,0.009252185967705679,17.22203615025615,0.012292673911674627,0.011738032102584839
407,0.25,0.001,0.012359867046649544,0.00932952539251115,16.982034991574892,0.01212136687478579,0.010886178751076971
408,0.25,0.001,0.012403209674372133,0.009342465895995945,17.152408599853516,0.012242975446005364,0.011126939872545856
409,0.25,0.001,0.01241665595484248,0.009340096415637822,17.241039751858963,0.012306238224024955,0.01072671969554254
410,0.25,0.001,0.012423681301725104,0.00929330035884957,17.542656376510514,0.012521524894011787,0.013102297272000994
411,0.25,0.001,0.012373321571367992,0.009409634962110128,16.60850000711842,0.011854746614645553,0.012873508435274874
412,0.25,0.001,0.0124281929078884,0.009394092362709602,17.003099820355068,0.01213640244136693,0.012841614628476756
413,0.25,0.001,0.012441984210034304,0.009323212219182806,17.477598172687767,0.01247508791769291,0.012317523759390627
414,0.25,0.001,0.012416252453422162,0.009362802130985342,17.11153653697659,0.01221380195358786,0.018349495849439075
415,0.25,0.001,0.012381539811266213,0.009311705317959086,17.20335194805753,0.012279337578913299,0.017163754706936225
416,0.25,0.001,0.012359576824596517,0.009330467441426826,16.97512862753923,0.012116437278757481,0.014304501403655325
417,0.25,0.001,0.012387769744144302,0.009313683176099152,17.227180806924235,0.012296346043486249,0.01729225487049137
418,0.25,0.001,0.012417486021359716,0.00933439932832404,17.277618130690506,0.012332346988358677,0.01748795368309532
419,0.25,0.001,0.012360209168965216,0.00930380810473725,17.128071474423308,0.012225604193021633,0.01815654244273901
420,0.25,0.001,0.012457293907812781,0.009473252086523774,16.722570824568045,0.011936167612111382,0.019090818108192513
421,0.25,0.001,0.012401580935296782,0.00931278273342801,17.30962528642826,0.012355192923931665,0.016501673364213536
422,0.25,0.001,0.012383661974935553,0.009339480695269537,17.059590998202495,0.012176724481229475,0.012833112983831338
423,0.25,0.001,0.012415994552349109,0.009413475312688335,16.826117495741634,0.012010076727866976,0.014482972478227956
424,0.25,0.001,0.012402948957822752,0.009330131104925763,17.220072281553342,0.012291272149574121,0.017150203830429485
425,0.25,0.001,0.012369213677409339,0.009356400135723877,16.883806986291194,0.012051254094426263,0.013651001932365554
426,0.25,0.001,0.012423864641069815,0.009322680898578559,17.379033341969407,0.012404734719464246,0.014234427229634352
427,0.25,0.001,0.012317204417759771,0.009259907167413494,17.133093404439524,0.01222918872551001,0.017052658567471162
428,0.25,0.001,0.012376107004477575,0.009337019749570801,17.031045763927573,0.01215634958167564,0.013637106599552291
429,0.25,0.001,0.012411605893670824,0.009301242328251068,17.430477882367633,0.012441454591268832,0.012047148841832365
430,0.25,0.001,0.012330130966461971,0.009299800180621428,16.98197355116212,0.012121323020101443,0.011747194321027823
431,0.25,0.001,0.012376441474031769,0.009308614931553258,17.192099679149603,0.012271305980834835,0.013922255752342088
432,0.25,0.001,0.012362394425974983,0.009258307968255554,17.39530162062436,0.012416346624285767,0.01401565144104617
433,0.25,0.001,0.012306038171964897,0.00925480854196375,17.09909134704026,0.012204918877259286,0.017085594657276357
434,0.25,0.001,0.012398753788399641,0.009375761538382628,16.940848969422092,0.012091969285811629,0.013840463544641222
435,0.25,0.001,0.012344553574110977,0.009249539077970227,17.344460485163243,0.012380057448367768,0.011983799082892281
436,0.25,0.001,0.012324616764661346,0.009263708056155033,17.15333250103041,0.012243634904375737,0.011421864054032735
437,0.25,0.001,0.012335483574117028,0.009287639669471746,17.080118729941564,0.012191376680900473,0.012737828040761607
438,0.25,0.001,0.012426230475719476,0.009321320995550783,17.399913237221522,0.01241963828495469,0.012892983055540494
439,0.25,0.001,0.012289118374467722,0.009228446753157891,17.152003797042177,0.012242686507524752,0.012513853742608003
440,0.25,0.001,0.012360625979909995,0.009354563636434271,16.84597382754707,0.01202424969846329,0.01541310056511845
441,0.25,0.001,0.012361202019053849,0.00926802877345344,17.334143323656043,0.012372693307391894,0.010900159632521016
442,0.25,0.001,0.012280326988332955,0.009235634621206938,17.062457628668593,0.012178770612896926,0.01476477472377675
443,0.25,0.001,0.012341958042621337,0.009283441174818378,17.139928888228418,0.012234067728928207,0.0132137302841459
444,0.25,0.001,0.012340313215109823,0.009308493412239584,16.990319765192258,0.012127280346318528,0.012431615431393896
445,0.25,0.001,0.012268566375912338,0.009250492601726402,16.913285429428136,0.01207229509595156,0.013563648664525576
446,0.25,0.001,0.012260335258812607,0.009207185263171207,17.109851158794026,0.012212598971301945,0.01652411704084703
447,0.25,0.001,0.012333950825792675,0.009322396518262511,16.876751857872097,0.01204621831397009,0.012392234057188034
448,0.25,0.001,0.012344531760084298,0.009316197308275083,16.970787184893673,0.012113338461737098,0.016048804723790715
449,0.25,0.001,0.012327895443843502,0.009259547993076178,17.195019922410644,0.012273390380021874,0.013531884577657496
450,0.25,0.001,0.012288170991418131,0.009248286797546763,17.035511281143435,0.012159536960130932,0.01264287724292704
451,0.25,0.001,0.012372265184861684,0.009281157737481676,17.322566105091543,0.012364429768088181,0.014797369949519634
452,0.25,0.001,0.012324650885911517,0.009244479763796918,17.261279764681987,0.01232068505687508,0.013059971721044608
453,0.25,0.001,0.012321958004327074,0.009238321587925145,17.28069896565849,0.012334546014031757,0.015175969605999333
454,0.25,0.001,0.0123974965416394,0.009324317311923994,17.222096339659657,0.012292716873418742,0.0155769232660532
455,0.25,0.001,0.01232875322634849,0.009226151202175138,17.386981977326215,0.012410408263616142,0.013044537045061588
456,0.25,0.001,0.012275196310760792,0.00923687172085735,17.026771263492577,0.012153298546390134,0.011689659474151475
457,0.25,0.001,0.0123651853824942,0.009278759848558738,17.29632920756351,0.012345702503614211,0.011846738468323435
458,0.25,0.001,0.012322359847433986,0.009238077628729526,17.28431871251201,0.012337129702007146,0.013939117879739829
459,0.25,0.001,0.012392325670938018,0.009331566419271756,17.152494840203477,0.012243037002286565,0.012875946903867381
460,0.25,0.001,0.012370889765526626,0.009188552789269638,17.83381576185689,0.012729347438870013,0.015565455492053713
461,0.25,0.001,0.012287922442286311,0.009245282852071537,17.050952660294108,0.012170558644035765,0.012710790815097945
462,0.25,0.001,0.012460567080792186,0.009349205062292327,17.436072999280263,0.012445448250735376,0.01635306528104203
463,0.25,0.001,0.012335990970700497,0.009188843389874106,17.636615748768865,0.01258859082710126,0.021537409563149725
464,0.25,0.001,0.01230052199567438,0.009315483080649074,16.728157550027685,0.011940155281961231,0.016095506958663464
465,0.25,0.001,0.012402683320104663,0.009218663243925323,17.84324728809383,0.012736079434756482,0.014020972752145358
466,0.25,0.001,0.012264257316277567,0.00917385036112874,17.318641565688488,0.012361628526544245,0.011318891176155635
467,0.25,0.001,0.012351018370195845,0.009319852015937035,16.98665604360109,0.012124665270236324,0.012640483012156827
468,0.25,0.001,0.012321688738107406,0.00921803111464267,17.392895943022765,0.012414629509652223,0.015945781022310257
469,0.25,0.001,0.012304025009601413,0.009211696449916715,17.3294094825727,0.012369314405833476,0.012679823408169406
470,0.25,0.001,0.012293065463646592,0.009204401317381625,17.30887538125829,0.012354657659713268,0.012948165381593364
471,0.25,0.001,0.01233192148895861,0.00925888114890587,17.22131882418661,0.012292161901632128,0.0134452615997621
472,0.25,0.001,0.012317410437927924,0.009176961873285903,17.5990736523071,0.012561794184373377,0.014330459093408925
473,0.25,0.001,0.012281855987707544,0.009183483970444004,17.36327714457523,0.012393488325892384,0.011618345975875854
474,0.25,0.001,0.01228759348538745,0.009291473631994417,16.790255993673487,0.011984479652871867,0.012431284279695578
475,0.25,0.001,0.012267400734298637,0.009111131229556185,17.687733846228337,0.012625077691811804,0.012872030293302876
476,0.25,0.001,0.012238531741238356,0.009233978686652062,16.837515397104877,0.01201821227487857,0.015118446600224291
477,0.25,0.001,0.012282260850622527,0.00918881087316583,17.335693667722353,0.012373799905583406,0.016643124632537365
478,0.25,0.001,0.012233434840778693,0.009183338783061944,17.092740272539594,0.012200385633504349,0.014796137144523007
479,0.25,0.001,0.012273371981039609,0.009228617761619647,17.062801920514183,0.012179016360110052,0.014517234239195074
480,0.25,0.001,0.012212812390789286,0.009072254986155942,17.599683607423003,0.01256222955561956,0.013442947396210261
481,0.25,0.001,0.01220128865908255,0.009162691307811208,17.028300296351762,0.012154389933156148,0.0136293497468744
482,0.25,0.001,0.012292596113633614,0.009168367490912281,17.508177054671712,0.012496914385918424,0.017647564943347658
483,0.25,0.001,0.012319303575825747,0.009267210472142861,17.10393034338125,0.012208372836103676,0.01631338521838188
484,0.25,0.001,0.01227518600383752,0.009169656310153063,17.40338941314204,0.012422119495461842,0.015039726692650999
485,0.25,0.001,0.012282828271268559,0.009193881128766245,17.31045935280604,0.01235578826038975,0.013210161056901728
486,0.25,0.001,0.012259897709271373,0.009159244300139419,17.376062327114045,0.012402614080738077,0.015824534265058383
487,0.25,0.001,0.01233032883917074,0.009293246029190048,17.01981318079572,0.012148332034829207,0.019225227646529675
488,0.25,0.001,0.012247233004169432,0.009185669823242116,17.156999909574935,0.0122462526121163,0.013393966880227839
489,0.25,0.001,0.01224379724119607,0.009180799296543037,17.16504058661692,0.012251991853402514,0.012139007848288332
490,0.25,0.001,0.012277040813402133,0.00915205043979316,17.512445537928347,0.012499961126287186,0.013219598015504224
491,0.25,0.001,0.012285910615607167,0.009198199697355062,17.30353273915914,0.012350844210677475,0.012802482316536563
492,0.25,0.001,0.012330826883812976,0.009216609583010437,17.452073178720806,0.012456868792805715,0.015234647983951228
493,0.25,0.001,0.012258186140560113,0.009132281625449795,17.517568804099984,0.012503617990078503,0.013345465862325259
494,0.25,0.001,0.012333717035865261,0.00924002978193636,17.337024217389747,0.01237474961983565,0.014524239115417004
495,0.25,0.001,0.012289268054997261,0.009170239223446912,17.47903795660781,0.012476115600719352,0.012726434506475925
496,0.25,0.001,0.012259432445893248,0.00918787005239147,17.213036869745057,0.01228625044235907,0.013268762667264258
497,0.25,0.001,0.012273147177407153,0.00908208539597604,17.88271060881934,0.012764247401013092,0.012568919653339046
498,0.25,0.001,0.012231450226785954,0.009103989955597056,17.52628820212278,0.012509841686026254,0.012940332692648684
499,0.25,0.001,0.012238355159897176,0.009222473024323961,16.901002813431738,0.012063528060979113,0.014042968728712626
500,0.25,0.001,0.012237444573768155,0.00907407780167137,17.727507368796967,0.01265346707266022,0.019031053941164697
