epoch,beta,learning_rate,train_loss,train_reconstruction_loss,train_kl_unnormalized,train_kl_normalized,mean_unclipped_gradient_norm
1,0.0,0.001,0.07720093598419969,0.07720093598419969,53.93885742895531,0.038500255124165106,0.15363845063580406
2,0.02,0.001,0.054002322256565094,0.04859420115297491,378.8389023289536,0.2704060687572831,0.10028392035100195
3,0.04,0.001,0.04132117082675298,0.03852215742297245,98.03545425877427,0.06997534208335066,0.10852280838621987
4,0.06,0.001,0.03746731285796021,0.03387731539480614,83.82644167813388,0.059833291704592347,0.07730615118311511
5,0.08,0.001,0.03562129379221887,0.03295556218786673,46.68363756122011,0.033321654219286304,0.03132798170877828
6,0.1,0.001,0.03382984198855631,0.0316880371308688,30.00668716430664,0.021418049367813448,0.043143830365604825
7,0.12,0.001,0.03161510678403305,0.029438271497686703,25.414554249156605,0.018140295681053964,0.04908632694019212
8,0.14,0.001,0.029015069770993607,0.0266193077532631,23.974731214118727,0.017112584735273894,0.03707500547170639
9,0.16,0.001,0.027081593137347336,0.024295205419713802,24.39830745350231,0.017414923235904576,0.03382056765258312
10,0.18,0.001,0.025235311890190296,0.02222182550890879,23.45497038870147,0.016741591997645588,0.026535795484152105
11,0.2,0.001,0.023850219719337696,0.020748378088076908,21.728400952888258,0.015509208388928093,0.028305759136047628
12,0.22,0.001,0.022619845458503925,0.019145042833053703,22.12817752722538,0.015794559262830393,0.03000516092611684
13,0.24,0.001,0.021381128805153297,0.01779508020615939,20.933560053507488,0.014941870130983219,0.033376128723224006
14,0.25,0.001,0.020744382883563187,0.01695047313291015,21.261069268891305,0.015175638307559818,0.0231803552661505
15,0.25,0.001,0.020519714576728416,0.016896843261113674,20.302568898056492,0.014491483867278011,0.03953045958446132
16,0.25,0.001,0.020019477571953426,0.01654472726989876,19.472499963008996,0.013899000687372588,0.04779910854995251
17,0.25,0.001,0.020197569477287205,0.016776713175755558,19.17047962997899,0.013683425860084931,0.0775429264952739
18,0.25,0.001,0.019350069772565003,0.01591546167478417,19.247542988170277,0.013738431825960226,0.019735013445218403
19,0.25,0.001,0.019198136855707024,0.015803571677569187,19.023142496744793,0.013578260168982722,0.029364328365772963
20,0.25,0.001,0.018987609976620384,0.015617346729744564,18.886954741044477,0.0134810526345785,0.02403285064631038
21,0.25,0.001,0.01888271906610691,0.015487591340912111,19.026295228437945,0.013580510512803673,0.03938948570026292
22,0.25,0.001,0.018924267228805657,0.015420100877456593,19.63734771266128,0.014016665034019472,0.04185530522631274
23,0.25,0.001,0.018592099292260227,0.015300891757237188,18.443928718566895,0.013164831348013486,0.023326524015929963
24,0.25,0.001,0.018439061375278416,0.015096227384426376,18.733243653268524,0.013371337368500017,0.02355874635072218
25,0.25,0.001,0.018391468195301113,0.014951185407963667,19.279345136700254,0.013761131432334229,0.03235200451066097
26,0.0,0.001,0.014296657688012629,0.014296657688012629,25.021488883278586,0.017859735105837677,0.042453688465886645
27,0.02,0.001,0.01368389797933174,0.012904698198491877,54.58294539018111,0.038959989571863744,0.04231209416563312
28,0.04,0.001,0.014241364586985472,0.012254016276336077,69.60687556411281,0.049683708468317496,0.04234984931018618
29,0.06,0.001,0.014571417292410677,0.012277730909938162,53.55758008089933,0.038228108551676895,0.034263611408985324
30,0.08,0.001,0.014777622129203695,0.0127629197174401,35.282475211403586,0.025183779594149597,0.04164760373532772
31,0.1,0.001,0.015008014090584986,0.012849928557195446,30.234778779925723,0.021580855660189666,0.01993511405049099
32,0.12,0.001,0.015318074489407467,0.012706965208053589,30.484703930941496,0.021759246203384364,0.028287741924739547
33,0.14,0.001,0.015737559448814754,0.012938453815877438,28.011050253203422,0.019993611886654834,0.03265234134677383
34,0.16,0.001,0.016025504774668,0.01298806584919944,26.596577846642695,0.01898399560788201,0.03726354143064883
35,0.18,0.001,0.016186440758632892,0.013101082436288849,24.014369039824516,0.017140877258975385,0.027837762453903753
36,0.2,0.001,0.016413846532955315,0.013164201751351357,22.763763601129707,0.016248225268472312,0.029037302773859765
37,0.22,0.001,0.016636527679634815,0.013344979308771364,20.96117823051684,0.014961583319426723,0.022238631318840716
38,0.24,0.001,0.01706856291628245,0.01362684950458281,20.09100341796875,0.01434047353174072,0.04506213217973709
39,0.25,0.001,0.01715465397997336,0.013689987333209225,19.415992043235086,0.013858666697526828,0.06448821102579434
40,0.25,0.001,0.017024770999948185,0.013622869257674072,19.0642563790986,0.01360760626630878,0.04318286613043812
41,0.25,0.001,0.016781759476571373,0.013441262766718864,18.720143578269266,0.013361986851013037,0.029906907946699195
42,0.25,0.001,0.01680394803935831,0.013391466303305193,19.123547929705996,0.013649927144686649,0.042422995074755616
43,0.25,0.001,0.016516177265933067,0.013240059555479975,18.359365463256836,0.013104472136514516,0.025227791940172512
44,0.25,0.001,0.01658360468167247,0.013321843647369833,18.27890800707268,0.013047043545376644,0.02723550455023845
45,0.25,0.001,0.016443680576754337,0.012999270788647911,19.302472259059098,0.0137776390143177,0.028990459938844044
46,0.25,0.001,0.01647452186002876,0.013223668024169676,18.21778476599491,0.013003415250531699,0.019789045366148155
47,0.25,0.001,0.01633333922787146,0.012992705077384457,18.720914725101355,0.013362537277017384,0.027198269963264465
48,0.25,0.001,0.016122465219461556,0.012985865275065104,17.577506845647637,0.012546400318092532,0.025193065974033542
49,0.25,0.001,0.01609162613749504,0.012737489926318327,18.796578898574367,0.013416544538596979,0.02418992927090989
50,0.25,0.001,0.01606701667223013,0.01293270510028709,17.564682989409476,0.012537246958893274,0.027162045757803652
51,0.0,0.001,0.012193203367518656,0.012193203367518656,23.922854336825285,0.017075556271823902,0.03522085315651364
52,0.02,0.001,0.011714089012733011,0.010993204785115791,50.497939601089016,0.036044210992925776,0.016236321793662176
53,0.04,0.001,0.012499848804013296,0.010746032338250767,61.42742307258375,0.04384541261426392,0.02795701442907254
54,0.06,0.001,0.012780988476041592,0.01083884264032046,45.34910410100763,0.032369096431839856,0.021459341773556337
55,0.08,0.001,0.01290931324051185,0.01121176832891775,29.728257034764145,0.021219312658646784,0.013698627810097404
56,0.1,0.001,0.013238695873455568,0.011262978568221584,27.679798010623816,0.01975717202756875,0.02007193790955676
57,0.12,0.001,0.013603665753070152,0.01130291074514389,26.861315929528438,0.01917295926447426,0.02642826032307413
58,0.14,0.001,0.013943849921678051,0.01146946017715064,24.761572866728812,0.01767421332386068,0.030600765409568947
59,0.16,0.001,0.014266726532668778,0.011590384483111628,23.434720935243547,0.016727138426298034,0.030544749564594693
60,0.18,0.001,0.014558673384740498,0.011697084445393446,22.2727006854433,0.01589771640645489,0.03977071064420872
61,0.2,0.001,0.014857336483670004,0.011845541158408829,21.09762446085612,0.015058975346792378,0.03670316675884856
62,0.22,0.001,0.015087940758376411,0.011936396332175442,20.06960851495916,0.014325202366137874,0.024535506549808715
63,0.24,0.001,0.015148724316421783,0.011805051768367941,19.51868877988873,0.013931969150527287,0.01939000530789296
64,0.25,0.001,0.015241205268962816,0.01191897594341726,18.617772709239613,0.013288916994460824,0.026499409642484453
65,0.25,0.001,0.015324898882571495,0.012138825700138554,17.854753667658027,0.012744292410890812,0.01702203622294797
66,0.25,0.001,0.01504495031567234,0.01186004684617122,17.848200248949457,0.012739614738721953,0.019546726149403386
67,0.25,0.001,0.01505388364647374,0.011984279492136204,17.20206173983487,0.012278416659411043,0.014751821756362915
68,0.25,0.001,0.015021843327717348,0.011799912956176382,18.055698105783172,0.01288772170291447,0.015270765353408124
69,0.25,0.001,0.015042122171232195,0.011899547877185272,17.610987692168266,0.012570298138592624,0.018940605740580294
70,0.25,0.001,0.015003914521499113,0.011945192448117516,17.141079411362156,0.01223488894458398,0.01833414477813575
71,0.25,0.001,0.014924125689448732,0.011674374483074203,18.21160553440903,0.01299900466410352,0.0254758649195234
72,0.25,0.001,0.014970861318888086,0.011899558573283932,17.211581461357348,0.01228521160696456,0.0167954433709383
73,0.25,0.001,0.014831614370147387,0.011753483449645115,17.24984579375296,0.012312523764277631,0.018406014889478683
74,0.25,0.001,0.014808857757033724,0.011799651169867226,16.86359336159446,0.012036826096784055,0.021654039414392576
75,0.25,0.001,0.014817900250129627,0.011750949913579407,17.187190315940164,0.012267801795817391,0.01399460124472777
76,0.0,0.001,0.01112840183530793,0.01112840183530793,23.98189197887074,0.017117695916395958,0.020059939577347703
77,0.02,0.001,0.010901852623757088,0.010165141726082022,51.60660761052912,0.03683555147075597,0.015341238843070136
78,0.04,0.001,0.01153676189256437,0.009854981703965954,58.904350743149266,0.042044504456209324,0.011240031052794721
79,0.06,0.001,0.011705111373554577,0.010031226175752554,39.08522334243312,0.027898089466404794,0.011834514948228994
80,0.08,0.001,0.011887424512568748,0.010362241699388533,26.709762920032848,0.019064784382607315,0.018954753875732422
81,0.1,0.001,0.01225334589341373,0.010392053532555248,26.0767075509736,0.01861292473302898,0.01615529538442691
82,0.12,0.001,0.012574959292330525,0.010476314575608933,24.50167719523112,0.01748870606369102,0.025377372538463935
83,0.14,0.001,0.012863845818422058,0.010547418457766375,23.180819887103457,0.016545909983657,0.014806805644184351
84,0.16,0.001,0.013206788536274073,0.010674249860599186,22.17554098187071,0.015828366154083305,0.015399237318585316
85,0.18,0.001,0.013434243303808298,0.010727280299320366,21.069192944150984,0.01503868161609635,0.020773453017075855
86,0.2,0.001,0.013815839266912504,0.010901326144283468,20.416163589015152,0.014572565017141437,0.024502980212370556
87,0.22,0.001,0.014040838108595573,0.011002739947853666,19.347162304502547,0.013809537690579977,0.02676768373284075
88,0.24,0.001,0.014315524448951086,0.011168362459901608,18.371558622880414,0.013113175319686234,0.022371372518440086
89,0.25,0.001,0.014397441042643604,0.01113966889114994,18.25655440128211,0.013031088080858037,0.01956949496848716
90,0.25,0.001,0.014338109585823435,0.011231486854905432,17.409513415712297,0.012426490660751105,0.013465613230235048
91,0.25,0.001,0.014342209606459646,0.011137913235209206,17.956877448342063,0.012817185901743085,0.01843979809847143
92,0.25,0.001,0.014428851392233011,0.011287040077149868,17.606710491758406,0.012567245176130197,0.040233901908828154
93,0.25,0.001,0.014394747206207478,0.011381614219510195,16.885597229003906,0.012052531926483872,0.032556543230182595
94,0.25,0.001,0.014396535514882116,0.011252655421919895,17.618304628314394,0.012575520791088077,0.0345289416404234
95,0.25,0.001,0.014290287864930702,0.011269657421066906,16.927613171664152,0.012082521892693899,0.03453632133702437
96,0.25,0.001,0.014314090042854801,0.011242985556071455,17.210469101414535,0.012284417631273758,0.030540515151288774
97,0.25,0.001,0.014245981745647661,0.011136058887297457,17.42800845521869,0.01243969197374639,0.020841056998405192
98,0.25,0.001,0.014158799736337229,0.011125057766383345,17.0010898474491,0.012134967771198503,0.025403808388445113
99,0.25,0.001,0.01421222776513208,0.011112274319836588,17.37213897705078,0.01239981368811619,0.01821333294113477
100,0.25,0.001,0.014131263180664091,0.011139316032781746,16.766871885819867,0.01196778864084216,0.011404157409237491
101,0.25,0.001,0.014110092638116894,0.011047968330482641,17.16014492150509,0.012248497445756667,0.02134699100214574
102,0.25,0.001,0.014193518990368553,0.011204423608653473,16.75089055841619,0.011956381554900922,0.026050128353138764
103,0.25,0.001,0.014085935485182386,0.010970201117522789,17.4605739477909,0.012462936436681584,0.01918874505079455
104,0.25,0.001,0.014139784076674418,0.011132680867431742,16.851808085586086,0.012028414051096422,0.024131819398866758
105,0.25,0.001,0.014009713759702263,0.010900491425259546,17.42408261154637,0.012436889801246518,0.02258941365612878
106,0.25,0.001,0.014072710563513365,0.011045674313649986,16.963510744499438,0.01210814471413236,0.019885959517624643
107,0.25,0.001,0.013971262809002039,0.010930805213072083,17.038724957090437,0.012161830804489963,0.02062375967701276
108,0.25,0.001,0.013996707331953627,0.01097741773860021,16.92009873823686,0.012077158271403897,0.02418913526667489
109,0.25,0.001,0.013938092175080921,0.010947147017401276,16.761257749615293,0.011963781405863879,0.016955345558623474
110,0.25,0.001,0.01393992072817954,0.010898587717251345,17.043630253184926,0.012165332086498877,0.016843383096986346
111,0.25,0.001,0.013994373183584574,0.010987855352912888,16.84852611657345,0.012026071460794752,0.02417201590206888
112,0.25,0.001,0.013959902395127398,0.010926425598110214,16.99960283799605,0.012133906379725947,0.027908385627799563
113,0.25,0.001,0.014012803521120188,0.011011894848762136,16.817092086329605,0.01200363460837231,0.028619323650168046
114,0.25,0.001,0.013909452002156864,0.010923789531895609,16.73165176853989,0.01194264937083504,0.02457627560943365
115,0.25,0.001,0.01407989820070339,0.011010923987310944,17.19853112191865,0.012275896589520805,0.04822973327504264
116,0.25,0.001,0.014006095627943674,0.0110665543117758,16.4731901920203,0.011758165733062313,0.03430116528438197
117,0.25,0.001,0.013917570143486515,0.010903019175836534,16.893543474601977,0.012058203764883637,0.017527277167472575
118,0.25,0.001,0.013912930915301496,0.010913765199030891,16.807324264988754,0.011996662573154,0.017634520617624123
119,0.25,0.001,0.013837748461148956,0.010865972744244518,16.653831828724254,0.01188710337524929,0.016419877091215715
120,0.25,0.001,0.013861026445573027,0.010787963923631292,17.22144265608354,0.012292250289852633,0.015861452091485262
121,0.25,0.001,0.013823013555145624,0.010803531770679083,16.921176101222184,0.012077927267110766,0.01815319030235211
122,0.25,0.001,0.013782363272074497,0.010834599139563965,16.519270116632637,0.011791056471543639,0.016040916088968515
123,0.25,0.001,0.013814096790597294,0.010819682992543236,16.780694672555633,0.011977655012530787,0.0210829584652351
124,0.25,0.001,0.013809932480481539,0.010781759311529722,16.969883022886336,0.012112693092709733,0.029195044603612687
125,0.25,0.001,0.013771704426317505,0.01088946879926053,16.15204886234168,0.011528942799672861,0.016798865153557725
126,0.25,0.001,0.013676458969712257,0.010726324931690187,16.532551071860574,0.011800536096974,0.020710261538624763
127,0.25,0.001,0.01369272034163728,0.010803977958858013,16.188512975519355,0.011554970003939583,0.012955047086709075
128,0.25,0.001,0.013713449409062212,0.010712952578835415,16.814784888065223,0.012001987785913793,0.019239283373786345
129,0.25,0.001,0.013731327726308144,0.010712239157521364,16.91897270896218,0.01207635453887379,0.015970916694237128
130,0.25,0.001,0.01369883774807959,0.010721804066137835,16.68329585682262,0.011908134087667823,0.012050938171645006
131,0.25,0.001,0.013600611551241442,0.01065803144240018,16.490218364831172,0.011770320031999409,0.015588818221456475
132,0.25,0.001,0.013584558090025728,0.010674959486068197,16.30539067586263,0.011638394486697094,0.012045554506282011
133,0.25,0.001,0.013608854969568325,0.010666199621151794,16.490641015948672,0.011770621710170358,0.016603125880161922
134,0.25,0.001,0.01368349672041156,0.01069972441164833,16.72106101296165,0.011935089945011882,0.01249978867255979
135,0.25,0.001,0.013579124867013006,0.010636651592159813,16.489621711499762,0.011769894155246083,0.012962723357809914
136,0.25,0.001,0.013547116608330698,0.010611885932810379,16.449032754609078,0.011740922737051449,0.016425977150599163
137,0.25,0.001,0.013571312199487831,0.01063036678754019,16.481057947332207,0.01176378154698944,0.016777780113948718
138,0.25,0.001,0.013577158393507654,0.010606831729863628,16.645709760261305,0.01188130603873041,0.016120145097374916
139,0.25,0.001,0.013621629780214844,0.010674424582358562,16.516138539169773,0.011788821227101908,0.027066462362806003
140,0.25,0.001,0.013616422134818453,0.010693435274967642,16.38041906645804,0.011691947941797315,0.027813588165574603
141,0.25,0.001,0.013557398522442038,0.01065349228905909,16.27348974979285,0.011615624375298252,0.01899738320046001
142,0.25,0.001,0.013593737035989761,0.010662804611704567,16.42494519551595,0.01172372961849818,0.014739515984223949
143,0.25,0.001,0.013527867525364414,0.010604810251882582,16.38081336743904,0.011692229384324796,0.015009383774465986
144,0.25,0.001,0.013505962733743769,0.010533984863396847,16.65496352224639,0.011887911150782577,0.015685562406563096
145,0.25,0.001,0.013508412083893112,0.010568657438411858,16.474384943644207,0.011759018517947329,0.01828867207384772
146,0.25,0.001,0.013511064208366654,0.010570435107431629,16.479286193847656,0.011762516912096828,0.014368318538698886
147,0.25,0.001,0.013539305831672567,0.01053652452361403,16.8275870698871,0.012011125674437618,0.0197008251109057
148,0.25,0.001,0.013547500031012478,0.010553235752564488,16.77985723090894,0.011977057266887182,0.02305651880386803
149,0.25,0.001,0.013536732559177008,0.01064172437922521,16.223625645493016,0.011580032580651689,0.024138276051315997
150,0.25,0.001,0.013594921932301739,0.010673401199958542,16.37220272873387,0.011686083318154083,0.02193302640484439
151,0.25,0.001,0.013501486797450167,0.010481937590873602,16.921553178267047,0.01207819641560817,0.020685515366494656
152,0.25,0.001,0.013500127997813803,0.010589881546118042,16.309021574078184,0.01164098613424567,0.018267901096906927
153,0.25,0.001,0.01346715364718076,0.010481833367410934,16.729734883163914,0.011941281144299725,0.015739539224240515
154,0.25,0.001,0.013456139713525772,0.01055140657858415,16.27812518495502,0.01161893303708424,0.01591309170342154
155,0.25,0.001,0.013498185287145052,0.010546589693562551,16.54074154478131,0.011806382258944545,0.015378275058335729
156,0.25,0.001,0.013633616861294617,0.010675185190683062,16.579051075559676,0.011833726677772789,0.028635714824000996
157,0.25,0.001,0.013485398538636438,0.010568581267514011,16.345844182101164,0.011667269223484057,0.022376021784212854
158,0.25,0.001,0.013387979770248587,0.010428619613362984,16.584254062536992,0.011837440444351886,0.01681221793923113
159,0.25,0.001,0.013449413363229145,0.01047858042698918,16.648548126220703,0.011883331995874878,0.019390944288008742
160,0.25,0.001,0.013523033396764235,0.010546774744535938,16.6789533441717,0.011905034506903426,0.018109794706106186
161,0.25,0.001,0.013386908128406063,0.010412226826178305,16.670114864002574,0.011898725812992558,0.0180898058331675
162,0.25,0.001,0.013503785075789148,0.010594032676608273,16.306253837816644,0.01163901059087555,0.022324578060458105
163,0.25,0.001,0.013425613499500534,0.010407148211291342,16.915479428840406,0.012073861119800433,0.01868131011724472
164,0.25,0.001,0.013360785066404125,0.010466479724555305,16.219687779744465,0.011577221827083845,0.017467700669334993
165,0.25,0.001,0.013389000499790365,0.010406933470883152,16.71150386694706,0.011928268284758785,0.017836819195912942
166,0.25,0.001,0.013342646571497122,0.010440269400450316,16.264921130556047,0.011609508301610312,0.01658779951847262
167,0.25,0.001,0.013384587103218742,0.010442741666779373,16.48610273996989,0.011767382398265447,0.02847610952125655
168,0.25,0.001,0.013420342157284418,0.010497462794636234,16.37981550621264,0.011691517135055418,0.03621999236444632
169,0.25,0.001,0.013376922769979998,0.010481771956564802,16.22442488236861,0.011580603056651399,0.020650079577333398
170,0.25,0.001,0.013406856098409855,0.010379123529701523,16.967414046778824,0.012110930797129781,0.01712229320158561
171,0.25,0.001,0.013457144921024641,0.010494233786382458,16.60415441339666,0.011851644834687123,0.014837634542749988
172,0.25,0.001,0.013365721188937172,0.01039577258581465,16.643591794100676,0.01187979428558221,0.016779868967003293
173,0.25,0.001,0.013328883627598936,0.010366919140021006,16.598849498864375,0.011847858314678356,0.016512783554693062
174,0.25,0.001,0.013394228210954956,0.010467979210344229,16.39869990493312,0.011704996363264183,0.02565209200191829
175,0.25,0.001,0.013322680285482696,0.010410273927405025,16.3211257240989,0.011649625784510276,0.023600191188355286
176,0.25,0.001,0.013337790655593077,0.010394424143614191,16.49462520714962,0.011773465529728494,0.015655358632405598
177,0.25,0.001,0.013289144432002848,0.010320815963275505,16.634513305895258,0.01187331427972538,0.012824468883789249
178,0.25,0.001,0.013353684804204739,0.010416393083604899,16.460584264813047,0.011749167926347642,0.020002530473801825
179,0.25,0.001,0.013314423856861664,0.010379658165303144,16.446427229678992,0.011739062976216269,0.010728708727078306
180,0.25,0.001,0.013306772618582754,0.01032030890046647,16.73614247639974,0.011945854729764267,0.017638151947822835
181,0.25,0.001,0.013378799328524055,0.0103760018210971,16.82767764004794,0.012011190321233363,0.02147071710270312
182,0.25,0.001,0.013381391820130926,0.010424945108366735,16.56792808301521,0.011825787354043691,0.02995998640027311
183,0.25,0.001,0.013428876204698376,0.01048701811073856,16.48617310957475,0.011767432626391685,0.02145570858071248
184,0.25,0.001,0.01328913178859335,0.010349906501219128,16.471419247713957,0.011756901675741583,0.015493448513249556
185,0.25,0.001,0.013343251282067009,0.010362326336855238,16.705104249896426,0.011923700392502802,0.01583695841125316
186,0.25,0.001,0.013261584621487242,0.010321912666161856,16.47392122673266,0.011758687528003325,0.012659836974408891
187,0.25,0.001,0.013291506999821373,0.010359157836346916,16.43288606585878,0.011729397620170437,0.01447835968186458
188,0.25,0.001,0.01323270628398115,0.010308393390115463,16.387849865537703,0.011697251866907711,0.019566660850412317
189,0.25,0.001,0.013170115790809647,0.010280681830463987,16.1923885345459,0.011557736284472446,0.01642991105715434
190,0.25,0.001,0.013216856810631174,0.01023683301878698,16.700052694840863,0.011920094714376063,0.017754216988881428
191,0.25,0.001,0.013179355611403784,0.010289864078389875,16.192710760867957,0.011557966281847222,0.017901588541766007
192,0.25,0.001,0.01324692622504451,0.010279519878553621,16.629344737890996,0.01186962508057887,0.027138057578768995
193,0.25,0.001,0.013245672326196323,0.010345700422696995,16.25144351612438,0.011599888305584853,0.019228140823543072
194,0.25,0.001,0.013277483031605228,0.010354417291554537,16.38086076216264,0.011692263213535075,0.02234224219703012
195,0.25,0.001,0.013263858177445152,0.010307311729499788,16.568486936164625,0.011826186249939061,0.023667465274532635
196,0.25,0.001,0.01320175626174067,0.01026301131103978,16.46872560905688,0.011754979021453876,0.014187120832502842
197,0.25,0.001,0.013218842587913528,0.01031341025549354,16.282042879046816,0.011621729392610147,0.01960594527837303
198,0.25,0.001,0.013260992413217371,0.01033273469092268,16.40995759674997,0.011713031832084204,0.017758380621671677
199,0.25,0.001,0.013259369146191713,0.010398514540583798,16.032229799212832,0.011443418843121222,0.030202003092401557
200,0.25,0.001,0.013176334005865183,0.010265428798668312,16.312712611574113,0.01164362070776168,0.0140152371281551
201,0.25,0.001,0.013299930953618252,0.010349370144081839,16.53494274255001,0.011802243213811571,0.014215264572865434
202,0.25,0.001,0.013198790620222237,0.010146565678896326,17.104669628721297,0.012208900520143682,0.010258966435988745
203,0.25,0.001,0.01324371254128037,0.01035369886085391,16.1956374428489,0.011560055276837186,0.019889626652002335
204,0.25,0.001,0.013178379020907662,0.010184188429830652,16.77944362524784,0.011976762045144782,0.020032989378604624
205,0.25,0.001,0.01318883229837273,0.010341087751316301,15.958760666124748,0.011390978348411669,0.015462237927648757
206,0.25,0.001,0.013208705169910734,0.010223911849386765,16.726782278581098,0.01193917364638194,0.014220941087438
207,0.25,0.001,0.013148711288742947,0.010188706473193386,16.587867158831973,0.011840019385319039,0.017855243395186134
208,0.25,0.001,0.013162575210585739,0.01023169852454554,16.424633372913707,0.011723507047047613,0.01923154170314471
209,0.25,0.001,0.013256986710158262,0.010301680783882286,16.561534650398023,0.011821223876087097,0.028551859884626336
210,0.25,0.001,0.013124970549886877,0.010206455788151785,16.355357487996418,0.011674059591717642,0.018912469657758873
211,0.25,0.001,0.013120481433967749,0.010193064244407597,16.40524604103782,0.011709668837286096,0.0148457953085502
212,0.25,0.001,0.013114982058830334,0.010207170789892023,16.29537443681197,0.011631245136910755,0.01883853330380387
213,0.25,0.001,0.01312527551569722,0.010204842991449616,16.36610441496878,0.01168173048891419,0.016492979290584724
214,0.25,0.001,0.013164879020416376,0.010197884092728296,16.62703947587447,0.011867979640167357,0.015647017086545627
215,0.25,0.001,0.01315636153925549,0.010227702388709242,16.412205840602066,0.011714636574305543,0.012374394211090274
216,0.25,0.001,0.013092991783086098,0.010146026612457,16.51479252901944,0.011787860477529936,0.023496675512029067
217,0.25,0.001,0.013376832967906288,0.010373477231372486,16.83080546061198,0.01201342288409135,0.03856524938924445
218,0.25,0.001,0.013223128506180012,0.010272995766365168,16.532544627334133,0.011800531497026505,0.024772766874068312
219,0.25,0.001,0.013153545502008814,0.010222653632588459,16.424717411850438,0.01172356703201316,0.015663022382391825
220,0.25,0.001,0.013191931570569674,0.010138821449469437,17.10962908195727,0.012212440458213611,0.013229838675922818
221,0.25,0.001,0.01316915825009346,0.010226188298089035,16.49240459095348,0.011771880507461443,0.015341677237302065
222,0.25,0.001,0.013120090560705372,0.01018417217401844,16.452887043808445,0.011743673835694822,0.023001761900054082
223,0.25,0.001,0.013075067294817982,0.01025671667108933,15.794037212025035,0.011273402720931502,0.022740647403730288
224,0.25,0.001,0.013043460887715672,0.010102614845064554,16.48050105932987,0.011763384053768644,0.016496889810595248
225,0.25,0.001,0.013094253047849193,0.010180373901896404,16.329378417043976,0.011655516357633103,0.015442982729938295
226,0.25,0.001,0.013016995070784382,0.010078278045649782,16.468570535833184,0.01175486833392804,0.013857587654557493
227,0.25,0.001,0.013011312817759586,0.010120774534615603,16.198576724890508,0.011562153265446472,0.013995098001841042
228,0.25,0.001,0.013071601250858017,0.01019188239606041,16.137944308194246,0.011518875309203602,0.020628992778559525
229,0.25,0.001,0.013040287335487928,0.010155595472138939,16.165813446044922,0.011538767627441058,0.016211289084619947
230,0.25,0.001,0.012989734835696943,0.01002895933660594,16.592185858524207,0.011843101968968027,0.012372298269636102
231,0.25,0.001,0.013102462091906504,0.01017286792171724,16.417445731885504,0.011718376682288012,0.01796354829437203
232,0.25,0.001,0.013149682206637932,0.010180454842294708,16.63955041133996,0.011876909644068494,0.01810149372451835
233,0.25,0.001,0.012984639090118986,0.0100642584377166,16.365814555775035,0.011681523594414728,0.011636103192965189
234,0.25,0.001,0.013041658891421375,0.01014410365711559,16.237899462382,0.011590220886782299,0.0155172741247548
235,0.25,0.001,0.013077179816636171,0.01014810066783067,16.414558959729742,0.01171631617396841,0.01819624172316657
236,0.25,0.001,0.013098457771720308,0.010121704276764032,16.68172605109937,0.011907013598215112,0.02433620910677645
237,0.25,0.001,0.01301843641946713,0.010141413884632515,16.122834118929777,0.011508090020649377,0.013114714995026588
238,0.25,0.001,0.012978318119139381,0.010086885004332571,16.203591375639945,0.011565732602169839,0.016864792133371036
239,0.25,0.001,0.013102694668553093,0.01016152836382389,16.482295874393348,0.011764665149459919,0.0217908409734567
240,0.25,0.001,0.013080638127796577,0.010158275931396267,16.37691844593395,0.011689449283321877,0.02246823234276639
241,0.25,0.001,0.0129851344126192,0.01002163053349112,16.607476089939926,0.011854015767266185,0.017792390142050054
242,0.25,0.001,0.013044647420897629,0.010124370286410505,16.36523368141868,0.01168110898031312,0.016342172916564677
243,0.25,0.001,0.013030346934542511,0.010105865809953573,16.388793136134293,0.011697925150702565,0.014726875763800409
244,0.25,0.001,0.013105188891517393,0.010132763224343458,16.657473477450285,0.01188970269625288,0.02068953009115325
245,0.25,0.001,0.01297140172259374,0.010003508802390459,16.632072275335137,0.011871571931002953,0.01703987756950988
246,0.25,0.001,0.013007970413926876,0.010078060892269466,16.419213323882133,0.011719638346810944,0.01530360420131021
247,0.25,0.001,0.013162812274513823,0.010173858651383356,16.750096436702844,0.011955814729980616,0.03027049617634879
248,0.25,0.001,0.012961369148935333,0.010101170180309,16.028555436567828,0.011440796171711511,0.014650055724713538
249,0.25,0.001,0.012931645876078895,0.010045125854737831,16.176058624729965,0.011546080388815107,0.018806420577069122
250,0.25,0.001,0.012996571392498234,0.010027295571159233,16.63982154383804,0.011877103171904381,0.024373448143402737
251,0.25,0.001,0.01305100584233349,0.010186757299710403,16.05124872381037,0.011456994092655512,0.022015179817875225
252,0.25,0.001,0.012969142785578064,0.009980098429051313,16.750604687315047,0.011956177507005743,0.016784127077294722
253,0.25,0.001,0.012990835828311516,0.01007212232798338,16.356469414450906,0.011674853257994937,0.015964987687766552
254,0.25,0.001,0.013045218434523453,0.010085504558501822,16.58623660694469,0.01183885553671998,0.018984901304874156
255,0.25,0.001,0.01294969143628171,0.010009279756835012,16.478066531094637,0.011761646346248848,0.015225739425255192
256,0.25,0.001,0.012955808786280228,0.010027076512800924,16.412615804961234,0.011714929196974472,0.01844568457454443
257,0.25,0.001,0.01309826893901283,0.010219990501575398,16.129872986764617,0.011513114194692803,0.018821764116485912
258,0.25,0.001,0.012950751027374557,0.009950946875368103,16.810902566620797,0.01199921667853019,0.012214553697655598
259,0.25,0.001,0.012987521928593967,0.010021613261690645,16.620952317208953,0.011863634773168418,0.019761970059739217
260,0.25,0.001,0.013082827300284847,0.010191866507132849,16.20094478491581,0.011563843529561605,0.02645898496525155
261,0.25,0.001,0.013074350148213633,0.01010348049528671,16.648753426291726,0.011883478534112582,0.022438127133581374
262,0.25,0.001,0.01301073305534594,0.010106881078558437,16.27318708824389,0.011615408342786503,0.02777185673928923
263,0.25,0.001,0.013030993046634125,0.010040080231247526,16.76107545332475,0.0119636512871697,0.022845138795673847
264,0.25,0.001,0.013003942810676315,0.010139172812077131,16.05417202458237,0.011459080674220109,0.023393090089990035
265,0.25,0.001,0.01302329431090391,0.010029649051527182,16.776388052738074,0.011974581051204906,0.02882344668938054
266,0.25,0.001,0.012945904057811607,0.010040364707961227,16.282642537897285,0.011622157414630468,0.015096705096463362
267,0.25,0.001,0.012933078532417616,0.010018096615870794,16.335559238087047,0.011659928078577478,0.016591768918765917
268,0.25,0.001,0.012931758086338188,0.009973827396717035,16.5762438918605,0.011831722977773376,0.02076026683466302
269,0.25,0.001,0.012905150172159527,0.01000893996520476,16.230361476089016,0.011584840454024994,0.013361104143162569
270,0.25,0.001,0.012909359552643516,0.009974793559222511,16.44530880089962,0.011738264668736346,0.011620579960031642
271,0.25,0.001,0.012898480830093225,0.009955490276104572,16.49251937866211,0.011771962440158537,0.016944144645498857
272,0.25,0.001,0.012881434099240736,0.009961791844530539,16.361676505117707,0.011678569953688584,0.01331597664910886
273,0.25,0.001,0.012849458013520096,0.009939759348829588,16.305952361135773,0.011638795404094057,0.013349739834666252
274,0.25,0.001,0.012842383009917809,0.009968842972408642,16.103317376339074,0.011494159440641737,0.014657588158216741
275,0.25,0.001,0.012894223190166733,0.009940028980825886,16.555303978197504,0.011816776572589225,0.02264941090510951
276,0.25,0.001,0.012878290236447796,0.009973432925162893,16.278820442430902,0.011619429295097003,0.020981273303429287
277,0.25,0.001,0.012909884338803364,0.009990283598502478,16.36144346179384,0.011678403612986324,0.021758363375233278
278,0.25,0.001,0.01288477269311746,0.00987902529199015,16.844209497625176,0.012022990362330604,0.020004169705013435
279,0.25,0.001,0.01284206122385733,0.00996382517570799,16.12963491497618,0.011512944264793847,0.014914814486271806
280,0.25,0.001,0.012839504997387077,0.009916025298562918,16.383180126999363,0.011693918720199403,0.015215308508939214
281,0.25,0.001,0.012885936564116768,0.009938586249270222,16.516951474276457,0.011789401480568491,0.015970547683537006
282,0.25,0.001,0.012905780733986334,0.00997757547619668,16.409662420099433,0.011712821142112372,0.01665122165448136
283,0.25,0.001,0.01281553427829887,0.009919407918597713,16.22989203713157,0.011584505379822677,0.017761671398248937
284,0.25,0.001,0.012904367381424614,0.009944433459278309,16.587469389944367,0.011839735467483488,0.019463085776401892
285,0.25,0.001,0.01293464998404185,0.00998237015058597,16.544577049486566,0.011809119949669213,0.02411222095704741
286,0.25,0.001,0.012803505174815655,0.009858972167201115,16.501163482666016,0.011778132393052117,0.012800585271583663
287,0.25,0.001,0.012832373239551529,0.009907823225313967,16.389178882945668,0.011698200487470141,0.023523148149251938
288,0.25,0.001,0.012839463285424492,0.00996375134722753,16.11548984411991,0.01150284785447531,0.013943732819623418
289,0.25,0.001,0.012852779787146685,0.009871154967131037,16.7090256430886,0.011926499388357317,0.01668132474232051
290,0.25,0.001,0.012981851161880926,0.010105180384760553,16.120862903016985,0.01150668301428764,0.029936038992471166
291,0.25,0.001,0.012956387250486649,0.00988490858369253,17.212566722523082,0.012285914862614619,0.021714709285232756
292,0.25,0.001,0.012895634651861408,0.010035037232393568,16.03078946200284,0.011442390765169765,0.016795415327780776
293,0.25,0.001,0.012833727297909332,0.009916781532493505,16.34656403281472,0.011667783035556545,0.017984825496872265
294,0.25,0.001,0.01285958888404297,0.009999366477131844,16.028686292243727,0.011440889573335992,0.02232685571329461
295,0.25,0.001,0.012839268441453125,0.009880462830716913,16.58114699161414,0.01183522269208718,0.013504323860009512
296,0.25,0.001,0.012825999154963276,0.009886270558292215,16.47423975395434,0.011758914885049493,0.015356728548390998
297,0.25,0.001,0.012787841034658028,0.009889042795155987,16.24486593766646,0.011595193388769779,0.012853711429569457
298,0.25,0.001,0.01280421069399877,0.009849393853183949,16.558793732614227,0.011819267475099376,0.011688067060377862
299,0.25,0.001,0.012743882891355139,0.00989938403169314,15.94057221846147,0.01137799587327728,0.014731846077160703
300,0.25,0.001,0.012841290540315888,0.00993225181644613,16.30225320295854,0.011636155034231647,0.014158288637797037
301,0.25,0.001,0.012879563636626259,0.009847972259828539,16.989037947221235,0.01212636541557547,0.013925929036405351
302,0.25,0.001,0.012823161781963074,0.009848123190529419,16.672115701617617,0.011900153962610719,0.012326124848590957
303,0.25,0.001,0.012792203208488045,0.00988931908751979,16.267763195615828,0.01161153689908339,0.012086523645040061
304,0.25,0.001,0.012761799477492317,0.009885927323590626,16.116386731465656,0.011503488031024738,0.02017872625341018
305,0.25,0.001,0.012840120968493548,0.009917267287770907,16.379671848181523,0.011691414595418646,0.02267648869504531
306,0.25,0.001,0.012806432462777153,0.00989650661182223,16.307224736069188,0.011639703594624688,0.02391113444334931
307,0.25,0.001,0.012868339082959927,0.009909391205644968,16.581944089947324,0.011835791641646913,0.019585876311692927
308,0.25,0.001,0.012828784317455509,0.009980366057292982,15.962536320541844,0.011393673319444571,0.01814813529037767
309,0.25,0.001,0.012836615385657007,0.009881488160427773,16.560533118970465,0.011820509007116677,0.02136343138085471
310,0.25,0.001,0.012880828739567236,0.009889467139587257,16.763589454419684,0.011965445720499417,0.02454065748800834
311,0.25,0.001,0.0127828817419482,0.009877178197105726,16.283561533147637,0.011622813371268834,0.015157047245237563
312,0.25,0.001,0.012792870120117159,0.009899912091592947,16.212137280088484,0.011571832462589925,0.01338619738817215
313,0.25,0.001,0.012786781133124323,0.009775583491180882,16.87475198687929,0.012044790854303562,0.013542515536149343
314,0.25,0.001,0.012844129239745213,0.009907318956472656,16.457885684389055,0.011747241744745935,0.013709729433887534
315,0.25,0.001,0.012855173681269993,0.009893535975028168,16.597018617572207,0.01184655147578316,0.014929139365752539
316,0.25,0.001,0.012812113897366957,0.009865774631951794,16.51128607085257,0.011785357652285918,0.02226218891640504
317,0.25,0.001,0.012821453397698475,0.009859825032904293,16.596966136585582,0.011846514016121044,0.017869605061908562
318,0.25,0.001,0.012726064771413803,0.009831663362230316,16.220225218570594,0.011577605437951888,0.012595289283328585
319,0.25,0.001,0.012855818015382145,0.009969057599929247,16.177405733050723,0.011547041922234635,0.01591777770469586
320,0.25,0.001,0.012915792169444489,0.009855966902140415,17.14726107048266,0.012239301263727808,0.021304949497183163
321,0.25,0.001,0.012755566050834728,0.009829423813657328,16.39810122865619,0.01170456904258115,0.013104119441575475
322,0.25,0.001,0.012758441833835659,0.009880640402887806,16.127199404167406,0.011511205855936764,0.015449392350597514
323,0.25,0.001,0.012698180606645165,0.009754060287818764,16.498850793549508,0.011776481651355824,0.01499026868906286
324,0.25,0.001,0.012779315228037762,0.009871292958092508,16.29655676177054,0.011632089051941855,0.018501015690465767
325,0.25,0.001,0.01275997194038196,0.009857104075225916,16.267672047470555,0.0116114718397363,0.016686015555428133
326,0.25,0.001,0.012711891848029512,0.00976007403523633,16.541987419128418,0.011807271533996015,0.012889579869806767
327,0.25,0.001,0.012751255777071823,0.009806072452303135,16.504807212136008,0.011780733199240548,0.011534644549505578
328,0.25,0.001,0.012785903291043007,0.00983100263119647,16.559263865152996,0.01181960304436331,0.022074295932220087
329,0.25,0.001,0.012748510971891157,0.00981736902824857,16.42611989107999,0.011724568087851526,0.020754046065525875
330,0.25,0.001,0.012734508762756983,0.009867747257830519,16.06533166133996,0.011467046153704469,0.02268041090832816
331,0.25,0.001,0.012827021154490385,0.0099085107953711,16.355331883285984,0.011674041315693065,0.03350184847497278
332,0.25,0.001,0.012783970232262756,0.009878748124747566,16.28086517796372,0.011620888777989806,0.03210725107540687
333,0.25,0.001,0.012782483700324188,0.00977846442467787,16.834524501453746,0.012016077445720018,0.01911450441305836
334,0.25,0.001,0.012734234050819368,0.009821324806773302,16.32394397619999,0.011651637384867942,0.018550184451871447
335,0.25,0.001,0.012779631821269339,0.009832600385627964,16.515164577599727,0.01178812603683064,0.021580312297576003
336,0.25,0.001,0.012716773361193411,0.009835361700617907,16.14743099790631,0.011525646679447757,0.01748932008114126
337,0.25,0.001,0.01276606439866803,0.009777301075783644,16.749030777902313,0.011955054088438482,0.024689345413611993
338,0.25,0.001,0.012803194479960384,0.009920937658259363,16.152167695941348,0.01152902762022937,0.025052425762017567
339,0.25,0.001,0.012761556176525173,0.009825813598140623,16.451901349154387,0.011742970270631254,0.016020181795789137
340,0.25,0.001,0.012767194883164131,0.009862104600126093,16.280126571655273,0.011620361578626177,0.018218456767499447
341,0.25,0.001,0.01270022474680886,0.009707947967178894,16.768719644257516,0.011969107526236629,0.0177665613591671
342,0.25,0.001,0.012782201763581146,0.009839951540484573,16.488371068781074,0.01176900147664602,0.02020662712554137
343,0.25,0.001,0.012744148402954594,0.009824512695724314,16.36163974530769,0.011678543715423048,0.0220160906513532
344,0.25,0.001,0.012722986778526596,0.009815850379792128,16.291592569062203,0.011628545730950894,0.02038254930327336
345,0.25,0.001,0.012671314349228685,0.009708137025661541,16.605645208647758,0.011852708928370991,0.013450130716794066
346,0.25,0.001,0.012750955100989702,0.009823569661062775,16.40506831082431,0.011709541977747543,0.01850097817886207
347,0.25,0.001,0.012738778058326605,0.009749351351550131,16.752747506806344,0.011957706999861773,0.01839372841641307
348,0.25,0.001,0.012795719826086,0.00995496931401166,15.91956647237142,0.011363002478494946,0.022626441075570054
349,0.25,0.001,0.012714648393518997,0.009799922872899157,16.334121646303117,0.011658901960244909,0.016857334826555517
350,0.25,0.001,0.012701761062172327,0.009781851800102177,16.363172068740383,0.011679637450921045,0.012984483813246092
351,0.25,0.001,0.012652166018431837,0.009633939318133123,16.914143244425457,0.012072907383601325,0.014708321334587203
352,0.25,0.001,0.012606850401921705,0.009705274337620445,16.260431809858844,0.011606303932804313,0.013422187314265303
353,0.25,0.001,0.012637719370876297,0.009797321745392048,15.917588436242307,0.011361590604027342,0.01601420022133324
354,0.25,0.001,0.01266096436390371,0.009720734743909403,16.477048006924715,0.01176091934826889,0.015239351222084628
355,0.25,0.001,0.01266609945080497,0.009798047330343363,16.072564674146246,0.011472208903744644,0.014777921450634798
356,0.25,0.001,0.012667244243802446,0.009664969405893124,16.824749224113695,0.012009100088589362,0.016050734867652256
357,0.25,0.001,0.012711371577373056,0.009841144508258863,16.084753903475676,0.01148090928156722,0.012894553132355213
358,0.25,0.001,0.012628298789036997,0.009666489691219547,16.597978302926727,0.011847236476036208,0.013445531949400902
359,0.25,0.001,0.012703029890403603,0.009839884598146786,16.045065677527226,0.011452580783388455,0.012128874556057982
360,0.25,0.001,0.012742600403726101,0.009714330095007565,16.970427426424894,0.012113081674821481,0.01528386709590753
361,0.25,0.001,0.012722281456896753,0.00981125845150514,16.31337223630963,0.011644091531984032,0.01574319652799103
362,0.25,0.001,0.01270629722399242,0.009752065281976353,16.555516445275508,0.011816928226463604,0.010944303176883195
363,0.25,0.001,0.012636105219523111,0.009702419325935118,16.440376050544508,0.01173474379053855,0.013391171995964315
364,0.25,0.001,0.01265287653289058,0.009750378487462347,16.26560017556855,0.011609992987557853,0.012532118190493848
365,0.25,0.001,0.012706080790270458,0.009754160644881653,16.542561068679348,0.011807680991205816,0.015212515576018227
366,0.25,0.001,0.012698614377189766,0.009763503306065544,16.448362812851414,0.011740444548787591,0.014693300446702374
367,0.25,0.001,0.012684024701064283,0.009702245704829693,16.70988822705818,0.011927115079984426,0.018081233112348452
368,0.25,0.001,0.012718747793273493,0.009808750611475923,16.307624354506984,0.011639988832624543,0.012914502268864049
369,0.25,0.001,0.012682809691989061,0.00975332423254396,16.416837056477863,0.011717942224466711,0.019632252243657906
370,0.25,0.001,0.012592089785770937,0.009689168553009178,16.267971790198125,0.011611685788863757,0.010836953090296851
371,0.25,0.001,0.012631952480384798,0.009657674469053745,16.667854424678918,0.011897112365937842,0.012687798641208146
372,0.25,0.001,0.012582844574794624,0.009710617956112732,16.09595830512769,0.011488906713153241,0.011741526217924224
373,0.25,0.001,0.012632431659960386,0.009692573129679218,16.474967783147637,0.01175943453472351,0.01458851806819439
374,0.25,0.001,0.012682272262419716,0.00978481871160594,16.237330118815105,0.011589814503080017,0.0177288255136874
375,0.25,0.001,0.012687053192745556,0.009712279873025236,16.670629790334992,0.011899093354985719,0.014687658701505926
376,0.25,0.001,0.012765542321810217,0.009847116600157637,16.354857936049953,0.011673703023590259,0.01748448351605071
377,0.25,0.001,0.012635315006429499,0.009762198918245056,16.10094266949278,0.011492464432186138,0.01688264362100098
378,0.25,0.001,0.012692827505595757,0.009681844970945156,16.873545906760476,0.012043929983412189,0.022886615039573774
379,0.25,0.001,0.0127248451621695,0.009849357305828369,16.114235039913293,0.011501952205505563,0.03117443983339601
380,0.25,0.001,0.01279487003656951,0.009962686337530613,15.871557755903764,0.011328735014920602,0.029008638941579394
381,0.25,0.001,0.012722863392396406,0.009700174443423748,16.939148469404742,0.01209075550992487,0.013425288618438773
382,0.25,0.001,0.01274838758576097,0.009832807534346075,16.338910709727894,0.011662320278178368,0.01824403502460983
383,0.25,0.001,0.012769696020493002,0.009812539951367811,16.571902997565992,0.011828624552152743,0.01702170953568485
384,0.25,0.001,0.012712668571056742,0.00978783621085864,16.390760479551375,0.01169932939297029,0.021259420240918796
385,0.25,0.001,0.01268045748160644,0.009783293374560097,16.235708352291223,0.011588656925261401,0.018068653013971116
386,0.25,0.001,0.012654134975464054,0.009649580401001554,16.837524356264055,0.012018218669710246,0.02415235247462988
387,0.25,0.001,0.012661003620561325,0.00979212217145797,16.077212709369082,0.011475526559149952,0.019444730546739366
388,0.25,0.001,0.012748379909405203,0.009728399528698488,16.923971118349016,0.012079922282904365,0.015715701919462945
389,0.25,0.001,0.01260072783087239,0.009788394369410746,15.760316559762666,0.01124933373287842,0.01589010034998258
390,0.25,0.001,0.012550276901685831,0.009607825781021154,16.489496491172098,0.011769804775997214,0.01285274854550759
391,0.25,0.001,0.012610831975259564,0.009736030870540575,16.110386703953598,0.01149920535614104,0.020080489106476307
392,0.25,0.001,0.012587004933844913,0.00966559818974047,16.371563535748106,0.011685627077621774,0.02204532165908151
393,0.25,0.001,0.012673667321602503,0.009764252597409668,16.30435932043827,0.01163765833007728,0.016736758665906057
394,0.25,0.001,0.012784941488820496,0.009804885665124113,16.700232939286664,0.011920223368512966,0.03003304958757427
395,0.25,0.001,0.012609794340801962,0.0095939693803137,16.900683547511246,0.012063300176667556,0.017541200543443363
396,0.25,0.001,0.01254692061268019,0.009647145048912727,16.250342137885816,0.011599102168369605,0.02130339967293872
397,0.25,0.001,0.012574258881310621,0.009676910711057259,16.236740459095348,0.011589393618197963,0.02082943714534243
398,0.25,0.001,0.012587752080324924,0.009605352399927197,16.71336743325898,0.011929598453432534,0.01701579273988803
399,0.25,0.001,0.012525245857735475,0.009657085873186588,16.07316814769398,0.01147263964860384,0.014392672003143363
400,0.25,0.001,0.012618152057808456,0.009676518765362825,16.484913219105113,0.011766533346970103,0.010168855492439535
401,0.25,0.001,0.012613402792450153,0.0097192425393697,16.218875711614434,0.011576642192444277,0.011015912724865807
402,0.25,0.001,0.012627115134488453,0.00963638068148584,16.760076349431817,0.01196293815091493,0.013240566166738668
403,0.25,0.001,0.012666918986448736,0.009737515144727447,16.4163791772091,0.011717615401291293,0.013877828605473042
404,0.25,0.001,0.01257365792425293,0.009688512704363375,16.168353629834723,0.011540580749346697,0.011815746418303914
405,0.25,0.001,0.01255342923104763,0.009644565398268627,16.301273114753492,0.011635455470916125,0.0177710038713283
406,0.25,0.001,0.012668417230474226,0.009775598166566906,16.2113581570712,0.011571276343377016,0.021985449724727206
407,0.25,0.001,0.01272658258676529,0.009806901414060232,16.361893740567293,0.011678725011111559,0.03143880826731523
408,0.25,0.001,0.012580782175064087,0.00960645130412145,16.668150699499883,0.011897323839757232,0.015096822339627478
409,0.25,0.001,0.012569699125985304,0.00971674778018937,15.98793954560251,0.011411805528624204,0.01270885444763634
410,0.25,0.001,0.012524021591878298,0.009600463337406065,16.383620869029652,0.011694233311227447,0.013758369721472263
411,0.25,0.001,0.012614576484669338,0.009759559352515322,15.99951628482703,0.011420068725786601,0.017721374726129904
412,0.25,0.001,0.012559782205657526,0.009616145299691143,16.496142300692473,0.011774548394498553,0.012141461070213053
413,0.25,0.001,0.012544067124977257,0.009651036594401707,16.212543314153496,0.011572122279909705,0.013525613790584935
414,0.25,0.001,0.012499549087475647,0.00956080396744338,16.4687276320024,0.011754980465383582,0.012172462625635995
415,0.25,0.001,0.0125503885475072,0.009669046171686867,16.147043372645523,0.01152537000188831,0.012140590904487504
416,0.25,0.001,0.012504645905485659,0.009589370848103003,16.33720062718247,0.011661099662514253,0.01159875855470697
417,0.25,0.001,0.012550711970437656,0.0097027715351997,15.959858345262932,0.011391761845298309,0.010016253321535058
418,0.25,0.001,0.01255996118892323,0.009606764651834965,16.54971319256407,0.011812786004685275,0.012340142132921351
419,0.25,0.001,0.012547624297440052,0.009596169954448036,16.53995034188935,0.01180581751740853,0.011862658895552158
420,0.25,0.001,0.012530589786668619,0.00959703568933588,16.439637010747735,0.01173421628176141,0.016177923935982916
421,0.25,0.001,0.012621235553965424,0.009775851627416683,15.945532249681877,0.011381536223898555,0.022394735883507464
422,0.25,0.001,0.012572640722448175,0.009582851420749317,16.754779411084723,0.01195915732411472,0.018283972206215065
423,0.25,0.001,0.012569689389431116,0.009672139023402424,16.237873164090242,0.011590202115696105,0.014845556579530239
424,0.25,0.001,0.012578376230191101,0.00965629673252503,16.375334132801402,0.01168831843883041,0.019215918456514675
425,0.25,0.001,0.012480007936105583,0.009646142635381582,15.880981214118727,0.011335461252047627,0.017564045679238107
426,0.25,0.001,0.012530343381292892,0.00960985633234183,16.3664107467189,0.01168194914112698,0.015137042332854535
427,0.25,0.001,0.012633233133590582,0.009679713060684277,16.551526098540336,0.011814080013233644,0.012497108740111193
428,0.25,0.001,0.012491223966759262,0.00955999634143981,16.42659875118371,0.011724909886640765,0.013910935674276616
429,0.25,0.001,0.012471598629472834,0.009572102533032497,16.248775713371508,0.011597984092342261,0.011415751857890023
430,0.25,0.001,0.012484259875209042,0.009604386759526802,16.138808712814793,0.011519492300367447,0.01618221691913075
431,0.25,0.001,0.012530344792387703,0.009611052319859013,16.359715606227066,0.011677170311368355,0.016080112817386787
432,0.25,0.001,0.012533773047228655,0.009667329687738058,16.063548810554273,0.011465773597826034,0.012698888468245665
433,0.25,0.001,0.012483491844525843,0.00950332609654376,16.7008495908795,0.011920663519542827,0.013871372677385807
434,0.25,0.001,0.012543560372609081,0.009679811667989601,16.048447348854758,0.011454994538797114,0.011534982257419162
435,0.25,0.001,0.012496112083846872,0.009549515801623013,16.51272455851237,0.01178638441007307,0.010361013313134512
436,0.25,0.001,0.012474896781372301,0.00963837094604969,15.895891362970525,0.01134610375658139,0.012518788273963664
437,0.25,0.001,0.012523430681815653,0.009498383934524927,16.952361771554656,0.012100186846220311,0.014835698012676504
438,0.25,0.001,0.012560891241512516,0.009639016902920875,16.37418353918827,0.011687497172868143,0.016282774094078276
439,0.25,0.001,0.012556120837953958,0.009641341808618921,16.334421678022906,0.011659116115648042,0.01411550823185179
440,0.25,0.001,0.012502412339954666,0.009600576239101814,16.26189023798162,0.011607344923612864,0.011834268872108724
441,0.25,0.001,0.012489681555466219,0.00960930199785666,16.141646992076527,0.011521518195629212,0.014716262101299234
442,0.25,0.001,0.012536505321887407,0.009580505165186796,16.5654252948183,0.011824000924210066,0.0154306266663803
443,0.25,0.001,0.012511615472083742,0.009671505173724709,15.915977189035127,0.011360440534643202,0.011516304272744391
444,0.25,0.001,0.012528104143160763,0.009633289452529314,16.222540884306937,0.011579258304287608,0.013799316249787807
445,0.25,0.001,0.012499288627595612,0.009577444218324892,16.374016964074336,0.011687378275570547,0.014085842917362848
446,0.25,0.001,0.01247817035200018,0.009541580566402637,16.456649722474992,0.011746359544950031,0.015510404482483864
447,0.25,0.001,0.01258696514097127,0.009698652521227345,16.18610382080078,0.011553250407423827,0.013582515012886789
448,0.25,0.001,0.012578199024904858,0.00964724010025913,16.425093564120207,0.011723835520428414,0.016654927387005754
449,0.25,0.001,0.01259330219843171,0.009641031156096495,16.544527863011215,0.011809084841549761,0.013565634584261311
450,0.25,0.001,0.012524142438037828,0.009625791318037293,16.242359103578508,0.011593404071076736,0.014049235524402725
451,0.25,0.001,0.012502225172339064,0.0095275810665705,16.66990465106386,0.011898575768068423,0.01707148551940918
452,0.25,0.001,0.012497569744785627,0.009569946507161314,16.40640096953421,0.011710493197383449,0.017309313122597005
453,0.25,0.001,0.012537609560020042,0.009619275531308218,16.35434439688018,0.011673336471720329,0.02214776072651148
454,0.25,0.001,0.0127312693970673,0.009753685642146704,16.686379374879778,0.011910335028465223,0.030169364996254444
455,0.25,0.001,0.012601667563572075,0.009733761166871496,16.071747519753195,0.011471625638653244,0.020062178787257936
456,0.25,0.001,0.01261301894643993,0.009696078204521627,16.34653461340702,0.01166776203669309,0.019361128202743
457,0.25,0.001,0.012545522387054834,0.009619845571278623,16.39549243811405,0.01170270695083087,0.011683739204373624
458,0.25,0.001,0.012478848185503122,0.0095949386895606,16.161428567134973,0.011535637806663078,0.013866898707217641
459,0.25,0.001,0.012523247493487415,0.00961336222561923,16.306997010202117,0.011639541049394802,0.02142197783622477
460,0.25,0.001,0.012484705442506256,0.009589404883709822,16.22526486714681,0.01158120261752092,0.01803422098358472
461,0.25,0.001,0.012383816989533829,0.009463934566486965,16.363021503795277,0.011679529981295702,0.011334964695076147
462,0.25,0.001,0.012480332657243267,0.009634332364481506,15.94898541768392,0.01138400101190858,0.013612302227152718
463,0.25,0.001,0.01249106414616108,0.009506590523277268,16.724989717656914,0.011937894159640909,0.013464811878899733
464,0.25,0.001,0.012497407355994888,0.009645766973721258,15.98059336344401,0.0114065620010307,0.01183206888122691
465,0.25,0.001,0.012457687887504246,0.009462458236763874,16.78526733860825,0.01198091887124072,0.013344260967440076
466,0.25,0.001,0.012418306206889225,0.009558827475164875,16.024519660256125,0.011437915531945843,0.013140157589481937
467,0.25,0.001,0.012504093179648573,0.009576612321490591,16.405602426239938,0.011709923216445352,0.014043164956900809
468,0.25,0.001,0.012489859240524696,0.009572669891922764,16.34792882745916,0.011668757193047224,0.016516551685829956
469,0.25,0.001,0.012473746993099197,0.009583302547760082,16.19805064345851,0.011561777761212356,0.014731515509386858
470,0.25,0.001,0.012549908747049894,0.009658635396397474,16.202696251146723,0.011565093683902015,0.023313098587095737
471,0.25,0.001,0.012540002099492333,0.0095802102463715,16.586674545750473,0.011839168126874,0.02141820163362556
472,0.25,0.001,0.012483268581105001,0.009580983808546356,16.26440325650302,0.011609138655605295,0.014764420481191741
473,0.25,0.001,0.012481798925860361,0.009636336542440184,15.945970650875207,0.011381849144093653,0.021089301651550665
474,0.25,0.001,0.012363887109765501,0.009488561952655966,16.113322922677703,0.011501301158228196,0.011382366841038069
475,0.25,0.001,0.012427132012266102,0.009554818865250458,16.09644352306019,0.011489253050007274,0.011527339306970438
476,0.25,0.001,0.012442636501156923,0.009553956432324467,16.188162832549125,0.01155472008033485,0.016488772196074326
477,0.25,0.001,0.012386487599349382,0.009524791445018667,16.036946094397344,0.01144678522084036,0.014384616787234942
478,0.25,0.001,0.012392366135662252,0.009443081520272024,16.527790358572297,0.01179713801468401,0.012555099402864775
479,0.25,0.001,0.012382766824554314,0.009586682881821285,15.66925522775361,0.011184336351001863,0.015102538694110181
480,0.25,0.001,0.012492439878935164,0.009522727041533499,16.642272082242098,0.011878852307096429,0.016943757732709248
481,0.25,0.001,0.012527217072519388,0.009633512151512232,16.216323563546844,0.011574820530725798,0.013562491939713558
482,0.25,0.001,0.012458670376376673,0.009560538963838057,16.241128343524355,0.011592525584242938,0.015520567695299784
483,0.25,0.001,0.012497264270981153,0.009609650975714127,16.182185779918324,0.011550453804367112,0.01715838598708312
484,0.25,0.001,0.012465951343377432,0.00946721900254488,16.804897134954278,0.011994930146291419,0.01591481589194801
485,0.25,0.001,0.012406281534243713,0.00952111366628246,16.168481537790008,0.01154067204695932,0.013596151851945452
486,0.25,0.001,0.012467035459298077,0.009562763004479084,16.27554396427039,0.011617090624033112,0.01380667607817385
487,0.25,0.001,0.012522532209528215,0.009619527355288014,16.268439466303047,0.011612019604784474,0.023553584495352373
488,0.25,0.001,0.012398562394082546,0.009455314188292532,16.49396358836781,0.011772993282204004,0.012268406752910879
489,0.25,0.001,0.01245742282745513,0.00961441473301613,15.932218147046639,0.011372032938648564,0.011881434979538122
490,0.25,0.001,0.012502496046098795,0.009515645942001633,16.738307895082414,0.011947400353377883,0.019020684373875458
491,0.25,0.001,0.012554265586941532,0.009624337100169876,16.41931895053748,0.011719713740569222,0.026100744389825396
492,0.25,0.001,0.012500788706044355,0.009613747990718393,16.178976492448285,0.011548163092397062,0.01697745236257712
493,0.25,0.001,0.012392344291914593,0.009456745574645924,16.45109575445002,0.011742395256566751,0.013008885913425021
494,0.25,0.001,0.012500740813486504,0.009579118877423532,16.37276909568093,0.011686487577216938,0.016054714202053018
495,0.25,0.001,0.012524841353297234,0.009576882348593437,16.520362304918695,0.011791836049192502,0.023575764873789415
496,0.25,0.001,0.012429075230928984,0.009519453527349415,16.305520895755652,0.011638487434515099,0.014933041710820463
497,0.25,0.001,0.012425400655377995,0.009557044048878279,16.074270537405305,0.011473426507783943,0.015356680585278405
498,0.25,0.001,0.012474602144775969,0.009622587060386484,15.9826923717152,0.01140806022249479,0.015373883458475271
499,0.25,0.001,0.012403374424938,0.009424620195094383,16.692939180316348,0.011915017259326444,0.01248175547354751
500,0.25,0.001,0.012445891783996061,0.009602645242756063,15.933553869074041,0.011372986344806596,0.013738815465735065
