epoch,beta,learning_rate,train_loss,train_reconstruction_loss,train_kl_unnormalized,train_kl_normalized,mean_unclipped_gradient_norm
1,0.0,0.001,0.08125655689547139,0.08125655689547139,5.5183615530690835,0.00393887334266173,0.11643313989043236
2,0.02,0.001,0.0700941693878943,0.06882512881871193,88.89629634734123,0.06345203165406227,0.12693876400589943
3,0.04,0.001,0.06477828107533916,0.05721542503564588,264.8890882922757,0.18907144060833384,0.10482314229011536
4,0.06,0.001,0.06300472480154806,0.05243747380952681,246.74535542149698,0.17612088181405924,0.1236799843609333
5,0.08,0.001,0.05660083409278623,0.04919200558816233,129.74712568713772,0.09261036808503763,0.0851563885807991
6,0.1,0.001,0.051605175099065224,0.047860428811081,52.46390361170615,0.037447468673594685,0.07828277349472046
7,0.12,0.001,0.04916165120178653,0.046899003367270195,26.41640761590773,0.018855394443902735,0.1016203835606575
8,0.14,0.001,0.04615559032367122,0.0433644798974837,27.931054330641224,0.01993651272708153,0.08120891079306602
9,0.16,0.001,0.04321493148323028,0.03962599666368577,31.42561875620196,0.022430848505497473,0.07587570697069168
10,0.18,0.001,0.040278158120570645,0.03707586565325337,24.924511263447425,0.017790514820447842,0.05840649455785751
11,0.2,0.001,0.039306273984332236,0.03607472969639686,22.63696947405415,0.016157722679553285,0.08695191890001297
12,0.22,0.001,0.03914123064567966,0.035070597164092526,25.922534511935325,0.018502879737284313,0.06521996483206749
13,0.24,0.001,0.03926888336577723,0.035256360927897114,23.423101056006647,0.016718844436835578,0.08492918685078621
14,0.25,0.001,0.03880289581514174,0.03579961364307711,16.830390653302594,0.012013126804641394,0.10045674629509449
15,0.25,0.001,0.03821202812175597,0.035628192367092255,14.479818344116211,0.010335344999369172,0.06081340275704861
16,0.25,0.001,0.037758376088834575,0.03535398780818908,13.474196557075746,0.009617556429033367,0.07730049639940262
17,0.25,0.001,0.03749417285284688,0.03557469287226277,10.7567715491018,0.0076779240179170585,0.05276007857173681
18,0.25,0.001,0.03714461552519952,0.03557932244673852,8.771907160359044,0.006261175703325513,0.06405498087406158
19,0.25,0.001,0.03619279327892488,0.034600286714492307,8.924406759200558,0.006370026237830519,0.02413500566035509
20,0.25,0.001,0.03624538440377482,0.0344330758577393,10.156177982207268,0.007249234819562646,0.08270083367824554
21,0.25,0.001,0.036051812070992686,0.034345137135636424,9.564204892804545,0.006826698710067484,0.013562218751758337
22,0.25,0.001,0.035888599532265815,0.03414936736226082,9.746655925627678,0.006956927855551519,0.06327037699520588
23,0.25,0.001,0.03546643473448292,0.03344736260271842,11.314881263240691,0.008076289267123976,0.047927141189575195
24,0.25,0.001,0.03488310017893391,0.03282292391504011,11.545223512957174,0.008240702007820967,0.020855110604315996
25,0.25,0.001,0.03491074591875076,0.03292629278955921,11.120877235166487,0.007937813872352954,0.032683487981557846
26,0.0,0.001,0.032347981727892355,0.032347981727892355,11.583255398658014,0.008267848250291232,0.02800324186682701
27,0.02,0.001,0.03207476184733452,0.03188415923185887,13.351686539188508,0.009530111733896151,0.052319834008812904
28,0.04,0.001,0.031596019864082336,0.03117000720193309,14.921099016743321,0.010650320497318573,0.02211781684309244
29,0.06,0.001,0.03129276501074914,0.030553714342174992,17.256847812283425,0.012317521636176606,0.04051162488758564
30,0.08,0.001,0.031003398580416557,0.029827737519817966,20.588782833468528,0.014695776469285174,0.014269405510276556
31,0.1,0.001,0.030485945783795848,0.028793900604209593,23.70555410077495,0.016920452605835083,0.05095718055963516
32,0.12,0.001,0.030322800059953043,0.028194269766249964,24.850596704790668,0.01773775639171354,0.06836286187171936
33,0.14,0.001,0.03025876328108772,0.02759464349477522,26.660233774492816,0.01902943167344241,0.01699373172596097
34,0.16,0.001,0.029609915409838,0.02648506085238149,27.36200443390877,0.019530338639478066,0.03413253743201494
35,0.18,0.001,0.029377645542544704,0.026075839034972653,25.699062408939486,0.01834337074156994,0.0365129467099905
36,0.2,0.001,0.02904032855745285,0.025597299779615095,24.118417309176536,0.017215144403409377,0.030400753021240234
37,0.22,0.001,0.02862909694592799,0.025175150183420026,21.99536188187138,0.0156997586594371,0.010661130771040916
38,0.24,0.001,0.02853851044370282,0.025172302619584145,19.65023514532274,0.01402586377253586,0.016323821153491735
39,0.25,0.001,0.027974448737598235,0.02488201580220653,17.32999518609816,0.012369732466879486,0.02748502464964986
40,0.25,0.001,0.027540571386775663,0.024645153072572524,16.225925137919763,0.01158167390286921,0.030133598018437624
41,0.25,0.001,0.0274750788005129,0.024745873325774746,15.294467310751639,0.01091682177783843,0.03514173440635204
42,0.25,0.001,0.026889873728636774,0.024029210510273135,16.03115450951361,0.011442651327275953,0.015427799429744482
43,0.25,0.001,0.02646375934202825,0.023327993829884836,17.572831246160693,0.012543062987980509,0.023642751621082425
44,0.25,0.001,0.026012165652167414,0.022676266669746366,18.694379621936427,0.013343597160554195,0.015309563837945461
45,0.25,0.001,0.025642240840581157,0.022141128958713625,19.620227383029075,0.01400444495576665,0.01177535392343998
46,0.25,0.001,0.025722974070137548,0.022055790849751043,20.550897536739225,0.014668734858486241,0.03729497920721769
47,0.25,0.001,0.025385319345420407,0.021790853190806606,20.143388625114195,0.014377864828775299,0.0391493639908731
48,0.25,0.001,0.025011110990758863,0.021459312688919804,19.90427564805554,0.01420719175450074,0.036202382296323776
49,0.25,0.001,0.02498731125266321,0.021430955899338567,19.929818799418786,0.014225423839699347,0.059721702709794044
50,0.25,0.001,0.024830170696781527,0.021520810261849436,18.54565485062138,0.013237441006867507,0.037472356110811234
51,0.0,0.001,0.021107297330614058,0.021107297330614058,19.515581007926695,0.013929750897877726,0.05835359450429678
52,0.02,0.001,0.021547304286110784,0.021215449898473678,23.246382067280432,0.01659270668613878,0.07017113361507654
53,0.04,0.001,0.02054792756755506,0.01980021938441261,26.188497358752834,0.018692717600822865,0.041431959718465805
54,0.06,0.001,0.02087562597326694,0.019546425630969387,31.036814658872544,0.022153329520965413,0.019798860419541597
55,0.08,0.001,0.021175511121269194,0.0191394227046159,35.65700186452558,0.025451107683458662,0.01584677118808031
56,0.1,0.001,0.021834955040004947,0.019078472569104162,38.6183100054341,0.027564817991030763,0.0332978330552578
57,0.12,0.001,0.022048231514711535,0.018628332463483655,39.92731881910755,0.028499156901575694,0.025174228474497795
58,0.14,0.001,0.022482577110490492,0.018603047416094812,38.82300961402155,0.027710927633134583,0.05286490451544523
59,0.16,0.001,0.022829567713122213,0.018897920666683103,34.42648561539188,0.024572794871800058,0.0498852226883173
60,0.18,0.001,0.02299705544306386,0.018959415475687674,31.42629691093199,0.022431332555982862,0.06153323408216238
61,0.2,0.001,0.02322836610819063,0.0194029078608559,26.797334978657386,0.019127291205322902,0.058615269139409065
62,0.22,0.001,0.023473984651988553,0.019923208762080438,22.611982099471554,0.016139887294412243,0.06907961890101433
63,0.24,0.001,0.02336944886032612,0.01965945159956332,21.65710916826802,0.015458322033024996,0.06245462782680988
64,0.25,0.001,0.023497502409642743,0.02000111119160729,19.593775349278605,0.013985564132247398,0.03736758045852184
65,0.25,0.001,0.023727432133690003,0.020370951703479214,18.809712379209458,0.013425918900220884,0.05745244584977627
66,0.25,0.001,0.02325421367441454,0.019630248748487043,20.30870105374244,0.014495860852064554,0.04087439086288214
67,0.25,0.001,0.02316179060407223,0.019518863109330976,20.41496246091781,0.01457170768088352,0.04708225093781948
68,0.25,0.001,0.02315214408501502,0.019499778807643923,20.467852930868826,0.014609459622318934,0.032315329648554325
69,0.25,0.001,0.023034900727291262,0.019336192838607297,20.727555736418694,0.014794829219428048,0.01794186932966113
70,0.25,0.001,0.022570823950152242,0.01884854290514223,20.859663378807806,0.014889124467386014,0.05816879868507385
71,0.25,0.001,0.022690032037996476,0.019172679032048872,19.711247905608147,0.014069413208856636,0.05390472989529371
72,0.25,0.001,0.02284087042414373,0.019432664578480106,19.09958384113927,0.013632822156416325,0.028259480372071266
73,0.25,0.001,0.022595610950262315,0.019133458514848063,19.40190456759545,0.013848611397284405,0.015712410677224398
74,0.25,0.001,0.02254833503355903,0.01905310424345155,19.58727313626197,0.013980923009466075,0.04846996278502047
75,0.25,0.001,0.022785041481256485,0.019386733972257184,19.04411426667244,0.01359322931240003,0.04465097840875387
76,0.0,0.001,0.01889304173809867,0.01889304173809867,19.91020922507009,0.014211426998622477,0.046625299379229546
77,0.02,0.001,0.018943413130698666,0.018617814046240622,22.80825436499811,0.01627998170235411,0.03731037676334381
78,0.04,0.001,0.0187857762700127,0.018034732449919946,26.305320247527092,0.018776102960404776,0.023459686432033777
79,0.06,0.001,0.01911968701789456,0.017820095042547873,30.345473689417684,0.021659867016001203,0.039301048032939434
80,0.08,0.001,0.019518459035504247,0.017568527390399286,34.1481694867534,0.02437413953372834,0.04535102937370539
81,0.1,0.001,0.019990738541368517,0.017400623329224124,36.2875126254174,0.025901151053117345,0.014325950760394335
82,0.12,0.001,0.020385877259315982,0.017186572474818074,37.35188268846081,0.026660872725525205,0.024272856302559376
83,0.14,0.001,0.020738605229604627,0.017122144119874123,36.1904416238108,0.025831864114069094,0.025112668052315712
84,0.16,0.001,0.02116734011759681,0.017303372643166972,33.83387165684854,0.02414980132537369,0.03130694106221199
85,0.18,0.001,0.021250440108199275,0.017402074990733978,29.95310555734942,0.021379804109457116,0.019296160899102688
86,0.2,0.001,0.021297373117939118,0.017490638359900442,26.666173873409146,0.01903367157274029,0.015814763493835926
87,0.22,0.001,0.02151140570640564,0.017795089031419447,23.66618445611769,0.016892351503295995,0.01563879754394293
88,0.24,0.001,0.021649326888784286,0.018027757805201314,21.140905380249023,0.01508986822287582,0.014739099889993668
89,0.25,0.001,0.022219622567776712,0.018711179314601804,19.66131813295426,0.014033774541723242,0.02060295920819044
90,0.25,0.001,0.02185543854871104,0.018422481213365833,19.23829577046056,0.013731831385053933,0.011419444810599089
91,0.25,0.001,0.021795584009059014,0.01839201188375873,19.07361645852366,0.013614287265184625,0.03183751739561558
92,0.25,0.001,0.021928091683695392,0.018493500027445056,19.24745049015168,0.013738365803106126,0.028949284460395575
93,0.25,0.001,0.022013690683149522,0.01843781084302933,20.0392332999937,0.01430352127051656,0.04388413950800896
94,0.25,0.001,0.022220389076298284,0.01844619899507492,21.150563701506584,0.015096762099576434,0.0473051555454731
95,0.25,0.001,0.021664482150827686,0.017912083635887793,21.02844330572313,0.015009595507297023,0.03045287262648344
96,0.25,0.001,0.021495169028639793,0.017920433573665157,20.032822455129317,0.014298945364117998,0.04125604312866926
97,0.25,0.001,0.02159386945347632,0.01810514776697082,19.55079527824156,0.013954885994462212,0.030516410246491432
98,0.25,0.001,0.022108381554003683,0.018622418865561485,19.535334863970355,0.013943850723747576,0.07080324366688728
99,0.25,0.001,0.021560793862708153,0.01815701594516154,19.074772804014145,0.013615112636698177,0.03190004453063011
100,0.25,0.001,0.021711355555922754,0.01831182771392407,19.05095100402832,0.013598109210584098,0.05849886313080788
101,0.25,0.001,0.021642629417680925,0.0181023865457504,19.839525407360448,0.014160974594832582,0.05211051320657134
102,0.25,0.001,0.02116785054245303,0.017622187493308898,19.86989882684523,0.014182654408883104,0.03054801607504487
103,0.25,0.001,0.021489634509048155,0.018067953146753774,19.17510506414598,0.013686727383401842,0.04709571227431297
104,0.25,0.001,0.021130719612683018,0.017740915559472575,18.996463221888387,0.013559217146244388,0.0413387306034565
105,0.25,0.001,0.021097996722786658,0.017662297994379076,19.253656879548103,0.01374279577412427,0.0284571573138237
106,0.25,0.001,0.02140320777412384,0.018057305906568805,18.75043684436429,0.013383609453507703,0.02067310083657503
107,0.25,0.001,0.02097053393240898,0.017638738597593,18.671379643101847,0.013327180330550926,0.009266626555472612
108,0.25,0.001,0.021303762171056964,0.017967511869726643,18.696347390451738,0.013345001706246779,0.009541337378323078
109,0.25,0.001,0.02103133776014851,0.017692234126790878,18.71233989346412,0.013356416769067894,0.023805622942745686
110,0.25,0.001,0.021516756244724797,0.01820170062203561,18.577575375956872,0.013260225107749374,0.04486322030425072
111,0.25,0.001,0.020645019267835924,0.01722352320869123,19.174064020956717,0.013685984311889162,0.01911038113757968
112,0.25,0.001,0.021184779403190458,0.017683405429124832,19.621699917700983,0.014005496015489638,0.031601257622241974
113,0.25,0.001,0.020917949957713004,0.017406945447287252,19.67567031614242,0.014044018783827565,0.008433658629655838
114,0.25,0.001,0.020934695257775245,0.017458853942732656,19.47861837571667,0.0139033678627528,0.01956338621675968
115,0.25,0.001,0.02095040871251014,0.017521442845463753,19.215922386415542,0.013715861803294463,0.01950457040220499
116,0.25,0.001,0.020626057119619463,0.017245521228159626,18.94452267308389,0.013522143235605915,0.014169305562973022
117,0.25,0.001,0.020823846601190105,0.017509635898374742,18.57283518391271,0.013256841673028343,0.02826281078159809
118,0.25,0.001,0.02088512588412531,0.01760186074722198,18.399418430943644,0.013133060978546498,0.02279658429324627
119,0.25,0.001,0.020634157523032156,0.0172956240994315,18.709144469230406,0.013354135952341474,0.019961742218583822
120,0.25,0.001,0.02063345554615221,0.017268819253771536,18.85542106628418,0.013458544658304197,0.01881070388481021
121,0.25,0.001,0.02092891432825596,0.017557757335805124,18.891962174446352,0.0134846268197333,0.013004697626456618
122,0.25,0.001,0.0206564458147172,0.01724541944361502,19.115392377299646,0.013644105908136792,0.02425545733422041
123,0.25,0.001,0.020506957966473796,0.01709421225372822,19.12502602607973,0.013650982174218222,0.01412702351808548
124,0.25,0.001,0.020827049329396215,0.017454773067466674,18.898236182428175,0.013489105055266362,0.02121375221759081
125,0.25,0.001,0.020505224024095842,0.017167018365956122,18.707303447108114,0.013352821875166392,0.011259366292506456
126,0.25,0.001,0.020624917601385424,0.01734352532413698,18.388919153521137,0.013125566847623938,0.01751701207831502
127,0.25,0.001,0.020423519154710155,0.01712636559480621,18.47724969925419,0.013188615060138608,0.013640768826007843
128,0.25,0.001,0.020883477322997585,0.01749318351428355,18.999209373228013,0.013561177282817995,0.013363368576392531
129,0.25,0.001,0.02077488144559245,0.017279368554872852,19.588850267471805,0.01398204872767438,0.012501390650868416
130,0.25,0.001,0.020446889342800263,0.016861729744461276,20.091235191591323,0.014340638966160831,0.028259344398975372
131,0.25,0.001,0.020407386484646028,0.01683743934958212,20.00598353724326,0.014279788392036589,0.015046615153551102
132,0.25,0.001,0.02047109994436464,0.016964842475229693,19.649066986576205,0.014025029969005143,0.03822527267038822
133,0.25,0.001,0.020557703029724858,0.017179641391961806,18.930661785987116,0.013512249668798798,0.02216787077486515
134,0.25,0.001,0.02031008616810845,0.01708715589296433,18.061303969352476,0.01289172303308528,0.0298000555485487
135,0.25,0.001,0.02032305516542927,0.017079317762005712,18.177905728740075,0.012974950555845879,0.012673908844590187
136,0.25,0.001,0.020170542561719493,0.016835463503676075,18.689783650059855,0.01334031666670939,0.014253819361329079
137,0.25,0.001,0.020406115679971634,0.016982434137213613,19.18631153721963,0.013694726293518651,0.010023771785199642
138,0.25,0.001,0.020258001622653777,0.016801698674117366,19.36911933652816,0.01382521009031275,0.021869199350476265
139,0.25,0.001,0.020076666387819474,0.01670575009719018,18.89061152550482,0.013483662759104082,0.014264561701565981
140,0.25,0.001,0.020296907593165676,0.017026753675553105,18.32594354691044,0.013080616378951065,0.022189819253981113
141,0.25,0.001,0.0201693489666908,0.016907531527742263,18.279229564051473,0.013047273064990345,0.028771190904080868
142,0.25,0.001,0.02032380004323298,0.01710426609121984,18.042264507662864,0.012878133124670139,0.024160539731383324
143,0.25,0.001,0.020221860057884646,0.016975514530654875,18.192519587855184,0.012985381575913765,0.04759602155536413
144,0.25,0.001,0.02030946921196676,0.01693759924702106,18.89595567026446,0.013487477280702683,0.04009695863351226
145,0.25,0.001,0.020313109541612286,0.01694403805078999,18.88027652617424,0.013476285885920227,0.030489285476505756
146,0.25,0.001,0.020452431553313808,0.017120587669553294,18.671649932861328,0.013327373256860333,0.04589638393372297
147,0.25,0.001,0.020036712769539125,0.016583633999670704,19.35105243805916,0.013812314374060785,0.01978922076523304
148,0.25,0.001,0.019933697196745103,0.01636405481446174,20.0042791674214,0.014278571853976732,0.056359587237238884
149,0.25,0.001,0.020029911951672648,0.01656154501101663,19.43672776991321,0.013873467358967318,0.021206289529800415
150,0.25,0.001,0.019820660532962893,0.016435059869000988,18.972904574486517,0.013542401552096016,0.01958343479782343
151,0.25,0.001,0.01996337057602021,0.01663261597916003,18.665549432077714,0.013323018866579382,0.021711350418627262
152,0.25,0.001,0.019787441939115524,0.01645967304225891,18.648813924481793,0.013311073465011987,0.030290469527244568
153,0.25,0.001,0.019630545690175024,0.01636769898956822,18.28499492522209,0.013051388240700993,0.02765639405697584
154,0.25,0.001,0.019772894860756014,0.01651976344686362,18.23055027377221,0.013012526962007288,0.012351649813354015
155,0.25,0.001,0.019822529306815516,0.01653305567320316,18.434205701274255,0.013157891292843865,0.012663398403674364
156,0.25,0.001,0.01990058026727169,0.016529631590650927,18.890797399705455,0.013483795431624165,0.024818007834255695
157,0.25,0.001,0.019739604284686428,0.016305607413091967,19.24412161304105,0.013735989730935795,0.018587739439681172
158,0.25,0.001,0.01997181797219861,0.016551409637735735,19.167967765561997,0.01368163295186438,0.03685978800058365
159,0.25,0.001,0.019539220979617487,0.016131058996242863,19.09934050037015,0.013632648465646074,0.017038917634636164
160,0.25,0.001,0.019930512073539918,0.016511667039125197,19.159207374818862,0.013675379996301829,0.029663234017789364
161,0.25,0.001,0.019482413967770916,0.01609179425624109,19.00103735154675,0.013562482049640792,0.026669333688914776
162,0.25,0.001,0.01975346663065495,0.01639903036336745,18.798261827038182,0.01341774577233275,0.04303761199116707
163,0.25,0.001,0.01944821730496422,0.01611397860030974,18.68507323726531,0.013336954487698295,0.02067445684224367
164,0.25,0.001,0.019427020523336627,0.016145376308310415,18.390333606350808,0.013126576449929199,0.04605007730424404
165,0.25,0.001,0.019416449651602777,0.0162290665771692,17.86209955523091,0.012749535728216209,0.03732857666909695
166,0.25,0.001,0.019362114730381196,0.01612995252493889,18.113040001161636,0.012928650964426578,0.01679288875311613
167,0.25,0.001,0.019423939287662506,0.016101063379356937,18.621398741199123,0.013291505168593235,0.040930137038230896
168,0.25,0.001,0.019526809814476197,0.016258255969132145,18.31697654724121,0.013074215950921635,0.014794378075748682
169,0.25,0.001,0.019299681208306742,0.01601767179466063,18.39238062212544,0.013128037560403597,0.020530523732304573
170,0.25,0.001,0.019374258215388945,0.016045780071327762,18.65278963888845,0.013313911234038866,0.02054900024086237
171,0.25,0.001,0.01934921272820042,0.01603037948089261,18.598743561775454,0.013275334448090974,0.024138806387782097
172,0.25,0.001,0.019103096016953067,0.015810442787985646,18.45203104326802,0.013170614591911505,0.013650964479893446
173,0.25,0.001,0.0190799426167242,0.015785687633099094,18.461006533715032,0.013177021080453271,0.014733809977769852
174,0.25,0.001,0.01902324736358658,0.015709950618686214,18.567715921709613,0.013253187667173172,0.009974146261811256
175,0.25,0.001,0.019325625391737107,0.01603018648682102,18.467638077274447,0.013181754516255851,0.00771679007448256
176,0.25,0.001,0.019319209780904553,0.016084061605074713,18.129768063945154,0.012940591052066491,0.02552792802453041
177,0.25,0.001,0.01920121469564976,0.016031586234608004,17.762595207460464,0.012678511925382201,0.026665080338716507
178,0.25,0.001,0.019242961500440876,0.016078306452160882,17.7347292746267,0.012658621894808495,0.01598249189555645
179,0.25,0.001,0.019047404969892195,0.015799672793476813,18.200292218116022,0.012990929491874392,0.0117682795971632
180,0.25,0.001,0.019074136992135355,0.015687918230410543,18.976371703609342,0.013544876305217233,0.026272395625710487
181,0.25,0.001,0.01910921342430576,0.015684154635715868,19.194031192410378,0.013700236397152303,0.01824244763702154
182,0.25,0.001,0.019228990219773784,0.015850800239751415,18.931374396047286,0.013512758312667584,0.03296049777418375
183,0.25,0.001,0.019254895708253308,0.015890428375813268,18.85447637496456,0.01345787036043152,0.03581343963742256
184,0.25,0.001,0.019036118722250386,0.015690319840946505,18.74985682579779,0.013383195450248244,0.03890250623226166
185,0.25,0.001,0.018859380976327004,0.01554660411972192,18.564799585650043,0.013251106056852278,0.022143573500216007
186,0.25,0.001,0.019138555192658977,0.01582040313270784,18.594924003847183,0.013272608139790995,0.02219883818179369
187,0.25,0.001,0.018821620111984592,0.015537627341766511,18.403495727046842,0.013135971254137646,0.019480057060718536
188,0.25,0.001,0.018910578542178678,0.01571571099902353,17.904042643885457,0.012779473692994616,0.010607803706079721
189,0.25,0.001,0.018909274870830196,0.015749071334158222,17.709778139668128,0.012640812376636779,0.011666568461805582
190,0.25,0.001,0.018797305082121202,0.015621776271971964,17.79566635624055,0.012702117313519307,0.010577831882983446
191,0.25,0.001,0.019075778042597157,0.01584443726366566,18.108435169343025,0.012925364146568898,0.025069759227335453
192,0.25,0.001,0.01910765198690276,0.015856400763075196,18.220014879780432,0.013005007051948916,0.045583756640553474
193,0.25,0.001,0.0188156068925896,0.015486776287997923,18.65476639040055,0.013315322191577836,0.02288803644478321
194,0.25,0.001,0.018594952360276255,0.015225343225944427,18.883290137014082,0.013478436928632464,0.037637289613485336
195,0.25,0.001,0.01887022403459395,0.015566533731837426,18.513884759718373,0.013214764282454227,0.03339423472061753
196,0.25,0.001,0.018636428660923434,0.01537319365888834,18.287172440559633,0.013052942498615014,0.02041447116062045
197,0.25,0.001,0.018829165086630854,0.015640169322010008,17.871131220171527,0.012755982312756264,0.011913709342479706
198,0.25,0.001,0.018645822641349608,0.01549180660156473,17.675108017459994,0.012616065679842966,0.009362814947962761
199,0.25,0.001,0.01878231595600805,0.01558776374065107,17.902272132135206,0.012778209944421989,0.012447758112102747
200,0.25,0.001,0.018427779958132776,0.015131902189985398,18.4700994799214,0.013183511406082371,0.021550851874053478
201,0.25,0.001,0.018400741200293263,0.01512553065174049,18.354278010706746,0.013100840835622232,0.010923140682280064
202,0.25,0.001,0.018276969271321452,0.015078062221648232,17.926675304289788,0.012795628339964159,0.01430160878226161
203,0.25,0.001,0.018531966473787062,0.015427240080410434,17.39889120286511,0.0124189087814883,0.02097337879240513
204,0.25,0.001,0.018729972562962962,0.01567167362138148,17.138710575719035,0.01223319812685156,0.03399715293198824
205,0.25,0.001,0.018559480506566264,0.015371730791464928,17.86415155472294,0.012751000395947853,0.01567810121923685
206,0.25,0.001,0.018384259194135666,0.015059105421025907,18.634160503264397,0.013300614206469948,0.02301147673279047
207,0.25,0.001,0.018332483907861095,0.015001609200431455,18.666220695741714,0.01332349799838809,0.01224099611863494
208,0.25,0.001,0.018628041410157756,0.01536559806235375,18.282731579196067,0.013049772718912254,0.024912667460739613
209,0.25,0.001,0.018323170081261667,0.015102035516212064,18.051242643787013,0.012884541501632416,0.017396048177033663
210,0.25,0.001,0.018300856974336407,0.015131223856681777,17.762626032675467,0.012678533927676993,0.03816746547818184
211,0.25,0.001,0.01852063780590411,0.015431085601449013,17.313852679344915,0.012358210335007077,0.03538759145885706
212,0.25,0.001,0.01821794805507506,0.015071164996873948,17.63457126002158,0.012587131520358017,0.029732328839600086
213,0.25,0.001,0.018448468297719955,0.015227234892306788,18.051796759328536,0.01288493701593757,0.04990751855075359
214,0.25,0.001,0.018141069900124304,0.014968383366302136,17.779734642274917,0.012690745640453189,0.022071956656873226
215,0.25,0.001,0.018223073033075177,0.015084990450451452,17.58581555274225,0.012552330872763919,0.02568200509995222
216,0.25,0.001,0.018104843675128875,0.014935442216454013,17.761327743530273,0.01267760724020719,0.01452509080991149
217,0.25,0.001,0.018219528599612175,0.015022106528762848,17.9183533576227,0.012789688335205354,0.026344211539253592
218,0.25,0.001,0.018031758887152517,0.0148619040546398,17.763863594301284,0.012679417269308555,0.007417669519782066
219,0.25,0.001,0.018088219747427973,0.014912556796785324,17.79641391384986,0.012702650902105539,0.02039513736963272
220,0.25,0.001,0.017975285168617003,0.014791144929345577,17.843924060944587,0.012736562498889784,0.014981139451265335
221,0.25,0.001,0.018100819880923918,0.014947919355284783,17.668854005875126,0.012611601717255621,0.01870591565966606
222,0.25,0.001,0.01798917767741988,0.014891716591533153,17.358171155375818,0.012389843793987021,0.014077886939048767
223,0.25,0.001,0.018232540678112738,0.015169413580048469,17.165763793453092,0.012252508060994356,0.027515348978340626
224,0.25,0.001,0.017944091450302832,0.014828012655338934,17.46250355628229,0.012464313744669728,0.017658866941928864
225,0.25,0.001,0.017917919002713695,0.01475955041185502,17.69949642304451,0.012633473535363676,0.02240144880488515
226,0.25,0.001,0.018083221849895293,0.014939959671708846,17.614843245475523,0.012573050139525713,0.016992945922538638
227,0.25,0.001,0.01787941404167683,0.014732950367033482,17.63278567406439,0.01258585701218015,0.011890109162777662
228,0.25,0.001,0.017966790845797907,0.014788736138612993,17.809817529493763,0.01271221807958156,0.016191004775464535
229,0.25,0.001,0.017941780869037874,0.0147171133468228,18.07103833844585,0.012898671190896395,0.018842934630811214
230,0.25,0.001,0.017924091207884973,0.014747210958551976,17.803239268641317,0.012707522675689734,0.016185022424906492
231,0.25,0.001,0.01795865012513053,0.014854534499106868,17.395465235556326,0.012416463408676892,0.025935631711035967
232,0.25,0.001,0.017777232393141714,0.014767979211624592,16.86385062433058,0.012037009724718474,0.01345432410016656
233,0.25,0.001,0.017791344874328183,0.014841725929610191,16.529669330966087,0.011798479179847313,0.033848416060209274
234,0.25,0.001,0.017949481044084795,0.014952371167319437,16.795801039664976,0.011988437572922896,0.024289820808917284
235,0.25,0.001,0.017951276634008653,0.014822025122421404,17.53632471638341,0.012517005507768316,0.03918682411313057
236,0.25,0.001,0.01791838724767008,0.014750463136982533,17.75304622034873,0.012671696088757123,0.037470316514372826
237,0.25,0.001,0.01787433911475443,0.014695806579003412,17.812498338760868,0.01271413157656022,0.039663176983594894
238,0.25,0.001,0.017858567797849254,0.014689019220250269,17.762150979811146,0.012678194846403387,0.01891866000369191
239,0.25,0.001,0.01785534986805531,0.014714950695633888,17.59879284520303,0.012561593751037136,0.018555060494691133
240,0.25,0.001,0.017679484200573737,0.014591196942473612,17.30676281836725,0.012353149763288544,0.012351751793175936
241,0.25,0.001,0.017716421956016172,0.014668692023523392,17.079484016664566,0.012190923637876206,0.020639417693018913
242,0.25,0.001,0.017593086006179932,0.014549268109183158,17.05755861343876,0.012175273814017675,0.01706939423456788
243,0.25,0.001,0.01763005969264815,0.01458590657960984,17.0594353214387,0.012176613362911277,0.008098043967038393
244,0.25,0.001,0.017730600951660062,0.014687130618239603,17.055609672300278,0.012173882706852447,0.037375351414084435
245,0.25,0.001,0.01766160923627115,0.014512403447541499,17.648148198281564,0.012596822411335877,0.02451144577935338
246,0.25,0.001,0.017618173733353615,0.01440538342801794,18.00447685487809,0.01285116120976309,0.02835783874616027
247,0.25,0.001,0.01755665230654901,0.014352428937150587,17.956471166303082,0.012816895907425468,0.01472504623234272
248,0.25,0.001,0.01758763662749721,0.014379529673005305,17.9782349371141,0.012832430361965809,0.013664970640093088
249,0.25,0.001,0.01752349193538389,0.014332703254636257,17.88118399343183,0.012763157739780035,0.018272009678184986
250,0.25,0.001,0.017498161944170153,0.014370597929002778,17.526867466588175,0.012510255151026535,0.010994499549269676
251,0.25,0.001,0.01746507397582454,0.014348625716182494,17.46457770562941,0.012465794222433555,0.007975205779075623
252,0.25,0.001,0.01755233613714095,0.014456887999849935,17.34688924974011,0.012381791041927272,0.016925710253417492
253,0.25,0.001,0.01738261479523874,0.014322721219110874,17.147642812421246,0.012239573741913808,0.015472449362277985
254,0.25,0.001,0.017266686404905012,0.014209095388650894,17.1347412601594,0.01223036492516731,0.009552194736897945
255,0.25,0.001,0.01742838058740862,0.014398941650025306,16.97697602548907,0.012117755906844446,0.017307274043560028
256,0.25,0.001,0.017515105465727467,0.014485896414806765,16.975685550320534,0.012116834796802665,0.023340805433690548
257,0.25,0.001,0.017366827555721807,0.014281887500997513,17.28800373692666,0.012339759983530808,0.0189284635707736
258,0.25,0.001,0.01748802260525765,0.014352378525560903,17.5721492767334,0.012542576214656244,0.018596593290567398
259,0.25,0.001,0.0173262627494912,0.014164353690801127,17.719335371448146,0.012647634098107171,0.01207858044654131
260,0.25,0.001,0.017325126656120824,0.014162843175713093,17.72143566992975,0.012649133240492327,0.023551732767373323
261,0.25,0.001,0.017296880964309938,0.014137141857176058,17.707177623625725,0.012638956191024786,0.02395904716104269
262,0.25,0.001,0.017189677444196517,0.014080058002183515,17.42630737058578,0.012438477780575146,0.023172936402261257
263,0.25,0.001,0.01734739499947717,0.014311324144082685,17.014142620948054,0.012144284526015741,0.02339261583983898
264,0.25,0.001,0.01726448385705871,0.014218054531562713,17.072186685377552,0.012185714978856212,0.02766637597233057
265,0.25,0.001,0.01723080711258996,0.01414474559527251,17.294287896925404,0.012344245465328625,0.01711380109190941
266,0.25,0.001,0.01723223365843296,0.014088771366063626,17.61596113635648,0.012573848063066722,0.020777640864253044
267,0.25,0.001,0.017255597116966403,0.014083633229376809,17.77568491043583,0.01268785503956876,0.01795062143355608
268,0.25,0.001,0.01708681556966997,0.013953843965165077,17.55717425192556,0.012531887403230236,0.014359758701175451
269,0.25,0.001,0.01706301342816122,0.014014182191702628,17.085648075226814,0.012195323394166176,0.01387311751022935
270,0.25,0.001,0.01696881435571178,0.014005659598736994,16.605520248413086,0.011852619734770226,0.018102102912962437
271,0.25,0.001,0.017225536067158945,0.014354948705482868,16.086771195934666,0.011482349176256007,0.025387980043888092
272,0.25,0.001,0.01720971193525099,0.014244585358087094,16.616568411550215,0.011860505647073673,0.028554744087159634
273,0.25,0.001,0.017099574568771547,0.013930682994184955,17.75847028916882,0.012675567658221856,0.027602880261838436
274,0.25,0.001,0.017083643364810174,0.01385004268658738,18.121099102881647,0.01293440335680346,0.013931195251643658
275,0.25,0.001,0.01717131566857138,0.01398056463128136,17.8809685245637,0.012763003943300284,0.026230338029563427
276,0.25,0.001,0.01715256634258455,0.014025401233905745,17.524631869408392,0.012508659435694784,0.017735764384269714
277,0.25,0.001,0.016936997973149823,0.013868088203091775,17.198168108540198,0.012275637479329192,0.014795205555856228
278,0.25,0.001,0.017009942582057368,0.013981260088903288,16.9727362971152,0.012114729691017274,0.023416483774781227
279,0.25,0.001,0.016854519865685893,0.013823564374639143,16.98547326364825,0.012123821030441292,0.01280545024201274
280,0.25,0.001,0.016968476015233224,0.013956760717255453,16.877654290968373,0.01204686244894245,0.017517131753265858
281,0.25,0.001,0.01666736284330968,0.013712625469892256,16.558348747991747,0.011818949855811382,0.01768235955387354
282,0.25,0.001,0.01695115353551603,0.014032559980067515,16.355797490765973,0.01167437365507921,0.03625122830271721
283,0.25,0.001,0.01699898680371623,0.0140253969678475,16.664001034152122,0.01189436190874527,0.021933771204203367
284,0.25,0.001,0.016902663414516756,0.013895832482845552,16.850276700911984,0.01202732098566166,0.02929428219795227
285,0.25,0.001,0.01704782890456338,0.014071735913955396,16.678024476574315,0.011904371503621924,0.04499885439872742
286,0.25,0.001,0.016759686412349824,0.013727121896320773,16.994488500779674,0.012130255889207476,0.015595372300595045
287,0.25,0.001,0.016804659018112768,0.013722262104913112,17.273750366703158,0.01232958627173673,0.03623366169631481
288,0.25,0.001,0.01688060374750245,0.013833545358671297,17.07571171176049,0.01218823105764489,0.027099691331386566
289,0.25,0.001,0.016699473523805217,0.013690795659297896,16.86062886638026,0.012034710111620456,0.031469042878597975
290,0.25,0.001,0.016891459724114787,0.01390225007649391,16.75153080109627,0.011956838544679707,0.032841892912983894
291,0.25,0.001,0.01664296201159877,0.013661733858527677,16.7068052599507,0.011924914532441612,0.021458628587424755
292,0.25,0.001,0.016733183976142638,0.01375703165127385,16.6783574012018,0.011904609137189008,0.030397948808968067
293,0.25,0.001,0.016757210115751913,0.013760606067315224,16.79297238011514,0.011986418543979398,0.022630656836554408
294,0.25,0.001,0.016812891969757694,0.01382651249127042,16.735665844332786,0.011945514521293922,0.02142738434486091
295,0.25,0.001,0.016749460730821855,0.01376066209688302,16.74923090780935,0.011955196936337864,0.025529349222779274
296,0.25,0.001,0.016717045597972408,0.013690502983668158,16.96074479626071,0.012106170447009785,0.014516364550217986
297,0.25,0.001,0.016712426898940917,0.013669451728703515,17.052833003382528,0.012171900787567828,0.006935203215107322
298,0.25,0.001,0.016772967913458423,0.013715752310329867,17.132636347124652,0.012228862489025447,0.01216151425614953
299,0.25,0.001,0.016599455668080236,0.013511119680779596,17.30703310812673,0.012353342689597953,0.012230444699525833
300,0.25,0.001,0.016680220081921545,0.013596054827494005,17.283661934637255,0.01233666090980532,0.009427138138562441
301,0.25,0.001,0.016589501692402746,0.01352305106458164,17.18438917590726,0.012265802409641155,0.013987323734909296
302,0.25,0.001,0.016456371413603905,0.013441449752257716,16.895622191890592,0.012059687503133899,0.008778661722317338
303,0.25,0.001,0.016536952507111333,0.013564201402327707,16.659294436054846,0.011891002452573053,0.009213745594024658
304,0.25,0.001,0.01636475240511279,0.013406033837987531,16.580655867053615,0.011834872139224564,0.010212092194706202
305,0.25,0.001,0.01666983481376402,0.013729716921525617,16.476420125653668,0.011760471181765644,0.01715579815208912
306,0.25,0.001,0.01668409300186942,0.013677204718753215,16.85060445723995,0.012027554930221234,0.010969846043735743
307,0.25,0.001,0.016356665641069412,0.013263281705158373,17.335324625815115,0.012373536492373388,0.01644196966663003
308,0.25,0.001,0.016423414190930706,0.013337228987966814,17.29497718811035,0.01234473746474686,0.012959400191903114
309,0.25,0.001,0.016348634155527238,0.01336268897378637,16.733237666468465,0.011943781346515678,0.015724610071629286
310,0.25,0.001,0.016599675219866536,0.013735875547412903,16.048732572986232,0.01145519812490095,0.019309294410049915
311,0.25,0.001,0.016432056503911174,0.013569501769398489,16.041758998747795,0.011450220555851388,0.018755868542939425
312,0.25,0.001,0.016422628755531004,0.013463323214842428,16.583946843301096,0.011837221158673158,0.015002966858446598
313,0.25,0.001,0.01654406751115476,0.01347336058895434,17.208242908600837,0.012282828628551633,0.015520998276770115
314,0.25,0.001,0.01631483399579602,0.013175129499887266,17.594905730216734,0.012558819222138997,0.01637884136289358
315,0.25,0.001,0.016235927300107096,0.013107172604049406,17.53354238694714,0.012515019548142142,0.019117565359920263
316,0.25,0.001,0.016278288777797453,0.01325279987987972,16.95483952183877,0.012101955404595839,0.009719845838844776
317,0.25,0.001,0.016322899309377515,0.013416809210133168,16.285728393062467,0.01162436002359919,0.020106710493564606
318,0.25,0.001,0.01633914109439619,0.013462817566769739,16.11891863423009,0.011505295242134256,0.013170280028134584
319,0.25,0.001,0.016221334797240073,0.013290668447171488,16.423456438126102,0.01172266697939051,0.019616840640082955
320,0.25,0.001,0.0162222757935524,0.013240104300841209,16.712087877335087,0.011928685137284145,0.014284089673310518
321,0.25,0.001,0.01641206076789287,0.013385055286269034,16.96333626777895,0.012108020176858636,0.012826742604374886
322,0.25,0.001,0.016324007282814672,0.013236733453889047,17.301083472467237,0.012349095983202881,0.024741332046687603
323,0.25,0.001,0.016110682739846168,0.013050696812570095,17.148161180557743,0.012239943740583686,0.013181676156818867
324,0.25,0.001,0.016267044770140803,0.013276033043380707,16.761630150579638,0.01196404721668782,0.019598865881562233
325,0.25,0.001,0.016020046847481883,0.01308605210074494,16.442106246948242,0.011735978762989466,0.015720200957730412
326,0.25,0.001,0.016410985961556435,0.013502348785198504,16.29999880636892,0.011634545900334702,0.021214494481682777
327,0.25,0.001,0.016155995668903474,0.013212506809542257,16.495312167752175,0.011773955865633245,0.015625834465026855
328,0.25,0.001,0.016168291710557475,0.013179936896889441,16.746741017987652,0.011953419713053285,0.02099408395588398
329,0.25,0.001,0.01620858234743918,0.01316817976053684,17.038414985902847,0.012161609554534509,0.018814116716384888
330,0.25,0.001,0.01620960232591437,0.013202268299796888,16.85310222256568,0.012029337774850593,0.008349819807335734
331,0.25,0.001,0.016031433978388385,0.013066318246626085,16.61650848388672,0.011860462872153262,0.016011154744774103
332,0.25,0.001,0.016064324626518835,0.013113077669855087,16.538786549721994,0.011804986830636684,0.018983873538672924
333,0.25,0.001,0.016065923857592767,0.013104465940306264,16.596012484642767,0.011845833322371711,0.00990296108648181
334,0.25,0.001,0.016246660762736873,0.01323856320232153,16.857377329180316,0.012032389242812502,0.02002558298408985
335,0.25,0.001,0.016131691634655,0.013041544976013323,17.317183033112556,0.012360587461179556,0.023366212844848633
336,0.25,0.001,0.01602985878144541,0.012923080143668959,17.41038611627394,0.01242711357335756,0.011424032971262932
337,0.25,0.001,0.016026211782328544,0.01296235032139286,17.169878682782574,0.012255445169723465,0.020872714929282665
338,0.25,0.001,0.015958560210081837,0.012937718852152747,16.928797260407478,0.012083367066672004,0.020161564461886883
339,0.25,0.001,0.016077080681439367,0.013134719503502692,16.4889947829708,0.011769446668787152,0.0092457071878016
340,0.25,0.001,0.015989610144207553,0.013086151511919114,16.27098181939894,0.011613834275088466,0.023690099362283945
341,0.25,0.001,0.01589184428655332,0.012975547462701797,16.342925348589496,0.01166518583054211,0.017653655726462603
342,0.25,0.001,0.015913388661799893,0.012949159008360678,16.61154322470388,0.011856918789938529,0.012021584436297417
343,0.25,0.001,0.015824317331275633,0.012805287846394123,16.91864388988864,0.012076119835752061,0.01535914046689868
344,0.25,0.001,0.016012017224584858,0.012957741926995016,17.11615833159416,0.0122171008790822,0.014525551814585924
345,0.25,0.001,0.015810096516243873,0.012793709463890522,16.903834681357107,0.01206554937998366,0.009014533832669258
346,0.25,0.001,0.016019871518496546,0.013071758672595024,16.52122651377032,0.011792452900621213,0.01822342025116086
347,0.25,0.001,0.01584551396268991,0.012930032827200429,16.338353864608273,0.011661922815566219,0.008991926908493042
348,0.25,0.001,0.015970261587250616,0.013025881902825448,16.500301853302986,0.011777517382800133,0.01180257834494114
349,0.25,0.001,0.015860928643134334,0.012810798662324105,17.092928855649888,0.012200520239578792,0.013030326925218105
350,0.25,0.001,0.01583497634818477,0.012714054705875536,17.489640758883567,0.01248368362518456,0.011387730482965708
351,0.25,0.001,0.01580744290784482,0.012692595231196573,17.455605045441658,0.012459389754062569,0.01002690359018743
352,0.25,0.001,0.016054363320431402,0.012995923598927836,17.139496895574755,0.012233759382994114,0.010006038937717676
353,0.25,0.001,0.01577469556322021,0.012765044586793069,16.86608252986785,0.012038602805044861,0.010962085798382759
354,0.25,0.001,0.015684119395671353,0.012720797691614397,16.606454357024163,0.011853286478960858,0.014317146735265851
355,0.25,0.001,0.015815522401563583,0.012844735275833838,16.64828848069714,0.011883146667164269,0.010143544524908066
356,0.25,0.001,0.01577327863102959,0.012755908041952117,16.909344950029926,0.012069482476823644,0.014763697516173124
357,0.25,0.001,0.015740465012288863,0.012677621306671251,17.164175710370465,0.012251374525603473,0.015275705140084028
358,0.25,0.001,0.01578174837894978,0.012714688245567584,17.187806037164503,0.012268241282772664,0.012871332000941038
359,0.25,0.001,0.015725634631610686,0.012697360928981535,16.970446740427324,0.012113095460690452,0.013994914013892412
360,0.25,0.001,0.01569764286039337,0.012707061705089385,16.75921864663401,0.011962325943350472,0.013004166074097157
361,0.25,0.001,0.015529766979236756,0.012575222930360225,16.557266696806877,0.011818177513780783,0.010317373089492321
362,0.25,0.001,0.015736984990296826,0.012806275589091162,16.423696702526463,0.011722838474322957,0.021380456630140543
363,0.25,0.001,0.015766932238494197,0.012778685277988833,16.74613441959504,0.011952986737755205,0.022920540999621153
364,0.25,0.001,0.015657133873431914,0.012642853142273041,16.892025978334487,0.01205712061265845,0.013821179047226906
365,0.25,0.001,0.015534643985090716,0.012503103292997806,16.98875537995369,0.01212616372587701,0.018661958165466785
366,0.25,0.001,0.015581095831528786,0.012548057873162531,16.997142853275424,0.012132150501981031,0.016530823428183794
367,0.25,0.001,0.015512389761786307,0.012519877794529162,16.770037620298325,0.011970048265737563,0.014570359606295824
368,0.25,0.001,0.015766856470896352,0.012796275948564853,16.647132996589907,0.011882321910485301,0.024599614553153515
369,0.25,0.001,0.015543694217358866,0.012510861119916361,16.995994690925844,0.012131330971396034,0.024719666689634323
370,0.25,0.001,0.015512933113401937,0.012472658267905634,17.03770403708181,0.012161102096418137,0.017000609077513218
371,0.25,0.001,0.01573937037779439,0.012721347532445384,16.9130001683389,0.012072091483468167,0.031678968109190464
372,0.25,0.001,0.01572603876552274,0.012700210776059859,16.956741825226814,0.012103313222859968,0.024325339123606682
373,0.25,0.001,0.015548936692216703,0.012510500127269376,17.027397955617598,0.012153745864109635,0.018737073056399822
374,0.25,0.001,0.015532981153697736,0.012525450077749068,16.854203070363692,0.012030123533450173,0.025575307197868824
375,0.25,0.001,0.015429703939345575,0.0124154043413939,16.892134266514933,0.012057197906149132,0.017947822343558073
376,0.25,0.001,0.015448623216680942,0.012443102295360258,16.842937407955045,0.012022082375414023,0.021380505058914423
377,0.25,0.001,0.015711509772846775,0.012756143366136858,16.561871990080803,0.011821464661014134,0.027878308668732643
378,0.25,0.001,0.01538357390992103,0.012413362672011699,16.645064261651807,0.011880845297396008,0.010317050851881504
379,0.25,0.001,0.015527254240887781,0.012500826089132217,16.96010515766759,0.012105713888413699,0.01632493920624256
380,0.25,0.001,0.015449858721225493,0.012377336200687193,17.218415229551255,0.012290089385832445,0.015618878416717052
381,0.25,0.001,0.015487007736679046,0.012415715252920505,17.21152311755765,0.012285169962567916,0.013470390578731894
382,0.25,0.001,0.015393649738642478,0.01235469680039152,17.030290296000818,0.01215581034689566,0.018333764746785164
383,0.25,0.001,0.015365161842876864,0.012391351854368564,16.665231704711914,0.011895240331700153,0.014816882088780403
384,0.25,0.001,0.015267050104035486,0.012288503529083344,16.691774737450384,0.01191418610810163,0.014981121756136417
385,0.25,0.001,0.015385893053345142,0.012361406498859006,16.949222687752016,0.012097946243934343,0.018244097009301186
386,0.25,0.001,0.015346756745730676,0.012287613995853932,17.14343790854177,0.012236572382970571,0.0144788040779531
387,0.25,0.001,0.015489473278003355,0.012437475454663076,17.103395215926632,0.012207990875036854,0.015292565803974867
388,0.25,0.001,0.015379962661573965,0.012321394237299119,17.140214489352317,0.01223427158412014,0.021512367762625217
389,0.25,0.001,0.01556459165388538,0.01250202286868326,17.162635064894154,0.012250274850031516,0.02302256738767028
390,0.25,0.001,0.015423129643163374,0.012335535919954699,17.302875272689327,0.01235037492697311,0.032180155627429485
391,0.25,0.001,0.015386719767364764,0.012277015695168127,17.42677830111596,0.012438813919426096,0.01643879245966673
392,0.25,0.001,0.01541088494442163,0.012322800504344126,17.30562443887034,0.012352337215467765,0.025970100425183773
393,0.25,0.001,0.01549349875459748,0.01244254172929833,17.09756322060862,0.012203828137479387,0.01754026534035802
394,0.25,0.001,0.01527212109536894,0.01224425483134485,16.968164690079227,0.01211146658820787,0.018729442730545998
395,0.25,0.001,0.015537863356932517,0.012540230106922888,16.798736941429876,0.011990533148772218,0.03610500320792198
396,0.25,0.001,0.015362372141211264,0.01237959826305028,16.71546253081291,0.011931093883520993,0.023380449507385492
397,0.25,0.001,0.01530524691747081,0.012256377556871983,17.0858636671497,0.012195477278479442,0.018708130810409784
398,0.25,0.001,0.015319319982682504,0.012194740766238782,17.510141741844915,0.012498316732223352,0.02804505731910467
399,0.25,0.001,0.015232384084693847,0.012138240580116548,17.339583981421686,0.012376576717645743,0.01100872759707272
400,0.25,0.001,0.015349615064840163,0.012349362575238752,16.81341798843876,0.012001012125937731,0.03143134526908398
401,0.25,0.001,0.015280202121263551,0.012303197395897681,16.683132602322488,0.011908017560544245,0.022785842418670654
402,0.25,0.001,0.015259005489849275,0.012308358154710262,16.53542697045111,0.011802588844005073,0.017871784046292305
403,0.25,0.001,0.01549597682371255,0.012543445092535788,16.545989005796372,0.011810127770018823,0.038399167358875275
404,0.25,0.001,0.015212920163908312,0.012157067806730348,17.124998523342995,0.01222341079467737,0.03016384318470955
405,0.25,0.001,0.015477777068172731,0.012350960965118101,17.52267929815477,0.01250726573744095,0.0484292171895504
406,0.25,0.001,0.015265321779635644,0.012173837050795555,17.324680820588142,0.012365939200990822,0.030055458657443523
407,0.25,0.001,0.015234385947546652,0.012171900891248257,17.162163457562848,0.01224993822809625,0.019151766784489155
408,0.25,0.001,0.015271846144910782,0.01222784228382572,17.058596580259263,0.01217601468969255,0.035402181558310986
409,0.25,0.001,0.015109893925968678,0.012099170967215491,16.87209153944446,0.012042891891109537,0.020047848112881184
410,0.25,0.001,0.015040652375788457,0.012028818829886375,16.878318109819965,0.012047336266823673,0.021060893777757883
411,0.25,0.001,0.015157324712603323,0.012137205940821478,16.924747467041016,0.012080476421870818,0.015491276048123837
412,0.25,0.001,0.015015101901465846,0.011998309243109918,16.90610676427041,0.012067171137951757,0.01703439373522997
413,0.25,0.001,0.015103752003802408,0.012089147292558224,16.893844235327936,0.012058418440633788,0.011264970060437918
414,0.25,0.001,0.015130384614871394,0.012069767250889731,17.151697651032478,0.012242467987888993,0.015634126029908657
415,0.25,0.001,0.015264764428138733,0.012160653819239909,17.39543914794922,0.012416444787972318,0.023810663726180792
416,0.25,0.001,0.015018255389746158,0.01190323950422387,17.456549613706528,0.012460063964101733,0.009470593649893999
417,0.25,0.001,0.01509535192481933,0.012018078457443945,17.245041078136815,0.01230909427418759,0.027747477404773235
418,0.25,0.001,0.015035399926766273,0.011968357338299674,17.187706978090347,0.012268170576795395,0.009076856542378664
419,0.25,0.001,0.015107781656326787,0.012063766439114847,17.058659276654645,0.012176059440866985,0.03208723571151495
420,0.25,0.001,0.015081067599596517,0.012097722580355982,16.718665553677468,0.011933380123966787,0.021852546837180853
421,0.25,0.001,0.015110014246836785,0.012111336173069092,16.804591025075606,0.011994711652445115,0.024852344766259193
422,0.25,0.001,0.015020258484348174,0.011944966601027597,17.233936186759703,0.012301167870635048,0.027194427326321602
423,0.25,0.001,0.015027037070643517,0.011963133940533284,17.170113901938162,0.012255613063481914,0.02593124844133854
424,0.25,0.001,0.015099147304652198,0.012058245288508554,17.0412174963182,0.012163609918856674,0.03586841281503439
425,0.25,0.001,0.015078766932410578,0.012023030870383786,17.124343564433435,0.012222943300809018,0.011549318674951792
426,0.25,0.001,0.014981813127956083,0.011874885628781012,17.41121925846223,0.012427708250151484,0.01958542037755251
427,0.25,0.001,0.015053653218332798,0.011955397143479317,17.36262801385695,0.012393024992046359,0.017959175165742636
428,0.25,0.001,0.01509261870336148,0.012047748321727399,17.06345010572864,0.01217947901907826,0.01844637840986252
429,0.25,0.001,0.015034061375885241,0.012009199888956162,16.951324832054876,0.012099446703822181,0.023557758424431086
430,0.25,0.001,0.015038252177257691,0.012049624666331275,16.74827040395429,0.01195451135185888,0.024707899428904057
431,0.25,0.001,0.01492744981641731,0.011900547291001966,16.96276154056672,0.0121076099504402,0.01763460924848914
432,0.25,0.001,0.014965774551514656,0.01186227579150469,17.39200924288842,0.012413996604488524,0.01978366170078516
433,0.25,0.001,0.01514023154853813,0.012030790680118145,17.425308104484312,0.012437764528539837,0.009091152343899012
434,0.25,0.001,0.014965541720871002,0.01186776197245044,17.359957172024636,0.012391118609582181,0.014180980157107115
435,0.25,0.001,0.014959721255206292,0.01189399384442837,17.180336306172034,0.012262909569002165,0.016531589906662703
436,0.25,0.001,0.014988528895041636,0.011907590162609854,17.265580515707693,0.012323754829198924,0.01586682116612792
437,0.25,0.001,0.01486801776674486,0.01175696393775363,17.43434586063508,0.012444215460838744,0.009555349126458168
438,0.25,0.001,0.01477024121390235,0.011633821432628939,17.576495508993826,0.01254567845038817,0.01398300239816308
439,0.25,0.001,0.014831060123059058,0.01170444825003224,17.521534212173954,0.012506448402693757,0.009252105373889208
440,0.25,0.001,0.014822229923259827,0.011726997582422148,17.345683005548292,0.012380930053924547,0.016195837408304214
441,0.25,0.001,0.014875852052242525,0.011814946669243997,17.153312867687596,0.012243620890569304,0.010288194753229618
442,0.25,0.001,0.014812041614805498,0.01172918841362961,17.276310520787394,0.012331413647956741,0.013934189919382334
443,0.25,0.001,0.014827150821445449,0.011739214762083946,17.304793696249686,0.012351744251427326,0.011660450138151646
444,0.25,0.001,0.014701990681069513,0.011589646008947203,17.44158154149209,0.012449380115269158,0.01369784353300929
445,0.25,0.001,0.014929478507368796,0.011813858223538245,17.4599365726594,0.012462481493689795,0.024878988973796368
446,0.25,0.001,0.014756848735194053,0.01164791258352418,17.42247784522272,0.012435744357760684,0.018653946928679943
447,0.25,0.001,0.014735841042091769,0.01166966740762995,17.18283487135364,0.01226469298454935,0.013841313775628805
448,0.25,0.001,0.014779004448604199,0.01174148574711815,17.022257281887917,0.012150076575223353,0.014020431786775589
449,0.25,0.001,0.014642623974190604,0.0116066339035188,17.0136900255757,0.0121439614743581,0.016410873271524906
450,0.25,0.001,0.014657933054672133,0.01161849252398937,17.033025803104525,0.012157762885870468,0.018370018806308508
451,0.25,0.001,0.014653216566770308,0.01163453203175337,16.91670799255371,0.012074738038939123,0.01243468071334064
452,0.25,0.001,0.01486886412866654,0.011831432400691894,17.02176961591167,0.012149728491014753,0.020059602335095406
453,0.25,0.001,0.014701737181073236,0.011584936010260736,17.466553964922504,0.012467204828638475,0.020597174763679504
454,0.25,0.001,0.014566245999547743,0.011402581968615133,17.729175813736454,0.01265465796840575,0.01187412766739726
455,0.25,0.001,0.014751920837067788,0.011603458874648618,17.643980272354618,0.012593847446363039,0.017307185102254152
456,0.25,0.001,0.014563084309620241,0.011438010050164114,17.51291638035928,0.012500297202255017,0.016571922693401575
457,0.25,0.001,0.014681963850894281,0.011603113263845444,17.25388010086552,0.012315403355364397,0.014314426574856043
458,0.25,0.001,0.014734415908253962,0.011694129376161483,17.0377687023532,0.012161148252928767,0.013384734280407429
459,0.25,0.001,0.014582082448947814,0.011548924229798778,16.997817993164062,0.012132632400545369,0.011941934935748577
460,0.25,0.001,0.01462266927645091,0.011578104278493312,17.061743951612904,0.01217826120743248,0.010485060280188918
461,0.25,0.001,0.014576702168391596,0.011485808949557042,17.32136461811681,0.012363572175672242,0.008731102803722024
462,0.25,0.001,0.01477730328277234,0.011626638832592195,17.65632321757655,0.012602657542881191,0.012329161167144775
463,0.25,0.001,0.014529246025748791,0.011332785410265769,17.912964174824378,0.012785841666541311,0.01785992458462715
464,0.25,0.001,0.014575603418052197,0.011440116191102613,17.57126974290417,0.012541948424628245,0.013489024247974157
465,0.25,0.001,0.01454394803412499,0.011467830758661993,17.238560830393144,0.012304468829688183,0.010049998061731458
466,0.25,0.001,0.01461601332430878,0.011573081115080465,17.05259329272855,0.012171729687886188,0.009216392412781715
467,0.25,0.001,0.014524513675320533,0.011516137228858086,16.85893969382009,0.01203350442099935,0.009553949814289808
468,0.25,0.001,0.014487592203001822,0.011471592130199555,16.90166356486659,0.01206399968941227,0.013883874751627445
469,0.25,0.001,0.0145469437082929,0.011477963488188482,17.19856446789157,0.012275920391071784,0.012857417110353708
470,0.25,0.001,0.014689987224917258,0.011581761462073173,17.41849487058578,0.012432901406556587,0.01982923224568367
471,0.25,0.001,0.014615769828519514,0.01147268742563263,17.613832043063255,0.012572328367639725,0.022242262959480286
472,0.25,0.001,0.01459100199562888,0.01141683120400675,17.788054620065996,0.0126966842398758,0.01987333409488201
473,0.25,0.001,0.014501631830728823,0.011354395128305881,17.637114678659746,0.012588946951220375,0.01614145189523697
474,0.25,0.001,0.014491197562986804,0.011368396691977978,17.500177506477602,0.012491204501411564,0.023533324245363474
475,0.25,0.001,0.014607803114960271,0.01150145003151509,17.408001561318674,0.012425411535559367,0.017281159292906523
476,0.25,0.001,0.014595961498637353,0.011527405811413642,17.196184527489446,0.012274221647030297,0.02352272905409336
477,0.25,0.001,0.014439688875309883,0.011382845200357898,17.130551430486864,0.01222737432582931,0.01861428003758192
478,0.25,0.001,0.014504652320136946,0.01143216272635806,17.218230647425496,0.012289957635564237,0.014552292414009571
479,0.25,0.001,0.014551624024827634,0.011425371792527938,17.51951636037519,0.012505008108761734,0.028850377537310123
480,0.25,0.001,0.014408137228700423,0.011305288772188848,17.38836202313823,0.012411393307022293,0.00999864749610424
481,0.25,0.001,0.01435752113860461,0.011287623205252232,17.20370797188051,0.012279591700128845,0.01525354478508234
482,0.25,0.001,0.014526232656451964,0.01148917562057895,17.019669317430065,0.012148229348629597,0.013217444531619549
483,0.25,0.001,0.01439203189746026,0.011350982251667207,17.042042270783455,0.012164198622971774,0.012992316391319036
484,0.25,0.001,0.014407035023454697,0.011297587335350053,17.42534532854634,0.012437791098177258,0.012242790311574936
485,0.25,0.001,0.014387458803192262,0.011234279782060654,17.670416555097027,0.012612717027192738,0.027257376350462437
486,0.25,0.001,0.014391621124119527,0.011271206872357477,17.486800901351437,0.01248165660339146,0.015644977567717433
487,0.25,0.001,0.014323560310707938,0.01122489123935661,17.364939474290416,0.012394674856738341,0.014558624010533094
488,0.25,0.001,0.014420082011530477,0.011341294964715358,17.253523918890185,0.012315149121263516,0.014353516045957804
489,0.25,0.001,0.014341714882081556,0.011288600162633004,17.109654826502645,0.012212458834048997,0.01946220826357603
490,0.25,0.001,0.014491777746908126,0.011464949517000106,16.962344569544637,0.012107312326584324,0.026613609865307808
491,0.25,0.001,0.014333006174814316,0.011274826172138415,17.138043803553426,0.012232722200966042,0.016862180083990097
492,0.25,0.001,0.014370175529151194,0.011272693022845252,17.358292610414566,0.012389930485663501,0.01900402340106666
493,0.25,0.001,0.014329228970792985,0.011221730841263648,17.414418866557458,0.012429992053217315,0.014433383475989103
494,0.25,0.001,0.014482433457047708,0.011377471709443678,17.400204197052986,0.012419845965062803,0.02492364775389433
495,0.25,0.001,0.014445223424944186,0.011277920566499233,17.74956586284022,0.012669211893533348,0.018890511710196733
496,0.25,0.001,0.014439865285831114,0.011218733004023951,18.051227569580078,0.01288453074202718,0.02170531963929534
497,0.25,0.001,0.014386329859975846,0.011194847434038115,17.885069078014745,0.012765930819425227,0.030551379546523094
498,0.25,0.001,0.014310283526297539,0.011152542346427518,17.695983456027122,0.012630966064259187,0.01336399931460619
499,0.25,0.001,0.014370105589830106,0.01127733647703163,17.331879646547378,0.012371077549284354,0.026749719865620136
500,0.25,0.001,0.014400563112670375,0.011372485017824558,16.969350814819336,0.01211231321543136,0.032048909924924374
