epoch,beta,learning_rate,train_loss,train_reconstruction_loss,train_kl_unnormalized,train_kl_normalized,mean_unclipped_gradient_norm
1,0.0,0.001,0.07871014862341652,0.07871014862341652,69.62105771651954,0.049693831346552135,0.13756975252181292
2,0.02,0.001,0.05687631188391598,0.04994743406837684,485.3679948165427,0.3464439648940348,0.0956749003380537
3,0.04,0.001,0.049687469727868076,0.04386299554112176,204.00220432864526,0.1456118517691972,0.06344728264957666
4,0.06,0.001,0.046928639609090106,0.043832082740604614,72.30459791291749,0.05160927759665773,0.08331497991457582
5,0.08,0.001,0.0444369112430181,0.041324947989143136,54.49824963698741,0.03889953578657203,0.13432743679732084
6,0.1,0.001,0.040053230673725425,0.0375002067064354,35.76786840846965,0.025530241547801324,0.18729989137500525
7,0.12,0.001,0.037016949929524715,0.03460973771248322,28.104214064419008,0.02006010996746539,0.08994297846220434
8,0.14,0.001,0.03673527593110326,0.034542246725751846,21.945957275457257,0.015664494843295688,0.09840059070847929
9,0.16,0.001,0.03618999998447156,0.03419578301529176,17.461863492774132,0.012463856882779538,0.04919089283794165
10,0.18,0.001,0.03586544259146311,0.034016018367360255,14.39468947664619,0.010274582067556168,0.05599986820016056
11,0.2,0.001,0.035660359992210525,0.03383191364235753,12.808270845871306,0.009142234722249325,0.0801136780064553
12,0.22,0.001,0.0354104658271548,0.033352704791913386,13.104195419877898,0.009353458543810063,0.12381489994004369
13,0.24,0.001,0.034507589910878884,0.032523577276405806,11.581676962073713,0.008266721600338124,0.0916423702146858
14,0.25,0.001,0.03306449684578779,0.030901015455545817,12.124149010171015,0.008653925060793016,0.07785590528510511
15,0.25,0.001,0.030064769902604115,0.02732024666361153,15.38030731001275,0.010978092298367416,0.09308100841008127
16,0.25,0.001,0.027771214519395578,0.0243746317012081,19.034449227512145,0.013586330640622516,0.07575899665243924
17,0.25,0.001,0.02601380795891108,0.02287575718845082,17.585634731309383,0.012552201806787568,0.06185614934656769
18,0.25,0.001,0.024707391435142168,0.02147357060887147,18.122333293398395,0.012935284292218697,0.06230104132555425
19,0.25,0.001,0.023813005130103582,0.020606933104679575,17.966828117204024,0.012824288449110653,0.08607525785919279
20,0.25,0.001,0.023661072060921308,0.019968876346750552,20.691064634697927,0.014768782751390383,0.16612655576318502
21,0.25,0.001,0.023247227202856904,0.0200822369874695,17.73660517363569,0.012659960866263876,0.1610457208007574
22,0.25,0.001,0.022472770795161027,0.018903478654711526,20.002312347878537,0.014277167985637785,0.07497161231003702
23,0.25,0.001,0.022348843376644313,0.018958592673511486,18.99896748305408,0.013561004627447595,0.0806017688009888
24,0.25,0.001,0.022179385386895404,0.01879762453088073,18.95138783017621,0.013527043419112213,0.06679089437238872
25,0.25,0.001,0.022213236018039255,0.01897063275481936,18.171549697109704,0.012970413773811352,0.08586451038718224
26,0.0,0.001,0.018239665695152948,0.018239665695152948,23.431811020363888,0.016725061399260447,0.09667314984835684
27,0.02,0.001,0.017515094999598104,0.01686893222145899,45.263696395674124,0.032308134472287024,0.0813829735852778
28,0.04,0.001,0.017735074408449982,0.01596100159867882,62.13690175552035,0.044351821381527726,0.04258803348056972
29,0.06,0.001,0.018245463564536456,0.01568487737181405,59.78969482355243,0.04267644170132222,0.030750668374821544
30,0.08,0.001,0.018411771251970504,0.015825474773041547,45.29251191917986,0.03232870229777292,0.028182951034978032
31,0.1,0.001,0.01872837973766712,0.016341064418117033,33.4462920109778,0.023873156324752176,0.04861121723661199
32,0.12,0.001,0.019123804889716958,0.016571892157001788,29.793577360794533,0.021265936731473613,0.061659965896978974
33,0.14,0.001,0.019601225934304526,0.016571932419418768,30.3145754451835,0.02163781259470628,0.05423518142197281
34,0.16,0.001,0.019607766877095253,0.016541817083173965,26.846224472512326,0.019162187346546986,0.043643525801599026
35,0.18,0.001,0.019803803137556433,0.016616068089047375,24.811202220000553,0.017709637558886906,0.034786137053743005
36,0.2,0.001,0.019979100039952707,0.016742208777361562,22.674423817463836,0.01618445668626969,0.029743818449787796
37,0.22,0.001,0.02018462338659701,0.01678930168491524,21.622025219113546,0.015433279956540718,0.040255213039927185
38,0.24,0.001,0.020371098055069103,0.01691256017794255,20.18921731340833,0.014410576240833927,0.03149573237169534
39,0.25,0.001,0.020491152237206045,0.016949301943443226,19.848529324260863,0.014167401373490979,0.039156807819381356
40,0.25,0.001,0.020339923443101898,0.01679959133527685,19.840020067306586,0.014161327671168155,0.026968690450303257
41,0.25,0.001,0.020178538344507654,0.016647926604936476,19.785546606805127,0.01412244582926847,0.030404775636270642
42,0.25,0.001,0.020121344556324347,0.01673612253146661,18.970786706849477,0.013540889869271575,0.04070795513689518
43,0.25,0.001,0.020030019137861947,0.016707351382447642,18.620232119830934,0.01329067246240609,0.024171464727260172
44,0.25,0.001,0.019781443945185065,0.016513981160963986,18.310861912356714,0.013069851472060467,0.027660001651383936
45,0.25,0.001,0.019627767000916743,0.016276303967501658,18.78159997765154,0.013405852946218086,0.029902984388172626
46,0.25,0.001,0.01916127710493371,0.016065227937392533,17.350259722580557,0.012384196804126021,0.02982092439197004
47,0.25,0.001,0.01830139509747903,0.015099698942008237,17.94230559403199,0.01280678486369164,0.025774288456887007
48,0.25,0.001,0.017182700250574334,0.013671349868275973,19.677605932977002,0.014045400380426126,0.02515239000786096
49,0.25,0.001,0.016610477493840013,0.013217597988364999,19.013696345699927,0.01357151773426119,0.03522632992826402
50,0.25,0.001,0.01632737445616566,0.012981004472089906,18.753057421555166,0.013385479958283488,0.022801206447184086
51,0.0,0.001,0.012381956733633077,0.012381956733633077,24.010450996165712,0.01713808065393698,0.037737972335889935
52,0.02,0.001,0.011502485091932215,0.010871204929873673,44.22118249418433,0.031564013200702595,0.04519845871254802
53,0.04,0.001,0.01199110485532008,0.010185199614825727,63.251832970365164,0.045147632384272066,0.051255882484838367
54,0.06,0.001,0.012509445704552284,0.01002609463384188,57.98624988206089,0.04138918621132112,0.048507351661100984
55,0.08,0.001,0.01271680340691425,0.010378758963929514,40.94500634139282,0.029225557702635845,0.042445452301763
56,0.1,0.001,0.012805939241267708,0.010590338949358099,31.040557919631357,0.02215600137018655,0.03517456678673625
57,0.12,0.001,0.013217755784504279,0.010694029944334748,29.464500260665428,0.021031049436592026,0.0320829136762768
58,0.14,0.001,0.01336095275105217,0.010572467670332656,27.904770422190037,0.01991775190734478,0.017037867044564337
59,0.16,0.001,0.013726020829678883,0.01076234823426305,25.95065956448884,0.018522954721262558,0.018936919630505145
60,0.18,0.001,0.013989734333252542,0.010849759983118445,24.439466659679162,0.017444301684282057,0.024561710306443274
61,0.2,0.001,0.014182887670449815,0.010998137941884943,22.30917227632614,0.01592374894812715,0.02710621291771531
62,0.22,0.001,0.014540409709949161,0.011213169839867598,21.188468724879634,0.015123817790777755,0.022267724853008986
63,0.24,0.001,0.014715155781812022,0.011094276240201236,21.136883856427723,0.015086997756193949,0.024800240993499756
64,0.25,0.001,0.014898058059564324,0.01134343769027156,19.92009167900252,0.014218480855819072,0.03431835165247321
65,0.25,0.001,0.014735410750465363,0.011395131664830525,18.718923910215953,0.013361116281381836,0.04535348841454834
66,0.25,0.001,0.014546770651267606,0.011216905029026962,18.660567171188422,0.01331946264895676,0.04023940791375935
67,0.25,0.001,0.01469081245753182,0.011244702815814309,19.311998184070838,0.01378443838977219,0.04378451965749264
68,0.25,0.001,0.014417035106618332,0.011016122830063755,19.058712980112134,0.013603649521850203,0.02541996061336249
69,0.25,0.001,0.014296435913697341,0.011043095225102256,18.231722644322826,0.013013363771822146,0.015871553332544863
70,0.25,0.001,0.01431399884767928,0.01096892883130817,18.745771841190788,0.01338027968678857,0.01645014004316181
71,0.25,0.001,0.014236211699462093,0.010878835625816381,18.814736253830024,0.01342950482072093,0.027446601539850235
72,0.25,0.001,0.014189749606376652,0.010943883887642596,18.189832545784363,0.01298346363011018,0.03646707709413022
73,0.25,0.001,0.014001620063094593,0.010778116306298165,18.0645158217984,0.012894015575873233,0.014600905706174672
74,0.25,0.001,0.013829463238799416,0.010686027992305277,17.61581014441611,0.012573740288662462,0.02619549271184951
75,0.25,0.001,0.013940580351904491,0.010815923797641779,17.510575690123712,0.012498626474035483,0.024134916602633893
76,0.0,0.001,0.010187100602810039,0.010187100602810039,22.485471550554166,0.016049587116741017,0.030752568505704403
77,0.02,0.001,0.009819430713928162,0.009212105726115569,42.54310054862343,0.03036623879273621,0.017167784681078047
78,0.04,0.001,0.01024678828577027,0.008661016632749914,55.54165719377942,0.03964429492775119,0.016937539796344936
79,0.06,0.001,0.010689843580224368,0.008605688895753638,48.66501710716814,0.03473591513716498,0.019943936611525714
80,0.08,0.001,0.010940816371364103,0.008976560679780865,34.39902891134071,0.024553196938858463,0.01829521672334522
81,0.1,0.001,0.01113172218317418,0.009251333899210373,26.3442428289022,0.018803884959958744,0.0207668220391497
82,0.12,0.001,0.011487121518912794,0.009289011082664849,25.66294288635254,0.018317589497753417,0.014853307802695781
83,0.14,0.001,0.011729443803689886,0.009221272079444868,25.099634170532227,0.017915513326575466,0.01025890710297972
84,0.16,0.001,0.012236118633869433,0.009601620546497372,23.06832514267301,0.016465613949088517,0.017615183256566525
85,0.18,0.001,0.01251075028820069,0.00963182090557949,22.40766522769845,0.01599405084061274,0.017887238529510796
86,0.2,0.001,0.012804964943646604,0.009740655330786538,21.46548683466349,0.01532154663430656,0.026049202657304704
87,0.22,0.001,0.013074936609568814,0.009837479859297713,20.61671449419713,0.014715713414844489,0.022410560282878578
88,0.24,0.001,0.01309461127478613,0.009938341691504399,18.42472382091539,0.013151123355399993,0.014192196424119174
89,0.25,0.001,0.013324837668038351,0.010092435136242204,18.1143855298971,0.01292961137037623,0.0218968199333176
90,0.25,0.001,0.013348385870586836,0.010099999846557082,18.203954796603675,0.012993543752036884,0.029446371365338564
91,0.25,0.001,0.013286320622766383,0.010028904840740574,18.254557322206455,0.013029662613994615,0.018180482438765466
92,0.25,0.001,0.013226854679984036,0.010065617072334977,17.71557571377817,0.01264495054516643,0.018307602498680353
93,0.25,0.001,0.01317667873275332,0.010017242713721558,17.705479542761392,0.012637744141871085,0.020828962908126414
94,0.25,0.001,0.013238702001920434,0.010074749780111178,17.730787643699145,0.012655808453746713,0.03361501672770828
95,0.25,0.001,0.013140787797528584,0.009995021857321262,17.628871334692278,0.012583063051172218,0.024266352644190192
96,0.25,0.001,0.013106411420557176,0.009999691805594874,17.410057525967925,0.012426879033524572,0.020030831336043775
97,0.25,0.001,0.013091815159733379,0.009891437273065856,17.93491767483507,0.012801511545207044,0.013477822474669665
98,0.25,0.001,0.012944140540655524,0.009758527858353598,17.852173484569033,0.012742450738450416,0.01654688105918467
99,0.25,0.001,0.013025686710129398,0.009882928901168977,17.61201496207558,0.012571031379068938,0.021103940438479185
100,0.25,0.001,0.013077546350300052,0.010031011854359416,17.072780017769492,0.012186138485203064,0.0363201517611742
101,0.25,0.001,0.013116276038070434,0.01000289394475487,17.447393892113297,0.012453528830915987,0.03651091945357621
102,0.25,0.001,0.013187988632761235,0.01004438778979289,17.616739664535856,0.012574403757698685,0.03554438834544271
103,0.25,0.001,0.013078362843648056,0.009956324538093987,17.495902931846384,0.012488153413166584,0.028252648655325174
104,0.25,0.001,0.012924443300016322,0.009859899030469651,17.173706346203666,0.01225817726352867,0.01804749562870711
105,0.25,0.001,0.012788183527579735,0.009687255490489922,17.37760003268979,0.012403711657879938,0.014483996434137225
106,0.25,0.001,0.012822469985153217,0.009775202461075053,17.07688651438884,0.012189069603418158,0.012851329694967717
107,0.25,0.001,0.01284410413273297,0.009806882825936293,17.02058835425231,0.01214888533494098,0.023753505782224238
108,0.25,0.001,0.012742326009254007,0.009747223009448905,16.784558883400464,0.011980413193005328,0.017349061672575772
109,0.25,0.001,0.01278650978637054,0.009650328465001292,17.575160397192278,0.01254472547979463,0.02256833901628852
110,0.25,0.001,0.012724723370021868,0.009714323966296219,16.870278520875623,0.012041597802195304,0.027729355148039758
111,0.25,0.001,0.012591677542987349,0.009564925851422367,16.9619170109778,0.012107007145594432,0.019567872979678214
112,0.25,0.001,0.012660919830983903,0.009639398353459012,16.932606676259937,0.012086086135802953,0.017638046061620116
113,0.25,0.001,0.01256181718578245,0.009557100606667424,16.83843153741162,0.012018866193727065,0.02557036920916289
114,0.25,0.001,0.012565955491207833,0.009544992189057269,16.92947876609569,0.012083853508990501,0.019318307051435113
115,0.25,0.001,0.012471510406469674,0.00948985031191829,16.709223992959902,0.011926640965710137,0.019749452243559062
116,0.25,0.001,0.012487890003615072,0.009485856788517606,16.823393234519457,0.01200813221593109,0.019561971887014806
117,0.25,0.001,0.012574614525882438,0.009434754895168361,17.595774454841447,0.012559439296817592,0.01191376312635839
118,0.25,0.001,0.012547573802675483,0.009630750807807436,16.345876377222318,0.01166729220358481,0.0134117427514866
119,0.25,0.001,0.012559963321093649,0.009454477509264082,17.40314336218688,0.012421943870226182,0.01605006936006248
120,0.25,0.001,0.012480215930001705,0.009389943402569626,17.317888089142514,0.012361090713163821,0.01869465853087604
121,0.25,0.001,0.012402647333504331,0.009388596372573136,16.890740706931034,0.012056203216938639,0.016239534132182598
122,0.25,0.001,0.012354623200981898,0.009406998472930823,16.51848852165922,0.011790498587908078,0.018836618051864207
123,0.25,0.001,0.0123848019891691,0.009452920862550819,16.430261312093275,0.011727524134256442,0.016315350134391338
124,0.25,0.001,0.012495009008973967,0.009437000671783909,17.137078505936667,0.012232033194815608,0.023119829944334924
125,0.25,0.001,0.012361057916062368,0.009384157457368604,16.68255045944947,0.011907602041006046,0.013079639116767794
126,0.25,0.001,0.012388051930798713,0.00936996009542432,16.913386199151585,0.012072367022949025,0.011893830844201148
127,0.25,0.001,0.012357688533329287,0.009375939442568731,16.709721069669097,0.011926995767072875,0.02073724160436541
128,0.25,0.001,0.012432495034482802,0.009375807825134311,17.12967587766689,0.012226749377349673,0.0147742431727238
129,0.25,0.001,0.012345004639706237,0.009358305089566124,16.737464321752825,0.011946798231086955,0.014615576365031302
130,0.25,0.001,0.012261869300433381,0.009310833623787332,16.537604194541164,0.011804142894033665,0.017660251818597317
131,0.25,0.001,0.012300605857216115,0.009289544096062016,16.873989596637575,0.012044246678542167,0.018473503994755447
132,0.25,0.001,0.01225946505257136,0.00926113969699264,16.802614778410398,0.011993301055253675,0.014635604340583086
133,0.25,0.001,0.01224746158972838,0.009278778759477961,16.636498005629626,0.011874730910513652,0.016101019573397934
134,0.25,0.001,0.012245268296596785,0.009237011089335362,16.858273847654917,0.012033029156070605,0.019592782016843557
135,0.25,0.001,0.01228421915517754,0.009303620626019339,16.703273981419194,0.011922393991020123,0.025547432363964617
136,0.25,0.001,0.012258186106728675,0.00929577053650628,16.60137662096315,0.011849662113464061,0.016562392003834248
137,0.25,0.001,0.012176806420315562,0.009166298214525114,16.87088853511227,0.01204203321564045,0.015750576043501496
138,0.25,0.001,0.012251528642876439,0.009311641098760622,16.475129323234725,0.011759549838140418,0.014572128362488002
139,0.25,0.001,0.01227785582658245,0.009260493310322929,16.909299592263835,0.012069450101544494,0.015095708891749382
140,0.25,0.001,0.012228389055057383,0.009224299626123957,16.834917368326646,0.012016357864615737,0.015895080636255443
141,0.25,0.001,0.012245634399907558,0.00923154094789226,16.89097980849087,0.012056373881863576,0.016143753891810775
142,0.25,0.001,0.012124024042819004,0.009129223434099984,16.78286342537559,0.011979203015971157,0.012429422000423074
143,0.25,0.001,0.012223002765181283,0.009318503185163158,16.276815514377112,0.01161799822582235,0.01648348569869995
144,0.25,0.001,0.012032650590073073,0.009097199439677088,16.450269041103045,0.011741805168524657,0.01959771360270679
145,0.25,0.001,0.012174555279444658,0.009135651349305586,17.030018677357504,0.01215561647206103,0.027547217323444784
146,0.25,0.001,0.012130097717892654,0.009140993698243881,16.750938640411242,0.011956415874668981,0.016169816837646067
147,0.25,0.001,0.012251434489824365,0.009241410463999582,16.868175036001414,0.012040096385439982,0.013557736529037356
148,0.25,0.001,0.012012780595196646,0.00903260957563548,16.700878397346063,0.011920684080903686,0.013735934160649776
149,0.25,0.001,0.012150897872207207,0.009220250654461342,16.42334692342833,0.011722588810441349,0.018329340440686792
150,0.25,0.001,0.01214439376342765,0.009122802798664726,16.932995596306814,0.012086363737549474,0.02033625717740506
151,0.25,0.001,0.0120030072838979,0.00906097621343802,16.487141330169276,0.011768123718893131,0.012775246170349419
152,0.25,0.001,0.012139830990454516,0.009072866583625301,17.18726889431216,0.01226785788316357,0.015655382769182324
153,0.25,0.001,0.012005289992130479,0.009036677141214302,16.636106528569517,0.011874451483632774,0.012097605038434267
154,0.25,0.001,0.011979095930615887,0.00908746018062252,16.204726506528896,0.01156654283121263,0.020951603655703366
155,0.25,0.001,0.011985428326287384,0.009012770773964939,16.658772980802443,0.01189063025039432,0.017778232228010893
156,0.25,0.001,0.011971365575023873,0.009050106906279205,16.370733240285816,0.011685034432752189,0.016354896710254252
157,0.25,0.001,0.012022516629190945,0.009096504107735824,16.397375081824425,0.01170405073649138,0.02261636033654213
158,0.25,0.001,0.012008160873271492,0.009033249138028861,16.671405042623327,0.011899646711365687,0.018412763834930956
159,0.25,0.001,0.011982247599412781,0.009085967604022098,16.230753873633507,0.011585120537925415,0.015235621249303222
160,0.25,0.001,0.012015734237972565,0.009007683479304397,16.857116932431683,0.012032203377895562,0.013341468409635127
161,0.25,0.001,0.011978410131513552,0.009081286126056352,16.23548317372018,0.011588496198229964,0.018674496677704155
162,0.25,0.001,0.011918374678876463,0.009018006941962451,16.25366102243615,0.011601471108091472,0.013104490702971816
163,0.25,0.001,0.011902611003171928,0.008950120789775681,16.545755044862172,0.011809960774348446,0.011622541409451514
164,0.25,0.001,0.011907959446376067,0.008924156480253263,16.72123196031329,0.011935211963107274,0.012223971541970968
165,0.25,0.001,0.011807238121870824,0.008887009308815783,16.364961328464826,0.011680914581345344,0.013565066270530224
166,0.25,0.001,0.011827578133696032,0.008833800820739509,16.77712733672696,0.011975108734280485,0.012629570497665554
167,0.25,0.001,0.011973656266602366,0.009031382287693856,16.488503676835105,0.011769096129075736,0.021278855623677373
168,0.25,0.001,0.012039910583028886,0.009061945667368355,16.68851478859847,0.011911859235259437,0.02848418231587857
169,0.25,0.001,0.012053449569050401,0.009062583417952972,16.760814408548015,0.011963464959705935,0.03401039924938232
170,0.25,0.001,0.011931458528775836,0.008926892311487135,16.83758885579338,0.012018264707918188,0.02424116770271212
171,0.25,0.001,0.011784290431238157,0.008832228500151999,16.543354625785195,0.011808247413122908,0.01708405464887619
172,0.25,0.001,0.011880891649743876,0.008937841488707274,16.49285438904075,0.011772201562484477,0.01541436486877501
173,0.25,0.001,0.01186696421273671,0.008851727914048854,16.897383385870654,0.012060944600906962,0.017250536649953574
174,0.25,0.001,0.011919951334790893,0.009029983644532325,16.19538033164745,0.01155987175706456,0.019824510905891657
175,0.25,0.001,0.011913124240088932,0.00892976562870772,16.7187432784701,0.011933435602048608,0.019740902236662805
176,0.25,0.001,0.011951030756643766,0.008978068120940283,16.660482956332412,0.011891850789673385,0.02104706526733935
177,0.25,0.001,0.01193722898718051,0.009046307884921284,16.200722457019523,0.011563684837273037,0.0245066883508116
178,0.25,0.001,0.011840061467612675,0.008822324185522363,16.911400286911878,0.012070949526703696,0.021261201472952962
179,0.25,0.001,0.011823987445944522,0.008921372122639652,16.26625638237166,0.011610461372142514,0.01874920097179711
180,0.25,0.001,0.01182204892444038,0.008840415472221686,16.709074928250374,0.011926534566916756,0.015358161646872759
181,0.25,0.001,0.011827869470918543,0.008869820933252183,16.576905229726734,0.011832195024787105,0.014843089913483709
182,0.25,0.001,0.011704740435796014,0.008730400626153144,16.668201400723518,0.011897360029067465,0.01548669917974621
183,0.25,0.001,0.011749942441304178,0.00888862893164288,16.034801158321997,0.011445254217217699,0.017490791389718652
184,0.25,0.001,0.011804712675999866,0.008827417442274145,16.68476235918603,0.011909180841674541,0.02027172828093171
185,0.25,0.001,0.01178388509850575,0.008827367057316168,16.568327383182975,0.011826072364870075,0.02723721310030669
186,0.25,0.001,0.011738652615568003,0.008787780662583733,16.536686268435815,0.011803487700525207,0.02006201958283782
187,0.25,0.001,0.011668792401143557,0.008757169998970745,16.316732814738845,0.011646490231790754,0.011957246577367187
188,0.25,0.001,0.01169456724955916,0.008790289434120385,16.275573339004183,0.01161711159100941,0.01229395903646946
189,0.25,0.001,0.01172338442380772,0.008794043176526847,16.41602785202093,0.011717364633847918,0.01872647856362164
190,0.25,0.001,0.011689886458901339,0.00876432242416919,16.394860146868176,0.011702255636593988,0.013721900701057166
191,0.25,0.001,0.011772404827470342,0.008824486348485192,16.52013577123917,0.011791674354917321,0.016848253551870584
192,0.25,0.001,0.011816879539185216,0.008812492953279913,16.83658217550886,0.012017546163817887,0.020540519151836634
193,0.25,0.001,0.011776641491133574,0.008837518066688395,16.47084667588946,0.01175649298778691,0.021219174144789577
194,0.25,0.001,0.011785153466313427,0.008859773089206375,16.393831940197007,0.011701521727478235,0.02043508389033377
195,0.25,0.001,0.011763245688840813,0.008835145719674737,16.409073109189496,0.011712400506202352,0.021245921263471246
196,0.25,0.001,0.011763850816700396,0.008852780886059505,16.313636146778624,0.011644279904909795,0.020795170566998422
197,0.25,0.001,0.011673449892469368,0.008746465798223383,16.402819937493604,0.011707937143107498,0.013683759490959346
198,0.25,0.001,0.011639757545494097,0.008629036676870684,16.872079037162415,0.012042882967282238,0.013380863005295396
199,0.25,0.001,0.011661021535053002,0.008770580814264748,16.198030096995257,0.011561763095642582,0.01461756561184302
200,0.25,0.001,0.011613190080563834,0.008730935111772024,16.152156629937185,0.011529019721582573,0.012161392311099917
201,0.25,0.001,0.01165949662244476,0.008726078553296072,16.43887428217059,0.011733671864504348,0.011969576182309538
202,0.25,0.001,0.011582853894794612,0.008684687666172024,16.241322825569252,0.011592664400834583,0.01219741249224171
203,0.25,0.001,0.011597342675299624,0.00865462041301368,16.491015413442554,0.011770888946068918,0.01422507711686194
204,0.25,0.001,0.011624893206110688,0.0086080949655917,16.90613753306293,0.012067193099973542,0.015201325644738972
205,0.25,0.001,0.01166672909461515,0.0087609542045726,16.28396295772369,0.011623099898446603,0.012699442100711167
206,0.25,0.001,0.011578212134279798,0.00858984538658998,16.74680732327257,0.011953467040166003,0.012093718571122736
207,0.25,0.001,0.011595654907315059,0.008713246270298437,16.15301781033845,0.011529634411376482,0.01929569768253714
208,0.25,0.001,0.011768904730157041,0.008742210337298406,16.961595651884785,0.012106777767226828,0.027303457958623767
209,0.25,0.001,0.011648289802358141,0.008715634148844464,16.434602154394426,0.011730622522765471,0.018404567730613053
210,0.25,0.001,0.01169512696222577,0.00873454328317309,16.591110429388987,0.011842334353596707,0.024344990379177034
211,0.25,0.001,0.011663267059520083,0.008695268190128313,16.632665617497207,0.011871995444323487,0.019085029256530106
212,0.25,0.001,0.011698508887311778,0.008845534228504225,15.988070300572824,0.01141189885836747,0.018456648918800056
213,0.25,0.001,0.011740577362445244,0.008819403326114453,16.370259676437712,0.011684696414302436,0.020237470627762377
214,0.25,0.001,0.011692903089991824,0.00870092681255273,16.76703588827208,0.011967905701835889,0.0134484070003964
215,0.25,0.001,0.011761499178396563,0.008694802386499128,17.185767619370374,0.012266786309329317,0.012073868070729077
216,0.25,0.001,0.011639062876459293,0.00875865136513153,16.141827037761306,0.011521646707895293,0.013631878304295242
217,0.25,0.001,0.011598898142608753,0.008635666961558,16.605947636100403,0.011852924793790437,0.017675740644335747
218,0.25,0.001,0.01175409294746198,0.008762671384456116,16.763926152058563,0.011965686047151008,0.024623658042401075
219,0.25,0.001,0.011659867109885383,0.008725490671171761,16.44424565494321,0.01173750582080172,0.018211305607110262
220,0.25,0.001,0.011640021024377585,0.008677290821667582,16.60314021048067,0.011850920921113969,0.017600326566025615
221,0.25,0.001,0.011587553100424563,0.008671845276901034,16.33962767405281,0.01166283203001628,0.016249812848400325
222,0.25,0.001,0.011618041648940229,0.008584933339182987,16.997538579082907,0.01213243296151528,0.01696457085199654
223,0.25,0.001,0.011670849566636648,0.008667366729650695,16.831518306482305,0.012013931696275735,0.017491777194663882
224,0.25,0.001,0.011545890568060125,0.008624060742361836,16.373935158075724,0.011687319884422358,0.011959360388573259
225,0.25,0.001,0.011540474077304378,0.008601620907216093,16.469333540404207,0.011755412948182874,0.014732823939993978
226,0.25,0.001,0.01158413043709301,0.008702493203584283,16.148695158646095,0.011526549006885151,0.017386624473147094
227,0.25,0.001,0.011595579742669539,0.008595639603887583,16.811665106027927,0.011999760960762261,0.015778791916090995
228,0.25,0.001,0.0115836326350096,0.008593157309973735,16.75862279000761,0.01196190063526596,0.01610978541430086
229,0.25,0.001,0.011579489681105165,0.008658011761132026,16.37196253064418,0.01168591187055259,0.014849514118395746
230,0.25,0.001,0.011551437407374122,0.0086151174753579,16.455137519336684,0.011745280170832751,0.014064750168472528
231,0.25,0.001,0.01152938864230459,0.00854799296202618,16.707739725904172,0.011925581531694627,0.013755368767306209
232,0.25,0.001,0.01146351297967559,0.008573291196963673,16.196802239230628,0.011560886680393024,0.01354295073542744
233,0.25,0.001,0.011566215642121942,0.008500616391510682,17.179619314368637,0.012262397797550775,0.016416098340414464
234,0.25,0.001,0.011570239943903606,0.008578967351840574,16.76309118312519,0.011965090066470514,0.01398794015403837
235,0.25,0.001,0.011589688159460324,0.008595568014056662,16.779050260652102,0.011976481270986512,0.02115258655976504
236,0.25,0.001,0.011560997226190098,0.00858692588959719,16.666695548977913,0.011896285188421065,0.021692658541724086
237,0.25,0.001,0.011635527433624174,0.008601295847169177,17.003832821242153,0.012136925639716026,0.01918004988692701
238,0.25,0.001,0.01157121948377274,0.008606627880388212,16.613570579795336,0.011858365867091603,0.016470042115543038
239,0.25,0.001,0.011496409005180458,0.008515850746573059,16.703049114177322,0.01192223348620794,0.013192445505410433
240,0.25,0.001,0.011510727593602051,0.008489748048209728,16.929569885720333,0.012083918547980252,0.012635697261430323
241,0.25,0.001,0.01156070248089633,0.008629294594253645,16.427610089164634,0.011725631755292388,0.01863956672605127
242,0.25,0.001,0.011524993702606604,0.008665727904904228,16.02332649480828,0.011437063879235033,0.014141232473775744
243,0.25,0.001,0.011471669706129612,0.008510876194813886,16.592286946992168,0.011843174123477636,0.015900764672551304
244,0.25,0.001,0.011526042465364568,0.008625260086559313,16.2559838440741,0.011603129082137115,0.02469856815878302
245,0.25,0.001,0.011489942259110477,0.008569186714002008,16.367913275306403,0.0116830216097833,0.01533177518285811
246,0.25,0.001,0.01139041140480333,0.008401936859575682,16.74741195278917,0.011953898610127888,0.01675490220077336
247,0.25,0.001,0.011504116891090266,0.008571896689850431,16.432163380118958,0.011728881784524595,0.016500214813277125
248,0.25,0.001,0.011409442147898883,0.00850437747469115,16.279982604314146,0.011620258818211382,0.016821352881379426
249,0.25,0.001,0.011465786297411117,0.008518075180040698,16.518973146463587,0.011790844501401561,0.016519127937499434
250,0.25,0.001,0.011504722759127617,0.008540345347734518,16.612371144856947,0.011857509739369698,0.018480416387319565
251,0.25,0.001,0.011380185442264944,0.008436572420772767,16.49600778604699,0.011774452381189859,0.01750016352161765
252,0.25,0.001,0.011514547919472233,0.008545436871982297,16.638898699564706,0.01187644446792627,0.023640333907678723
253,0.25,0.001,0.011656966052266187,0.008744218049156094,16.32304028340302,0.011650992350751621,0.026678661117330194
254,0.25,0.001,0.011496889982453861,0.00852855790292592,16.634533815508846,0.011873328918992752,0.014089349308051169
255,0.25,0.001,0.01146380255592572,0.008542813482698395,16.369223382275177,0.011683956732530462,0.01192711223848164
256,0.25,0.001,0.011475387741059195,0.0084951723393004,16.701128022639512,0.011920862257415784,0.013453800813294947
257,0.25,0.001,0.011396706307624105,0.008356250222674754,17.03871635786831,0.01216182466657267,0.012156889890320599
258,0.25,0.001,0.011507865838608888,0.008505968531536744,16.822632244060134,0.012007589039300595,0.01630067906808108
259,0.25,0.001,0.011429318938583266,0.008442627819149255,16.737417870733935,0.011946765075470333,0.021779527654871345
260,0.25,0.001,0.011434450525969397,0.00849335029818866,16.481925722813504,0.011764400944192364,0.013842090615071356
261,0.25,0.001,0.011340116585836661,0.008409795086977263,16.421522173819064,0.011721286348193478,0.012708712834864855
262,0.25,0.001,0.011364163294044124,0.00842409037606685,16.47616957785261,0.011760292346789871,0.014220795826986432
263,0.25,0.001,0.01134634285547067,0.008357651452391559,16.748626642352107,0.011954765626232768,0.015945986611768603
264,0.25,0.001,0.011351586364242187,0.00841071451790468,16.480645437948567,0.011763487107743446,0.016008462640456855
265,0.25,0.001,0.011350829268126509,0.008501325601785074,15.968618047289453,0.011398014309271558,0.024812693241983652
266,0.25,0.001,0.01131787482551482,0.008326133383706408,16.76571981771544,0.011966966322423583,0.01513242709916085
267,0.25,0.001,0.01138871972445057,0.008344143531468238,17.061804475742658,0.012178304408096115,0.015469582402147353
268,0.25,0.001,0.011320622422321654,0.00838379150329719,16.458000753644253,0.011747323878404178,0.01394701685057953
269,0.25,0.001,0.011386709092550924,0.008391309403468689,16.78622056303066,0.011981599259836303,0.014701897045597434
270,0.25,0.001,0.011340267159142348,0.008369024485089372,16.650844865490775,0.011884971352955586,0.015928096370771527
271,0.25,0.001,0.011342715215767575,0.008344944015421851,16.79950916506838,0.011991084343375003,0.013424734177533537
272,0.25,0.001,0.011349971003537615,0.008362235708821029,16.743268766778005,0.011950941303910069,0.011800951964687556
273,0.25,0.001,0.011350320343042045,0.008426743360260688,16.383724395885217,0.011694307206199298,0.013107249629683793
274,0.25,0.001,0.011422068999030964,0.008435131420735188,16.73879739186649,0.011947749744372942,0.012779856042470783
275,0.25,0.001,0.011417541042881242,0.008434919693291708,16.714610345498965,0.011930485614203401,0.015410491381771863
276,0.25,0.001,0.011395086375711787,0.008449905283553891,16.50479379179176,0.011780723620122597,0.01828169566579163
277,0.25,0.001,0.011371439888129848,0.008451454052660923,16.36360095161538,0.011679943577170148,0.013766675139777362
278,0.25,0.001,0.011334512138731094,0.008347172428361714,16.741051353221376,0.011949358567609833,0.011408140475396067
279,0.25,0.001,0.011377559511161787,0.008393474142819513,16.722815576078588,0.011936342309834824,0.012742099701426923
280,0.25,0.001,0.011277475626122482,0.008336747235996754,16.479842152657987,0.01176291374208279,0.011355511611327529
281,0.25,0.001,0.011268652617671083,0.008349976750440472,16.35625955839865,0.011674703467807745,0.013651290617417544
282,0.25,0.001,0.011275601426879651,0.008314048566379661,16.596542316753272,0.011846211503749659,0.012215068330988288
283,0.25,0.001,0.011314979115883335,0.008336849650978131,16.68943854919167,0.01191251859328456,0.015298396931029856
284,0.25,0.001,0.011296711890555625,0.008341533859874484,16.56081813912204,0.011820712447624584,0.019752218504436314
285,0.25,0.001,0.011370360550336443,0.008347466600221056,16.940297905534635,0.012091575949703523,0.018014180473983288
286,0.25,0.001,0.011314504149504103,0.008353533497787849,16.593280250849162,0.011843883119806683,0.013577439007349312
287,0.25,0.001,0.011279303954678332,0.008297491432309931,16.710077872963453,0.011927250444656283,0.010863261704798788
288,0.25,0.001,0.011281777917525394,0.008384223303485126,16.237896198789105,0.011590218557308426,0.016632641665637493
289,0.25,0.001,0.011312758655787555,0.008321411773464826,16.763508892475777,0.011965388217327464,0.01457032177131623
290,0.25,0.001,0.011420548389214356,0.008440799730541144,16.69851119445401,0.011918994428589586,0.019672024413011968
291,0.25,0.001,0.011291069531707524,0.008245214335945756,17.068972325220898,0.012183420646124838,0.013492890866473317
292,0.25,0.001,0.011337494579302432,0.008430469144688814,16.29097128955558,0.011628102276627823,0.01755887095350772
293,0.25,0.001,0.01141887873525052,0.008456618510853645,16.600506528496222,0.011849041062452692,0.01773966196924448
294,0.25,0.001,0.011369349703387923,0.008377053221793414,16.768829949558043,0.01196918625949896,0.016290265135467052
295,0.25,0.001,0.011313780206845318,0.008381880266697646,16.430366282900348,0.011727599059886044,0.021995584829710424
296,0.25,0.001,0.011289346820825313,0.008337263119565608,16.54347762894943,0.011808335209814011,0.015337882214225829
297,0.25,0.001,0.01135906281852566,0.008230269154509343,17.533760029155616,0.012515174895899797,0.014326578588224947
298,0.25,0.001,0.011235246573082745,0.00836586626449917,16.08000771135222,0.011477521564134346,0.018204985943157226
299,0.25,0.001,0.011327387427496338,0.00835127099600161,16.67815597400915,0.011904465363318451,0.016233712551184
300,0.25,0.001,0.01126812830339613,0.008334841473459156,16.438139344927524,0.011733147284031067,0.012633527629077435
301,0.25,0.001,0.011212770188609585,0.008365941128193291,15.953629864355362,0.011387316105892479,0.015195345622487366
302,0.25,0.001,0.011274691939549155,0.00825066778272,16.946631660628007,0.012096096831283374,0.012447389017324895
303,0.25,0.001,0.011163166850219647,0.008256367257263463,16.289705393095723,0.01162719871027532,0.015532035671640188
304,0.25,0.001,0.011199470438616245,0.008278747011935867,16.367733909573616,0.011682893582850547,0.01378448907053098
305,0.25,0.001,0.011280499036753282,0.008309299734270598,16.65060098306581,0.011884797275564461,0.012871957384049892
306,0.25,0.001,0.011298987493895027,0.008425037238307655,16.105617131728792,0.011495800950555883,0.012282344221603125
307,0.25,0.001,0.011227706479778977,0.008278233928435104,16.528844441909456,0.011797890393939655,0.015417247777804732
308,0.25,0.001,0.011290932611021412,0.008341529439142438,16.528455538520646,0.011797612804083259,0.013915990421082824
309,0.25,0.001,0.01130567608181566,0.008319469707647915,16.734700048854776,0.011944825159782138,0.01886957709211856
310,0.25,0.001,0.011305825386245178,0.008462684684510315,15.932960651847473,0.011372562920662008,0.023209684528410435
311,0.25,0.001,0.011209624790989156,0.008233878781864476,16.676080374738536,0.011902983850634215,0.02162469201721251
312,0.25,0.001,0.011245761042273721,0.008350678223417056,16.224044191785254,0.011580331328897396,0.013272227486595511
313,0.25,0.001,0.01123772756355168,0.00829015181940781,16.518214271578728,0.011790302834817079,0.014934596954844892
314,0.25,0.001,0.011239657516074752,0.008258407427136294,16.70692610428323,0.011925000788210727,0.01665659132413566
315,0.25,0.001,0.011242609772034087,0.008258978189599565,16.720271023079817,0.011934526069293232,0.018358606728725135
316,0.25,0.001,0.011280295646476955,0.008348087306382484,16.432095265284374,0.011728833165798983,0.01436443068087101
317,0.25,0.001,0.011167341282013722,0.008261959182350656,16.28176166084656,0.011621528665843369,0.02023286570329219
318,0.25,0.001,0.011265525354405939,0.008140114941288551,17.51480034240989,0.012501641928914984,0.019662170321680605
319,0.25,0.001,0.011196022462831835,0.008259161489336512,16.45816913754659,0.0117474440667713,0.01514568889979273
320,0.25,0.001,0.01117406005047945,0.008310858636085904,16.045381262833374,0.011452806040566291,0.011699337512254715
321,0.25,0.001,0.0112036032008422,0.008269189649534017,16.444454301392668,0.011737654747603616,0.013125945057254285
322,0.25,0.001,0.01114914432070401,0.00807709949636043,17.215738979489522,0.012288179143104584,0.01221882167737931
323,0.25,0.001,0.011168674037153284,0.008252537341617601,16.342030379449437,0.011664547023161624,0.013661826029419899
324,0.25,0.001,0.01118496005061412,0.008248655042127101,16.455053312809707,0.01174522006624533,0.013401878881268203
325,0.25,0.001,0.011170434476767044,0.008184176739549272,16.734988241737067,0.011945030864908685,0.013100630370900035
326,0.25,0.001,0.011189318770404466,0.00817009198223139,16.919747760722732,0.012076907752121864,0.013705146731808782
327,0.25,0.001,0.011120938728502484,0.00826258695883652,16.018204530774245,0.01143340794487812,0.016846585902385414
328,0.25,0.001,0.011304029442500078,0.008341812764550661,16.60026257943899,0.011848866937501064,0.01472679281141609
329,0.25,0.001,0.011204546439465477,0.00814294534446631,17.15721236149817,0.01224640425517357,0.012633242295123637
330,0.25,0.001,0.011182287358170513,0.008291735448040816,16.19865291295614,0.011562207646649635,0.01586392498575151
331,0.25,0.001,0.011219827010902255,0.008318517853274095,16.258936244847995,0.01160523643458101,0.018890279345214367
332,0.25,0.001,0.011276407443865417,0.008238098110320396,17.026685473179715,0.012153237311334558,0.014341518864966929
333,0.25,0.001,0.011199166908795136,0.008247427764352753,16.54154515995209,0.011806955860065731,0.01283611124381423
334,0.25,0.001,0.011212228394751986,0.008320742581592768,16.203887764543424,0.011565944157418575,0.011941077245865017
335,0.25,0.001,0.011131387850570627,0.008115366304610494,16.901786221166887,0.012064087238520262,0.01494209363590926
336,0.25,0.001,0.011149907496851344,0.008220543165784735,16.416157297692443,0.011717457029045284,0.012718261335976422
337,0.25,0.001,0.01109960236419887,0.008213200065506597,16.175398714157172,0.011545609360569002,0.010869987774640322
338,0.25,0.001,0.011122321722191233,0.008143493204121376,16.693356643077067,0.011915315234173496,0.012608704098965973
339,0.25,0.001,0.011200503303819869,0.008283811916218966,16.34513788348202,0.011666765084569609,0.017057630233466625
340,0.25,0.001,0.01110812507195634,0.00818585986108824,16.37637430715769,0.011689060890191071,0.014869072241708636
341,0.25,0.001,0.01104565430025867,0.008091422115090632,16.55551790045859,0.011816929265138179,0.015527161303907633
342,0.25,0.001,0.011060364458986505,0.00815383081759558,16.2882136049229,0.011626133907867878,0.013801944674924016
343,0.25,0.001,0.01110289158811996,0.008196701722699483,16.286287724190924,0.011624759260664471,0.014090904733166099
344,0.25,0.001,0.011166401959825552,0.008281592149531477,16.16647392173001,0.011539239059050684,0.014793304144404829
345,0.25,0.001,0.011159994334437961,0.008107749977063664,17.104777652623874,0.012208977624999196,0.01561933325137943
346,0.25,0.001,0.011123058508154347,0.008206629950764658,16.343665189618108,0.011665713911219205,0.015073238522745669
347,0.25,0.001,0.011134241605950234,0.008216744191196288,16.349655143038156,0.011669989395459069,0.014377542422153056
348,0.25,0.001,0.011141115701940383,0.008110899748646667,16.981329372356033,0.012120863220810872,0.016182098595891148
349,0.25,0.001,0.011191184270525083,0.008329823893783655,16.03506493047856,0.011445442491419384,0.012564015691168606
350,0.25,0.001,0.0111904974750296,0.008183651095394484,16.850365984387793,0.012027384714052671,0.017051673028618097
351,0.25,0.001,0.011130757751878693,0.008161285424434202,16.640922538057687,0.011877889035016194,0.020009284955449402
352,0.25,0.001,0.011247140888173508,0.008264822448201184,16.712911689125296,0.011929273154265022,0.018656527856364846
353,0.25,0.001,0.01113989392059599,0.008185965139174826,16.553817665733103,0.011815715678610351,0.01321180269587785
354,0.25,0.001,0.011104031945843104,0.008147180236989885,16.57019698463673,0.011827406841282462,0.01468341879080981
355,0.25,0.001,0.01114850505926203,0.008221797828102997,16.40126789709366,0.011706829334113962,0.017083109472878277
356,0.25,0.001,0.01117760891818714,0.008225360352497173,16.544401743526542,0.011808994820504314,0.015414290479384363
357,0.25,0.001,0.011156777782146066,0.008211712580678505,16.5041460428696,0.011780261272569308,0.013303504674695432
358,0.25,0.001,0.011160186134018492,0.008188182402678712,16.65510888911751,0.011888014910148115,0.01288590714102611
359,0.25,0.001,0.011185127526001119,0.008349835193476042,15.888976459419883,0.011341168065253307,0.0167970898328349
360,0.25,0.001,0.011227973338265347,0.00818181238808226,17.070685848919066,0.012184643718000761,0.014725477201864123
361,0.25,0.001,0.011113728750415764,0.008124860267939786,16.749619929551038,0.011955474610671691,0.011803005123510957
362,0.25,0.001,0.011158933049661623,0.008271242601707512,16.182617699735548,0.01155076209831231,0.013464601361192763
363,0.25,0.001,0.011172452246095156,0.00816733053352635,16.84070144886533,0.012020486401759694,0.014017371053341776
364,0.25,0.001,0.01108985189267121,0.008169380451784385,16.36632175528847,0.011681885621190914,0.012683704146184027
365,0.25,0.001,0.010940999402684936,0.008000016757429427,16.481267387689982,0.011763931040463941,0.012343363487161696
366,0.25,0.001,0.01110690233488791,0.008192373246491346,16.333021343014646,0.011658116590303103,0.012383021414279938
367,0.25,0.001,0.011051034766318496,0.008044953848434587,16.846077073609464,0.012024323393011752,0.011344892554916441
368,0.25,0.001,0.010976665311667856,0.00809195577919353,16.16591268647706,0.01153883846286728,0.013886671978980303
369,0.25,0.001,0.011134228307151899,0.00808634157556894,17.080358930029725,0.012191548129928426,0.015387365245260298
370,0.25,0.001,0.011110608071479214,0.008115530595606331,16.78441403734632,0.01198030980538638,0.018052898114547133
371,0.25,0.001,0.011091609180429096,0.008142631964587229,16.526067958648547,0.01179590860717241,0.012735136901028454
372,0.25,0.001,0.011147957539194016,0.00818388569921125,16.610658270823382,0.011856287131208695,0.018135986174456775
373,0.25,0.001,0.011212080582878736,0.0081863662057178,16.95610277100942,0.012102857081377172,0.01721055433154106
374,0.25,0.001,0.011079232362973378,0.008105533047046464,16.66461259100635,0.011894798423273626,0.013017074088566005
375,0.25,0.001,0.01120620987512269,0.008175850748267497,16.982132670140164,0.012121436595389124,0.019185100798495114
376,0.25,0.001,0.011275889604112467,0.008422293256984528,15.991554909918506,0.01141438608845004,0.020135295344516635
377,0.25,0.001,0.011271480157743635,0.008270381286935516,16.81815808725149,0.012004395494112412,0.02235720306634903
378,0.25,0.001,0.011099865078503128,0.008125539124825375,16.668122220768158,0.011897303512325595,0.015803579590283334
379,0.25,0.001,0.011127442121505737,0.008144422857229106,16.716840294250755,0.011932077297823522,0.020942533505149186
380,0.25,0.001,0.011079623900744332,0.00801852094538217,17.154421115025684,0.012244411930782073,0.014013142907060683
381,0.25,0.001,0.01117188095900039,0.008232160727595137,16.47419306909153,0.011758881562520722,0.013944078527856618
382,0.25,0.001,0.011109960428134063,0.008097555781165585,16.881515232236104,0.012049618295671737,0.014985226618591696
383,0.25,0.001,0.011260438962599597,0.008289494218231549,16.649174711069165,0.011883779237022959,0.02582822961267084
384,0.25,0.001,0.011201355321633764,0.008187567861954067,16.889264373279556,0.012055149445595686,0.022668187273666263
385,0.25,0.001,0.011040841509876814,0.008146069736492425,16.22230209117373,0.011579087859510158,0.015517645049840212
386,0.25,0.001,0.011064796354702987,0.008123745995382554,16.481646950067912,0.011764201962932128,0.013434811786282808
387,0.25,0.001,0.011047567716722405,0.00812397477334959,16.383814657619425,0.011694371632847556,0.01313940598629415
388,0.25,0.001,0.010966082644449572,0.008036450710651916,16.417657319114717,0.01171852770814755,0.014673184021376073
389,0.25,0.001,0.011056389984996038,0.008047092466017305,16.864102750886477,0.01203718968657136,0.014021778013557196
390,0.25,0.001,0.011052450075680512,0.008181646885147002,16.087981453108476,0.011483213028628463,0.01364213996566832
391,0.25,0.001,0.011040750980442268,0.008071624450222895,16.638985463104916,0.011876506397648048,0.015893594943918288
392,0.25,0.001,0.011109600392654212,0.008099597622538758,16.86805547689246,0.012040011047032449,0.022225141525268555
393,0.25,0.001,0.011088750272273497,0.008131591414048551,16.57191887068436,0.011828635882001684,0.015366567182354629
394,0.25,0.001,0.011078767494733677,0.008100434987273019,16.690575370621993,0.011913330028994999,0.01749600563198328
395,0.25,0.001,0.011128636479670564,0.008159767974607289,16.63753816029911,0.011875473347822347,0.01113204553257674
396,0.25,0.001,0.011082319184877466,0.008126498773433756,16.56441676876951,0.01182328106264776,0.014463657280430198
397,0.25,0.001,0.011031266948509165,0.00813093637909301,16.253453467090058,0.011601322960092832,0.014103925321251154
398,0.25,0.001,0.011023685214105652,0.00807987930716776,16.497088511437827,0.011775223776900661,0.015164044802077115
399,0.25,0.001,0.011048094137657158,0.008072766430643448,16.67373676799791,0.011901311040683732,0.012871904764324427
400,0.25,0.001,0.011040784800872533,0.008194418558972892,15.95103614090832,0.011385464768671178,0.014569308899808675
401,0.25,0.001,0.011110412233456253,0.008139734595656135,16.64767850017964,0.011882711277787039,0.018096296582370996
402,0.25,0.001,0.011102222943247406,0.008129645862889081,16.65832150138622,0.011890307995279242,0.0229764444520697
403,0.25,0.001,0.011136521190795315,0.008198286250119776,16.46586857091912,0.011752939736558972,0.015403266879729927
404,0.25,0.001,0.010994341976810491,0.007959319386370968,17.008266790464976,0.012140090499975002,0.013876418815925717
405,0.25,0.001,0.010992517141731025,0.008067141470039776,16.393805416390364,0.011701502795424958,0.017593155382201076
406,0.25,0.001,0.011023682090718153,0.00819804091169194,15.834892656084753,0.011302564351238225,0.016041129361838102
407,0.25,0.001,0.010991836426267197,0.008017152059807006,16.670132124788378,0.011898738133325037,0.011157770990394056
408,0.25,0.001,0.01099626495051462,0.007993603576641676,16.826914566573098,0.012010645657796644,0.014135664561763406
409,0.25,0.001,0.010983717298403578,0.00801409809447532,16.641746221150893,0.011878476960136254,0.011895811534486711
410,0.25,0.001,0.011038544876541634,0.008068668895998896,16.643185882068618,0.011879504555366608,0.014101590379141271
411,0.25,0.001,0.010926517186173965,0.007982346607477904,16.499132439559204,0.011776682683482658,0.013123161799740046
412,0.25,0.001,0.010978122717623627,0.007996467041770833,16.709198264575942,0.01192662260141038,0.011640365002676845
413,0.25,0.001,0.010986739338485435,0.008020912307237303,16.62049580036813,0.011863308922461192,0.012410559924319386
414,0.25,0.001,0.0109942911729607,0.00814208154887872,15.983782576681746,0.011408838384498033,0.019865437992848456
415,0.25,0.001,0.011035983723193797,0.008073980269311037,16.599067596368915,0.011848013987415357,0.02105581172509119
416,0.25,0.001,0.010983434326816595,0.00812059890999414,16.043329730304567,0.011451341706141732,0.015725400997325778
417,0.25,0.001,0.011029559248594738,0.008072975604066942,16.56869575966914,0.011826335303118586,0.015575624769553542
418,0.25,0.001,0.011041820878935692,0.008049911628253595,16.766659490926816,0.011967637038491661,0.012258818838745356
419,0.25,0.001,0.010941687743606526,0.008012536181112565,16.414965833638952,0.011716606590748717,0.01090545958140865
420,0.25,0.001,0.010985232499228816,0.00808224187732784,16.268360146268485,0.011611962988057448,0.01014618162298575
421,0.25,0.001,0.010924682029274874,0.007986476966159574,16.465701382233068,0.011752820401308399,0.010444772255141288
422,0.25,0.001,0.01089159256115751,0.007992948281403843,16.244002787827405,0.01159457729323869,0.015816553554031998
423,0.25,0.001,0.010937868418196403,0.007985868129277334,16.54301072832799,0.011808001947414696,0.015657878946512938
424,0.25,0.001,0.01101410040005586,0.008074876417174089,16.47141142599447,0.011756896092786918,0.01805464568315074
425,0.25,0.001,0.01090932248249715,0.008018568471301852,16.199785882208545,0.011563016332768412,0.01319359359331429
426,0.25,0.001,0.011012886606124291,0.0079844382481739,16.971424798257488,0.012113793574773367,0.01639309711754322
427,0.25,0.001,0.010995387799191944,0.008022990683703704,16.657313367685376,0.011889588413765436,0.011015349067747593
428,0.25,0.001,0.010928497259305815,0.008014846231186494,16.328100304416175,0.011654604071674643,0.01174375816481188
429,0.25,0.001,0.01103724162683997,0.0080393187205539,16.80036010075865,0.011991691720741363,0.014977380516938865
430,0.25,0.001,0.011000161616367543,0.007999650828995819,16.814863579762555,0.012002043954148861,0.014451761031523347
431,0.25,0.001,0.011005291235368845,0.008041979623023079,16.606398507497197,0.011853246614915915,0.015824025496840477
432,0.25,0.001,0.011023524290511962,0.008061729025860281,16.597901431754167,0.011847181607247799,0.016233601898420602
433,0.25,0.001,0.010909080472835807,0.007988750540110482,16.365529614244487,0.011681320210024616,0.012527556682471186
434,0.25,0.001,0.010912374316767575,0.007850032362794121,17.161364484562103,0.012249367940444043,0.013842244516126812
435,0.25,0.001,0.010927162336502793,0.00791318104582062,16.890351507861542,0.012055925416032507,0.012650649121496826
436,0.25,0.001,0.010978082056649387,0.007950508157726719,16.966523574429306,0.012110295199449898,0.014326859032735229
437,0.25,0.001,0.011007566383214236,0.008137028458971515,16.086494329194316,0.011482151555456328,0.021018738392740488
438,0.25,0.001,0.011052630605851198,0.008101632241078339,16.537395560585257,0.011803993976149361,0.01550979248713702
439,0.25,0.001,0.010957850842822067,0.007947640347103364,16.86922025472316,0.012040842437347009,0.01224309258395806
440,0.25,0.001,0.01101250587820226,0.008070599466692412,16.48644274082767,0.011767625082674996,0.01619548094458878
441,0.25,0.001,0.010982542583417944,0.007946741681822522,17.012628688562383,0.012143203917603415,0.017369123524986207
442,0.25,0.001,0.010958025240091257,0.008089120215105959,16.07734359507998,0.01147561998221269,0.011773317528422922
443,0.25,0.001,0.010950829223709336,0.007928701170504614,16.936006037949475,0.012088512518165222,0.010947593953460455
444,0.25,0.001,0.010976335285922846,0.008088945435547152,16.180932465599092,0.011549559218843035,0.012705978355370462
445,0.25,0.001,0.011004727683538433,0.007916551990247449,17.306136951696406,0.012352703034758319,0.012658943422138691
446,0.25,0.001,0.010966422520252555,0.008038235189775452,16.40956322282683,0.011712750337492384,0.013074631220661104
447,0.25,0.001,0.011116149823087793,0.008160558655272404,16.563133747817126,0.011822365273245629,0.018155491910874844
448,0.25,0.001,0.01107169085845156,0.00810676820852741,16.61542690893448,0.011859690870046026,0.015303463442251086
449,0.25,0.001,0.011127385867995465,0.008139224287821996,16.745657866698686,0.011952646585794922,0.017476344131864607
450,0.25,0.001,0.011038217705768008,0.008043616798637215,16.78174401162493,0.011978404005442492,0.015494034625589848
451,0.25,0.001,0.011001497978856991,0.00805836620305433,16.49331059518339,0.011772527191422836,0.01455947308568284
452,0.25,0.001,0.010966198551407548,0.007992087509564438,16.666917621829104,0.0118964436986646,0.016665519156958908
453,0.25,0.001,0.010939697759413043,0.007960676402666943,16.69443462405142,0.011916084670986026,0.019436445203609765
454,0.25,0.001,0.010908136762450876,0.007981898082119278,16.39864169041663,0.011704954811146773,0.018615129869431257
455,0.25,0.001,0.010920316538078035,0.00802203588895337,16.241965273061695,0.011593122964355242,0.020014284644275904
456,0.25,0.001,0.01096578726878463,0.008066592660761035,16.247086978895695,0.0115967787144152,0.017171662882901728
457,0.25,0.001,0.010949682175917916,0.008040134156505093,16.305106587805604,0.011638191711495792,0.016981986351311207
458,0.25,0.001,0.01102156785833263,0.00798931167009551,16.99276441882271,0.01212902528110115,0.021556682884693146
459,0.25,0.001,0.01094375753279076,0.008029717675463082,16.330279266990427,0.01165615936259131,0.01696780719794333
460,0.25,0.001,0.01102948475092259,0.008156046301825988,16.10274941640129,0.011493754044540536,0.020862561068497598
461,0.25,0.001,0.010987851301037329,0.007977908778138556,16.86771712240694,0.012039769537763697,0.02331698581110686
462,0.25,0.001,0.010926432773373273,0.008022077686629181,16.276007048427797,0.011617421162332475,0.014748858637176454
463,0.25,0.001,0.010862048235457536,0.00785986346286197,16.82424347889996,0.012008739099857215,0.015394322923384607
464,0.25,0.001,0.010963918909625716,0.008085607058942058,16.130058305232286,0.011513246470544101,0.017182593583129346
465,0.25,0.001,0.010955306514284236,0.007975675299861285,16.697854412695207,0.011918525633615423,0.01866600103676319
466,0.25,0.001,0.010938967826194638,0.008068587626920257,16.08561100605794,0.011481521060712305,0.015263470355421305
467,0.25,0.001,0.010935162072065876,0.00796206934605298,16.661213037749043,0.011892371904174906,0.012067547417245805
468,0.25,0.001,0.010892175585356862,0.007924728990251841,16.629569924033884,0.011869785813014906,0.01201424014288932
469,0.25,0.001,0.010902058137946775,0.00793693976183971,16.616523746840297,0.011860473766481297,0.012416445417329669
470,0.25,0.001,0.010838922161983091,0.007908553141270923,16.421787844995222,0.011721475977869537,0.013679760857485235
471,0.25,0.001,0.0109153708288503,0.007935150530530895,16.70115384264284,0.011920880687111234,0.013561848783865571
472,0.25,0.001,0.010894716737637353,0.007906857048319938,16.74396459920958,0.011951437972312334,0.017706876387819648
473,0.25,0.001,0.010811249026011951,0.007952166955072157,16.02229611425941,0.011436328418457825,0.012311219237744808
474,0.25,0.001,0.010886621075849085,0.00799276149022397,16.217189197456992,0.011575438399326904,0.01475627941545099
475,0.25,0.001,0.010886684072297472,0.00799135453429675,16.22542774416994,0.011581318875210522,0.015997876063920557
476,0.25,0.001,0.010936058642887653,0.007925039165405207,16.873752985458708,0.012044077791191083,0.012987762340344489
477,0.25,0.001,0.010922271441098905,0.008048646367565774,16.103794780881124,0.01149450020048617,0.011925515194889158
478,0.25,0.001,0.010836770131728535,0.007901800552374931,16.44756919327782,0.011739878082282525,0.013406851445324719
479,0.25,0.001,0.01087463241249453,0.007951002472434111,16.38402305003337,0.011694520378325033,0.012339700595475733
480,0.25,0.001,0.010815076773994355,0.007955223264977922,16.026620423429396,0.011439415006016699,0.010011765756644309
481,0.25,0.001,0.010891759247563812,0.008020207507527681,16.09217538791973,0.01148620655811544,0.016770042246207595
482,0.25,0.001,0.010912931845503083,0.007890593195456085,16.937185162540086,0.012089354148850881,0.01282726158387959
483,0.25,0.001,0.010817606075296755,0.007876726184609675,16.480692717706273,0.011763520854893843,0.013992173597216606
484,0.25,0.001,0.01085057058351269,0.007996626068150632,15.993504924024556,0.01141577796147363,0.015555826714262366
485,0.25,0.001,0.010881270245368304,0.007952554810255376,16.412520670994923,0.011714861292644485,0.02004321024287492
486,0.25,0.001,0.010870062912850921,0.007883219817026993,16.738268764779036,0.011947372423111375,0.016083803318906575
487,0.25,0.001,0.010849033189555183,0.007917552722788794,16.428016487687955,0.011725921832753715,0.016339447582140565
488,0.25,0.001,0.010794130369500303,0.007918568033171923,16.11465175078946,0.01150224964367556,0.014188220840878785
489,0.25,0.001,0.010758804946356986,0.007890721628499343,16.07273818103507,0.011472332748775925,0.010785292426589876
490,0.25,0.001,0.01092865619824703,0.007966302392199049,16.601032323712346,0.011849416362392824,0.012155280448496342
491,0.25,0.001,0.010847154158822314,0.007910114342924289,16.45917101197888,0.011748159180570223,0.014014428248628974
492,0.25,0.001,0.01083928411297793,0.008006221480569986,15.876483180116878,0.011332250663894988,0.01199383067432791
493,0.25,0.001,0.010829485533962343,0.007853828053352094,16.675584551548855,0.011902629944003465,0.012985557783395052
494,0.25,0.001,0.010889860797331844,0.007955167141608797,16.44602356623354,0.011738774850987536,0.010466190869919956
495,0.25,0.001,0.010685065021030768,0.007814580865415813,16.086192726568363,0.011481936278778275,0.010482390352990478
496,0.25,0.001,0.010880471341409537,0.007966604789385498,16.32930898458156,0.01165546679841653,0.01499495713505894
497,0.25,0.001,0.010851881731155137,0.007924638660095925,16.404270030525574,0.011708972184529317,0.018965259310789406
498,0.25,0.001,0.010898536766623045,0.007996957216363025,16.26045133765608,0.01160631787127486,0.01818528212606907
499,0.25,0.001,0.010870415636025142,0.00786945503611752,16.817383745351734,0.012003842787545849,0.016434414661489427
500,0.25,0.001,0.010890590295390792,0.00791494970872803,16.67549072498838,0.011902562972868222,0.016277992399409413
