epoch,beta,learning_rate,train_loss,train_reconstruction_loss,train_kl_unnormalized,train_kl_normalized,mean_unclipped_gradient_norm
1,0.0,0.001,0.10573650151491165,0.10573650151491165,0.9489471117655436,0.0006773355544365051,0.11696548014879227
2,0.02,0.001,0.10108834615460148,0.100857620253975,16.162360815354337,0.01153630322295099,0.11784395202994347
3,0.04,0.001,0.09630388950492129,0.0947931800727491,52.91269646161868,0.03776780618245445,0.1386861801147461
4,0.06,0.001,0.08856662565175398,0.0833693747351199,121.35576639057678,0.08662081826593632,0.19920958578586578
5,0.08,0.001,0.07991628321232619,0.06665892310348558,232.16956131546587,0.1657170316313104,0.2254861444234848
6,0.1,0.001,0.0739188274299657,0.05278984517043019,296.01708909022955,0.21128985659545294,0.20644213259220123
7,0.12,0.001,0.06693026349868303,0.04676590519554821,235.41892082308544,0.16803634605502174,0.17268963158130646
8,0.14,0.001,0.0593023427106716,0.04471772325075703,145.95037333170572,0.10417585534026104,0.15118885040283203
9,0.16,0.001,0.052920798414651256,0.043204416555387,85.07908074649764,0.060727395250890534,0.12785101309418678
10,0.18,0.001,0.049443151203938475,0.0423740782763487,55.02095375531985,0.03927262937567441,0.13135282322764397
11,0.2,0.001,0.04543933838053986,0.03880989174416036,46.43927548255449,0.03314723446292255,0.1144045926630497
12,0.22,0.001,0.041971633555712526,0.03416685815210695,49.702234197545934,0.03547625567276655,0.08281340450048447
13,0.24,0.001,0.039903847569668735,0.0317989701382172,47.31222091486425,0.0337703218521515,0.07017604261636734
14,0.25,0.001,0.03820899151909499,0.03201556164357397,34.70797903743791,0.0247737180852519,0.08327066712081432
15,0.25,0.001,0.03710626185308268,0.03174450299070205,30.047291508427374,0.021447031769041665,0.07782667502760887
16,0.25,0.001,0.03567792843153447,0.029660549704675323,33.721384283937056,0.0240695105524176,0.07249740883708
17,0.25,0.001,0.03489968925714493,0.029801694860244976,28.569157235416366,0.02039197518587892,0.05998946726322174
18,0.25,0.001,0.033907893033307275,0.030474331965784966,19.24167724891945,0.01373424500279761,0.11126145720481873
19,0.25,0.001,0.03263874600330988,0.029388172873928222,18.216206232706707,0.01300228853155368,0.043360511772334576
20,0.25,0.001,0.03285241895067839,0.02909146621823311,21.076373053185733,0.015043806604700737,0.06015719100832939
21,0.25,0.001,0.03156080037171458,0.028337234033294665,18.06486807929145,0.01289426700877334,0.061397356912493706
22,0.25,0.001,0.030820350910042538,0.028068594450567974,15.420845620426132,0.011007027566328431,0.045822083950042725
23,0.25,0.001,0.030326889781856242,0.027379656279528583,16.516296316076208,0.011788933844451255,0.02147654164582491
24,0.25,0.001,0.02968451990113582,0.026449309615993205,18.130118617305047,0.012940841268597464,0.06865078955888748
25,0.25,0.001,0.02917292493361014,0.026381461478677797,15.64335795979441,0.01116585150592035,0.042540013790130615
26,0.0,0.001,0.026701372875659553,0.026701372875659553,15.491535163220064,0.01105748405654537,0.10671807453036308
27,0.02,0.001,0.025040866646133822,0.024715786500845428,22.771850727222585,0.01625399766397044,0.07135321386158466
28,0.04,0.001,0.025007847052665403,0.024225410395934257,27.404846332691335,0.019560918153241496,0.07729967683553696
29,0.06,0.001,0.02418871538966526,0.023040319459489835,26.8150409180441,0.019139929277690294,0.05634067952632904
30,0.08,0.001,0.024006397888800244,0.02230090024754589,29.867538381505895,0.021318728323701568,0.051726752892136574
31,0.1,0.001,0.023964553657505248,0.0214563662669173,35.13969977108049,0.025081869929393638,0.03252819273620844
32,0.12,0.001,0.024351547552663604,0.02111825960929747,37.748648137222105,0.026944074330636763,0.05145838484168053
33,0.14,0.001,0.024239022468711124,0.020736545278334323,35.04979446787893,0.02501769769298996,0.06468885391950607
34,0.16,0.001,0.023924783240129917,0.02011574154006846,33.352929338996795,0.02380651630192491,0.030351806432008743
35,0.18,0.001,0.023718802511324116,0.019705070113694226,31.24021577246395,0.02229851232866806,0.04484654404222965
36,0.2,0.001,0.023815600684395543,0.020045718523087324,26.4080229629705,0.018849409680921126,0.03254309855401516
37,0.22,0.001,0.022929053178723947,0.01924960352020499,23.431407151398837,0.016724773127336785,0.036199104972183704
38,0.24,0.001,0.023211085823950945,0.019654519212098768,20.761462223382644,0.01481903085180774,0.041210753843188286
39,0.25,0.001,0.02204690908116323,0.018438699344793957,20.220405955373504,0.0144328379410232,0.015858808532357216
40,0.25,0.001,0.022073168767455183,0.01846645662078151,20.212014916502397,0.014426848619916059,0.03546829707920551
41,0.25,0.001,0.02183785096362785,0.018349572556254305,19.548313541176878,0.013953114590418899,0.042729973793029785
42,0.25,0.001,0.021245968125668573,0.01760449513425062,20.406819072770485,0.014565895126888283,0.029066177085042
43,0.25,0.001,0.021139639855167012,0.017167083275170972,22.262204794236172,0.015890224692531173,0.04314994066953659
44,0.25,0.001,0.02074380782375365,0.01680363604316005,22.080720760204173,0.015760685767454798,0.036444736644625664
45,0.25,0.001,0.020543718710541725,0.016749457674629896,21.263038941371587,0.015177044212256664,0.023177800700068474
46,0.25,0.001,0.019524193472332425,0.015607630144114848,21.948419429637767,0.015666252269548726,0.03519190847873688
47,0.25,0.001,0.01962513028195611,0.015391058242523376,23.727735189743985,0.016936284932008553,0.02938077785074711
48,0.25,0.001,0.018957914807546286,0.014595090756537739,24.449271355146244,0.017451300039362058,0.03777719475328922
49,0.25,0.001,0.019178797226445176,0.015015802518637092,23.329427695568697,0.016651982652083296,0.07314964011311531
50,0.25,0.001,0.018524936963746578,0.014211689214003675,24.17143965356144,0.017252990473634145,0.031986200250685215
51,0.0,0.001,0.014887263802926482,0.014887263802926482,24.5868086638274,0.017549470852125198,0.08418069779872894
52,0.02,0.001,0.014099569531318582,0.01376580735553562,23.380041240174094,0.016688109379139254,0.04023062530905008
53,0.04,0.001,0.01445556544687277,0.01374272518089892,24.96723233917613,0.01782100809363036,0.07287969067692757
54,0.06,0.001,0.014568416056809601,0.013248604250910841,30.817611364670743,0.021996867497980545,0.02785927662625909
55,0.08,0.001,0.014834652183416449,0.012784705221377037,35.89970388530213,0.02562434253055113,0.07346875593066216
56,0.1,0.001,0.014831890765991475,0.012273076507780287,35.848984094313636,0.025588139967390174,0.05613192077726126
57,0.12,0.001,0.016083889951308567,0.013044125917885039,35.489243542706525,0.025331365840618503,0.07967556826770306
58,0.14,0.001,0.016033588966101776,0.012226955505248941,38.09352921850888,0.02719024212598778,0.07031599432229996
59,0.16,0.001,0.016446738124445633,0.01218208037086843,37.34241438500675,0.02665411447894843,0.07599361054599285
60,0.18,0.001,0.01681172104989305,0.012704869640278227,31.964991604840314,0.02281583983214869,0.07209375128149986
61,0.2,0.001,0.016486267892666804,0.012316165721894782,29.2115613207405,0.020850507723583513,0.05839936248958111
62,0.22,0.001,0.01664151768717501,0.012150124175313078,28.602008819580078,0.02041542385408999,0.06342511996626854
63,0.24,0.001,0.017032264973278397,0.012590207262999482,25.930516160564657,0.018508576845513675,0.06539164297282696
64,0.25,0.001,0.017242214320526448,0.013368312039493043,21.70935152783806,0.015495611368906538,0.058034295216202736
65,0.25,0.001,0.01777980186873012,0.014068599364915748,20.79757645689411,0.014844808320409785,0.054293486289680004
66,0.25,0.001,0.01703703994460312,0.013163146206442222,21.70929984104486,0.015495574476120528,0.04122547432780266
67,0.25,0.001,0.016876170584173115,0.013123749398890838,21.028569869053218,0.015009685845148621,0.04150126501917839
68,0.25,0.001,0.01652883340455132,0.013054045434627268,19.472711704395437,0.013899151823265836,0.026712901890277863
69,0.25,0.001,0.016558317536557163,0.013126841010410844,19.229994102760596,0.013725905854932616,0.056479599326848984
70,0.25,0.001,0.01658693753918748,0.012864479530648685,20.860654524814937,0.014889831923493888,0.06391847226768732
71,0.25,0.001,0.01652672985729612,0.01260966678828369,21.9512200296661,0.015668251270282728,0.02748989127576351
72,0.25,0.001,0.016683319859482622,0.01288324481819147,21.295621306807906,0.015200300718635193,0.06670181453227997
73,0.25,0.001,0.016554016435955776,0.012827981286394743,20.88070125344359,0.014904140794749172,0.0482930988073349
74,0.25,0.001,0.016199794551932517,0.01231985822044037,21.743162013866282,0.015519744478134392,0.02561222855001688
75,0.25,0.001,0.01699052792456415,0.013008887235673122,22.313117486459237,0.0159265649439395,0.10902615636587143
76,0.0,0.001,0.012322362270896082,0.012322362270896082,20.78135382098916,0.014833228994282056,0.0496147982776165
77,0.02,0.001,0.012970921261535014,0.012665056612020657,21.425829428213614,0.015293240134342337,0.1270538978278637
78,0.04,0.001,0.012488333289913925,0.011753627673987254,25.733066464647834,0.01836764201616548,0.036681010853499174
79,0.06,0.001,0.013165285212942112,0.011810376998726968,31.637101585482373,0.022581799846882494,0.08583028614521027
80,0.08,0.001,0.013323035712043444,0.01136532347695327,34.28443541350188,0.024471402864740813,0.06328513752669096
81,0.1,0.001,0.013681427403180688,0.01124123447103265,34.18709940969208,0.02440192677351326,0.04253606963902712
82,0.12,0.001,0.014596830133670642,0.011590243328684642,35.10189984168535,0.025054889251738297,0.08169305697083473
83,0.14,0.001,0.014286401210191809,0.01052977965661773,37.59304913179374,0.026833011514485184,0.057307382114231586
84,0.16,0.001,0.015197957026553743,0.010864249557072733,37.94702336817612,0.027085669784565395,0.0680876113474369
85,0.18,0.001,0.014906269785614662,0.010556035985549292,33.8593190982018,0.02416796509507623,0.018498297780752182
86,0.2,0.001,0.01565241096196351,0.011441348005592086,29.49849463097843,0.021055313797986034,0.06333412416279316
87,0.22,0.001,0.015766556248252774,0.011531978719120409,26.96656161178777,0.019248081093353155,0.03891200851649046
88,0.24,0.001,0.015795337473168785,0.011385208927094936,25.744127014536918,0.018375536769833632,0.03858269704505801
89,0.25,0.001,0.016301776374471777,0.01202459748328468,23.969311113710756,0.017108715998365994,0.022422657813876867
90,0.25,0.001,0.015945712633338976,0.01205500450997073,21.803528703289267,0.015562832764660433,0.05451052077114582
91,0.25,0.001,0.015513284959726863,0.012064257636666298,19.328349454903307,0.013796109532407785,0.0607922300696373
92,0.25,0.001,0.015637441917702003,0.01236276886207454,18.3512690273332,0.013098693095883797,0.04647917579859495
93,0.25,0.001,0.016119641493316048,0.012794799182885959,18.63241685467002,0.013299369632169893,0.04859350249171257
94,0.25,0.001,0.01596749654430666,0.012385985894519606,20.070785286985796,0.014326042317620125,0.06461011990904808
95,0.25,0.001,0.015455530542466376,0.011787150227637202,20.557603718322,0.014673521569109208,0.0419502928853035
96,0.25,0.001,0.015657175274818767,0.012104897966815365,19.9069598633566,0.014209107682624268,0.03953121416270733
97,0.25,0.001,0.015560408939182022,0.011937319358557831,20.303792152875737,0.014492356997056201,0.05522926338016987
98,0.25,0.001,0.01540328433484207,0.011559809811045358,21.538831098580065,0.015373898000414037,0.017119763884693384
99,0.25,0.001,0.01548086293041706,0.01145021834721168,22.58772956000434,0.01612257641684821,0.08244813606142998
100,0.25,0.001,0.015307951971520612,0.011528183786589423,21.18181930353612,0.015119071594244197,0.0440363734960556
101,0.25,0.001,0.015592015773793797,0.012025211604289066,19.988372261141553,0.014267217888038225,0.03854275122284889
102,0.25,0.001,0.015698991830886147,0.012117671090419646,20.06972312927246,0.014325284175069565,0.0448435302823782
103,0.25,0.001,0.014979467899711043,0.011240689957767357,20.952112645278742,0.014955112523396675,0.02509373426437378
104,0.25,0.001,0.015167242858880832,0.011237057305320545,22.024759740005305,0.015720742141331408,0.01951734209433198
105,0.25,0.001,0.015354651923256891,0.011375661042553407,22.29826378527983,0.015915962730392454,0.06171344593167305
106,0.25,0.001,0.014775099554731523,0.011105344101878595,20.565310725459344,0.014679022644867484,0.019862876273691654
107,0.25,0.001,0.015587155546211167,0.012166638559673303,19.168574721724898,0.013682066182530263,0.07506704889237881
108,0.25,0.001,0.014832518465908957,0.011332942678788562,19.611624305630908,0.013998304286674453,0.034424405079334974
109,0.25,0.001,0.015056222424279024,0.011467248109387762,20.11261221803265,0.014355897371900534,0.035665749572217464
110,0.25,0.001,0.014723664632549992,0.01117189587266357,19.904111014472115,0.01420707424302078,0.026809599716216326
111,0.25,0.001,0.015151959763448915,0.01175113156851795,19.058240207625023,0.013603312068254833,0.016493895556777716
112,0.25,0.001,0.0147923239633257,0.011462048316995302,18.662865038271303,0.013321102811043043,0.048171160742640495
113,0.25,0.001,0.014729567263045428,0.011356289716966358,18.903847894550843,0.013493110559993464,0.022693256847560406
114,0.25,0.001,0.014631072128260578,0.01117497212311,19.3679839004705,0.013824399643447893,0.030523390509188175
115,0.25,0.001,0.015052000129664386,0.011444664456778102,20.21551247584967,0.014429345093397338,0.03234903980046511
116,0.25,0.001,0.014180442594267704,0.010450500546506158,20.9025947900466,0.014919767872981157,0.01588494423776865
117,0.25,0.001,0.01494930786897003,0.011274797634945976,20.591955891361945,0.014698041321457491,0.01593921473249793
118,0.25,0.001,0.014377200470110516,0.010801657873355313,20.03733974032932,0.014302169693311434,0.031994727440178394
119,0.25,0.001,0.01502769317385959,0.01159203922904936,19.253405959517867,0.01374261667346029,0.03916212450712919
120,0.25,0.001,0.014357490775485834,0.010885062615996526,19.45948671411585,0.013889712144265418,0.06367912981659174
121,0.25,0.001,0.014031332423105652,0.01030352690981494,20.890622621701088,0.014911222428052168,0.05047314101830125
122,0.25,0.001,0.014636267114568639,0.01083033598591516,21.328436345229914,0.015223723301377527,0.08039415255188942
123,0.25,0.001,0.014408079769324374,0.010950937004828895,19.373827639921213,0.01382857076368395,0.032688853330910206
124,0.25,0.001,0.014609209997694434,0.011315979224480228,18.455264456478165,0.013172922524252794,0.07094702869653702
125,0.25,0.001,0.014514133322662041,0.011113018113659856,19.05985227043246,0.013604462719794761,0.023425125516951084
126,0.25,0.001,0.0146933679273467,0.01111145761369923,20.07302752836251,0.01432764277541935,0.045308927074074745
127,0.25,0.001,0.01470759867426054,0.011100523852179816,20.214046360533914,0.014428298615655899,0.06472479738295078
128,0.25,0.001,0.014292355350874088,0.010838102675790403,19.35763069435402,0.013817009774699516,0.029736444354057312
129,0.25,0.001,0.014582803311907215,0.011220494860116347,18.842376920912002,0.01344923406203569,0.0507624726742506
130,0.25,0.001,0.014253087238305144,0.010861499338514276,19.006457105095002,0.013566350538968595,0.025455898605287075
131,0.25,0.001,0.014294786838653647,0.01080817216432389,19.53898978527681,0.013946459518398867,0.012445640284568071
132,0.25,0.001,0.014261795069884372,0.010696665521849084,19.978988317795743,0.014260519855671479,0.028689812403172255
133,0.25,0.001,0.014781126557033003,0.011258756258973369,19.73936243410464,0.014089480681016873,0.03021995909512043
134,0.25,0.001,0.014049118315732037,0.01062078253124599,19.212392383151585,0.013713342172128183,0.06320471921935678
135,0.25,0.001,0.014067418332913039,0.01053163784061685,19.814515761387202,0.014143123312910209,0.024810470640659332
136,0.25,0.001,0.01404578557214987,0.010392181598293929,20.474794764577606,0.014614414535744186,0.030661053955554962
137,0.25,0.001,0.013998986095374014,0.010331574953908537,20.552173261289244,0.014669645439892394,0.027979099191725254
138,0.25,0.001,0.014278045843964741,0.010616075902901314,20.521677747184846,0.014647878477647999,0.0339301903732121
139,0.25,0.001,0.014031041160593798,0.01033061761179088,20.737172185638805,0.014801693208878518,0.06419497169554234
140,0.25,0.001,0.013920408915038462,0.010343592062040611,20.044483373194566,0.014307268646106043,0.0339448656886816
141,0.25,0.001,0.014470672855774561,0.01109148330848526,18.936976962619358,0.013516757289521312,0.039412327110767365
142,0.25,0.001,0.014027553805966436,0.010694113629007782,18.680598153008354,0.013333760280519882,0.01730743795633316
143,0.25,0.001,0.014318435901293048,0.010954483722647032,18.851588802573122,0.013455809280923,0.01922515034675598
144,0.25,0.001,0.0137962664787968,0.010320343100178389,19.479075537787544,0.013903694174009667,0.024971624836325645
145,0.25,0.001,0.014006628332958545,0.010509507431660169,19.59786617608718,0.013988484065729608,0.02905995398759842
146,0.25,0.001,0.013633079884320866,0.01016536530935102,19.43307125421218,0.013870857426275645,0.03318049758672714
147,0.25,0.001,0.013728371568392088,0.010196988390367707,19.78987032101478,0.014125531992159017,0.02196628227829933
148,0.25,0.001,0.013953803705028545,0.010299767586000172,20.47721886340483,0.01461614479900416,0.030222414061427116
149,0.25,0.001,0.014404799651216578,0.010750918752617307,20.47634901823821,0.014615523924509786,0.04730875138193369
150,0.25,0.001,0.01355187446568851,0.010035031981030364,19.708387516163015,0.014067371531879383,0.027084489353001118
151,0.25,0.001,0.013982634462508154,0.010611133994879547,18.893888332225657,0.013486001664686408,0.05518811848014593
152,0.25,0.001,0.013814196059549297,0.010360010336210698,19.357255935668945,0.013816742280991395,0.02159384172409773
153,0.25,0.001,0.014048462561159223,0.010457041098471776,20.12632452411416,0.01436568488516357,0.059755876660346985
154,0.25,0.001,0.013674993481900957,0.01006176642337699,20.24852594917203,0.014452909314184177,0.03655872493982315
155,0.25,0.001,0.013603030117573562,0.010069878128023796,19.799784577923056,0.014132608549552502,0.01924451207742095
156,0.25,0.001,0.013514116107497686,0.010109791003259611,19.077837343569154,0.01361730003109861,0.025371244177222252
157,0.25,0.001,0.01358793455141562,0.010248471062952354,18.71435452684944,0.013357854765774047,0.02262198133394122
158,0.25,0.001,0.013529372367042082,0.010173361943919717,18.807083553738064,0.013424042508021459,0.017909095156937838
159,0.25,0.001,0.013620403652757775,0.010223145102277214,19.0382349461685,0.013589032795266597,0.0594015009701252
160,0.25,0.001,0.013123382009381864,0.009830837862359153,18.45141566241229,0.013170175347903134,0.040481504052877426
161,0.25,0.001,0.01336210820088048,0.010089885627413973,18.337534186280806,0.013088889497702217,0.033177049830555916
162,0.25,0.001,0.01365953955201455,0.010340083677919559,18.602230001378942,0.01327782298456741,0.03720245789736509
163,0.25,0.001,0.01379497812623963,0.010306394785458658,19.550019299542463,0.013954332119587768,0.04919339343905449
164,0.25,0.001,0.01368984736410188,0.010140970107857828,19.887910583872856,0.014195510766504537,0.03517411556094885
165,0.25,0.001,0.01342378686653611,0.010008490276465446,19.13932164510091,0.013661186042184805,0.025867944583296776
166,0.25,0.001,0.013969919563811502,0.010641343696157874,18.653340492719487,0.013314304420213766,0.05747925117611885
167,0.25,0.001,0.013415741343281152,0.010003065391455167,19.124635555126048,0.01365070346547184,0.01692526275292039
168,0.25,0.001,0.013589756885244523,0.010030128682653109,19.948156050693843,0.014238512527261844,0.08167462050914764
169,0.25,0.001,0.0134066404475842,0.009859388165267897,19.87880214644067,0.014189009383612184,0.03146410547196865
170,0.25,0.001,0.013917675816718444,0.010466428289626852,19.340788546903635,0.013804988256176756,0.06221060827374458
171,0.25,0.001,0.01364532727058287,0.01032957142609873,18.581497215930327,0.013263024422505586,0.0508316308259964
172,0.25,0.001,0.013353020872598813,0.010052995031906499,18.49334274103612,0.013200101885107866,0.03731659520417452
173,0.25,0.001,0.01395880757474605,0.010636289052113338,18.619392677589698,0.013290073288786366,0.052162518724799156
174,0.25,0.001,0.013453025209866925,0.010137386964978996,18.58083708492326,0.013262553236918816,0.017894157208502293
175,0.25,0.001,0.013063034341659075,0.009700195001507247,18.8453527379919,0.013451358128473876,0.03212789073586464
176,0.25,0.001,0.013346328147123625,0.009985802994098193,18.832381707650644,0.013442099719950496,0.035717008635401726
177,0.25,0.001,0.013084295769164592,0.009721420394877592,18.845551738032587,0.013451500169901917,0.02831597812473774
178,0.25,0.001,0.01322386685160943,0.009839834093495651,18.964120276180314,0.01353613153189173,0.02251051552593708
179,0.25,0.001,0.013025317881486299,0.009675534522551814,18.77218656186704,0.013399133877135648,0.022326061502099037
180,0.25,0.001,0.013217907295458846,0.009873145570357641,18.74404473952305,0.013379046923285547,0.01713844621554017
181,0.25,0.001,0.013523004213233053,0.010219349468379844,18.513680116629896,0.013214618213154816,0.01751304743811488
182,0.25,0.001,0.013407411881619029,0.010107190877107191,18.49444007873535,0.01320088513828362,0.024921692442148924
183,0.25,0.001,0.013161093203557862,0.009859782287184104,18.50054470109351,0.013205242470445046,0.03926055505871773
184,0.25,0.001,0.012911262197626961,0.009523860259372512,18.982998412332417,0.013549606290030276,0.020037196576595306
185,0.25,0.001,0.01297936434455124,0.009537842354656738,19.286289780228227,0.013766088351340633,0.01560324290767312
186,0.25,0.001,0.012834558964787442,0.009399760468506518,19.248613122068804,0.013739195661719345,0.01604864140972495
187,0.25,0.001,0.013039535049487043,0.009588011546221412,19.342338114608953,0.013806094300220523,0.013925924897193909
188,0.25,0.001,0.013099751630683004,0.009576360683566258,19.74508273748704,0.014093563695565338,0.02903407532721758
189,0.25,0.001,0.01314802219470342,0.009565249355624856,20.07786105591574,0.014331092830774975,0.03175512421876192
190,0.25,0.001,0.013070813978067886,0.009540685015604084,19.7828424712758,0.014120515682566595,0.020111035089939833
191,0.25,0.001,0.013109386093730543,0.009653763236179029,19.36531055120774,0.013822491471240358,0.035169064067304134
192,0.25,0.001,0.012722763439847363,0.009275931313082023,19.31604818650234,0.013787329183798958,0.023286056239157915
193,0.25,0.001,0.013100413525086126,0.009746924525609723,18.792952266740212,0.013413955936288517,0.0363395269960165
194,0.25,0.001,0.012950127530429099,0.009760799840736537,17.87299045515649,0.012757309389833327,0.028307965956628323
195,0.25,0.001,0.0125852783245069,0.009397505955011756,17.86427707436644,0.012751089988841143,0.02481342200189829
196,0.25,0.001,0.013121163920947799,0.009913384810917907,17.97639347594461,0.012831115971409431,0.08252283185720444
197,0.25,0.001,0.0135569008021259,0.010216122976055852,18.721718234780393,0.013363110802841109,0.03991278260946274
198,0.25,0.001,0.013492690928188372,0.009834336231888077,20.501419962188344,0.01463341895944921,0.0878065787255764
199,0.25,0.001,0.013081409795968621,0.00946733296883327,20.253287821640203,0.01445630822386881,0.06701919995248318
200,0.25,0.001,0.012996720679012346,0.00961228407183547,18.966382438753858,0.01353774620896064,0.05344915110617876
201,0.25,0.001,0.013741263786307823,0.010428597909156923,18.564180303502965,0.013250664028196264,0.08105887100100517
202,0.25,0.001,0.012708005127439529,0.009371300653359036,18.69889082732024,0.013346817150121515,0.02123689977452159
203,0.25,0.001,0.012757175602018833,0.009323961377419808,19.239734885133345,0.013732858590387826,0.06852364726364613
204,0.25,0.001,0.012704936729997028,0.009434562308690797,18.3271774009422,0.013081497074191435,0.02695340709760785
205,0.25,0.001,0.013057179519055802,0.009938433651386955,17.47745120672532,0.012474983016934562,0.04708050191402435
206,0.25,0.001,0.012896866319172176,0.009753062251817298,17.617878360512815,0.012575216531415285,0.027585343457758427
207,0.25,0.001,0.012722210590670139,0.009501349341906147,18.049704398637935,0.012883443539356129,0.018981152679771185
208,0.25,0.001,0.012559252756613272,0.009301273876594173,18.2577138359164,0.01303191565732791,0.0409732460975647
209,0.25,0.001,0.012499124375114471,0.00934406749352261,17.68094058095673,0.012620228822952698,0.02017322927713394
210,0.25,0.001,0.012495505589025992,0.009370164278848672,17.5144132213828,0.01250136561126538,0.014840464340522885
211,0.25,0.001,0.01237992583601563,0.00917867774626723,17.93979315110195,0.012804991542542433,0.013853688258677721
212,0.25,0.001,0.012404376847876443,0.00913635403331783,18.31399922312042,0.013072090808794018,0.016180023085325956
213,0.25,0.001,0.012467994665106138,0.009176100029345647,18.447777430216473,0.013167578465536383,0.012113537639379501
214,0.25,0.001,0.012605249053902097,0.009262311134349418,18.733826295829115,0.01337175324470315,0.01800297573208809
215,0.25,0.001,0.012460555754785921,0.009076260306217053,18.965590041360738,0.013537180614818513,0.019542444497346878
216,0.25,0.001,0.012438669731771504,0.009001391353430572,19.262510770632897,0.013749115467974945,0.03395279962569475
217,0.25,0.001,0.012339163732565479,0.008903814427968528,19.25169681031027,0.0137413967239902,0.024406099691987038
218,0.25,0.001,0.012267124080271632,0.00894507043707518,18.616789947321386,0.013288215522713339,0.025990826077759266
219,0.25,0.001,0.012635507701355735,0.009452801238009591,17.83588852117091,0.012730826924461749,0.016631947364658117
220,0.25,0.001,0.012551545165479183,0.009391704746694476,17.70774601123951,0.0126393618923908,0.039198595099151134
221,0.25,0.001,0.012145947814447644,0.008944335681052856,17.941836204057857,0.012806449824452433,0.022370044142007828
222,0.25,0.001,0.012149275361019889,0.008910024067226015,18.152766239495925,0.012957006594929283,0.02142184693366289
223,0.25,0.001,0.012383804760045476,0.009107142008473108,18.362417739114644,0.013106650777383757,0.0502320621162653
224,0.25,0.001,0.01223839108866674,0.008911130558929326,18.64596837832604,0.013309042382816588,0.03825573995709419
225,0.25,0.001,0.012169615296577965,0.00883362894118936,18.6948656388271,0.013343944067685297,0.033826593309640884
226,0.25,0.001,0.012035952949965442,0.008748016561622973,18.425595460114657,0.013151745510431589,0.03149241395294666
227,0.25,0.001,0.012661781139027925,0.009450767718163538,17.99451724393868,0.012844052279756374,0.029122031293809414
228,0.25,0.001,0.011916674961002521,0.008674426705656964,18.1695588665244,0.012968992766969594,0.029528633691370487
229,0.25,0.001,0.012617376690477501,0.009362010262262674,18.243071497222523,0.013021464309223785,0.012920647393912077
230,0.25,0.001,0.0123451091464103,0.009100449880884017,18.183070995189524,0.012978637398422217,0.023004015907645226
231,0.25,0.001,0.012535877387832713,0.009258140160207763,18.368439309390975,0.01311094882897286,0.016735139302909374
232,0.25,0.001,0.01226072733141022,0.008937266436807903,18.624674997211976,0.013293843681093487,0.01121010398492217
233,0.25,0.001,0.012173163474617917,0.008888355916205012,18.408062428603937,0.013139230855534574,0.03145398898050189
234,0.25,0.001,0.0121347895466987,0.008858913705212834,18.35800705427005,0.013103502536952213,0.03075716271996498
235,0.25,0.001,0.01213451528944719,0.008911555104049635,18.061467323774174,0.01289183963153046,0.017741633113473654
236,0.25,0.001,0.012131593454583192,0.009021053619590807,17.43146656177662,0.012442160286778458,0.012659088708460331
237,0.25,0.001,0.012256582221591178,0.009159449005016574,17.356334568541726,0.012388532882613651,0.04236815683543682
238,0.25,0.001,0.012111613641918442,0.008907317776048992,17.956874305819287,0.012817183658686143,0.023847457021474838
239,0.25,0.001,0.012160360882127727,0.008873352171554242,18.420395580338845,0.013148033961697963,0.02444520778954029
240,0.25,0.001,0.01236990425321791,0.00902649652166867,18.736459096272785,0.013373632474141889,0.03305055759847164
241,0.25,0.001,0.012208158529743,0.00889678890414444,18.556914812252845,0.013245478095826442,0.02226936351507902
242,0.25,0.001,0.012233126989025393,0.00897761173316358,18.243907622349116,0.013022061115167106,0.017622232902795076
243,0.25,0.001,0.012277512339714133,0.009064009884533323,18.0084686514772,0.01285401045787095,0.029186367988586426
244,0.25,0.001,0.011985880345750002,0.008760099006057889,18.077278254944602,0.012903125092751322,0.020394427701830864
245,0.25,0.001,0.012075705269788519,0.008766739192292278,18.543445139755438,0.013235863768562055,0.041269274428486824
246,0.25,0.001,0.012076786615782313,0.008816835631466942,18.26876539065514,0.01303980399047476,0.028222106397151947
247,0.25,0.001,0.01186325263094019,0.00871902903150997,17.620230498137296,0.012576895430504852,0.01545688509941101
248,0.25,0.001,0.01220091185130087,0.009145871080734112,17.120448194904093,0.012220162880017196,0.01816583052277565
249,0.25,0.001,0.012100649951600734,0.009063428785238001,17.020587144074618,0.012148884471145337,0.021701781079173088
250,0.25,0.001,0.011740346071252853,0.008640328008267615,17.37250351611479,0.012400073887305347,0.010750997811555862
251,0.25,0.001,0.012119090724966409,0.008952437968993629,17.745923548568914,0.012666612097479596,0.026334406808018684
252,0.25,0.001,0.01184536210824678,0.008715764619410038,17.5382630619002,0.012518389052034404,0.02283693104982376
253,0.25,0.001,0.011649223826365707,0.008615056673685709,17.00347222222222,0.012136668252835275,0.011742886155843735
254,0.25,0.001,0.012250331724867409,0.00925569707688726,16.781932830810547,0.011978538780021804,0.0279615530744195
255,0.25,0.001,0.012236712615431092,0.009206446267112537,16.981611039903427,0.012121064268310798,0.034788817167282104
256,0.25,0.001,0.012054381846093837,0.008899198845028877,17.68164599383319,0.012620732329645388,0.020231967326253653
257,0.25,0.001,0.011788460161582923,0.008542706316084038,18.189204957750107,0.012983015672912282,0.020895338617265224
258,0.25,0.001,0.011778487444475846,0.008571594401642128,17.97142709331748,0.012827571087307267,0.021674787625670433
259,0.25,0.001,0.011442839892374145,0.008275268265954506,17.75107192993164,0.012670286887888394,0.023142830934375525
260,0.25,0.001,0.011910419382246924,0.008783882587320276,17.521114231627664,0.012506148630712107,0.017064739484339952
261,0.25,0.001,0.01149818612791506,0.008386339141446868,17.43879030957634,0.012447387801267909,0.01264129881747067
262,0.25,0.001,0.011569422428254728,0.008411885601364903,17.694837617285458,0.012630148192209463,0.010703455191105604
263,0.25,0.001,0.011751342817773054,0.008559898553807059,17.884853433679652,0.012765776897701394,0.018842858262360096
264,0.25,0.001,0.011886498465398212,0.008722090087601064,17.733343265674733,0.012657632595056912,0.022441860288381577
265,0.25,0.001,0.01166633310739273,0.008494153250882656,17.77689625304422,0.01268871966669823,0.02570283692330122
266,0.25,0.001,0.011748342843795265,0.008572652108139463,17.79657330925082,0.01270276467469723,0.01652507809922099
267,0.25,0.001,0.012012657157524868,0.008824744894180768,17.865059205043462,0.012751648254849009,0.015904977452009916
268,0.25,0.001,0.011731635434208092,0.008516385099264208,18.018261732878507,0.012861000523110996,0.02032124064862728
269,0.25,0.001,0.011899814239622634,0.008695451623219767,17.957250171237522,0.012817451942353692,0.024106050841510296
270,0.25,0.001,0.011775747470465708,0.008570606992752463,17.961605613614307,0.012820560752044474,0.028488708660006523
271,0.25,0.001,0.011608799861996998,0.008461888603590153,17.635292029675142,0.01258764598834771,0.017026170156896114
272,0.25,0.001,0.01151126662246239,0.00845167777834483,17.145937224965035,0.012238356334735929,0.011709801852703094
273,0.25,0.001,0.011617068810687388,0.008675101224654987,16.48678856131471,0.011767871920995512,0.031002085655927658
274,0.25,0.001,0.011830336126832314,0.008936509662480266,16.21700268027223,0.011575305267860264,0.032043082639575005
275,0.25,0.001,0.01146786566823721,0.008469296389339883,16.8039831938567,0.011994277797185366,0.022681883070617914
276,0.25,0.001,0.01130998479547324,0.008212964096463021,17.35570693310396,0.012388084891580272,0.04698077216744423
277,0.25,0.001,0.01156379331915099,0.00851647332770589,17.077181780779803,0.012189280357444541,0.024861643090844154
278,0.25,0.001,0.011880126712774788,0.008927719506584568,16.54529074680658,0.011809629369597844,0.038823217153549194
279,0.25,0.001,0.011589638152976095,0.008640570451080062,16.526574075957875,0.011796269861497413,0.02353519480675459
280,0.25,0.001,0.01165091820107198,0.008647069967363351,16.83356600631902,0.012015393295017145,0.025072605349123478
281,0.25,0.001,0.011221937720238426,0.008184414310955707,17.022282117678795,0.012150094302411702,0.01962864026427269
282,0.25,0.001,0.01156095571723985,0.008551711090093042,16.863805535398882,0.012036977541326824,0.026372392661869526
283,0.25,0.001,0.011526154906109528,0.00850431027787703,16.934419561315465,0.012087380129418604,0.021312720607966185
284,0.25,0.001,0.011489103881665219,0.008371365728017725,17.47180246423792,0.012470951080826496,0.02814414817839861
285,0.25,0.001,0.011627600712264761,0.008454024906695626,17.78471807785976,0.012694302696545154,0.02797825075685978
286,0.25,0.001,0.011346523569505891,0.008196890543870352,17.650542836130402,0.012598531646060245,0.014412361197173595
287,0.25,0.001,0.011407473538484838,0.008320327083591693,17.30036872110249,0.012348585810922548,0.025609245523810387
288,0.25,0.001,0.011188853831018931,0.008161973127704343,16.96264170422966,0.012107524414153933,0.01054809964261949
289,0.25,0.001,0.01104911591535733,0.008069965896415121,16.695158146045827,0.011916601103530213,0.018150256481021643
290,0.25,0.001,0.01110809547021801,0.008179907755995239,16.40956394760697,0.011712750854822962,0.013128481339663267
291,0.25,0.001,0.011148517732910904,0.008220479501710261,16.40872531467014,0.011712152258865197,0.030196845531463623
292,0.25,0.001,0.011143689009326475,0.008155551382604941,16.74552576041516,0.011952552291516887,0.018085401505231857
293,0.25,0.001,0.011426965246138013,0.008434300425887845,16.770894509774667,0.01197065989277278,0.02808698918670416
294,0.25,0.001,0.011394271144160518,0.008449340883044549,16.503390300421067,0.011779721841842304,0.019288351759314537
295,0.25,0.001,0.010878063048477526,0.007973900691456632,16.27492638576178,0.011616649811393135,0.012210440821945667
296,0.25,0.001,0.011718840315294118,0.008850329049667458,16.075136608547634,0.011474044688470832,0.04985925555229187
297,0.25,0.001,0.011263148698173924,0.00831771897221053,16.50618772153501,0.011781718573543905,0.01124818529933691
298,0.25,0.001,0.011173743961585892,0.008142014011096807,16.98981249773944,0.01212691827104885,0.036748891696333885
299,0.25,0.001,0.010979750182157681,0.007951784488043668,16.968718587616344,0.01211186194690674,0.017984038218855858
300,0.25,0.001,0.011102063351391274,0.008160704258185478,16.48337655008575,0.011765436509697181,0.01824454264715314
301,0.25,0.001,0.010994574158555932,0.008121332843546514,16.101645858199507,0.011492966351320133,0.033064015209674835
302,0.25,0.001,0.011115241692297988,0.00823714513975529,16.128854245315363,0.011512387041624099,0.020889027044177055
303,0.25,0.001,0.011582326626888028,0.008720151804111622,16.03962775807322,0.011448699327675388,0.03102348931133747
304,0.25,0.001,0.011013863516258604,0.00817399178804071,15.914641250798732,0.011359486974160409,0.019548862241208553
305,0.25,0.001,0.011269567465340649,0.008404881785405272,16.05370039998749,0.011458744039962521,0.028073839843273163
306,0.25,0.001,0.011816448589533936,0.00888516810251239,16.426896695737486,0.01172512255227515,0.022186662070453167
307,0.25,0.001,0.01125133583713093,0.008283119223276039,16.63388525409463,0.011872865991502234,0.021812891587615013
308,0.25,0.001,0.011522532613189132,0.008563835909705103,16.580535876898118,0.011834786493146409,0.01893972372636199
309,0.25,0.001,0.011272513675560921,0.008336269216221055,16.454711855193715,0.011744976342036913,0.02442601602524519
310,0.25,0.001,0.011323877104362588,0.008378737054213329,16.504564379468377,0.011780559871140883,0.020701141096651554
311,0.25,0.001,0.010922580083579193,0.007945063248000763,16.686004203042867,0.01191006723985929,0.025432398542761803
312,0.25,0.001,0.011062142876103336,0.008045933496804885,16.902837894580983,0.012064837897630966,0.01467175967991352
313,0.25,0.001,0.011207390622592267,0.008154860065307147,17.106380450872727,0.012210121663720718,0.020003139972686768
314,0.25,0.001,0.011102225171563066,0.008043261589827362,17.142431141417703,0.012235853776886298,0.018402219749987125
315,0.25,0.001,0.011097163145924792,0.008104712345901832,16.76969556455259,0.011969804114598564,0.01619606278836727
316,0.25,0.001,0.011003495607939031,0.008073128570147135,16.42177621817883,0.011721467678928501,0.022812824230641127
317,0.25,0.001,0.011202248595195053,0.008306142310669392,16.22977944362311,0.011584425013292725,0.022477450780570507
318,0.25,0.001,0.011255678939230648,0.008328480048128117,16.404024912987225,0.011708797225544057,0.02242259681224823
319,0.25,0.001,0.010979039629024488,0.007990629314502447,16.74704980261532,0.01195364011607089,0.024412652477622032
320,0.25,0.001,0.010939005877316735,0.007953923115115842,16.72840318562072,0.011940330610721427,0.013608488719910383
321,0.25,0.001,0.010852584132441768,0.00793489053224524,16.350757716614524,0.011670776385877605,0.02049630880355835
322,0.25,0.001,0.011106022553127488,0.00826025601292466,15.947676434928988,0.011383066691598135,0.02421342208981514
323,0.25,0.001,0.010881259807465989,0.008090189560373991,15.641158209906685,0.011164281377520832,0.01534634456038475
324,0.25,0.001,0.011258564153571187,0.008452732483913868,15.723882251315647,0.011223327802509384,0.027844727970659733
325,0.25,0.001,0.010915582505181248,0.007996684601415454,16.357505515769677,0.011675592802119683,0.027288099750876427
326,0.25,0.001,0.010801780129564398,0.007811755539826405,16.756097852447887,0.011960098395751526,0.02575251180678606
327,0.25,0.001,0.011017871549192034,0.008074186627327659,16.49640992247028,0.01177473941646701,0.02078557456843555
328,0.25,0.001,0.010739469118876221,0.007869576184469977,16.08287990240403,0.011479571664813726,0.01761824358254671
329,0.25,0.001,0.010964665515923205,0.008167670315338505,15.674362712436253,0.011187981950347075,0.012093121651560068
330,0.25,0.001,0.010807688577951472,0.008024312095877565,15.598041628613885,0.011133505802008482,0.015135445166379213
331,0.25,0.001,0.0108910700145327,0.008083168670167158,15.735479978867518,0.01123160598063349,0.012696592602878809
332,0.25,0.001,0.011093579324675196,0.00826088084988756,15.874440840732904,0.01133079289131542,0.02186361886560917
333,0.25,0.001,0.01071928298951667,0.00782790948510354,16.20325752540871,0.01156549430792913,0.01851310208439827
334,0.25,0.001,0.010674802046039222,0.007778569021158748,16.230489012635786,0.01158493148653518,0.009781364584341645
335,0.25,0.001,0.010702497291344183,0.00784809601113752,15.996064998485425,0.011417605280860403,0.010464204475283623
336,0.25,0.001,0.010698906605902277,0.007854899563999087,15.937817031954541,0.01137602928761923,0.01576625555753708
337,0.25,0.001,0.0109747275825084,0.008152406996139039,15.816284344520097,0.011289282187380512,0.016136310063302517
338,0.25,0.001,0.010614233240945103,0.007761284536509602,15.987926683308165,0.011411796347828813,0.016101368702948093
339,0.25,0.001,0.01081616976470859,0.007932046704270222,16.16262318175516,0.011536490493758144,0.02980067115277052
340,0.25,0.001,0.01056821668451583,0.0076342000005145865,16.442229706564067,0.011736066885484701,0.03508990257978439
341,0.25,0.001,0.010684840979031574,0.0077924355059678175,16.20904110096119,0.011569622484626117,0.01742310682311654
342,0.25,0.001,0.010753279770322052,0.007906027920084236,15.955999256652078,0.011389007320950805,0.019595034886151552
343,0.25,0.001,0.01083057604868103,0.008010911818501758,15.801396829110605,0.011278655838051823,0.011846784502267838
344,0.25,0.001,0.011088217367176656,0.008288175729965722,15.69143334141484,0.011200166553472404,0.020788791589438915
345,0.25,0.001,0.01079797836733453,0.007951520941001766,15.951549459386754,0.011385831163016955,0.010482433019205928
346,0.25,0.001,0.010544422370048217,0.007637755841844612,16.288961598902574,0.01162666780792475,0.017877242993563414
347,0.25,0.001,0.010579965226812127,0.007615893745771897,16.610654830932617,0.011856284675897657,0.013693799264729023
348,0.25,0.001,0.010521031686185319,0.007569725642463675,16.539120827192143,0.011805225429830223,0.02202712371945381
349,0.25,0.001,0.010648254259133044,0.007808804523521735,15.912278222449032,0.011357800301533928,0.0250167278572917
350,0.25,0.001,0.01041256749059683,0.007640208612069672,15.536300776917258,0.01108943667160404,0.013025983702391386
351,0.25,0.001,0.010713790635359877,0.007968818665378623,15.382824132471908,0.01097988874551885,0.012208086904138327
352,0.25,0.001,0.010634153736410317,0.007873760795013772,15.46924259044506,0.011041572155920814,0.020275982096791267
353,0.25,0.001,0.010683920751843188,0.007918490815539787,15.497468124201268,0.011061718860957364,0.027227566111832857
354,0.25,0.001,0.010732268408676724,0.00790230904556351,15.859094125253183,0.01131983877605509,0.01063478784635663
355,0.25,0.001,0.0104802563947476,0.007568376978146441,16.31817204275249,0.011647517518024618,0.023494557477533817
356,0.25,0.001,0.010392350317151458,0.007486368793948197,16.28512050487377,0.011623926127675781,0.025265594478696585
357,0.25,0.001,0.010576169431945424,0.007699570469098326,16.120461157810542,0.011506396258251636,0.014965502545237541
358,0.25,0.001,0.010522572979055069,0.0076469392573207985,16.11505353009259,0.01150253642404896,0.015342602971941233
359,0.25,0.001,0.010696307043142525,0.007819664894522708,16.12070166034463,0.011506567923158193,0.016201750375330448
360,0.25,0.001,0.01049278363769437,0.007603966487272654,16.188931123709974,0.01155526846802996,0.012758316937834024
361,0.25,0.001,0.010480234652389715,0.007557215927927582,16.380596019603587,0.011692074246683502,0.020833624992519617
362,0.25,0.001,0.010753340697214927,0.007855041648180764,16.242068808755757,0.011593196865635801,0.01268078712746501
363,0.25,0.001,0.010503997428365696,0.007643271668779629,16.03150501957646,0.011442901512902542,0.015508572105318308
364,0.25,0.001,0.01059133754928171,0.007756489455515956,15.886489750426492,0.011339393112367232,0.018135447520762682
365,0.25,0.001,0.010748304691119695,0.00794783875024245,15.693812970761899,0.011201865075490291,0.009946255013346672
366,0.25,0.001,0.010493968923886618,0.007696809885264547,15.675281206766764,0.011188637549440945,0.009590637171640992
367,0.25,0.001,0.010785350047143889,0.007985210241634904,15.6919830110338,0.011200558894385296,0.016253294423222542
368,0.25,0.001,0.010571743315660659,0.007773742781101186,15.67999424169093,0.011192001600064902,0.012442183215171099
369,0.25,0.001,0.010570482224409964,0.007763025626816132,15.732987450964657,0.011229826874350219,0.021876311860978603
370,0.25,0.001,0.010379339338360745,0.00755899231650947,15.805226255346227,0.011281389190111511,0.012176512740552425
371,0.25,0.001,0.01050855594192758,0.007685600251051379,15.819845788272811,0.011291824260009145,0.01883401768282056
372,0.25,0.001,0.010466615910883303,0.007647839742770166,15.796422711125127,0.011275105432637492,0.01064352598041296
373,0.25,0.001,0.01024318371474007,0.007422254777248995,15.808485996576003,0.011283715914758033,0.019142143428325653
374,0.25,0.001,0.010065511351934186,0.007262869324121211,15.706004507747696,0.01121056710046231,0.010389811359345913
375,0.25,0.001,0.010020503095914552,0.007281490877546646,15.349425904544784,0.010956049896177576,0.013045181520283222
376,0.25,0.001,0.01024677879234523,0.0075859545017190185,14.911258226559486,0.01064329637870056,0.01769578643143177
377,0.25,0.001,0.010137378594573632,0.007476390603883767,14.912176744437511,0.010643951994602078,0.013042886275798082
378,0.25,0.001,0.010407453356885615,0.007694206223535685,15.205039412887007,0.010852990301846544,0.012387549504637718
379,0.25,0.001,0.010506167294986454,0.00773610552933849,15.523427645365397,0.011080248140874658,0.013294095639139414
380,0.25,0.001,0.010580533333582642,0.00777410270853175,15.727235770519869,0.011225721463611612,0.014582569245249033
381,0.25,0.001,0.010493347651244682,0.007708328730070296,15.607247529206452,0.011140076751753356,0.009658444905653596
382,0.25,0.001,0.010375541140451843,0.007608834263167263,15.504625061411916,0.011066827310072745,0.027337287552654743
383,0.25,0.001,0.010545936045179397,0.007759088109948753,15.61749380606192,0.011147390296974962,0.021275164559483528
384,0.25,0.001,0.010417287295431267,0.007627431504474378,15.634350764898606,0.011159422387507927,0.013144919648766518
385,0.25,0.001,0.010435099656015266,0.0076176402630445395,15.789040683228293,0.011269836319220766,0.02062512282282114
386,0.25,0.001,0.010370263634364546,0.007534847744269136,15.8896708311858,0.011341663691067667,0.018376733642071486
387,0.25,0.001,0.010389442578601985,0.007539183188827686,15.972853107216917,0.011401037192874316,0.01664807368069887
388,0.25,0.001,0.01017794160195339,0.007347909193256019,15.85949969586031,0.011320128262569814,0.025668710470199585
389,0.25,0.001,0.01030182898228551,0.007523770662553516,15.568239117846076,0.011112233488826607,0.020180946215987206
390,0.25,0.001,0.01036512451591315,0.007590652949372192,15.548138700885538,0.011097886296135288,0.01268321881070733
391,0.25,0.001,0.010486050566405426,0.0076739806336937125,15.75884034898546,0.011248280049240156,0.01891795452684164
392,0.25,0.001,0.010112069087263979,0.007300556424637268,15.755716606422707,0.011246050397161105,0.014458282385021448
393,0.25,0.001,0.010129333922156581,0.007379286566082342,15.411265785311475,0.011000189711143095,0.02612907881848514
394,0.25,0.001,0.010221204168542667,0.007474885989026523,15.390366095083731,0.01098527201647661,0.012387226335704327
395,0.25,0.001,0.010372430500057008,0.00757752046747892,15.662674986285928,0.011179639533394667,0.01638342160731554
396,0.25,0.001,0.010218849612606896,0.007385113449008377,15.880258748560776,0.011334945573562296,0.033758560195565224
397,0.25,0.001,0.010331041179597378,0.007533150644581995,15.679379733992212,0.01119156297929494,0.02075185999274254
398,0.25,0.001,0.010184273296208293,0.0074359755158240415,15.401459599718635,0.010993190292447276,0.021388509776443243
399,0.25,0.001,0.01032823857701855,0.007589230992267897,15.34939843636972,0.010956030290056902,0.014270331244915724
400,0.25,0.001,0.010211179400851696,0.00745926024162291,15.42175594376929,0.011007677333168658,0.021709435619413853
401,0.25,0.001,0.010037622920432945,0.007262463049020296,15.551995089024674,0.01110063889295123,0.023192891152575612
402,0.25,0.001,0.010437418235304915,0.007587099700798223,15.973185927779586,0.011401274752162445,0.021599516738206148
403,0.25,0.001,0.010297203758432542,0.0073526452617420825,16.50130429679965,0.011778232902783476,0.03329715970903635
404,0.25,0.001,0.010225579234552973,0.007297071915717773,16.411352463710454,0.011714027454468562,0.020337862195447087
405,0.25,0.001,0.009926700665626996,0.007064423063930906,16.040203329957563,0.011449110157000402,0.017024047672748566
406,0.25,0.001,0.010036695599096057,0.0072367784486692625,15.690734486521027,0.011199667727709512,0.026540482416749
407,0.25,0.001,0.010100733856728047,0.007326741990299873,15.545449292218244,0.011095966661112237,0.01801293157041073
408,0.25,0.001,0.010186931256342817,0.007431465235573274,15.441630163310487,0.011021863071599206,0.02013347204774618
409,0.25,0.001,0.010081981987129023,0.007337785463918139,15.378476307715898,0.010976785373101997,0.026682800613343716
410,0.25,0.001,0.010448561176473711,0.007699232812924886,15.407235581197856,0.010997313048677985,0.015238155610859394
411,0.25,0.001,0.01017866694126968,0.007464251101568893,15.211587835241247,0.01085766440773822,0.015171490143984556
412,0.25,0.001,0.010231107841303318,0.007565612571290982,14.937435326752839,0.010661980961279686,0.01613526651635766
413,0.25,0.001,0.010462586779469325,0.007776228550039691,15.054352925147539,0.010745433922303739,0.02562530804425478
414,0.25,0.001,0.010207767333881354,0.007441518230386722,15.502060171998577,0.011064996553889064,0.014496415155008435
415,0.25,0.001,0.010213377770542362,0.007401904016503214,15.755497755827728,0.011245894186886315,0.01892040017992258
416,0.25,0.001,0.010140711717583515,0.007376734650245419,15.489326429955753,0.011055907516028375,0.01210180576890707
417,0.25,0.001,0.010233179137202692,0.007546505948275696,15.056119165302794,0.010746694621914915,0.023640695959329605
418,0.25,0.001,0.010265493512521555,0.007611504215517162,14.87295874842891,0.010615959135209786,0.020530997775495052
419,0.25,0.001,0.01016102411588769,0.007515935043309942,14.8230798744861,0.010580356798348393,0.015288258669897914
420,0.25,0.001,0.010106480875868856,0.007409313032518567,15.11492881068477,0.010788671527969144,0.025762348901480436
421,0.25,0.001,0.010043057199153636,0.0072301902382830045,15.763307889302572,0.011251468871736312,0.014496778603643179
422,0.25,0.001,0.010141153555409408,0.007245534571048654,16.227050710607458,0.011582477309498542,0.014218960888683796
423,0.25,0.001,0.010124820227056373,0.007208238338568696,16.34452537254051,0.011666327889036767,0.0172503050416708
424,0.25,0.001,0.010239693405175651,0.007386568318592545,15.988915549384224,0.01141250217657689,0.013968735001981258
425,0.25,0.001,0.010141078037796196,0.0074210673984554075,15.242939489859122,0.010880042462426211,0.01912810280919075
426,0.25,0.001,0.01021311834546519,0.007599835157578374,14.644836708351418,0.010453131126589164,0.01997468527406454
427,0.25,0.001,0.010296152490708563,0.007696721990259342,14.567207454163352,0.010397721237803963,0.027708527632057667
428,0.25,0.001,0.010030015659185104,0.007386652672272406,14.813408310030713,0.010573453468972671,0.01222058804705739
429,0.25,0.001,0.010091608275233963,0.007368770405006261,15.258785400861575,0.010891352891407262,0.014246560167521238
430,0.25,0.001,0.010053499659270416,0.0072981473633352625,15.440993697554976,0.011021408777698055,0.010404144879430532
431,0.25,0.001,0.009968800746180393,0.007204775807712181,15.489594247606066,0.0110560986778059,0.01755162887275219
432,0.25,0.001,0.0101376655454069,0.007427344834546984,15.188635837884597,0.010841281825756315,0.01743272552266717
433,0.25,0.001,0.010131250790975712,0.007464724431895179,14.943211284684546,0.010666103700702746,0.02296846779063344
434,0.25,0.001,0.009915742781703119,0.007248481384903928,14.947335419831452,0.010669047408873271,0.02204443560913205
435,0.25,0.001,0.0100924721746533,0.007409081150444202,15.037724059305074,0.010733564639047162,0.01537992525845766
436,0.25,0.001,0.01008461429565041,0.0073889689749957604,15.106396663336106,0.01078258148703505,0.01762401219457388
437,0.25,0.001,0.010105040901696977,0.007335234375923504,15.521994873329445,0.011079225462761917,0.027092916890978813
438,0.25,0.001,0.00991498841041768,0.00708908562398987,15.836358305848675,0.011303610496679996,0.010641107801347971
439,0.25,0.001,0.010028494269023707,0.0071991899303724,15.855421195795506,0.011317217127619919,0.031262056436389685
440,0.25,0.001,0.009923697863188054,0.0071276738250881065,15.668916278415256,0.011184094417141511,0.013825322967022657
441,0.25,0.001,0.010019012071468212,0.007277650701135029,15.362587669749319,0.010965444446644768,0.03317798487842083
442,0.25,0.001,0.009914987203147676,0.007198911516662733,15.220889162134242,0.01086430347047412,0.016693590208888054
443,0.25,0.001,0.010000829389433802,0.007272513077398877,15.289485460446205,0.01091326585328066,0.03879174776375294
444,0.25,0.001,0.009820351446116413,0.007091912716903069,15.290170787293235,0.010913755023050132,0.023811684921383858
445,0.25,0.001,0.010096867833240533,0.007391697778883908,15.159770906707386,0.010820678734266514,0.02780984714627266
446,0.25,0.001,0.00990391112174149,0.007194172412754945,15.185375213623047,0.010838954470823017,0.01632288470864296
447,0.25,0.001,0.00978717773600861,0.00708226584771901,15.158327844407824,0.010819648711211865,0.01769372308626771
448,0.25,0.001,0.01011624260817045,0.007449801689312782,14.942734412205072,0.010665763320631743,0.027652653865516186
449,0.25,0.001,0.010118155211302233,0.007476377680345818,14.804522078714253,0.010567110691444863,0.02840721234679222
450,0.25,0.001,0.009797344145215587,0.007109025263308007,15.065337345923906,0.010753274336847899,0.015818005427718163
451,0.25,0.001,0.009812255068049754,0.007058958718438207,15.429475054328824,0.01101318704805769,0.010394451208412647
452,0.25,0.001,0.009975398902171924,0.007184245031510974,15.641624380041051,0.011164614118516096,0.021057577803730965
453,0.25,0.001,0.009723560562656249,0.006915499071050205,15.73637710382909,0.011232246326787359,0.011689778417348862
454,0.25,0.001,0.009963422220338273,0.007133359704626563,15.859669084902164,0.011320249168381273,0.0161149725317955
455,0.25,0.001,0.009874915945585127,0.007033438789715738,15.923636742580085,0.011365907739172081,0.010460334364324808
456,0.25,0.001,0.009751019539472498,0.006942951517110622,15.736413343453114,0.011232272193756684,0.012931935489177704
457,0.25,0.001,0.009825021396448582,0.00709702138915474,15.287710719638401,0.01091199908610878,0.014692521654069424
458,0.25,0.001,0.010003535122967061,0.00733609541238826,14.948334941157588,0.01066976084308179,0.019480460323393345
459,0.25,0.001,0.010041601507476083,0.007379569400699787,14.918027736522534,0.010648128291593529,0.021534775383770466
460,0.25,0.001,0.009955451743286332,0.007265603439997376,15.073909312118719,0.010759392799513719,0.022337688133120537
461,0.25,0.001,0.009892633851663566,0.007170197962104906,15.256531185574001,0.010889743886919344,0.03193488530814648
462,0.25,0.001,0.010032828207369204,0.007312220026865417,15.246289005985966,0.010882433266228383,0.016691927798092365
463,0.25,0.001,0.009719172561610187,0.0069863628078665994,15.31466668917809,0.01093123960683661,0.023578790947794914
464,0.25,0.001,0.00972533267405298,0.006954391613418673,15.528356045852473,0.011083765914241593,0.027697856537997723
465,0.25,0.001,0.009785988103644347,0.006960799612886744,15.832354545593262,0.011300752709202899,0.025229962775483727
466,0.25,0.001,0.010080511106845037,0.007251281779903321,15.855000378173074,0.011316916758153514,0.030633744783699512
467,0.25,0.001,0.009950176778214949,0.007199878522689327,15.412668863932291,0.011001191194812484,0.011761958245187998
468,0.25,0.001,0.009812494486938288,0.0071149757476868455,15.116897500591513,0.010790076731328703,0.0339368749409914
469,0.25,0.001,0.009619765466562024,0.006940099985603197,15.016846362455391,0.010718662642723335,0.01867974502965808
470,0.25,0.001,0.00949028271169942,0.006752891149831775,15.340343428246769,0.010949567043716467,0.024195091798901558
471,0.25,0.001,0.00974037669553065,0.006984051730897691,15.446444217069649,0.011025299227030442,0.013860077364370227
472,0.25,0.001,0.00995893659139121,0.007234919965727094,15.26539134979248,0.0108960680583815,0.014104241505265236
473,0.25,0.001,0.009782590937835199,0.007099410116580533,15.036548343705542,0.010732725441617089,0.01702107395976782
474,0.25,0.001,0.009591262178196584,0.006915646352241804,14.99415350549015,0.010702465028900892,0.013686465565115213
475,0.25,0.001,0.009793160092315557,0.007148700202872724,14.81955600079195,0.010577841542321163,0.013666079379618168
476,0.25,0.001,0.00955987586007442,0.006945969203464043,14.6483332787031,0.01045562689414925,0.00849391333758831
477,0.25,0.001,0.009823151588163994,0.007210298659808842,14.642426855770157,0.010451411031955859,0.02372140157967806
478,0.25,0.001,0.009577182501002594,0.006892340355495244,15.045855475060733,0.010739368647438068,0.015210083685815334
479,0.25,0.001,0.00970702494184176,0.006972787114159193,15.322671713652435,0.010936953400180182,0.02805184666067362
480,0.25,0.001,0.009740014112106076,0.00702435200183112,15.218571144857524,0.010862648925665613,0.0120059116743505
481,0.25,0.001,0.009718277273170742,0.007048263409991323,14.962756451265312,0.010680054569068745,0.017454104032367468
482,0.25,0.001,0.009544209738112526,0.006925431080162525,14.675635832327384,0.010475114798235105,0.011806348338723183
483,0.25,0.001,0.009763298211274323,0.007145619726981278,14.669471599437573,0.010470714917514327,0.025036062113940716
484,0.25,0.001,0.009646177590813166,0.006980941699886763,14.935981079384133,0.01066094295459253,0.010553387692198157
485,0.25,0.001,0.009715958153484043,0.006995345546323576,15.246313801518193,0.01088245096468108,0.02081635780632496
486,0.25,0.001,0.00969768923787791,0.006935781402582371,15.477731775354457,0.011047631531302253,0.012195165269076824
487,0.25,0.001,0.009583715544898569,0.006819507911985303,15.49061777562271,0.011056829247410927,0.02240654267370701
488,0.25,0.001,0.009504241914844808,0.006792817126821588,15.194823677157178,0.010845698556143596,0.010999891441315413
489,0.25,0.001,0.009572950720695066,0.00693359518032751,14.790946359987613,0.01055742067094048,0.02239472046494484
490,0.25,0.001,0.009610230551549682,0.006993628526681367,14.663439256173593,0.010466409176426548,0.02351117366924882
491,0.25,0.001,0.009648301799632148,0.007062560631491152,14.490492785418475,0.010342964158043165,0.009288050467148423
492,0.25,0.001,0.00978909459332993,0.007206752620361469,14.471443635446054,0.010329367334365491,0.01642480818554759
493,0.25,0.001,0.009578426483512661,0.00696308243398865,14.656389083391355,0.010461376933184408,0.025416185148060322
494,0.25,0.001,0.009616476334171531,0.00690343830573522,15.20386446258168,0.01085215165066501,0.02446965128183365
495,0.25,0.001,0.00973650820001408,0.006953644957163452,15.59516743083059,0.011131454268972584,0.018580797594040632
496,0.25,0.001,0.009624177750981884,0.006810482752359944,15.767948927702728,0.011254781532978392,0.010927278082817793
497,0.25,0.001,0.00973889728387197,0.006949648726731539,15.630946818693184,0.011156992732828825,0.014140159823000431
498,0.25,0.001,0.009547705854070776,0.0068174958183073705,15.300095946700484,0.010920839362384357,0.011955475900322199
499,0.25,0.001,0.00955941101513159,0.006868133125941695,15.08192359076606,0.010765113198262712,0.019691722467541695
500,0.25,0.001,0.009546687033165384,0.006851255474037227,15.105199519498848,0.010781726994645859,0.01721686590462923
