epoch,beta,learning_rate,train_loss,train_reconstruction_loss,train_kl_unnormalized,train_kl_normalized,mean_unclipped_gradient_norm
1,0.0,0.001,0.06611870957955752,0.06611870957955752,28.66615098508346,0.0204612069843565,0.10683765155928475
2,0.02,0.001,0.05078734714735738,0.04855112407967345,156.64742948606988,0.11181115595008558,0.12473745856966291
3,0.04,0.001,0.04112237035436663,0.03965044308961401,51.55424260762768,0.036798174595023325,0.09816016256809235
4,0.06,0.001,0.038739072825699425,0.0357102830453365,70.72226355642975,0.050479845507801394,0.09204890206456184
5,0.08,0.001,0.03770175879911517,0.03502927060662737,46.801953701169055,0.03340610542553109,0.06336376230631556
6,0.1,0.001,0.0363999016273242,0.03375184894743748,37.09921629379308,0.02648052554874595,0.04635110417647021
7,0.12,0.001,0.0350081293174769,0.03295780888674716,23.93749815432084,0.017086008675460986,0.03949042569313731
8,0.14,0.001,0.032913939954226895,0.030793508794373783,21.219451943941536,0.01514593286505463,0.028178253610219275
9,0.16,0.001,0.030379831472596725,0.02793546528587716,21.40348444139159,0.01527729082183554,0.0190395304401006
10,0.18,0.001,0.028567978122871686,0.025645900823124287,22.743498659023786,0.016233760641701487,0.019845318581376756
11,0.2,0.001,0.0271606598453764,0.02381371313546877,23.44536265049465,0.016734734225906246,0.0453039567385401
12,0.22,0.001,0.026108707053969695,0.02262375195345069,22.19283063857715,0.015840707093916596,0.06795834164534297
13,0.24,0.001,0.025444733099388196,0.022153471766456996,19.21273815163839,0.013713588973332184,0.06394425619925771
14,0.25,0.001,0.024860572999055062,0.021427545464204036,19.238685541835725,0.013732109594458048,0.04772768169641495
15,0.25,0.001,0.024094486325187715,0.020960258535059992,17.564213644825006,0.01253691195205211,0.03148435615003109
16,0.25,0.001,0.02374188593797403,0.0204468446312683,18.465410756734446,0.013180164708589898,0.025394339114427567
17,0.25,0.001,0.02341847310991265,0.020142180139659183,18.36034417537839,0.01310517071761484,0.024471586171005453
18,0.25,0.001,0.023098228043310912,0.019768897022441133,18.657571788197576,0.01331732461684338,0.03415372209357364
19,0.25,0.001,0.023017544703725853,0.019831370558013265,17.855321500923562,0.012744697716576419,0.034665098946009366
20,0.25,0.001,0.022982294036733637,0.01967414658662904,18.538858488580647,0.013232589927609313,0.04787861609033176
21,0.25,0.001,0.02271672900912393,0.019301452964337815,19.139206734320307,0.013661104021641904,0.030177747564656392
22,0.25,0.001,0.022472864507286708,0.019311507002345133,17.716247126907454,0.012645429783659854,0.02345169402126755
23,0.25,0.001,0.02244806115022983,0.019174086652678925,18.347353488138037,0.013095898278471118,0.018741064838000705
24,0.25,0.001,0.02231553840874662,0.019058437703938738,18.252792028026274,0.013028402589597626,0.024078501920614923
25,0.25,0.001,0.022380944565110614,0.019093288293680472,18.424026559737207,0.013150625667192868,0.02827792681221451
26,0.0,0.001,0.01834235072359615,0.01834235072359615,22.819017855179503,0.016287664421969668,0.0475252095077719
27,0.02,0.001,0.01767904022773061,0.01709620012336047,40.8279610120672,0.02914201357035489,0.02034474310598203
28,0.04,0.001,0.01802367002941995,0.01640811534146789,56.584818542691906,0.04038887833168587,0.01755419573081391
29,0.06,0.001,0.018694470746240494,0.01627944828834875,56.3907772178738,0.04025037631539886,0.025566587490694865
30,0.08,0.001,0.01882975532589416,0.016322021284431013,43.916685302593415,0.03134667045152992,0.03358035481401852
31,0.1,0.001,0.019086223728008413,0.01692376874696988,30.29599901159696,0.021624553184580272,0.028396173380315304
32,0.12,0.001,0.01952381944821558,0.017260163446015078,26.42818484405447,0.018863800745220892,0.04363677278161049
33,0.14,0.001,0.019709410391076883,0.017010295243103563,27.01043349215395,0.01927939578312202,0.03065774749432291
34,0.16,0.001,0.01997552310948972,0.016986656258652724,26.171267978588922,0.01868041968493142,0.030992244636373862
35,0.18,0.001,0.020241704048894294,0.017271171265881825,23.120644835897185,0.016502958483866657,0.015418154985776969
36,0.2,0.001,0.020443527531265937,0.01726303865603982,22.279325872866167,0.015902445305400546,0.018272215833089182
37,0.22,0.001,0.02056081442046248,0.017313847997963566,20.67727037390165,0.014758936740829157,0.031896163310323446
38,0.24,0.001,0.020911395704636123,0.017581352292975156,19.439132320412863,0.013875183669102686,0.04233914041625602
39,0.25,0.001,0.020845092170577128,0.017475228558787022,18.884716465621842,0.013479455007581615,0.023444839221026217
40,0.25,0.001,0.020652955066731014,0.017370689359190283,18.393815011956125,0.01312906139325919,0.02850425017199346
41,0.25,0.001,0.02083186940322297,0.017525458760026147,18.529124874440956,0.013225642308665922,0.02651859793279852
42,0.25,0.001,0.02065913946589339,0.01740125099554073,18.257208324194504,0.013031554835256606,0.02325731615668961
43,0.25,0.001,0.020517858343229008,0.01715919506191932,18.821948802498692,0.013434652963953384,0.03958294327769961
44,0.25,0.001,0.020402313169203785,0.017289912857235717,17.44188936422934,0.012449599831712592,0.028425125937376703
45,0.25,0.001,0.020409787809325695,0.017060992589723704,18.766648087710763,0.013395180647902044,0.020937069851372923
46,0.25,0.001,0.02033935586209936,0.017050533493073103,18.430559396193154,0.013155288648246362,0.025817114859819412
47,0.25,0.001,0.01998517722510851,0.01684553899714082,17.594531400649707,0.012558552034724987,0.02312184457800218
48,0.25,0.001,0.020162675219994493,0.01703849759202356,17.507890956781754,0.012496710176146862,0.04086941999516317
49,0.25,0.001,0.02006426285823278,0.016945677764249177,17.476553306843886,0.01247434211766159,0.03703572268464735
50,0.25,0.001,0.02007214531440107,0.016968440277368588,17.393163200889393,0.01241482027186966,0.03133225254714489
51,0.0,0.001,0.01645016292105784,0.01645016292105784,22.168537324900992,0.01582336711270592,0.03435161004641226
52,0.02,0.001,0.01589629193445276,0.01534510192226868,38.61089095012145,0.02755952244833794,0.019790790176817348
53,0.04,0.001,0.01629511934143704,0.014827463431735513,51.40465860168598,0.03669140514038971,0.02110798843204975
54,0.06,0.001,0.01676459659071635,0.014629614621177144,49.85182524718533,0.03558303015502165,0.0215169686291899
55,0.08,0.001,0.016938341880436584,0.014733352545674623,38.61487395218283,0.02756236541911694,0.02398098060595138
56,0.1,0.001,0.017220939163282066,0.015228188749376951,27.91843182165133,0.019927503084690455,0.02334543304251773
57,0.12,0.001,0.017434028284860813,0.015352644138124193,24.300157978683366,0.017344866508696193,0.033395101715411456
58,0.14,0.001,0.017805541837566444,0.015357276035459845,24.500144482760177,0.017487612050506907,0.021444978059402535
59,0.16,0.001,0.018017651491710276,0.015326245629828742,23.56662364809948,0.016821287400499273,0.01858139583574874
60,0.18,0.001,0.018227974202389256,0.015437742660798597,21.717300507543268,0.015501285158846016,0.013703734880047185
61,0.2,0.001,0.01850755426679968,0.01566117489172735,19.938889228168865,0.014231898092911395,0.01510316226631403
62,0.22,0.001,0.01863828759132852,0.015551965447104004,19.654262437005517,0.0140287383561781,0.013863709888287954
63,0.24,0.001,0.01889678382897625,0.015672819400700908,18.81989434574823,0.013433186542289957,0.027886051950710162
64,0.25,0.001,0.018969302941070694,0.015897423708617825,17.214811886705924,0.012287517406642344,0.029193711999271597
65,0.25,0.001,0.018957960051559686,0.01587914838939561,17.253660479538986,0.012315246594960019,0.027384535542556217
66,0.25,0.001,0.018741245030943845,0.015632848309107796,17.41945481245292,0.012433586589902155,0.018551938634897982
67,0.25,0.001,0.018565045101847713,0.015641620552584563,16.382873865528413,0.011693700118150189,0.021145838179758618
68,0.25,0.001,0.018638182289502637,0.015611042894474628,16.964089699760596,0.012108557958430119,0.03541527621980224
69,0.25,0.001,0.018462549718677584,0.015583384683136301,16.134839430141668,0.011516659122156794,0.029473374597728252
70,0.25,0.001,0.01834919568641632,0.015434183537375018,16.33572612348385,0.011660047197347501,0.021569235250353813
71,0.25,0.001,0.018366036381718742,0.015519354630080986,15.952805587380919,0.011386727756874318,0.01846163546932595
72,0.25,0.001,0.01833844763026777,0.015359465766259347,16.694213655749316,0.01191592694914298,0.025801760676716055
73,0.25,0.001,0.01810555448260924,0.015204154307723872,16.2594468555054,0.011605600896149464,0.01713726177279438
74,0.25,0.001,0.018170178168846883,0.015319131370676857,15.97726593722372,0.011404186964470892,0.01821710661585842
75,0.25,0.001,0.018111375855243233,0.015148040092191024,16.606531870007238,0.011853341805858128,0.01634711506111281
76,0.0,0.001,0.014666737691772453,0.014666737691772453,19.358365475167854,0.013817534243517384,0.01975818004991327
77,0.02,0.001,0.014356187426465763,0.013872676565554897,33.869915308082355,0.02417552841404879,0.01163400084312473
78,0.04,0.001,0.014719839513250229,0.01341818386632906,45.59049663587751,0.0325413965994843,0.012825015732752425
79,0.06,0.001,0.014987832625712726,0.013111210176527638,43.81913362639606,0.03127704041855536,0.01322772034576961
80,0.08,0.001,0.014815899081029187,0.012941576785668214,32.824067214895344,0.023429027276870337,0.011867782234081201
81,0.1,0.001,0.01444133137531286,0.012684265835593534,24.616489383970617,0.017570656234097513,0.020487898029386997
82,0.12,0.001,0.014153215681432851,0.012232516705129494,22.424161012398454,0.016005825133760494,0.017746612695711
83,0.14,0.001,0.014257620626471196,0.011985226013798774,22.74017658630089,0.016231389426338966,0.03658206880624805
84,0.16,0.001,0.014306882600672113,0.011765063133770407,22.256808124568668,0.015886372679920532,0.0157274937789355
85,0.18,0.001,0.014407028330115743,0.01185075241822844,19.89634881669324,0.01420153377351409,0.0164036595129541
86,0.2,0.001,0.014712939075437347,0.011975694127277607,19.174400659962007,0.013686224596689512,0.022058685975415365
87,0.22,0.001,0.014806716266253805,0.011849187510238647,18.834081367862694,0.013443312896404493,0.011407296040228434
88,0.24,0.001,0.015058234187733494,0.012004184564597061,17.828014254845318,0.012725206463130134,0.01307544797392828
89,0.25,0.001,0.015076278676612273,0.011991657422076885,17.286216489161962,0.012338484289194833,0.030504540407231877
90,0.25,0.001,0.01521232119582886,0.012250893230939296,16.59584144962302,0.011845711241700942,0.03651405378643956
91,0.25,0.001,0.015233266548044962,0.012142394875836566,17.321245272770764,0.012363486989843514,0.043364727071353366
92,0.25,0.001,0.015071006078815076,0.012074512543530994,16.792349998174583,0.011985974302765583,0.04150411859154701
93,0.25,0.001,0.01503177801056767,0.012004326598817701,16.96583787067933,0.012109805760656196,0.026533336578203098
94,0.25,0.001,0.01479564492072368,0.011768092943342535,16.96640027863324,0.012110207193885255,0.020821046283734695
95,0.25,0.001,0.014749787777972001,0.01178608940996006,16.60856483054216,0.011854792884041513,0.01621797727420926
96,0.25,0.001,0.014792831162932838,0.011843115758090592,16.530205466730767,0.011798861860621531,0.010832260495850019
97,0.25,0.001,0.014705440500540354,0.011701552059682083,16.83379064035746,0.012015553633374346,0.015984517788248404
98,0.25,0.001,0.014714593760342301,0.011828743411748568,16.172306265621756,0.011543402045411676,0.01734284351446799
99,0.25,0.001,0.014595356174071447,0.011686310643119433,16.30229139438127,0.011636182294347801,0.014183872379362583
100,0.25,0.001,0.014557023969313288,0.011576474231278512,16.703000832925493,0.011922199024215199,0.011291204552565302
101,0.25,0.001,0.014600668928433235,0.011730248351553434,16.085837278300016,0.011481682568379739,0.015578388968216521
102,0.25,0.001,0.014500904993926268,0.011529366328761705,16.652503901210725,0.011886155532627212,0.019402417620377883
103,0.25,0.001,0.014521654243591751,0.011645741085360562,16.116617515511106,0.011503652759108569,0.020167654114110128
104,0.25,0.001,0.014401690720410601,0.011495670067107704,16.28534007788255,0.011624082853592115,0.017795068744037832
105,0.25,0.001,0.014478756570822923,0.011551975648996462,16.401680739316873,0.011707124010932815,0.015098978233124529
106,0.25,0.001,0.014359303334981685,0.011472419979734728,16.178095372664735,0.01154753417035313,0.019636623494859253
107,0.25,0.001,0.014395696672398003,0.011581775287110315,15.769214627924471,0.011255684959260865,0.020523902694029466
108,0.25,0.001,0.014472318514235163,0.01150937925585423,16.60431200252119,0.011851757318002277,0.024503888296229497
109,0.25,0.001,0.014308927952813083,0.011388329449206522,16.367033780034088,0.011682393847276294,0.01143834473831313
110,0.25,0.001,0.014274710557029925,0.011345877352990124,16.413181018609098,0.011715332632840185,0.011375872418284416
111,0.25,0.001,0.014235145005872838,0.011351700996932753,16.158820392353153,0.01153377615442766,0.010373442034636225
112,0.25,0.001,0.014267274597982335,0.011389153783680661,16.12898909852907,0.011512483296594624,0.012711281888186932
113,0.25,0.001,0.014226256628836963,0.01137799396680767,15.96166449496157,0.011393051031378708,0.012271586606012923
114,0.25,0.001,0.014172524428876938,0.011278427814673331,16.218519246055127,0.011576387755928,0.01744145088429962
115,0.25,0.001,0.014223625137111468,0.011295688151452888,16.408159573138725,0.01171174844620894,0.010025437721716506
116,0.25,0.001,0.014150631994731707,0.011314311925123938,15.89473959590216,0.011345281653035088,0.018841907248965332
117,0.25,0.001,0.014144325904186824,0.01126743888366305,16.12207449721409,0.011507547820995067,0.013772035150655679
118,0.25,0.001,0.014091718064375893,0.011168021525903744,16.38439518970375,0.011694786002643646,0.010367480771882194
119,0.25,0.001,0.014092242573205098,0.011230808764472432,16.035475631784347,0.011445735640103032,0.013269365366016115
120,0.25,0.001,0.014103570056102705,0.011201975000355453,16.26053903945324,0.011606380470701812,0.013490442319640092
121,0.25,0.001,0.014067137267604023,0.01121128129602924,16.00421743194721,0.011423424291182878,0.01753671360867364
122,0.25,0.001,0.014049713370792447,0.01117812023943346,16.092407882901867,0.011486372507424602,0.015169179998338223
123,0.25,0.001,0.01412721163664211,0.011242263986972133,16.16724833605196,0.011539791817310463,0.017125779230679785
124,0.25,0.001,0.013982773773527035,0.011100212436849059,16.153873064776768,0.011530244871361004,0.014137599883334977
125,0.25,0.001,0.01398277695249878,0.011088152428955597,16.221474447096192,0.01157849710713504,0.016259107472641126
126,0.25,0.001,0.013848285588670272,0.011023087259252959,15.832413120578122,0.011300794518613934,0.011679998865084988
127,0.25,0.001,0.01397298951579503,0.011165781460668005,15.731594010809001,0.011228832270384726,0.014980555512011051
128,0.25,0.001,0.013903896156569414,0.011033369778864103,16.086429851435074,0.011482105532787348,0.011933378409594297
129,0.25,0.001,0.013915782396447163,0.011034355716087251,16.14751614489126,0.01152570745531139,0.012930641150368112
130,0.25,0.001,0.013839067252434566,0.010926827123737087,16.320193927227486,0.011648960690383644,0.01570431176306946
131,0.25,0.001,0.013870341535528593,0.01104970351635859,15.806855743531543,0.01128255227946577,0.011581478773483209
132,0.25,0.001,0.013918793138641408,0.010974018539863425,16.502516779558213,0.011779098343724636,0.011784247854458434
133,0.25,0.001,0.013949873472196126,0.011073265351595972,16.120512669411323,0.011506433025989523,0.010706569666841201
134,0.25,0.001,0.013831189409861938,0.010945427298167287,16.171810225030843,0.01154304798360517,0.012498435298246997
135,0.25,0.001,0.01389409051498282,0.011045057853516062,15.965978908759066,0.011396130555859434,0.01691061138574566
136,0.25,0.001,0.013880313466589115,0.010980823384834491,16.24874310570556,0.011597960817776988,0.012194222970200437
137,0.25,0.001,0.013858741132099414,0.01099731791205274,16.035415517265196,0.011445692731809561,0.01262018084526062
138,0.25,0.001,0.013838673834248034,0.010933810847168294,16.27885193417309,0.01161945177314282,0.014315985808415073
139,0.25,0.001,0.0137677075509111,0.010929449166732627,15.905600384806926,0.011353033822131995,0.016243092250078917
140,0.25,0.001,0.013930629775375472,0.01107287517905786,16.01485764677475,0.011431019019824946,0.021673635313553468
141,0.25,0.001,0.013877767761932648,0.010933067451723729,16.502100153828327,0.011778800966329998,0.019616212163652693
142,0.25,0.001,0.01383468423546324,0.010982569786730732,15.983249752405884,0.011408458067384643,0.012481848842331342
143,0.25,0.001,0.013784299112047664,0.010875394778631576,16.30150066402162,0.011635617890093947,0.010050157617245401
144,0.25,0.001,0.013838495076236081,0.010974215926477732,16.051420143515077,0.011457116447905123,0.016661212047828094
145,0.25,0.001,0.013718343139830417,0.01085970594222909,16.01980411978847,0.01143454969292539,0.01674351521900722
146,0.25,0.001,0.013803704469690559,0.010867201064995061,16.456165622068056,0.011746014005758783,0.014061434593583857
147,0.25,0.001,0.013815445206009764,0.010932221655964025,16.157585172675223,0.011532894484422001,0.015913857014051506
148,0.25,0.001,0.013831465653472905,0.010980755204709106,15.975381635353141,0.011402841995255632,0.026692042792482034
149,0.25,0.001,0.013820813179411872,0.010918993905066204,16.261796209057813,0.011607277808035556,0.02003073239965098
150,0.25,0.001,0.013712795872852103,0.010831561201955374,16.146438799058593,0.011524938471847676,0.017447843615497862
151,0.25,0.001,0.013623327502924906,0.010802909467309094,15.80562246644194,0.011281671996032791,0.014639629982411861
152,0.25,0.001,0.013633935527303891,0.010820022573389165,15.769169126867421,0.011255652481704084,0.011456811734076058
153,0.25,0.001,0.01364999023152141,0.010732817500141422,16.347836139846343,0.011668691034865342,0.01294065107192312
154,0.25,0.001,0.013679859221979597,0.010801338754146947,16.131229664932498,0.011514082558838328,0.01746971918536084
155,0.25,0.001,0.013649994690255123,0.010767508975679687,16.153450534195052,0.01152994327922559,0.01871231318052326
156,0.25,0.001,0.013620355639684145,0.010755009630879959,16.057399205743028,0.011461384158274824,0.014276044044111456
157,0.25,0.001,0.013594236298019011,0.010723119461801394,16.089738845825195,0.01148446741315146,0.010899436793157033
158,0.25,0.001,0.013560033665741976,0.010712103649337215,15.959798544163517,0.011391719160716286,0.00921939080581069
159,0.25,0.001,0.013596813605268062,0.010712922251768255,16.161328837722884,0.011535566622214765,0.017304744172309126
160,0.25,0.001,0.013581871323924142,0.01065016124079189,16.429303651593848,0.011726840579296108,0.01184263319841453
161,0.25,0.001,0.01351136848648825,0.010751932988472403,15.463876186837776,0.011037741746493773,0.012069076100098235
162,0.25,0.001,0.013535570198407624,0.01061642110158472,16.358912443729253,0.011676597033354214,0.010559153343949999
163,0.25,0.001,0.013547232714384863,0.010658231697219486,16.18996182545228,0.011556004158067294,0.014860352102134908
164,0.25,0.001,0.01352230064338611,0.010710380868190431,15.75799848631403,0.011247679147975753,0.014213324790554387
165,0.25,0.001,0.013565254950461432,0.010716670995049058,15.963464186318202,0.011394335607650394,0.020192596928349564
166,0.25,0.001,0.013631735440111325,0.010735757982328224,16.229058052045367,0.011583910101388557,0.023511301992194995
167,0.25,0.001,0.01352469653200883,0.010664284680959259,16.0297477603234,0.011441647223642683,0.01671403686382941
168,0.25,0.001,0.013565282610526811,0.01071348987889689,15.981447307947876,0.011407171526015615,0.020638806080179557
169,0.25,0.001,0.013593025666857288,0.010711124848669039,16.150172301858458,0.011527603356073132,0.02225061851952757
170,0.25,0.001,0.013501006271044872,0.010589073659469294,16.3184711553208,0.011647731017359601,0.015567070272352015
171,0.25,0.001,0.0135345169887222,0.01065963662420905,16.11082997443219,0.011499521751914482,0.013073041236826352
172,0.25,0.001,0.013540716667597206,0.010696641573850195,15.938197168962509,0.011376300620244474,0.010190450785947698
173,0.25,0.001,0.013567124237467731,0.010582842833984118,16.723913153104363,0.01193712573383609,0.01422439914728914
174,0.25,0.001,0.013557668975350075,0.010639914601834761,16.35109529429165,0.011671017340679265,0.020173539939735616
175,0.25,0.001,0.013475510792905683,0.010629207248569361,15.950685095842111,0.0113852142011721,0.012643886330936636
176,0.25,0.001,0.013471711237697623,0.010539731206522941,16.430815747373373,0.011727919876783278,0.011772833897599153
177,0.25,0.001,0.013532881945474869,0.010656701977306646,16.11811235705369,0.01150471974093768,0.01631794490718416
178,0.25,0.001,0.013547879663096014,0.010674086423035857,16.104738160589275,0.011495173562162224,0.014099957288375922
179,0.25,0.001,0.013535509320453463,0.010618195679752848,16.348626319585716,0.011669255046099726,0.016717128322592804
180,0.25,0.001,0.013533408076052853,0.010659670358304339,16.104426934592443,0.011494951416554206,0.014053773667131151
181,0.25,0.001,0.013474029088801517,0.01049763843735495,16.679692213309554,0.011905561893868348,0.010631535734449114
182,0.25,0.001,0.013466278607279544,0.010583931595241913,16.15267234696527,0.011529387827955226,0.021073655491428717
183,0.25,0.001,0.01345204125109019,0.010578605765799451,16.10273305263035,0.011493742364475623,0.01840034273586103
184,0.25,0.001,0.013302132913167427,0.01043714576252407,16.055387342774566,0.011459948139025386,0.00948904048917549
185,0.25,0.001,0.013392207217047864,0.010543102136109773,15.966383984678062,0.011396419689277704,0.016999652476183007
186,0.25,0.001,0.013483839182669242,0.01060028475070454,16.159438377715148,0.01153421725746977,0.023381838308913366
187,0.25,0.001,0.013459244396701008,0.01053467882457286,16.389265707954248,0.011698262461066557,0.021985683922788928
188,0.25,0.001,0.013484444073455164,0.010655489773865936,15.85346003217455,0.011315817296341577,0.025520539177315577
189,0.25,0.001,0.013434160887919728,0.010585146715249393,15.965875035345416,0.01139605641352278,0.02597106048571212
190,0.25,0.001,0.013432086253964599,0.010539988365549138,16.207317052757492,0.011568391900612058,0.02442652452737093
191,0.25,0.001,0.013310692240817443,0.010421687294030025,16.189984856797146,0.011556020597285615,0.01023539381900004
192,0.25,0.001,0.013372408809015574,0.010508243306421656,16.05078296793526,0.011456661647348508,0.011574371318731989
193,0.25,0.001,0.013356897620781051,0.010455154245998926,16.261369467332237,0.01160697321008725,0.01311681033777339
194,0.25,0.001,0.01333018652578562,0.010408866739730774,16.371076200630593,0.011685279229572158,0.019220131715493544
195,0.25,0.001,0.013309236815926247,0.01050860185700944,15.6947580385979,0.011202539642111278,0.014755142719617911
196,0.25,0.001,0.013345135588792538,0.010454195633306927,16.200827851857103,0.011563760065565384,0.013151139819196292
197,0.25,0.001,0.013218782431344925,0.010332153460514188,16.17666948860292,0.011546516408710149,0.012060873409999269
198,0.25,0.001,0.013318921411388466,0.010490951814428488,15.847942717906784,0.0113118791705259,0.01272753014096192
199,0.25,0.001,0.013271907221861442,0.010322537671077747,16.528267153416163,0.011797478339340587,0.011263540014624596
200,0.25,0.001,0.0132074817546211,0.01040055295646053,15.730029526814027,0.011227715579453268,0.014542107603379659
201,0.25,0.001,0.013365286776654026,0.010525029320398874,15.916802804960115,0.011361029839371959,0.018232408644897596
202,0.25,0.001,0.013281412891544591,0.010287435572620214,16.778249416835862,0.011975909647991336,0.013873185164162092
203,0.25,0.001,0.0133209956861499,0.010514047923852748,15.730135345018487,0.01122779110993468,0.01674220178808485
204,0.25,0.001,0.013331257615573962,0.010413230317225358,16.352624672940365,0.011672108974261502,0.013637277563767774
205,0.25,0.001,0.013313327354591934,0.010414489843897676,16.245085196462018,0.011595349890408292,0.011537261041147369
206,0.25,0.001,0.013290201688043377,0.010351504665943546,16.46845863377525,0.011754788460938793,0.018083938996174505
207,0.25,0.001,0.013308076192269975,0.010402399310992717,16.283414391392096,0.011622708345033615,0.018880043844027177
208,0.25,0.001,0.013360499653870596,0.010504218618499489,16.006599452699305,0.011425124520127984,0.019341402953224524
209,0.25,0.001,0.013190713029260172,0.010289458753691673,16.25862916016964,0.01160501724494621,0.01216140023565718
210,0.25,0.001,0.013239147823398576,0.01037065528642911,16.07503202275371,0.011473970037654326,0.009619050127054964
211,0.25,0.001,0.013196086476602125,0.010345182504169385,15.97646613264194,0.011403616083256202,0.014776791578957013
212,0.25,0.001,0.013292292571749202,0.010350025678376127,16.4884641748653,0.011769067933522698,0.016262612704719816
213,0.25,0.001,0.01331717484172511,0.010427847592801062,16.191790466220496,0.011557309397730546,0.01260095408984593
214,0.25,0.001,0.013253065923069697,0.010295495868383048,16.57422261315185,0.011830280237795752,0.010728660837880202
215,0.25,0.001,0.013209378523171361,0.010334885874913692,16.10865618505324,0.011497970153499813,0.013115103888724531
216,0.25,0.001,0.013230454365940073,0.010331051839261765,16.2482513357255,0.011597609804229478,0.011852478342396873
217,0.25,0.001,0.013211376747809023,0.010280381614991892,16.425297404546935,0.011723981016807234,0.013122905710978168
218,0.25,0.001,0.013248396734115571,0.010336489408055436,16.318328377280995,0.011647629105839398,0.010796191702995981
219,0.25,0.001,0.013225951685847642,0.010292984885066817,16.436346492370888,0.011731867589129827,0.011818920661296164
220,0.25,0.001,0.013096522666754816,0.010204535044351159,16.206698719403484,0.011567950549181645,0.01167783048003912
221,0.25,0.001,0.013236609266051382,0.010344744425516481,16.206011012299783,0.011567459680442385,0.015368532921586717
222,0.25,0.001,0.013267063546504214,0.010391760243244865,16.113199905765526,0.011501213351724144,0.018530713926468576
223,0.25,0.001,0.013208794033296802,0.010359922030351316,15.965079670965533,0.011395488701617083,0.015175581111439638
224,0.25,0.001,0.01322416813859144,0.010302486485321996,16.373103738657047,0.01168672643729982,0.019243233438049043
225,0.25,0.001,0.01320876043255486,0.010261387480358328,16.517077523070725,0.011789491451156835,0.022988523489662578
226,0.25,0.001,0.01324966620851747,0.010362732073606162,16.178379748214475,0.011547737150759796,0.018476583728832856
227,0.25,0.001,0.013285095366814947,0.010348155898822785,16.45860746881428,0.011747756937055159,0.019172984374953166
228,0.25,0.001,0.013305700738972383,0.010343349704359751,16.601015438934397,0.011849404310445679,0.01648293182786022
229,0.25,0.001,0.013255272961843234,0.01035541582930033,16.25079938170541,0.011599428537976738,0.021295109497649328
230,0.25,0.001,0.01324583282887798,0.010353588862624235,16.20813486482475,0.01156897563513544,0.014578795326607568
231,0.25,0.001,0.013233836488604683,0.01025750863583066,16.67934084929715,0.01190531109871317,0.012248477432876825
232,0.25,0.001,0.013124128020697599,0.010279807014773679,15.93957533627129,0.011377284322820334,0.014528903578008925
233,0.25,0.001,0.013164123176117417,0.010177129384895945,16.73911329890509,0.011947975231195639,0.009060865002019065
234,0.25,0.001,0.013124193667109376,0.010172205671719673,16.542941278453238,0.01180795237576962,0.012938904576003551
235,0.25,0.001,0.013111197821985216,0.010233999150385758,16.123822350975548,0.011508795396841933,0.018074751432452883
236,0.25,0.001,0.013129591731049172,0.010293482370485335,15.893555504620489,0.011344436477245173,0.01154995130907212
237,0.25,0.001,0.013157151693233029,0.010256509092264308,16.255201035779287,0.011602570332462018,0.011095873013670956
238,0.25,0.001,0.01312783559866026,0.01016312871154131,16.614217071004607,0.011858827316919776,0.01603423517995647
239,0.25,0.001,0.013187319285496553,0.010291124438096965,16.23027585450276,0.011584779339402398,0.0200081913332854
240,0.25,0.001,0.013146778717034822,0.010209025675323351,16.463167609023166,0.011751011855120033,0.01561226203505482
241,0.25,0.001,0.01308397524377146,0.010120527192898628,16.607162788338254,0.01185379214014151,0.011539849120059184
242,0.25,0.001,0.01315478830841342,0.010254103430131703,16.255437859762072,0.011602739371707404,0.016319657542875836
243,0.25,0.001,0.013066977492639017,0.010149183459407875,16.351318231631097,0.01167117646797366,0.011896909613694464
244,0.25,0.001,0.013103095470448014,0.010187118761585574,16.341133771812668,0.01166390704626172,0.013476672715374402
245,0.25,0.001,0.013126237726583216,0.010190286753187278,16.453068013004014,0.011743803007140624,0.013551516059253896
246,0.25,0.001,0.013092992764921305,0.01016469417230224,16.410184904279113,0.011713194078714571,0.015444500637905938
247,0.25,0.001,0.013176736697193244,0.010275088353878355,16.260837301646315,0.011606593363059468,0.01590517269713538
248,0.25,0.001,0.013086776569588905,0.01011052676508801,16.67890387484438,0.011904999196891064,0.017093719648463384
249,0.25,0.001,0.013067029799414287,0.010177120063066758,16.19505466434752,0.011559639303602797,0.01261012934680496
250,0.25,0.001,0.01311623428541711,0.010220083279006063,16.230030885744867,0.011584604486613038,0.016199979265885695
251,0.25,0.001,0.013106232040129413,0.010176101606984475,16.420451655398892,0.011720522237972085,0.012835705120648657
252,0.25,0.001,0.013071596919285782,0.010135760369514897,16.452427875087114,0.011743346092139268,0.010882340903793062
253,0.25,0.001,0.01306326424070649,0.010095270346273727,16.632638827757802,0.01187197632245382,0.013487193334315504
254,0.25,0.001,0.013030088652897514,0.010129314460135635,16.255938197393615,0.01160309650063784,0.014182232320308685
255,0.25,0.001,0.013134000736867308,0.01015724007074676,16.681767373382357,0.011907043093063781,0.017335168485130583
256,0.25,0.001,0.013197868546217198,0.010255096731901031,16.491293962227555,0.011771087767471489,0.013000015102859055
257,0.25,0.001,0.013038204539799526,0.010131790745771096,16.287542827685492,0.011625655123258739,0.014357709192803927
258,0.25,0.001,0.013040943914383443,0.010121597329855792,16.36001795709271,0.011677386122121847,0.012210847743387734
259,0.25,0.001,0.012976757786290476,0.010029104389852519,16.518649689319776,0.011790613625495914,0.012628284682120596
260,0.25,0.001,0.01296000543112843,0.010057281567252673,16.266864490288786,0.011610895424902774,0.011334417321320091
261,0.25,0.001,0.013028505759412641,0.010099645983642849,16.41333012217462,0.011715439059368038,0.011225105529384953
262,0.25,0.001,0.012995537557568203,0.010053412199416144,16.487671112078168,0.011768501864438377,0.010699815915099211
263,0.25,0.001,0.012996193331259778,0.010150856200786304,15.94526952078381,0.011381348694349615,0.011555567782904421
264,0.25,0.001,0.013070497614510065,0.010105329298997174,16.61680226843572,0.011860672568476602,0.01943157267357622
265,0.25,0.001,0.013094458784951073,0.010131549272970157,16.604144274775482,0.011851637597983928,0.01817279282425131
266,0.25,0.001,0.013007320369019519,0.010081474718747459,16.39643843124425,0.011703382177904531,0.012751874114785875
267,0.25,0.001,0.013075776746621309,0.01011256473762678,16.605840462735287,0.011852848296028042,0.011630152884338583
268,0.25,0.001,0.012975965693214474,0.010038103129688917,16.46378248888681,0.01175145074153234,0.016177262046507428
269,0.25,0.001,0.013065824042102343,0.010215776140089674,15.971668974631928,0.01140019198760309,0.02074287472558873
270,0.25,0.001,0.01323359562234639,0.010230637955593319,16.828575235591476,0.012011831003277285,0.028453446259456023
271,0.25,0.001,0.012931379741251331,0.01000369145098308,16.4067658298836,0.011710753625898358,0.01625908086342471
272,0.25,0.001,0.013069448497912074,0.010190588746899546,16.133130498626215,0.011515439328070105,0.02047559805214405
273,0.25,0.001,0.013098965555980079,0.010175623821296814,16.382407670758887,0.01169336735957094,0.014545638247260026
274,0.25,0.001,0.012997520893949835,0.00999897433440556,16.80385458772232,0.01199418600122935,0.016621618664690425
275,0.25,0.001,0.012980509917176485,0.01004031847078379,16.476834757498725,0.011760767135973394,0.012862403078802995
276,0.25,0.001,0.013002246114969529,0.01000662699479429,16.787449191403994,0.01198247622512776,0.00962562539747783
277,0.25,0.001,0.012927658159036284,0.010006935903522902,16.36772844697807,0.011682889683781634,0.010834001403834139
278,0.25,0.001,0.012988496773960133,0.010095480179917455,16.21246481932889,0.011572066252197637,0.010060437156685762
279,0.25,0.001,0.012990350387646336,0.010056768896759383,16.43979024997209,0.011734325660222764,0.011549792851188354
280,0.25,0.001,0.012959441049648213,0.010007454118934432,16.542934884650602,0.011807947812027554,0.010913960768708162
281,0.25,0.001,0.0128960652732856,0.009962016082095631,16.44241218478795,0.01173619713403851,0.008939454265471016
282,0.25,0.001,0.012986972951706645,0.01009024488019131,16.233264246934006,0.011586912381822988,0.012368535223816122
283,0.25,0.001,0.012985552065332548,0.010015274546438222,16.645436302343636,0.011881110851066122,0.014907622975962502
284,0.25,0.001,0.013006542426454415,0.010108327017731396,16.241597997123595,0.011592860811651388,0.017648854292929173
285,0.25,0.001,0.012953823985097453,0.010033469857953437,16.365664057037847,0.011681416172047,0.01392497162201575
286,0.25,0.001,0.013027848779088354,0.010075423976204274,16.545388228348166,0.011809698949570426,0.011017276240246636
287,0.25,0.001,0.012886179673461798,0.009925458520031415,16.591881498728835,0.011842884724288962,0.013373462217194694
288,0.25,0.001,0.012943654501806368,0.010022727555356593,16.36887476791135,0.0116837079000081,0.017251286256526197
289,0.25,0.001,0.012877565907533807,0.009962225023132274,16.33757118154618,0.011661364155279215,0.012677546058382307
290,0.25,0.001,0.012891196964123646,0.009989773557794563,16.25957749346938,0.01160569414237643,0.011100218764373235
291,0.25,0.001,0.012940018280789979,0.009963078364110433,16.682771281887696,0.011907759658734971,0.011825482227972575
292,0.25,0.001,0.012915093382910824,0.009909334794702072,16.844271573954313,0.012023034670916711,0.013007004612258502
293,0.25,0.001,0.013015943252444956,0.01009361368687888,16.376735105800847,0.011689318419558064,0.01365110051951238
294,0.25,0.001,0.013010092518414966,0.009994900125072405,16.897138677072856,0.012060769933670846,0.014261750770466668
295,0.25,0.001,0.012928454996910437,0.010017409247473123,16.313501287552832,0.011644183645647989,0.014536550800715173
296,0.25,0.001,0.012965630385035318,0.010032683294739652,16.436235648104557,0.011731788471166706,0.012268129603138991
297,0.25,0.001,0.012886608200143446,0.0099092433379649,16.685153908322093,0.011909460320001494,0.012760122971875327
298,0.25,0.001,0.012879948938312761,0.009975060272110115,16.27899650283003,0.011619554962762334,0.013474819782589163
299,0.25,0.001,0.01287533111405703,0.009952810618759717,16.377804866288606,0.011690081988785586,0.014063384916101183
300,0.25,0.001,0.01301534853737982,0.010043498094238806,16.654250411458708,0.011887402149506572,0.016471332471285547
301,0.25,0.001,0.012973527538033061,0.00999184057555284,16.709374529109542,0.011926748414781972,0.016880578361451626
302,0.25,0.001,0.01291817347099682,0.009950517422969153,16.630745198379763,0.011870624695488767,0.015129926348371165
303,0.25,0.001,0.012942979987667698,0.010063807163860726,16.13488515364931,0.01151669175849344,0.017706319290612425
304,0.25,0.001,0.013109567781639292,0.010096879749113639,16.88310229805821,0.012050751104966602,0.02208144310861826
305,0.25,0.001,0.013026199327226875,0.010021057539118356,16.840815616810293,0.012020567892084435,0.015585727856627532
306,0.25,0.001,0.013051648168258937,0.010114470843062252,16.459942844117762,0.011748710095730024,0.018506380330239023
307,0.25,0.001,0.013044667337735035,0.009999868522374514,17.063053963641373,0.012179196262413542,0.017790355320487703
308,0.25,0.001,0.012921346000914073,0.009957987705447795,16.606659503787,0.011853432907770878,0.012340576920126165
309,0.25,0.001,0.012918896418211092,0.009996779798583814,16.375541766301037,0.01168846664261316,0.014164263914738382
310,0.25,0.001,0.01296737191953436,0.010021640972920434,16.50787645564619,0.0117829239512107,0.01495387006018843
311,0.25,0.001,0.012951568319670873,0.009963362034642532,16.74590704127217,0.011952824440593982,0.01764251185314996
312,0.25,0.001,0.013000037660929815,0.01000929124412443,16.760143059781186,0.01196298576715288,0.021201014518737793
313,0.25,0.001,0.012975820282142928,0.010060396417545253,16.338037120827902,0.011661696731497431,0.025514672377279828
314,0.25,0.001,0.013007673473628646,0.010089125821913224,16.355541268892708,0.011674190770087587,0.021669688102390085
315,0.25,0.001,0.012966137198735605,0.010014721121441134,16.539735076058545,0.011805663865851924,0.016366190942270414
316,0.25,0.001,0.012800142444308856,0.009916904657717803,16.15766381666787,0.011532950618606617,0.01113980050597872
317,0.25,0.001,0.012948110974963763,0.01000321468050155,16.50319887033511,0.011779585203665316,0.016001274277056967
318,0.25,0.001,0.012840071179007135,0.009879579675097802,16.59059370802952,0.011841965530356545,0.013067296972232205
319,0.25,0.001,0.012901198424347279,0.00996530099877309,16.452768942500374,0.011743589537830388,0.012755143190068858
320,0.25,0.001,0.012891940484318116,0.009911130315798397,16.704461042655257,0.011923241286691833,0.013737699016928673
321,0.25,0.001,0.012872466998170485,0.009912336750631382,16.588569473724718,0.011840520680745694,0.01223967078008822
322,0.25,0.001,0.012907678414110361,0.009974495443250924,16.437557528806337,0.01173273199772044,0.013305794979844774
323,0.25,0.001,0.012889019970719727,0.0098906816230704,16.802688435649213,0.011993353630013713,0.011333088390529156
324,0.25,0.001,0.012800700648517863,0.009844288761204852,16.567732533461502,0.011825647775490009,0.012133995004530464
325,0.25,0.001,0.01284663994768613,0.009934841055104693,16.317721289795486,0.011647195781438606,0.015301531845969813
326,0.25,0.001,0.012860500929107154,0.00994892183940763,16.316490036786014,0.011646316942745193,0.01149906510753291
327,0.25,0.001,0.012864167270773278,0.009841207315925913,16.940667251516434,0.012091839579954628,0.011181706695684366
328,0.25,0.001,0.012872204821186858,0.009888501693741968,16.720672990653586,0.01193481298404967,0.010968216428799289
329,0.25,0.001,0.012842757833850577,0.009883729551701567,16.58239491927431,0.011836113432743977,0.0174786453800542
330,0.25,0.001,0.0128972428736834,0.009930938434965616,16.62317026680116,0.011865217892077916,0.015436738995569093
331,0.25,0.001,0.012822929956879269,0.009919807091183255,16.26910046231664,0.011612491407792034,0.01432357688567468
332,0.25,0.001,0.01280352639735571,0.009825440001078208,16.689196267249127,0.011912345658279177,0.01621732714452914
333,0.25,0.001,0.012806421677059306,0.009883953355183914,16.37751236798857,0.011689873210555724,0.010791800583579711
334,0.25,0.001,0.012850026733416195,0.009893452724996808,16.568641380680077,0.011826296488708121,0.015246761430587088
335,0.25,0.001,0.01284259280047915,0.009850649840647987,16.76684876897869,0.011967772140598637,0.01268159837595054
336,0.25,0.001,0.012785449284225633,0.009869985671726854,16.338259062645893,0.011661855148212628,0.01413010193833283
337,0.25,0.001,0.012763497490633718,0.009869087921932994,16.220272066411464,0.011577638876810467,0.014694935908274991
338,0.25,0.001,0.01282419508654306,0.009838296317734151,16.732975622798225,0.011943594306065827,0.021616362035274506
339,0.25,0.001,0.012801768621709413,0.009872361897183346,16.416396385527648,0.01171762768417391,0.011594969513160842
340,0.25,0.001,0.012801620853294815,0.00985824641950136,16.49466975786945,0.011773497328957494,0.011852495505341462
341,0.25,0.001,0.012776602115525108,0.009790415864859387,16.734588724361007,0.01194474569904426,0.012337314364101206
342,0.25,0.001,0.012864199774576389,0.009886664581457132,16.686106952728906,0.011910140580106286,0.013009828382304736
343,0.25,0.001,0.012854515632945726,0.009877884052865913,16.68104486267231,0.011906527382349971,0.014621816708573274
344,0.25,0.001,0.012820633846672798,0.009869041336446518,16.54072350112175,0.011806369379815667,0.012673304549285344
345,0.25,0.001,0.012756991767976218,0.009830874186568393,16.397963858641873,0.011704470991179067,0.012425594297902924
346,0.25,0.001,0.012771437738271427,0.00984307840750413,16.410525174394216,0.011713436955313503,0.01194083012108292
347,0.25,0.001,0.012782260472294778,0.009781736237433574,16.814938089313465,0.012002097137268712,0.015916291890399798
348,0.25,0.001,0.012779851906500567,0.009837030443872645,16.49157239988825,0.011771286509556209,0.012383120400565011
349,0.25,0.001,0.012734010217681217,0.009819587537756417,16.33242536857552,0.01165769119812671,0.01223515665956906
350,0.25,0.001,0.012784010750041548,0.009852662724475042,16.427274933037527,0.011725392528934708,0.01509773185742753
351,0.25,0.001,0.012785994974728545,0.009814168085660312,16.654118619394634,0.011887308079510802,0.017371466250291893
352,0.25,0.001,0.0127994801599627,0.009818435999334685,16.705772320613026,0.011924177245262688,0.013697928083794457
353,0.25,0.001,0.012794708762120017,0.009784753313911843,16.867789953465273,0.012039821522816041,0.013629465896104063
354,0.25,0.001,0.012781787472271617,0.009855004879226586,16.401690639469418,0.011707131077422854,0.01382212873016085
355,0.25,0.001,0.012764036279025446,0.009818059323445892,16.509255001781717,0.011783907924183953,0.014228496301387037
356,0.25,0.001,0.012833278557376003,0.009845076120237004,16.745886699156728,0.011952809920882747,0.018825275557381765
357,0.25,0.001,0.012801859035279266,0.009822563053158222,16.695975631819586,0.011917184605153166,0.016336016756083285
358,0.25,0.001,0.012884980097722787,0.009923960019858,16.593557476722065,0.011844080996946513,0.0189991473619427
359,0.25,0.001,0.012938685796931214,0.00986275881287958,17.23749501710676,0.012303708077877772,0.023635211533733776
360,0.25,0.001,0.01288876923631369,0.009928113372252252,16.591516463916243,0.011842624171246426,0.02756325381674937
361,0.25,0.001,0.012905269590212896,0.010005597706978784,16.249761220213998,0.011598687523350462,0.025694236159324646
362,0.25,0.001,0.012985642397169704,0.00995510430924818,16.983136042711642,0.012122152778523656,0.027977536831583296
363,0.25,0.001,0.012802190719469177,0.009835701483123297,16.624206324923122,0.011865957405369823,0.019758854726595537
364,0.25,0.001,0.012759893797079905,0.009827842316471953,16.431216854421425,0.01172820617731722,0.013896594422736339
365,0.25,0.001,0.012819907578529991,0.009906229350122238,16.328251889341146,0.011654712269337007,0.013666245554174696
366,0.25,0.001,0.012815707599782917,0.009862981523724819,16.54707676048367,0.011810904183071855,0.012731940485537052
367,0.25,0.001,0.012767290219010713,0.009802596774769573,16.614142517019364,0.011858774102083771,0.011489392391272954
368,0.25,0.001,0.01271042853860533,0.009764341435311298,16.50987364348308,0.011784349495705266,0.01122336568576949
369,0.25,0.001,0.012763516536502997,0.009810841558436598,16.546789609807742,0.011810699221847068,0.011199625142450844
370,0.25,0.001,0.012779498113616096,0.009802383316925987,16.68375195421743,0.011908459638984605,0.012005857258502926
371,0.25,0.001,0.012740667782483008,0.009767130043090905,16.663704830284207,0.011894150485570455,0.011907328319336687
372,0.25,0.001,0.012747362030209763,0.009787343922081913,16.587942163057747,0.011840072921525871,0.011619582107024533
373,0.25,0.001,0.012849944938344163,0.00986632497822027,16.720206465511893,0.011934479989658738,0.013415886488343989
374,0.25,0.001,0.012781330444538153,0.009762809067689244,16.91579336382225,0.012074085199016595,0.01240442254181419
375,0.25,0.001,0.012715029392572116,0.009729993138161185,16.728144396810553,0.011940145893512171,0.0123044960866017
376,0.25,0.001,0.01280242028940839,0.009794879065908268,16.854261807976915,0.01203016545894141,0.01276306714862585
377,0.25,0.001,0.012741129535656879,0.009701742063648568,17.032728582827104,0.01215755073720707,0.011038354065801417
378,0.25,0.001,0.012746208259194883,0.0097810246725728,16.616890098977034,0.011860735259798026,0.012011945912880557
379,0.25,0.001,0.0128043926090828,0.009823506659296865,16.704885460763276,0.011923544226097984,0.013048594551427024
380,0.25,0.001,0.01269085198537582,0.009618084469065931,17.219788584367784,0.01229106965336744,0.014682917722633906
381,0.25,0.001,0.012836215454078436,0.009922285420136144,16.329663662106555,0.011655719958677055,0.01858379492270095
382,0.25,0.001,0.012737123467733624,0.009700287021610533,17.01843223395579,0.01214734634829107,0.01243799871632031
383,0.25,0.001,0.012745034437858894,0.009779921134903717,16.616494040015663,0.011860452562466569,0.01369373859571559
384,0.25,0.001,0.012754757755261784,0.009759424716733207,16.785846904023416,0.011981332551051688,0.014478998657848154
385,0.25,0.001,0.012640848493431512,0.009620031552694686,16.928658168255318,0.012083267786049477,0.009718206445021289
386,0.25,0.001,0.012704431494444127,0.009757923945251155,16.512229038441152,0.011786030719800965,0.01051637583545276
387,0.25,0.001,0.012711883726901876,0.009699406042075597,16.88192604540677,0.012049911524201836,0.009744551099304642
388,0.25,0.001,0.012705044149836272,0.009734759677210113,16.64547412334909,0.011881137846787359,0.010575448561991965
389,0.25,0.001,0.012705273014293257,0.009695788477622747,16.865151817198438,0.012037938484795459,0.011634103820792266
390,0.25,0.001,0.012654704551532968,0.0096354237359714,16.92005102849172,0.012077124217338843,0.011119968257844448
391,0.25,0.001,0.012661578219736696,0.009741920113184987,16.36176383302614,0.011678632286242783,0.012355030115161623
392,0.25,0.001,0.012665495538856085,0.009626886159973112,17.02836687735542,0.01215443745707025,0.011147791120622839
393,0.25,0.001,0.012692252879502042,0.009692505664486808,16.81058260805337,0.011998988299823961,0.011499938422015734
394,0.25,0.001,0.012677272618264304,0.00970940793677304,16.63191338995037,0.011871458522448515,0.013019838237336703
395,0.25,0.001,0.01266555619312076,0.009658864966010799,16.849497506579958,0.012026764815546008,0.013117290234991483
396,0.25,0.001,0.012683936835677465,0.009696480608383929,16.741704509109603,0.011949824774525055,0.011260161442416055
397,0.25,0.001,0.012703764508317028,0.009701340172147297,16.825586851970154,0.012009697967145006,0.010450134719056743
398,0.25,0.001,0.01263061662013137,0.009647330426230304,16.718335832239024,0.011933144776758761,0.012483705899545125
399,0.25,0.001,0.012630036105046922,0.009655276730691038,16.670551115040414,0.011899037198458539,0.010952483330454146
400,0.25,0.001,0.012663948820693114,0.009695079728238302,16.637542662939904,0.011875476561698718,0.01046320323699287
401,0.25,0.001,0.012670291716762008,0.009662365521504339,16.856418807842438,0.012031705073406451,0.013756047136017255
402,0.25,0.001,0.01270740844016813,0.009780869872995392,16.400321691746523,0.01170615395556497,0.01195249699854425
403,0.25,0.001,0.012646150291310172,0.009599176512957996,17.0752412738756,0.012187895270432264,0.012483294787151473
404,0.25,0.001,0.01274556507879124,0.00979024700510722,16.561603440423486,0.01182127297674767,0.014850395997720105
405,0.25,0.001,0.012741651945246285,0.009701008790153278,17.0397642501232,0.012162572626783153,0.014062983782163687
406,0.25,0.001,0.012656351086827678,0.009709034061304554,16.516765043862147,0.011789268411036507,0.014069695291774613
407,0.25,0.001,0.01266473194468104,0.009703234177917311,16.59623360138292,0.011845991150166253,0.011485905386507511
408,0.25,0.001,0.01269352968403635,0.009639764292806594,17.113302314529243,0.012215062323004455,0.01457425592733281
409,0.25,0.001,0.012768614697366884,0.009812685334087107,16.5650287258157,0.011823717862823484,0.01879506731139762
410,0.25,0.001,0.012702060403091528,0.009696304903518383,16.84425347396463,0.01202302175158075,0.01541913952678442
411,0.25,0.001,0.012615895918280093,0.00972415080754297,16.20533951986194,0.011566980385340429,0.013276307843625546
412,0.25,0.001,0.0127497848863208,0.009745127618244007,16.838099724150695,0.01201862935342662,0.018163918384483883
413,0.25,0.001,0.012768598914352907,0.009688371581651322,17.261594287793024,0.012320909555883672,0.01539302510874612
414,0.25,0.001,0.012732469235863063,0.009741563005824563,16.761038123873035,0.011963624642307663,0.014662076319966997
415,0.25,0.001,0.012663337004136544,0.009700852510783882,16.60176275839156,0.011849937729044652,0.011872484215668269
416,0.25,0.001,0.012741902737725552,0.00966833905676083,17.22425017676232,0.01229425423037996,0.016272883862257004
417,0.25,0.001,0.012694490146468335,0.009674680668766035,16.923012422909636,0.012079237989228862,0.01825260104877608
418,0.25,0.001,0.01262452426058935,0.009723486918654921,16.2574129831433,0.011604149167125839,0.016657634771295955
419,0.25,0.001,0.012691203657511889,0.009695490039282804,16.787978945373112,0.011982854350730272,0.014055029755192143
420,0.25,0.001,0.012671542923906109,0.009617915329701906,17.11252904984472,0.012214510385328137,0.010289545037916728
421,0.25,0.001,0.012663085213658028,0.00971216200388469,16.536973807883317,0.011803692939245766,0.01128376301910196
422,0.25,0.001,0.01262001052937593,0.009643083567328872,16.68269900086295,0.011907708066283334,0.010815949445324284
423,0.25,0.001,0.012669101142373978,0.009676693443974638,16.769452603804872,0.011969630695078424,0.011253458048616136
424,0.25,0.001,0.012682745839720785,0.009689185493055722,16.77591358211244,0.01197424238551923,0.012837699614465237
425,0.25,0.001,0.012633015726441325,0.009581949460743894,17.098174709646035,0.012204264603601737,0.012234703770705633
426,0.25,0.001,0.012609101410344346,0.009641534300396265,16.630245283624593,0.011870267868397283,0.012189539548541819
427,0.25,0.001,0.012654382473085824,0.009623324197413739,16.98605045380273,0.012124233014848487,0.010560816819114345
428,0.25,0.001,0.01259497443846412,0.009582200347861022,16.883586429833816,0.012051096666548048,0.01273419801145792
429,0.25,0.001,0.012714488134992591,0.009767404338022303,16.515457840494417,0.01178833536080972,0.019461596650736674
430,0.25,0.001,0.012659919321296122,0.009638217643471156,16.93361690688629,0.012086807214051599,0.019284887239336967
431,0.25,0.001,0.012634391326448658,0.009712408105337317,16.37479479043093,0.011687933469258336,0.016211496932165965
432,0.25,0.001,0.01276608714167089,0.009707291307267637,17.14149188334617,0.012235183357135025,0.0230576717959983
433,0.25,0.001,0.012728887515499603,0.009727579236082199,16.819331321099614,0.012005232920128204,0.01821108255535364
434,0.25,0.001,0.012646646191544538,0.009634088987256583,16.882370083216433,0.012050228467677683,0.018523429254336015
435,0.25,0.001,0.012597057056413237,0.00957999951431988,16.907590244989198,0.012068230010698927,0.01640338823199272
436,0.25,0.001,0.012666817033968814,0.009687552923297909,16.69579557458468,0.011917056084642884,0.013316069862672262
437,0.25,0.001,0.012579228941944813,0.009570255116333725,16.862289408888607,0.01203589536680129,0.01241417002997228
438,0.25,0.001,0.012620975289227093,0.009659177658102942,16.597914601033057,0.011847191007161355,0.010587525420955248
439,0.25,0.001,0.012577536703016411,0.00956550371288978,16.87943374422351,0.012048132579745545,0.013149368177567209
440,0.25,0.001,0.012645829316254438,0.009645998862939811,16.81104978953443,0.011999321762694097,0.012311202340892382
441,0.25,0.001,0.012638922419407627,0.00961787955444005,16.92992549570273,0.012084172373806374,0.015953837893903255
442,0.25,0.001,0.012583408900482825,0.009646010400155263,16.461181838848297,0.011749594460277157,0.015802269003220966
443,0.25,0.001,0.012561227967123787,0.009582637260747562,16.69202222669923,0.011914362759956623,0.013362866693309374
444,0.25,0.001,0.01261556493742155,0.009609618510268026,16.845324232176324,0.012023786032959546,0.01155592022197587
445,0.25,0.001,0.012501813213214037,0.009529101322501829,16.65907753642657,0.011890847634851227,0.012072291358241014
446,0.25,0.001,0.012544091233841679,0.00956278649216849,16.707231896028233,0.011925219054980894,0.012875484967870372
447,0.25,0.001,0.012582031351795923,0.009599401768271147,16.714656591966026,0.011930518623815865,0.014006871064858777
448,0.25,0.001,0.012574617783205613,0.009559062053610767,16.899174560300196,0.012062223098001567,0.013720038080854076
449,0.25,0.001,0.01260570519524207,0.009586129802135067,16.92169970452923,0.01207830100251908,0.014540422175611769
450,0.25,0.001,0.012526708566874059,0.009554999284704343,16.653459245007802,0.011886837433981301,0.01631026901304722
451,0.25,0.001,0.01263965111157016,0.009614332512399616,16.95388454763223,0.012101273767046561,0.01298733162028449
452,0.25,0.001,0.012624598617985948,0.009632277569150676,16.768966851003174,0.011969283976447661,0.016344367526471615
453,0.25,0.001,0.012608461836933677,0.009612270684667603,16.790655827687463,0.011984765044744798,0.015037243653620993
454,0.25,0.001,0.012667949567387616,0.00959295659448616,17.23226149032628,0.012299972512723968,0.01606247667223215
455,0.25,0.001,0.012674898498500191,0.0096865455355435,16.74673054455059,0.011953412237366588,0.017469794755535468
456,0.25,0.001,0.0126614928714432,0.009654454284672374,16.851444684880985,0.012028154664440389,0.014685050850468022
457,0.25,0.001,0.01267367293821609,0.009599017852586081,17.23036780148125,0.012298620843312813,0.016171709235225405
458,0.25,0.001,0.012681841721229135,0.00968033393229816,16.820450701284077,0.012006031906698128,0.01635211320327861
459,0.25,0.001,0.012669097838652327,0.00961807896286318,17.097910310599875,0.012204075881941381,0.015100164072854179
460,0.25,0.001,0.012577246018528387,0.009506325334241703,17.209439293066293,0.012283682578919552,0.01174136996269226
461,0.25,0.001,0.012608641048777186,0.00963169562589489,16.682802605573904,0.011907782016826485,0.011872364873332637
462,0.25,0.001,0.012646707465257022,0.009615722531775403,16.98563924617635,0.012123939504765419,0.013210596516728401
463,0.25,0.001,0.012577165051537628,0.009508092130596725,17.199085341314795,0.012276292177954886,0.01400692415024553
464,0.25,0.001,0.012479933546576434,0.009515799719659615,16.611006509899816,0.011856535695859968,0.010708254761993885
465,0.25,0.001,0.012527742001548513,0.009557634327500439,16.644484372392263,0.011880431386432737,0.011540905040289675
466,0.25,0.001,0.012498201008705426,0.009481075157435057,16.907973230022755,0.012068503376176128,0.012849993072450161
467,0.25,0.001,0.012601042714821686,0.009600429879565988,16.815434660702323,0.012002451577945984,0.011721730099192687
468,0.25,0.001,0.01257664330226238,0.009497867421812741,17.25346039294095,0.012315103777973556,0.01036214136651584
469,0.25,0.001,0.012466365355335813,0.00945964785116374,16.849645737962966,0.012026870619531026,0.0099775556341878
470,0.25,0.001,0.012515130764686484,0.00957320077564163,16.486575560536725,0.011767719886178961,0.011334630128528391
471,0.25,0.001,0.012520842933833737,0.00947713345616161,17.056947412997417,0.012174837553888235,0.012694515154830046
472,0.25,0.001,0.012565530217134375,0.009571814376163978,16.77678430658565,0.011974863887641435,0.018496606765048846
473,0.25,0.001,0.012548895212918451,0.009574557557770893,16.668188892390933,0.011897351100921437,0.014083610182361943
474,0.25,0.001,0.012565056369672195,0.009538687914007669,16.959769119016016,0.012105474032131346,0.014493794313498906
475,0.25,0.001,0.012649915862923132,0.009623188280240218,16.961781429088145,0.012106910370512595,0.01824791862496308
476,0.25,0.001,0.012567436935565075,0.009552408005465812,16.89622240308801,0.012060115919406146,0.012705572215574128
477,0.25,0.001,0.012474042546287971,0.009529142733018062,16.503219683781506,0.011779600059801217,0.012974193851862634
478,0.25,0.001,0.012618205262730909,0.009622195793647,16.789636402702772,0.011984037403784991,0.012669321415679795
479,0.25,0.001,0.012605054123331438,0.0095101929147132,17.343601658492936,0.012379444438610233,0.013377053130950247
480,0.25,0.001,0.012537904552616368,0.009524992075651953,16.884361949858985,0.012051650214032109,0.012529657621468817
481,0.25,0.001,0.012556370091785873,0.00955950247670156,16.794446976025164,0.011987471074964428,0.00942352573786463
482,0.25,0.001,0.01265149678191811,0.009573569215885761,17.24870705549491,0.012311710960381807,0.014515900452222143
483,0.25,0.001,0.012604106684359474,0.009557477118959328,17.073311627324127,0.01218651793527775,0.014277424131120955
484,0.25,0.001,0.012603960832361536,0.009615843984412403,16.7454076154678,0.011952467962503785,0.014490001435790743
485,0.25,0.001,0.012610586992449904,0.009555652688147702,17.119852695949632,0.012219737827230287,0.017359669719423567
486,0.25,0.001,0.012755473537959899,0.009691156853446372,17.17243142381276,0.01225726725468434,0.023220543084400042
487,0.25,0.001,0.012619666396005737,0.009580210539540297,17.033111078909858,0.012157823753682982,0.020765170588025024
488,0.25,0.001,0.012592820736728006,0.0096313215439438,16.59624147305037,0.01184599676877257,0.01555093058518001
489,0.25,0.001,0.01249849767688722,0.009468741138523775,16.97875599938232,0.012119026409266466,0.013934762749288763
490,0.25,0.001,0.01255290072591971,0.009562468532619108,16.758382290670557,0.011961728972641368,0.014010434704167503
491,0.25,0.001,0.012497458335949972,0.00948000232114803,16.909823124733588,0.012069823786390856,0.013537597975560598
492,0.25,0.001,0.012543186971242378,0.009557094117389954,16.73406481577673,0.011944371745736425,0.01723784421171461
493,0.25,0.001,0.012484378078156614,0.009449943543065503,17.004970700305826,0.012137737830339633,0.01446923999381917
494,0.25,0.001,0.012441047280166496,0.009443080399021954,16.8006064126453,0.011991867532223626,0.012893195397087507
495,0.25,0.001,0.0126559839543067,0.009687675782597643,16.634400828055366,0.011873233995756863,0.02155908170555319
496,0.25,0.001,0.012645415023967245,0.009564453314378961,17.26570901584405,0.01232384654949611,0.018003510178199837
497,0.25,0.001,0.012532624499936853,0.009533833940330609,16.80522258397338,0.011995162443949593,0.015493749773928098
498,0.25,0.001,0.012544562840107269,0.009567159169953635,16.68537047388372,0.011909614899274603,0.01597299932369164
499,0.25,0.001,0.012550558735708992,0.009477628760607634,17.22069990056767,0.012291720128884846,0.012389728400324072
500,0.25,0.001,0.012557719887920395,0.009550692573809184,16.851381821665424,0.012028109794193735,0.012766276353171893
