epoch,beta,learning_rate,train_loss,train_reconstruction_loss,train_kl_unnormalized,train_kl_normalized,mean_unclipped_gradient_norm
1,0.0,0.001,0.0835088842353978,0.0835088842353978,12.303084008772295,0.008781644545876014,0.11020531225949526
2,0.02,0.001,0.05681435636930413,0.05421847658497947,181.84132576407967,0.1297939512948463,0.15533090196549892
3,0.04,0.001,0.04846219042991544,0.042329641104072,214.79254306332095,0.15331373523434758,0.10048277676105499
4,0.06,0.001,0.043418341220080196,0.040525718655560046,67.54274076524672,0.04821037884742806,0.11134186340495944
5,0.08,0.001,0.03704668572479552,0.03435565848108176,47.12662623478816,0.033637848847100756,0.05814187112264335
6,0.1,0.001,0.035301206424668594,0.03226231055354679,42.574928040556856,0.030388956488620167,0.05890788836404681
7,0.12,0.001,0.03451273634129173,0.03205122214915988,28.73818484715053,0.020512623017238066,0.054235850693657994
8,0.14,0.001,0.033402615744661496,0.03135664967390207,20.474275262015208,0.014614043727348472,0.06262283306568861
9,0.16,0.001,0.03279416295034545,0.030793748845110883,17.516129650912443,0.012502590757253707,0.05791096342727542
10,0.18,0.001,0.032143214508727355,0.0298971733712888,17.481684670081506,0.012478004760943259,0.0594932499807328
11,0.2,0.001,0.030563120707705782,0.02814161480291859,16.962648374955734,0.012107529175557269,0.0959707333240658
12,0.22,0.001,0.028187411135205856,0.02506150252871461,19.906354321490277,0.014208675461449162,0.09911735577043146
13,0.24,0.001,0.026180432131002237,0.022504517726682046,21.45815079657586,0.01531631034730611,0.08714803121984005
14,0.25,0.001,0.02476473539903924,0.02120260831255179,19.962161539937114,0.014248509307592515,0.07272663700859994
15,0.25,0.001,0.023295299893060884,0.019666445447684644,20.336099322811588,0.014515417075525758,0.08185734529979527
16,0.25,0.001,0.022369452303909992,0.018861343977706772,19.659439933693015,0.014032433928403294,0.11907433927990496
17,0.25,0.001,0.02096812170776692,0.01746663942032463,19.622308831686503,0.014005930643602072,0.08789573656395078
18,0.25,0.001,0.020787478238344193,0.01727794259786606,19.667436960241297,0.014038142013020198,0.10184999904595315
19,0.25,0.001,0.01992743809062701,0.016227859938210184,20.732435855236684,0.014798312530504414,0.0602297717705369
20,0.25,0.001,0.019322330361375442,0.015798589337494347,19.747045412168397,0.01409496460540214,0.06576874805614352
21,0.25,0.001,0.019313042267010763,0.015683841324605784,20.338043971638104,0.014516805118942258,0.09807307599112391
22,0.25,0.001,0.01885600016749167,0.015314249270646781,19.847971888950894,0.0141670034896152,0.05915083386935294
23,0.25,0.001,0.019020711450458885,0.015178177996978655,21.53355822301173,0.015370134349044776,0.05203079408966005
24,0.25,0.001,0.018582276402266472,0.014851043825703007,20.909827909364804,0.014924930699046969,0.03827168757561594
25,0.25,0.001,0.01829048641189769,0.014677828120497557,20.24533644036932,0.014450632719749694,0.04351098358165473
26,0.0,0.001,0.014373949172159473,0.014373949172159473,22.738911865569733,0.016230486699193244,0.04265857907012105
27,0.02,0.001,0.01360255462209602,0.012976008246315049,43.88957087757823,0.031327316829106513,0.03939890337642282
28,0.04,0.001,0.014001539435524207,0.012307564228527494,59.33148381159856,0.042349381735616386,0.034569306299090385
29,0.06,0.001,0.014568834866468722,0.01199344353811754,60.135389441186256,0.042923190179290686,0.022876850212924182
30,0.08,0.001,0.014928782487717958,0.012218187348200725,47.4692994589334,0.033882440727290075,0.01599243428790942
31,0.1,0.001,0.015113327987901458,0.012579843569751625,35.49411602229863,0.025334843698999732,0.030931894783861935
32,0.12,0.001,0.015378054161811924,0.01285082527569362,29.505398324819712,0.021060241488094014,0.03504599758889526
33,0.14,0.001,0.015640255608237705,0.01271298460171118,29.293617931827082,0.020909077752910125,0.023441723838914186
34,0.16,0.001,0.01617297738954261,0.013053696461349398,27.31320095691052,0.01949550389501108,0.042043214780278504
35,0.18,0.001,0.016280975209160164,0.01292622333167346,26.111151944673978,0.0186375103102598,0.0387875767191872
36,0.2,0.001,0.016865717112035543,0.013336886975218306,24.719455186613313,0.017644150739909575,0.06039060209877789
37,0.22,0.001,0.016811288453147305,0.013457204909115048,21.35941492856204,0.015245835066782325,0.04228985635563731
38,0.24,0.001,0.016908382079922235,0.013433214180826486,20.286294593391837,0.014479867661236143,0.03277537284884602
39,0.25,0.001,0.017089339136913583,0.013422704868755497,20.547818940550417,0.014666537430799728,0.03125506138894707
40,0.25,0.001,0.01698224521600283,0.013629601736153876,18.788216198931682,0.013410575445347381,0.05210028600413352
41,0.25,0.001,0.01675037058827641,0.013396162695282108,18.796980323372306,0.013416831065933124,0.03579123585950583
42,0.25,0.001,0.01683300486305258,0.013391805196610781,19.28448384463132,0.013764799318080886,0.031191722839139402
43,0.25,0.001,0.016712861409881614,0.013334855953088174,18.930342131394607,0.013512021507062532,0.030999932903796434
44,0.25,0.001,0.01680014095381721,0.013268818898679136,19.78952993455824,0.014125289032518371,0.04580875928513706
45,0.25,0.001,0.017091772230444374,0.01348587924430331,20.207423924875783,0.01442357168085352,0.08049919665791094
46,0.25,0.001,0.016533858431400834,0.013108304797948061,19.196804520324037,0.013702215931708806,0.032791220350191
47,0.25,0.001,0.01625826858639062,0.01287302527126375,18.97090482187795,0.013540974176929302,0.02156022028066218
48,0.25,0.001,0.0163210809476428,0.013006166589784098,18.576781580998347,0.013259658516058778,0.020869864034466445
49,0.25,0.001,0.01621634834906557,0.01286921432589764,18.75733998476804,0.013388536748585325,0.03671959717758
50,0.25,0.001,0.01616388314127267,0.012912341524529589,18.22164020747929,0.013006167171648314,0.02647002349840477
51,0.0,0.001,0.012494969986133524,0.012494969986133524,20.705011137239225,0.014778737428436278,0.04232652485370636
52,0.02,0.001,0.011677484922520407,0.011113418004178739,39.5128899878198,0.028203347600156886,0.02128824044484645
53,0.04,0.001,0.012147614323012122,0.010522083278008543,56.93423030979031,0.0406382800212636,0.02307915862184018
54,0.06,0.001,0.012695260008203459,0.010322473740594073,55.4045658656529,0.03954644244514839,0.023499785223975778
55,0.08,0.001,0.012923215990783748,0.010553573121081341,41.498370646382426,0.029620535793277964,0.01483525795629248
56,0.1,0.001,0.013090839939048656,0.010915831785526249,30.471863266661927,0.021750080847010654,0.015704732155427337
57,0.12,0.001,0.013517179000344905,0.011099739899797427,28.223602320073724,0.020145326424035492,0.015822115004993975
58,0.14,0.001,0.013848310467469824,0.011114914807398896,27.353478924258724,0.01952425333637311,0.01643643045099452
59,0.16,0.001,0.014161739424689785,0.011314667941449762,24.929670048808003,0.017794197036979303,0.02515538304578513
60,0.18,0.001,0.014680990439604271,0.01163341382334193,23.72030457297524,0.016930981137027297,0.03356522973626852
61,0.2,0.001,0.01478920616209507,0.011563505078819427,22.59603524679666,0.016128504815700686,0.029912010300904512
62,0.22,0.001,0.015016631931475885,0.011760651099157858,20.734678549294944,0.014799913311416805,0.022852043039165437
63,0.24,0.001,0.015137015078421478,0.011609986268884534,20.58903036431952,0.014695953150834775,0.015003353531938046
64,0.25,0.001,0.015065780404832337,0.011710149549193435,18.80495501926967,0.013422523211470142,0.012489844986703247
65,0.25,0.001,0.01523788326552936,0.011938578017301612,18.48930713947003,0.013197221370071397,0.01509177970001474
66,0.25,0.001,0.015286806008809216,0.011926671958804785,18.830191903585916,0.013440536690639484,0.03535952989477664
67,0.25,0.001,0.015164062470852674,0.011650898282999521,19.687771803468138,0.014052656533524725,0.031827080296352506
68,0.25,0.001,0.01503778777320634,0.0118698614270805,17.75306071606311,0.01267170643544833,0.02036553417565301
69,0.25,0.001,0.015043807498455703,0.011676194844255736,18.872102645203306,0.01347045156688316,0.01834708161186427
70,0.25,0.001,0.014948418212460948,0.01156359958656869,18.96852420764965,0.013539274951926946,0.02268050378188491
71,0.25,0.001,0.01483528870925471,0.011633871735206672,17.940741918375203,0.012805668749732478,0.0219300277531147
72,0.25,0.001,0.01486627717430775,0.011592322495858093,18.347241391192426,0.01309581826637575,0.019757596077397466
73,0.25,0.001,0.014812721279296247,0.011547416737200795,18.2987670311561,0.01306121843765603,0.020843386417254806
74,0.25,0.001,0.014908990585296364,0.0117605801528463,17.643693194546543,0.012593642537149567,0.03294925845693797
75,0.25,0.001,0.014738561777950644,0.011623135696236905,17.45884788429344,0.012461704414199458,0.019674009876325727
76,0.0,0.001,0.010967942898335692,0.010967942898335692,21.529976536677434,0.015367577827749775,0.028487046249210835
77,0.02,0.001,0.010600417948604285,0.01004412322213034,38.96844173054119,0.027814733569265657,0.021825797972269356
78,0.04,0.001,0.010936794782077873,0.009450033717471492,52.07381195236039,0.03716903065835859,0.015365356055554003
79,0.06,0.001,0.011436960469562928,0.009380733160363449,48.012904919634806,0.03427045319031749,0.014638998254667968
80,0.08,0.001,0.011698902070849806,0.009696259202210457,35.07128487890893,0.025033037029913587,0.02113889006432146
81,0.1,0.001,0.011900182375377351,0.009954233189205547,27.262746509090885,0.01945949072740249,0.014131182921119034
82,0.12,0.001,0.012340210750699044,0.010078064659303361,26.4105590904152,0.018851219907505497,0.02592339925467968
83,0.14,0.001,0.012643066576712735,0.010037289604872138,26.07638360746614,0.018612693509968695,0.01745082752313465
84,0.16,0.001,0.012922920964167013,0.010218723046665008,23.67863178043575,0.016901236103094755,0.011817782942671329
85,0.18,0.001,0.013143378334467883,0.010432601515408401,21.098879288055084,0.015059871012173508,0.011940946336835623
86,0.2,0.001,0.013338805657330451,0.010392930589943797,20.635854825868712,0.01472937532181921,0.015209752542432398
87,0.22,0.001,0.013593794579443695,0.010499809966883161,19.703057245107797,0.014063566912996286,0.011181182868313044
88,0.24,0.001,0.013894252237546575,0.010707810390126573,18.60085416521345,0.013276840945905389,0.01674101664684713
89,0.25,0.001,0.014159190044789523,0.01092386562786587,18.130758377745913,0.012941297914165534,0.024789504008367658
90,0.25,0.001,0.014906720051562393,0.011276650649833155,20.342909215570806,0.014520277812684373,0.05515269981697202
91,0.25,0.001,0.014570015337277245,0.011410525596731311,17.705779840658,0.012637958487264811,0.05661168647930026
92,0.25,0.001,0.014542869302433925,0.011277803524837388,18.297428420349792,0.01306026296955731,0.03976915962994099
93,0.25,0.001,0.01401736935457358,0.010862173148236431,17.68171873826247,0.012620784252864005,0.022018432500772178
94,0.25,0.001,0.013877410535792728,0.01082332766113373,17.115081003210047,0.01221633190807284,0.01688370615011081
95,0.25,0.001,0.013990014869269434,0.010709712150823938,18.382816658439218,0.013121211033860969,0.025092741881962866
96,0.25,0.001,0.013930401545795765,0.01069696463726379,18.12018104804741,0.012933748071411427,0.025374406366609037
97,0.25,0.001,0.013771743339660403,0.01074420292708245,16.966337514185643,0.01211016239413679,0.014114235760644078
98,0.25,0.001,0.013731474298369753,0.010639634992477004,17.326667039472976,0.012367356916112047,0.01680078817298636
99,0.25,0.001,0.013823732838116505,0.010729878723293871,17.337957342378385,0.012375415661940318,0.018901205097790807
100,0.25,0.001,0.013621350234517684,0.010567491931410936,17.11382236271114,0.012215433520850206,0.0181055492721498
101,0.25,0.001,0.013505638607746952,0.010530767876368302,16.671175137194957,0.011899482610417528,0.014645485789515078
102,0.25,0.001,0.01342915435127177,0.010384266403923323,17.063552290528687,0.012179551956123259,0.015420756652019918
103,0.25,0.001,0.013447063844036924,0.010543009974471815,16.27431750873943,0.011616215209664119,0.017538918764330447
104,0.25,0.001,0.01347072437037151,0.010444648308003996,16.95812984089275,0.012104303954955566,0.02131275844294578
105,0.25,0.001,0.013365306171005243,0.010328284646947305,17.019468219463644,0.01214808580975278,0.012393854616675526
106,0.25,0.001,0.013335168283883031,0.010348332104283375,16.738229936033814,0.011947344708089804,0.01270672056125477
107,0.25,0.001,0.013391374180523248,0.01030232340998047,17.31104073576875,0.012356203237522305,0.013986869365908206
108,0.25,0.001,0.013409273281365961,0.01035254311717146,17.129916566282837,0.012226921175076972,0.01305890444200486
109,0.25,0.001,0.013489557643021855,0.010481433918351655,16.85752578148475,0.012032495204485903,0.016056443797424436
110,0.25,0.001,0.013416731789462514,0.01034390000565039,17.22015000647241,0.012291327627746188,0.02148453623522073
111,0.25,0.001,0.013294790812082343,0.01032961574024879,16.616841771052435,0.011860700764491389,0.01588492008158937
112,0.25,0.001,0.013214136741973541,0.010286405031661412,16.407007850395456,0.011710926374300825,0.014290865859948099
113,0.25,0.001,0.013266716725551166,0.010209390136239293,17.13325747814807,0.01222930583736479,0.016480338759720325
114,0.25,0.001,0.013432220250859366,0.010393188959294622,17.0307320018391,0.012156125625866597,0.01637161715188995
115,0.25,0.001,0.013456189808445972,0.01045072685190282,16.84261382805122,0.01202185141188524,0.0222941281972453
116,0.25,0.001,0.013443080835290007,0.010422705991991929,16.92618024637411,0.012081499105192083,0.024912148481234908
117,0.25,0.001,0.01337902089273864,0.01036321957810567,16.900550062577803,0.012063204898342473,0.027526095567736775
118,0.25,0.001,0.013285210325413353,0.010297773520533855,16.741596871679956,0.011949747945524595,0.022564914426766336
119,0.25,0.001,0.013148009895787134,0.010348941307965216,15.685979998242724,0.011196274088681459,0.016485407250002027
120,0.25,0.001,0.013131559122312855,0.010186984115740755,16.50139859377683,0.011778300209690814,0.012003733834717423
121,0.25,0.001,0.013160467823291873,0.010270104070122426,16.19759917626014,0.011561455514818087,0.014710239018313587
122,0.25,0.001,0.013108488894835279,0.010160533752251457,16.520341856401046,0.011791821453533937,0.014961567881982774
123,0.25,0.001,0.013050116719371015,0.010093638679565309,16.568103425581377,0.01182591250933717,0.013685434707440436
124,0.25,0.001,0.013004984115096895,0.010055731280942212,16.52761246398255,0.011797011037817665,0.012772688874974847
125,0.25,0.001,0.013109348298838506,0.010117357338850315,16.767117569472763,0.011967964003906326,0.014038963767234236
126,0.25,0.001,0.01307518938863343,0.010233041631815197,15.927396472469791,0.011368591343661522,0.015749112819321454
127,0.25,0.001,0.01300965944653029,0.010081181503259219,16.411190393468836,0.01171391177264014,0.013893692230340093
128,0.25,0.001,0.012955921440088487,0.009966337738128809,16.753626588674692,0.011958334467291,0.01583263126667589
129,0.25,0.001,0.012926094956532285,0.009974404839942089,16.541271882528786,0.011806760801233966,0.011916649877093732
130,0.25,0.001,0.012884792290464207,0.009990719050823988,16.218386352455223,0.011576292899682528,0.011044951854273677
131,0.25,0.001,0.01281946236370029,0.009904168777495295,16.337306330754206,0.011661175111173594,0.012501158053055406
132,0.25,0.001,0.012782839671350443,0.00985421069826071,16.41203682448838,0.011714515934681213,0.013903681363444775
133,0.25,0.001,0.012868483530377948,0.010045599126881296,15.819444899506621,0.01129153811527953,0.01912676659412682
134,0.25,0.001,0.012756532729490773,0.009838135368548906,16.35469895876371,0.011673589549438765,0.017461636918596923
135,0.25,0.001,0.012888556553030407,0.010013714760214417,16.110613122877183,0.011499366968506198,0.023197940550744534
136,0.25,0.001,0.012844140180847147,0.00987595979656492,16.63368361756042,0.01187272206820872,0.02043946390040219
137,0.25,0.001,0.012800210165780979,0.00995577301952865,15.94022606231354,0.011377748795370122,0.014392491371836513
138,0.25,0.001,0.012868811259721662,0.009931222572513334,16.462246938852164,0.011750354702963714,0.020946911186911166
139,0.25,0.001,0.012798408470065385,0.009907659849377123,16.199755997710177,0.011562995001934459,0.021408546017482877
140,0.25,0.001,0.012773181792798934,0.00988574226151456,16.18121097271259,0.011549758010501492,0.016908862628042698
141,0.25,0.001,0.012786518452832333,0.009863378660200716,16.381275193769852,0.011692559024817882,0.013151288207154721
142,0.25,0.001,0.012790622459826888,0.009929002573775067,16.036518646072555,0.011446480118538584,0.018148878356441855
143,0.25,0.001,0.012945423917947235,0.009874023214637578,17.21212968092698,0.012285602912867224,0.02472725324332714
144,0.25,0.001,0.012838524887031251,0.009909307788852807,16.41533315889128,0.011716868778651877,0.018515620031394064
145,0.25,0.001,0.013035150920296763,0.010171407319932848,16.0484192607167,0.011454974490161812,0.03084373229648918
146,0.25,0.001,0.01291707738169602,0.01007229617008796,15.942153289291884,0.011379124403491708,0.024594005662947893
147,0.25,0.001,0.012720680527470924,0.009839726640627934,16.144865874405745,0.011523815756178262,0.013255041383672506
148,0.25,0.001,0.012677982013549778,0.009768244941401613,16.306167137229835,0.01163894870608839,0.014791565015912056
149,0.25,0.001,0.012728924656307304,0.009837018516283115,16.20624043391301,0.011567623436054967,0.01381637156009674
150,0.25,0.001,0.012710384799392668,0.009744741047149176,16.619468806340144,0.011862575878900888,0.017470707651227713
151,0.25,0.001,0.012681428212058412,0.00983541464269325,15.949062162965209,0.011384055790838836,0.019798393128439784
152,0.25,0.001,0.01268692239095549,0.009741340911241023,16.507037900568363,0.011782325410826812,0.013157433422748
153,0.25,0.001,0.012671831774187611,0.009797442180442286,16.108079009003692,0.011497558179160379,0.013862241874448955
154,0.25,0.001,0.012636845100384491,0.009675099723204806,16.59762094937838,0.011846981405694776,0.013211329060140997
155,0.25,0.001,0.012620770454324864,0.009719530542145718,16.258548788971954,0.011604959877924306,0.01772641169372946
156,0.25,0.001,0.012662998155005031,0.009798173023039824,16.0544799888527,0.01145930049168644,0.01998037489829585
157,0.25,0.001,0.012644152664630622,0.009764272336858315,16.138849367414203,0.011519521318639687,0.012489848246332258
158,0.25,0.001,0.012562197086575267,0.00964010247121473,16.375418128548088,0.011688378392967942,0.014270624436903745
159,0.25,0.001,0.012600558635952708,0.009674138080451514,16.39965990087488,0.01170568158520691,0.019950258661992848
160,0.25,0.001,0.012584188551856921,0.009670688865890542,16.327252121810076,0.011653998659393344,0.021838438231498003
161,0.25,0.001,0.012704533735638136,0.009768273791932798,16.454801429497017,0.011745040278013574,0.022303343983367085
162,0.25,0.001,0.012577508224153912,0.009584544036168973,16.772571274474426,0.011971856726962474,0.01906160346698016
163,0.25,0.001,0.012659085885836528,0.009821730972891981,15.900537767515077,0.011349420248047878,0.02195641561411321
164,0.25,0.001,0.01258853619488386,0.009653203582370675,16.44960370744978,0.011741330269414546,0.02749977051280439
165,0.25,0.001,0.012624194344075827,0.00971495310294923,16.303388054816278,0.011636965064108691,0.021908343653194606
166,0.25,0.001,0.012524978413277274,0.009702133770090538,15.819221987043107,0.011291379005740976,0.017528184223920107
167,0.25,0.001,0.012405478377099875,0.009592527922775065,15.763774695763221,0.011251802066925925,0.014021002512890846
168,0.25,0.001,0.012472549615079886,0.009687327876032053,15.608383088583475,0.011140887286640595,0.01308779593091458
169,0.25,0.001,0.01238699696630567,0.009492177049537281,16.222571647560205,0.011579280262355607,0.01360520371235907
170,0.25,0.001,0.012411306301070438,0.009541948170370454,16.0798825442136,0.011477432222850536,0.014439967693760991
171,0.25,0.001,0.01241758208680939,0.009465426411275025,16.543879555083894,0.011808622094992073,0.023846753523685038
172,0.25,0.001,0.012439943170481986,0.009624840368281354,15.775836873316504,0.011260411758255892,0.016541992081329226
173,0.25,0.001,0.012512648119949378,0.009609298461249896,16.27037145593664,0.011613398612374476,0.018186981789767742
174,0.25,0.001,0.012402912176081112,0.00953361196750468,16.07955922975645,0.011477201448791184,0.018724602414295077
175,0.25,0.001,0.012411728251602623,0.009576195671867866,15.890324976156046,0.011342130603965772,0.017004244844429195
176,0.25,0.001,0.012390926365668957,0.00944912606379488,16.48584793006981,0.011767200521106216,0.01601379073690623
177,0.25,0.001,0.012405603620540965,0.009547245334629174,16.018241500854494,0.011433434333229475,0.014133029617369175
178,0.25,0.001,0.012485654961194966,0.00962111650055254,16.05287368271377,0.01145815394911761,0.012100216350518167
179,0.25,0.001,0.012368331939637005,0.009498096073230544,16.084802361373065,0.011480943869645299,0.017056303389836103
180,0.25,0.001,0.012361741160134693,0.00940294238523795,16.581108053437955,0.011835194898956427,0.014061184774618596
181,0.25,0.001,0.012366025239884199,0.009523244948218485,15.930940619667808,0.0113711210704267,0.010628974880091846
182,0.25,0.001,0.012410509483991089,0.00954306285500854,16.06917142344045,0.01146978688325514,0.017920462414622307
183,0.25,0.001,0.012406622196783077,0.009447079556124224,16.585277012416295,0.011838170601296428,0.01407778641441837
184,0.25,0.001,0.012365570091284238,0.009382473979309037,16.71727032504239,0.011932384243427829,0.01737864303868264
185,0.25,0.001,0.012368967652238987,0.009524181169959215,15.942183800582047,0.011379146181714523,0.01754573336802423
186,0.25,0.001,0.012345169095711393,0.009487360167306858,16.015160579471797,0.011431235245875658,0.024561398662626743
187,0.25,0.001,0.012411645081426417,0.009540746473594682,16.0885158769377,0.011483594487464452,0.01695941563230008
188,0.25,0.001,0.012239714879747276,0.009327873935575014,16.317956748375526,0.011647363846092452,0.010848538193386048
189,0.25,0.001,0.012210517024600898,0.009332491052183476,16.1284582221901,0.011512104369871592,0.012021205970086157
190,0.25,0.001,0.012279296914054142,0.009402382711542177,16.122226736047764,0.011507656485401687,0.01364174607442692
191,0.25,0.001,0.012251934886060573,0.009396495160411347,16.001884758079445,0.01142175928485328,0.01610690134111792
192,0.25,0.001,0.012091934214254002,0.00921260313550522,16.135772365528148,0.011517325028928015,0.012011974467895925
193,0.25,0.001,0.012162407569505356,0.009401901332395417,15.469878068861071,0.011042025745082848,0.012483806523960084
194,0.25,0.001,0.012265870619851809,0.00948381211076464,15.590657152448381,0.011128234941076646,0.014492872811388224
195,0.25,0.001,0.012385626190475054,0.009503436178623976,16.151791583050738,0.011528759159922011,0.028461836220230907
196,0.25,0.001,0.01228373785513443,0.0093939645543367,16.194289658095812,0.011559093260596582,0.01574491133214906
197,0.25,0.001,0.012293186869758827,0.009453205783738866,15.915253335303003,0.011359923865312637,0.015898576006293297
198,0.25,0.001,0.012284179850594028,0.009453743355410112,15.861766553187108,0.011321746290640334,0.010330753517337143
199,0.25,0.001,0.012287507118186453,0.009329050140721457,16.579193014626973,0.011833827990454656,0.018183051666710526
200,0.25,0.001,0.012184645032899065,0.009280351485934231,16.275660948700956,0.011617174124697328,0.01685357082169503
201,0.25,0.001,0.012208844911675532,0.00939028881961009,15.795188488803067,0.011274224474520391,0.015271787240635604
202,0.25,0.001,0.012129393211760363,0.009281688120093319,15.95853977412968,0.011390820681034747,0.014637165935710073
203,0.25,0.001,0.012276061487148751,0.009447691450407216,15.850186299753712,0.011313480585120423,0.01490320055745542
204,0.25,0.001,0.012212511970774158,0.009373537935111876,15.909610595283928,0.011355896213621647,0.016939695924520493
205,0.25,0.001,0.012141734656396803,0.009313332555549485,15.85036469553853,0.011313607919727716,0.01564346213126555
206,0.25,0.001,0.01211020324256394,0.009317689212960202,15.649249242426276,0.011170056561332102,0.02385611122008413
207,0.25,0.001,0.012097345272099578,0.00921237556120524,16.167370309934512,0.011539878879325133,0.02075515256728977
208,0.25,0.001,0.012030881262578808,0.009228961724419515,15.701957354702792,0.011207678340258952,0.012459775782190263
209,0.25,0.001,0.012065720564307093,0.009235845485722625,15.858619937267932,0.0113195003121113,0.01337338611483574
210,0.25,0.001,0.012102611661776081,0.0092976450203703,15.719033291575673,0.011219866732031174,0.014032998820766807
211,0.25,0.001,0.012057700495307262,0.009227055047157701,15.86293825841212,0.011322582625561827,0.012771984096616507
212,0.25,0.001,0.012090542226784178,0.009242228123840394,15.961951293526115,0.011393255741274885,0.01298201095778495
213,0.25,0.001,0.012053221677030835,0.009261598921084142,15.644255223117032,0.011166491950833,0.01932317460887134
214,0.25,0.001,0.01212266002382551,0.009252723388291978,16.08312500964154,0.011479746616446497,0.011620382952969521
215,0.25,0.001,0.012273860565171792,0.00931134598513881,16.601932617858218,0.011850058970633988,0.014708234637510031
216,0.25,0.001,0.012174798335347856,0.009322682018954675,15.983258874075753,0.011408464578212528,0.012964980094693601
217,0.25,0.001,0.012085865478921723,0.00925836317282129,15.84532400906741,0.01131000999933434,0.01143579964991659
218,0.25,0.001,0.012140533401743396,0.009235361678996584,16.28058269626492,0.01162068714936825,0.010946475551463664
219,0.25,0.001,0.012074389775375744,0.009159109275788068,16.33723209297264,0.011661122122036146,0.014951378107070923
220,0.25,0.001,0.012119118341214053,0.009355129215579766,15.489394963442624,0.011055956433577891,0.024025653954595327
221,0.25,0.001,0.012116174919755904,0.009252530672065504,16.047861721751453,0.011454576532299395,0.014625189709477127
222,0.25,0.001,0.01201102748554159,0.009214514780503053,15.671657004723182,0.011186050681458374,0.013272186683025211
223,0.25,0.001,0.012139206017357308,0.00919570965630995,16.49535396701687,0.011773985700939951,0.021367270092014223
224,0.25,0.001,0.012174478222380627,0.009334536554844498,15.915032196044923,0.01135976602144534,0.016874778317287564
225,0.25,0.001,0.012060996951473939,0.009163933763137231,16.23514212304419,0.011588252764485505,0.021261063404381275
226,0.25,0.001,0.011947182574114956,0.009232469615372982,15.213249914986747,0.010858850760161846,0.011855155462399125
227,0.25,0.001,0.01201339735352731,0.009092626084092554,16.36800306760348,0.011683085701358656,0.013424373348243535
228,0.25,0.001,0.012009145667428498,0.009136308432853483,16.099380497356037,0.01149134939140331,0.01735898689366877
229,0.25,0.001,0.012113351260240261,0.009300238008682545,15.76468744801951,0.011252453567465745,0.01705474848859012
230,0.25,0.001,0.012127690121613362,0.009239357900242884,16.18621392721658,0.011553328998727038,0.01572668121661991
231,0.25,0.001,0.012074567750096321,0.009233421756589151,15.921781919290732,0.01136458381105691,0.013984335295390338
232,0.25,0.001,0.012074169874764406,0.009244196518109395,15.859170347779662,0.011319893181855575,0.018096671614330262
233,0.25,0.001,0.01200504624745348,0.009226327804991831,15.57193822965517,0.011114873825592555,0.014858877344522625
234,0.25,0.001,0.012043449082053626,0.009129202410906225,16.331438326573632,0.011656986671358767,0.016716662095859647
235,0.25,0.001,0.012017240041641744,0.009120826943071333,16.231499921358548,0.011585653048792683,0.01293668762082234
236,0.25,0.001,0.01199494907530127,0.009144134099011892,15.975967883015727,0.011403260444693595,0.011639776697847992
237,0.25,0.001,0.011975011585669203,0.009143739975579492,15.866444828746083,0.011325085530868011,0.0174942406010814
238,0.25,0.001,0.01200159080940616,0.009148216539236543,15.99031002338116,0.011413497518473347,0.020331988809630275
239,0.25,0.001,0.011997905946694887,0.009111841698433017,16.1735044835688,0.011544257304474517,0.015744134434498847
240,0.25,0.001,0.011938013336979426,0.009088023310875172,15.971343616862873,0.011399959755076997,0.015203060931526124
241,0.25,0.001,0.01199064066858737,0.009188804871679007,15.701488243354547,0.011207343499896178,0.016250807733740658
242,0.25,0.001,0.01204031609244399,0.009186890295573643,15.990598142016065,0.011413703170603902,0.019632444134913385
243,0.25,0.001,0.011991104639166004,0.009076351658082925,16.334276387979695,0.01165901241112041,0.017935680458322167
244,0.25,0.001,0.012013558851002337,0.009157666618229596,16.004419857067067,0.011423568777349798,0.021656794473528862
245,0.25,0.001,0.01208780693033567,0.009275526645501237,15.760019296080202,0.011249121553233548,0.017052283161319792
246,0.25,0.001,0.011849416063709574,0.00900825203529426,15.921882285652579,0.011364655450144596,0.013576188124716282
247,0.25,0.001,0.012030555017210625,0.009280087244134028,15.413621437156593,0.011001871118598567,0.01929600676521659
248,0.25,0.001,0.011987323489981693,0.00902047417648546,16.626224232767964,0.011867397739306184,0.012887146731372923
249,0.25,0.001,0.011991256086544676,0.009214660689070984,15.560042081560407,0.011106382642084517,0.013695408473722637
250,0.25,0.001,0.011931326639439379,0.009042335326200003,16.18990670508081,0.011555964814475952,0.011955467518419027
251,0.25,0.001,0.012007467262446881,0.009272212041848964,15.32837045271318,0.010941021022636103,0.012045712792314589
252,0.25,0.001,0.011885843831267985,0.00897594976064923,16.30704564314622,0.011639575762417004,0.014581707073375583
253,0.25,0.001,0.011927294063862863,0.009136420338936559,15.64005550133003,0.011163494290742348,0.01370167569257319
254,0.25,0.001,0.01196401491351835,0.00915459769235535,15.743974191015893,0.011237668944336825,0.012519895797595382
255,0.25,0.001,0.011870481814820687,0.008916420737220036,16.55455840393737,0.011816244399669787,0.010450899600982666
256,0.25,0.001,0.01190279860991043,0.009134588304620522,15.51305137885796,0.01107284181217556,0.012073306599631906
257,0.25,0.001,0.011901120825128241,0.008960866271057627,16.477186915638683,0.011761018497957661,0.0165550725068897
258,0.25,0.001,0.011927772309262674,0.009073041408107831,15.997912664727851,0.011418924100448145,0.01995206589344889
259,0.25,0.001,0.011939026744892963,0.009100265777413989,15.908417770888779,0.011355044804346024,0.026163258589804173
260,0.25,0.001,0.011953648933015027,0.00909353226505138,16.028094585125263,0.011440467227070138,0.01958798966370523
261,0.25,0.001,0.011789695943122382,0.009033872472674965,15.443634184114226,0.01102329349330066,0.016238512645941228
262,0.25,0.001,0.011845657671545887,0.008948297323761406,16.236807481535187,0.011589441457198563,0.01012410270050168
263,0.25,0.001,0.011874471721495247,0.009039358772173687,15.887972699678862,0.011340451605766497,0.011659649841021746
264,0.25,0.001,0.011850702015498838,0.009056477369433576,15.65883403819996,0.011176897957316174,0.012147380504757166
265,0.25,0.001,0.01183659099247102,0.008989329278919395,15.956055743877704,0.011389047640169667,0.021505642216652632
266,0.25,0.001,0.012003968308096403,0.009064811320750267,16.47103484227107,0.011756627296410471,0.02326094266027212
267,0.25,0.001,0.012005917064763687,0.0091797073228428,15.838079833984375,0.011304839281930318,0.01671928516589105
268,0.25,0.001,0.01192128932574293,0.009131764694229588,15.632495502849201,0.011158098146216417,0.016838947078213096
269,0.25,0.001,0.011964895140256856,0.008979488340216678,16.730219694284294,0.01194162719078108,0.020040246308781207
270,0.25,0.001,0.011787877620740251,0.008927865317193688,16.027509333013178,0.011440049488232105,0.014165695989504457
271,0.25,0.001,0.011802018785869683,0.009028132496258388,15.544858865423517,0.011095545228710577,0.01191793120233342
272,0.25,0.001,0.011773668151799139,0.009033960556345326,15.353322127625182,0.01095883092621355,0.016774385585449636
273,0.25,0.001,0.011802908405661583,0.008964329569058105,15.90739614046537,0.011354315589197266,0.014395663747563958
274,0.25,0.001,0.011795298006017129,0.00902555041465458,15.521665979741694,0.011078990706453743,0.01222660206258297
275,0.25,0.001,0.011827992623323923,0.009006765454106934,15.810157471960718,0.011284908973562255,0.02202779962681234
276,0.25,0.001,0.011966077197384049,0.009165248463114539,15.69584562280676,0.011203315933480913,0.02045728382654488
277,0.25,0.001,0.011940405957892046,0.009062538104602596,16.12757099696568,0.011511471089911263,0.019953234354034066
278,0.25,0.001,0.01179384548667368,0.00891517036092969,16.13209579383934,0.011514700780756133,0.017594119533896446
279,0.25,0.001,0.011750858964828345,0.008848508445361813,16.264771832476605,0.011609401736243115,0.01470708241686225
280,0.25,0.001,0.011775666937887013,0.008945926280876437,15.857866117456457,0.011318962253716243,0.013575609773397446
281,0.25,0.001,0.011816589966170736,0.009030275634275033,15.61450537796859,0.011145257229099636,0.012993976823054254
282,0.25,0.001,0.011987091842424738,0.009108703236535683,16.130489340981285,0.01151355413346273,0.015723651624284685
283,0.25,0.001,0.011811822272100292,0.009012577995903544,15.686963611644703,0.011196976168197504,0.011991719482466578
284,0.25,0.001,0.011769146238873294,0.008896310022612522,16.0993740270426,0.011491344773049679,0.014201438403688371
285,0.25,0.001,0.011849986356529561,0.009019859853599753,15.860028734311953,0.011320505877453214,0.014764231396839023
286,0.25,0.001,0.011811461514578415,0.008990505800306142,15.808636480897338,0.011283823326836072,0.018870403640903533
287,0.25,0.001,0.011810804707008404,0.009053741177482592,15.450583942119891,0.011028254062897853,0.021016682730987668
288,0.25,0.001,0.01170429166733891,0.008883832644794013,15.805851900708545,0.011281835760677048,0.016303871059790254
289,0.25,0.001,0.01182409781798884,0.008918839283696897,16.281068868951483,0.0116210341677027,0.013056269730441272
290,0.25,0.001,0.011838307954207226,0.008955592082833851,16.15474059136359,0.011530864090909058,0.012909054872579873
291,0.25,0.001,0.01172515577176115,0.008907747528628334,15.788755729172255,0.01126963292589026,0.010447739041410387
292,0.25,0.001,0.011724857353492752,0.008893340465786694,15.867819999862503,0.011326067094834049,0.01652944937814027
293,0.25,0.001,0.011698459866610202,0.008851905302195758,15.952091141585464,0.011386217802701973,0.013568914553616196
294,0.25,0.001,0.011747363250661683,0.008889828356248991,16.01362571087512,0.011430139693701014,0.014463368454016745
295,0.25,0.001,0.011661138878828222,0.008789591194427276,16.092153779752962,0.01148619113472731,0.0144912488758564
296,0.25,0.001,0.011705121146207982,0.008975055404416808,15.299288747598837,0.010920263203139784,0.014393570250831544
297,0.25,0.001,0.01189050338752977,0.008945512198484861,16.50372995858664,0.011779964281646424,0.014001449686475098
298,0.25,0.001,0.011815016233659053,0.009023043010793217,15.646218306153685,0.011167893152143957,0.013511759461835027
299,0.25,0.001,0.01187917481657568,0.009074528425276935,15.717237981859144,0.011218585283268483,0.015526558388955891
300,0.25,0.001,0.011929948881759748,0.009041588393213985,16.186372396448157,0.011553442110241369,0.019996445858851075
301,0.25,0.001,0.0119620596785303,0.009120378627922835,15.92478024828565,0.011366723945956924,0.013946868246421218
302,0.25,0.001,0.011902697472372553,0.009114998390713891,15.622266025333614,0.011150796591958325,0.022154238307848573
303,0.25,0.001,0.01181377277883527,0.008932719940503875,16.145419428898737,0.011524210870020512,0.01021485892124474
304,0.25,0.001,0.011866249942353793,0.009001578988282235,16.053615993457836,0.011458683792618012,0.01549967227037996
305,0.25,0.001,0.011794644884847022,0.008969599874383146,15.831552681556115,0.011300180357998655,0.016154221375472844
306,0.25,0.001,0.011700769100379158,0.008956515278339714,15.378798436594533,0.010977015300924006,0.011398977832868695
307,0.25,0.001,0.011701302641777546,0.008970651532021853,15.302568993201623,0.01092260456331308,0.01239218155387789
308,0.25,0.001,0.0116980121542628,0.008811846416402648,16.17407365316873,0.011544663564003375,0.01085949904518202
309,0.25,0.001,0.01173124066298152,0.008875188284686633,16.005318417391933,0.011424210148031359,0.01586900488473475
310,0.25,0.001,0.011636106192983768,0.008900957505454074,15.327773033393608,0.010940594599138907,0.014942747890017927
311,0.25,0.001,0.01175226463762286,0.008938065603129812,15.770772116524833,0.011256796657048419,0.016072729893494397
312,0.25,0.001,0.01166274226628817,0.008854607296186489,15.736788039155059,0.011232539642508964,0.013215133687481284
313,0.25,0.001,0.011740507795424251,0.008958277360096082,15.591619583800599,0.011128921901356602,0.01289363467367366
314,0.25,0.001,0.011738358775747346,0.00880125087818929,16.4595519390735,0.011748431077140256,0.011267492547631264
315,0.25,0.001,0.011734500447554247,0.008947267637148008,15.619653175689361,0.011148931602918888,0.014676962164230645
316,0.25,0.001,0.0117248759328664,0.00885613069838875,16.076448398632007,0.011474981012585301,0.015417487360537052
317,0.25,0.001,0.011800368228456476,0.008963623369665264,15.897118834610824,0.011346979896224714,0.01269799389410764
318,0.25,0.001,0.011775102853201902,0.008906475151633168,16.075789403391408,0.011474510637681233,0.013865762739442289
319,0.25,0.001,0.011740831381917656,0.008901527290652087,15.91145963354425,0.011357216012522663,0.013938601710833609
320,0.25,0.001,0.011697745308853112,0.00882730168382545,16.08596642253163,0.01148177474841658,0.011748342774808407
321,0.25,0.001,0.011594596130589208,0.008844455367384048,15.411788877550062,0.011000563081763072,0.010133807139936835
322,0.25,0.001,0.011740517528256873,0.008940427758536497,15.69170311309479,0.011200359109989145,0.015872481395490468
323,0.25,0.001,0.011731438486130683,0.008854884740251761,16.120207023620605,0.011506214863398005,0.021098191500641406
324,0.25,0.001,0.011801202273876458,0.008957052888901352,15.938613552051587,0.011376597824447957,0.012846458586864173
325,0.25,0.001,0.011689916613337757,0.008828488205160414,16.035445940625536,0.01144571444727019,0.01262353837955743
326,0.25,0.001,0.011671541054006461,0.008804874287938679,16.064800186995623,0.01146666680013963,0.010411784751340747
327,0.25,0.001,0.011803035184249773,0.008979283299829279,15.82430575444148,0.011295007676260871,0.011912138666957617
328,0.25,0.001,0.01167219162683238,0.008857743622182489,15.77216734624171,0.011257792538359537,0.018774430733174086
329,0.25,0.001,0.011569119822029229,0.008789869719236107,15.574917426476112,0.01111700030440836,0.01187279837904498
330,0.25,0.001,0.01159729985827273,0.00881739622493694,15.578579768505724,0.011119614395792808,0.011875885771587491
331,0.25,0.001,0.011622749453226288,0.00880132613724077,15.811256710513607,0.01128569358352149,0.013428113074041903
332,0.25,0.001,0.011610031799300686,0.008793214307381557,15.785445056118808,0.011267269847336765,0.013027061242610216
333,0.25,0.001,0.011627980108772005,0.008937133093374771,15.079505750635168,0.010763387402309185,0.01317219843622297
334,0.25,0.001,0.01171160568943718,0.008789315099244589,16.37651750962813,0.011689163104659622,0.018707810784690082
335,0.25,0.001,0.011649424234753127,0.008850679542500893,15.684165336273528,0.011194978826747701,0.01830867538228631
336,0.25,0.001,0.011708524462940928,0.008914324938022829,15.658693682492434,0.011176797774798311,0.024318465148098767
337,0.25,0.001,0.011644185866628375,0.008881820947095588,15.480292858920254,0.011049459570963779,0.018963949172757566
338,0.25,0.001,0.011725053303762452,0.008899348470699656,15.835250561053936,0.011302819815170546,0.025038853753358126
339,0.25,0.001,0.011754221424132913,0.008855683188680763,16.243407771351574,0.011594152584833387,0.020208833273500204
340,0.25,0.001,0.011694289614947943,0.00893854611235988,15.443185810466389,0.011022973455008129,0.021759060211479664
341,0.25,0.001,0.011791802864972051,0.009032538312149571,15.462918805552054,0.011037058390829446,0.030526443850249052
342,0.25,0.001,0.011737833868016254,0.008915095682163815,15.818625255207438,0.011290953072953204,0.018460955237969756
343,0.25,0.001,0.011619546600095518,0.008843787685855404,15.555352992801875,0.01110303568365587,0.01397344097495079
344,0.25,0.001,0.011602430344446675,0.008875212959617703,15.283325731885302,0.010908869187641187,0.014339269371703267
345,0.25,0.001,0.011561549471302347,0.008740487328351854,15.809232246482765,0.011284248569937733,0.010616060462780297
346,0.25,0.001,0.01147033782205084,0.008751907682680821,15.234081911778713,0.010873720136887019,0.012466591142583638
347,0.25,0.001,0.011536806664214685,0.008767593224215638,15.518672381390582,0.011076853948173149,0.01459535036701709
348,0.25,0.001,0.011682381444088705,0.008763065166607662,16.359849150102217,0.011677265631764609,0.013807034585624933
349,0.25,0.001,0.011669037941392962,0.008920231819725954,15.404309574588314,0.01099522453575183,0.016196336364373565
350,0.25,0.001,0.011573430285840245,0.008837879351903121,15.330027280535017,0.010942203626363323,0.01393536664545536
351,0.25,0.001,0.01165760111595903,0.008815181822321572,15.928917216206646,0.011369676813851995,0.014569568680599332
352,0.25,0.001,0.011649178400390096,0.00885364922827908,15.666145660065032,0.01118211681660602,0.015167769975960255
353,0.25,0.001,0.011681503653116933,0.008827197195573167,15.995533878200657,0.011417226180014745,0.012182092759758234
354,0.25,0.001,0.011630024619727999,0.008833078029923714,15.67408967908922,0.011187787065731064,0.011641388817224652
355,0.25,0.001,0.011624126600940804,0.008806894420758708,15.787768936157226,0.011268928576843132,0.011985031713265926
356,0.25,0.001,0.011639635256686053,0.008758843225519081,16.143959720318133,0.011523168965252057,0.01606710092164576
357,0.25,0.001,0.01171875725612863,0.00891535696624727,15.710255972893684,0.011213601693714263,0.014286491612438112
358,0.25,0.001,0.01163665601512888,0.008726078529770557,16.310876596890964,0.011642310204775849,0.012756071402691305
359,0.25,0.001,0.011587435766481436,0.008773727281080498,15.768022486927745,0.011254834037778548,0.012134660966694355
360,0.25,0.001,0.011577728910596816,0.008753622937333453,15.826290113847334,0.01129642406413086,0.012022419017739594
361,0.25,0.001,0.011546849410285007,0.008717191409688074,15.857402311052596,0.011318631199894786,0.010792226588819176
362,0.25,0.001,0.011530880937045747,0.008758645588634434,15.535607970939887,0.011088942163411768,0.009801712061744183
363,0.25,0.001,0.011564071607458723,0.008715285477484321,15.96459747146774,0.011395144519248923,0.010386466805357486
364,0.25,0.001,0.011533075849433522,0.008753936270067653,15.57429795736795,0.011116558142304033,0.010701903724111617
365,0.25,0.001,0.011555241332849958,0.00876226952442756,15.651813720870804,0.011171887024176163,0.011497752915602177
366,0.25,0.001,0.011676582251931284,0.008783673392711105,16.211862513783213,0.011571636341030131,0.013432703213766217
367,0.25,0.001,0.011535768571135762,0.008735247386189608,15.694120172353891,0.011202084348575225,0.013030082685872912
368,0.25,0.001,0.01166496553181947,0.008871411438007931,15.655076158963716,0.011174215673778527,0.015283278888091445
369,0.25,0.001,0.011583049134811858,0.008754856376857549,15.849193271175846,0.011312771785278977,0.013206930714659393
370,0.25,0.001,0.011490158951626374,0.008700097610171025,15.635502620319743,0.011160244554118303,0.013349618064239621
371,0.25,0.001,0.0116896156671938,0.00895866659357325,15.304237960983109,0.010923795832250612,0.016725103952921927
372,0.25,0.001,0.011636710357289392,0.008744643601988043,16.207141058785574,0.011568266280360867,0.019623754313215613
373,0.25,0.001,0.011529423427450789,0.008739282387298541,15.635951004447518,0.011160564599891162,0.015943531005177647
374,0.25,0.001,0.011668455027616941,0.008859210905547326,15.743005249526474,0.011236977337277998,0.014300646726042032
375,0.25,0.001,0.01160269904431406,0.00871478634180276,16.183863109546703,0.011551651041789224,0.011116190173197538
376,0.25,0.001,0.01151247151850999,0.00871322551476104,15.686975818675952,0.011196984881281907,0.01039394224062562
377,0.25,0.001,0.011602758489303536,0.008838010272318191,15.493649149465037,0.011058992968925794,0.013824571098666638
378,0.25,0.001,0.011571489299064154,0.00877691669246325,15.660786031366705,0.011178291242945542,0.015773678314872086
379,0.25,0.001,0.01150090957244674,0.008637217856984545,16.04812763759068,0.01145476633661005,0.014218867872841656
380,0.25,0.001,0.01155330783554486,0.00873459934328611,15.796042100675814,0.011274833762081238,0.013390894513577223
381,0.25,0.001,0.01160494998957102,0.00886670067947317,15.345150404710036,0.010952998147544636,0.0214665113016963
382,0.25,0.001,0.011591122674008646,0.008827600204436988,15.486780204353751,0.011054090081622949,0.015594689117278904
383,0.25,0.001,0.011583474976430228,0.008724752070566454,16.020283468477018,0.011434891840454688,0.01827033405425027
384,0.25,0.001,0.011627585340577822,0.008698575630538411,16.414170627803593,0.011716038992008274,0.012966500653419644
385,0.25,0.001,0.011740372297200527,0.008897105792721549,15.933665168678367,0.011373065787778991,0.015292804630007595
386,0.25,0.001,0.011774585787002202,0.008923914656043053,15.975160787393758,0.011402684359310319,0.021115804091095924
387,0.25,0.001,0.011670687897028504,0.008851313660596754,15.799773226727496,0.011277496949841181,0.018391136080026627
388,0.25,0.001,0.011623105001482335,0.008816352662640614,15.729040196177724,0.011227009419113294,0.014176957192830741
389,0.25,0.001,0.01156764656591874,0.008794795445442856,15.53905758700528,0.011091404416135103,0.018542464706115425
390,0.25,0.001,0.011704436405101321,0.008842595995168437,16.03775424328479,0.011447362058019123,0.0134099496062845
391,0.25,0.001,0.01159804774919054,0.008788502693258144,15.744691098391355,0.011238180655525593,0.01513099146541208
392,0.25,0.001,0.011553613857908563,0.008760020140926916,15.65529909657908,0.011174374801269864,0.011177465901710093
393,0.25,0.001,0.011515186980857954,0.008756096609919281,15.461943121270819,0.011036361970928494,0.010923691326752305
394,0.25,0.001,0.01153169977836884,0.0087277042853472,15.713590332701965,0.011215981679301903,0.01500449562445283
395,0.25,0.001,0.011520012791503918,0.008700729077579556,15.799265821687468,0.011277134776365074,0.011641240271274
396,0.25,0.001,0.011526066277708327,0.008637198854933728,16.18921349494012,0.011555470017801656,0.011593235190957785
397,0.25,0.001,0.011458746010212453,0.008625545373166,15.877257571377598,0.011332803405694217,0.011252110882196575
398,0.25,0.001,0.0115203664668805,0.008784474753825874,15.33193703536149,0.010943566763284432,0.01455972989788279
399,0.25,0.001,0.01155134015767784,0.00866961694209949,16.149176438300163,0.011526892532691051,0.012503727222792804
400,0.25,0.001,0.01161835780264912,0.008728891310210412,16.192570944146794,0.011557866484044822,0.012594915635418147
401,0.25,0.001,0.01164531729051045,0.00879886871981588,15.951498763115852,0.011385794977241865,0.012322421185672283
402,0.25,0.001,0.011627079237375286,0.008722383578072538,16.277914001129485,0.011618782299164515,0.011553447577171028
403,0.25,0.001,0.011542248074988742,0.008725028147327375,15.78770052102896,0.011268879743775133,0.011532613425515592
404,0.25,0.001,0.011597652745607135,0.008773648396011564,15.82572092957549,0.011296017794129544,0.013159931753762066
405,0.25,0.001,0.01135928091275823,0.008617749282128209,15.363543734707676,0.010966126862746377,0.013389176339842379
406,0.25,0.001,0.011483170657039998,0.008729160299708882,15.433474567958287,0.011016041804395636,0.012082383909728378
407,0.25,0.001,0.011453111570041913,0.00861541109753179,15.902473550314431,0.011350801963108087,0.012889093603007495
408,0.25,0.001,0.011448570770712999,0.008704001043032815,15.380568556733184,0.010978278769973721,0.015695285459514707
409,0.25,0.001,0.011458658819997703,0.008631082077684638,15.845740152715326,0.011310307032630496,0.011299134755972773
410,0.25,0.001,0.01151203579054429,0.008708305656909943,15.712103313404125,0.011214920280802372,0.01115299784578383
411,0.25,0.001,0.011421085079456423,0.008517006422382789,16.274456820645174,0.011616314647141452,0.012445062631741166
412,0.25,0.001,0.011511788347347097,0.008716300170827697,15.665915329901727,0.011181952412492311,0.018354082480072975
413,0.25,0.001,0.011700547554090128,0.008921887465640084,15.571611421186846,0.011114640557592325,0.022182188171427697
414,0.25,0.001,0.011590050124041327,0.008711188943585852,16.133138862022985,0.011515445297660945,0.024866366758942604
415,0.25,0.001,0.011597806399503908,0.008838264730114204,15.464471181932387,0.011038166439637677,0.018382893060334027
416,0.25,0.001,0.011513387108897115,0.008685342764870806,15.848360313164008,0.011312177239945759,0.017048300243914127
417,0.25,0.001,0.011456304109031028,0.008724118208328446,15.311170001606365,0.010928743755607684,0.01547301874961704
418,0.25,0.001,0.011665455430009209,0.008762802453813973,16.26646858047653,0.011610612834030358,0.0203384110936895
419,0.25,0.001,0.011488228201211153,0.008650906744239094,15.900349623292357,0.011349285955240797,0.01744647545274347
420,0.25,0.001,0.011480854054564959,0.008687787588972313,15.652344552763216,0.011172265919174315,0.015361337922513485
421,0.25,0.001,0.011408230842469813,0.008637446967455057,15.527472940382067,0.011083135574862289,0.010809738480020314
422,0.25,0.001,0.011379310136640465,0.008570550881571822,15.740288011320345,0.01123503783820153,0.012570050661452115
423,0.25,0.001,0.011422468410743462,0.008681540895294357,15.360159121502887,0.010963711007496707,0.011884258361533284
424,0.25,0.001,0.011445016094616482,0.008545666608631939,16.247954928219972,0.01159739823570305,0.014083313290029764
425,0.25,0.001,0.011471062415576242,0.008646146199860415,15.83083159478156,0.011299665663655646,0.016863978700712323
426,0.25,0.001,0.011414360932514562,0.008648681616062647,15.498866932208722,0.011062717296365968,0.013361507910303771
427,0.25,0.001,0.011452858915532028,0.008680522073428709,15.536175382006299,0.011089347167741827,0.01397640269715339
428,0.25,0.001,0.011392034446963897,0.008533015816503174,16.02194074064821,0.011436074761347758,0.011840937426313758
429,0.25,0.001,0.011417534431585899,0.008668090701921956,15.407883189274715,0.010997775295699296,0.015334795170929283
430,0.25,0.001,0.011395666600911172,0.008639234482505165,15.447045837653862,0.01102572864928898,0.015625212341547012
431,0.25,0.001,0.011469036889272732,0.008679621515201998,15.631884032029372,0.01115766169309734,0.01471546373795718
432,0.25,0.001,0.011311347803080475,0.008537249642700612,15.546046900487209,0.011096393219476952,0.010863900533877313
433,0.25,0.001,0.011342557317034884,0.008568614244379186,15.54517726269397,0.011095772493000693,0.012189650267828256
434,0.25,0.001,0.011330882402566763,0.0086129834404686,15.231106011946123,0.010871596011381957,0.01110373780829832
435,0.25,0.001,0.01142829116638545,0.008656110860161728,15.535297714484917,0.011088720709839342,0.011067349929362535
436,0.25,0.001,0.011312723231430236,0.008498409527589332,15.771413788428674,0.011257254666972643,0.009793710603844374
437,0.25,0.001,0.011359950715860167,0.008613312866661576,15.392159503894847,0.010986552108418878,0.014002303592860699
438,0.25,0.001,0.01132765159952444,0.008507309456939225,15.805198388571268,0.011281369299479848,0.012176893535070121
439,0.25,0.001,0.01140351397404959,0.008572573214769364,15.86459244109772,0.011323763341254619,0.015390953863970935
440,0.25,0.001,0.01144855722457498,0.00867354073203527,15.55119277199546,0.011100066218412178,0.013665412727277726
441,0.25,0.001,0.011410885220291196,0.008525708438521558,16.168531623253454,0.011540707796754784,0.014434495125897229
442,0.25,0.001,0.011439107597938605,0.008595275530939573,15.936835609687554,0.01137532877208248,0.014144566026516259
443,0.25,0.001,0.011440391740301153,0.008649659747319235,15.639262079930567,0.011162927965689198,0.017716061673127115
444,0.25,0.001,0.01153545616460698,0.008672322758606502,16.045000040662156,0.011452533933377699,0.01911348180146888
445,0.25,0.001,0.011453112472708409,0.008657107248411074,15.668814032418387,0.011184021436415694,0.012339102453552186
446,0.25,0.001,0.011464467804346765,0.008710720680735924,15.431999864683046,0.011014989196775907,0.013612783863209188
447,0.25,0.001,0.011431474731928045,0.008541942584318118,16.19293881720239,0.011558129062956737,0.013251992815639824
448,0.25,0.001,0.011451727096605432,0.008708314556669403,15.374083927699498,0.010973650198215203,0.016122700064443052
449,0.25,0.001,0.011499025734080064,0.008621647396217008,16.124828709612835,0.011509513711358197,0.01595211261883378
450,0.25,0.001,0.01149871760140081,0.008577519427002458,16.370394905844886,0.011684792937790782,0.015044969040900469
451,0.25,0.001,0.011473856268675772,0.008672096379674398,15.701063208527618,0.011207040120290947,0.017617549863643944
452,0.25,0.001,0.011369887718951309,0.008554671250365593,15.776472833654383,0.011260865691402128,0.01313701958861202
453,0.25,0.001,0.011465910779168973,0.008612274272101266,15.991778681828425,0.011414545811440703,0.012557872454635799
454,0.25,0.001,0.011530994861335546,0.008722443244123197,15.739122851864321,0.01123420617549202,0.012686702655628324
455,0.25,0.001,0.011484616041019722,0.008603775611781812,16.144230957869645,0.011523362568072551,0.013399172923527658
456,0.25,0.001,0.01148010505424751,0.008686916837161714,15.653027383573763,0.011172753307333165,0.017256165971048176
457,0.25,0.001,0.01132360597724443,0.008604866141391979,15.235818393413837,0.010874959595584465,0.015135914436541498
458,0.25,0.001,0.011404573381110863,0.008566264517523431,15.905883457896474,0.011353235872874,0.01101598289096728
459,0.25,0.001,0.011310718130770621,0.008528718088272508,15.590327786875296,0.011127999847876728,0.011690235347487032
460,0.25,0.001,0.011310121898058351,0.008580614459588305,15.296159905653733,0.010918029911244635,0.01225733244791627
461,0.25,0.001,0.011389908542508608,0.00858820831751103,15.700728512858296,0.011206801222596928,0.012004541582427919
462,0.25,0.001,0.011411627521226694,0.00868740354838607,15.266551237839918,0.010896895958486736,0.01370992825832218
463,0.25,0.001,0.011424553328818017,0.008551055386375923,16.103083000602304,0.011493992148895292,0.013169563375413418
464,0.25,0.001,0.011431257279364617,0.008683397174700276,15.399008170326988,0.010991440521289786,0.015507859934587032
465,0.25,0.001,0.011396673334005115,0.00852984462731651,16.065708265199767,0.011467314964453796,0.014281492563895881
466,0.25,0.001,0.011400367319583892,0.008634804222978406,15.498215987656142,0.011062252667848781,0.01521257939748466
467,0.25,0.001,0.01129443905633557,0.008616531445839248,15.006993369217758,0.010711629813859928,0.016314993612468243
468,0.25,0.001,0.011275552718767097,0.008436095621436834,15.91231807247623,0.011357828745521934,0.012437472178135067
469,0.25,0.001,0.011316122337766401,0.00850138673354145,15.773778014130645,0.01125894219424029,0.0157458659959957
470,0.25,0.001,0.01133523244042318,0.008475782603516684,16.024356691129913,0.011437799208515285,0.012887422810308635
471,0.25,0.001,0.011379217534520468,0.008579474419437266,15.689761159708212,0.011198972990512642,0.01720136182848364
472,0.25,0.001,0.01131497360765934,0.008484721009793517,15.86073622231955,0.011321010865324447,0.01380446256371215
473,0.25,0.001,0.011361847731929558,0.0086141119741804,15.398311830876947,0.010990943490989969,0.01147707225754857
474,0.25,0.001,0.011316805590803806,0.008511189111395851,15.722675252222754,0.011222466275676484,0.012891972437500954
475,0.25,0.001,0.011353395038008035,0.008471284874274836,16.151346001258265,0.011528441114388483,0.014015828957781196
476,0.25,0.001,0.011394579327859722,0.008570831344759727,15.824283367198902,0.011294991696787224,0.012768718763254583
477,0.25,0.001,0.011401018422547277,0.00858576080178494,15.776704494769756,0.011261031045517313,0.015258733765222132
478,0.25,0.001,0.01145665234794001,0.008638223944293274,15.79447262103741,0.011273713505380022,0.01187479798682034
479,0.25,0.001,0.011485758927333486,0.008633597735520247,15.983511323195238,0.011408644770303525,0.013429515820462257
480,0.25,0.001,0.011393575933199007,0.008587523933581927,15.725115742526212,0.011224208238776739,0.01359986758325249
481,0.25,0.001,0.011331020471650166,0.008534227555187849,15.673227245205052,0.0111871714812313,0.012833169079385698
482,0.25,0.001,0.011465298085586056,0.008593378766634307,16.094236619131905,0.011487677815226199,0.014084757422097027
483,0.25,0.001,0.011457356998881141,0.008658436351138485,15.685151907113882,0.011195683017211907,0.018697539693675935
484,0.25,0.001,0.011385268210382252,0.008570035227707454,15.776565558045775,0.011260931875835671,0.013593922776635736
485,0.25,0.001,0.011376263096846723,0.008477194562226861,16.246379982246147,0.011596274077263487,0.014069807482883334
486,0.25,0.001,0.011290393990802242,0.008518522118146602,15.533569281441824,0.011087486996032708,0.01306585839483887
487,0.25,0.001,0.011387057682233198,0.008594493956847506,15.6495272563054,0.011170255000931764,0.014894034655299038
488,0.25,0.001,0.0114938305997914,0.008673433844859784,15.805504750681447,0.011281587973362917,0.01571210299152881
489,0.25,0.001,0.011343679182067678,0.008511283211819418,15.872746385846819,0.011329583430297515,0.018068945151753724
490,0.25,0.001,0.01139753954587402,0.00862333812228926,15.546623951000171,0.0110968051042114,0.01240762381348759
491,0.25,0.001,0.011541163624561096,0.008619837124146275,16.371112714494977,0.011685305292287635,0.013186135329306126
492,0.25,0.001,0.01141959120120321,0.00865368070490249,15.500162524967402,0.01106364205922013,0.015910286572761834
493,0.25,0.001,0.011343624430534605,0.008502926257858565,15.919273030626904,0.011362793026857176,0.013569076312705874
494,0.25,0.001,0.011353816966024728,0.008591456170920487,15.480270540845263,0.011049443640860288,0.013882574276067317
495,0.25,0.001,0.01134530449961568,0.008610392655604161,15.326446531107138,0.01093964777380952,0.01658152893651277
496,0.25,0.001,0.01129113420189082,0.008462922348753437,15.84929887331449,0.011312847161537824,0.014738834172021598
497,0.25,0.001,0.011364979984668585,0.008534432351998576,15.862388946197845,0.011322190539755778,0.017566696973517537
498,0.25,0.001,0.011328146483871962,0.008547809125425724,15.581009426745739,0.011121348627227507,0.014579379581846297
499,0.25,0.001,0.011365769635681268,0.008606928488710424,15.460546107868572,0.01103536481646579,0.012093922938220203
500,0.25,0.001,0.011391552425102218,0.008623558845739444,15.511837919465789,0.011071975674136893,0.015123797056730837
