epoch,beta,learning_rate,train_loss,train_reconstruction_loss,train_kl_unnormalized,train_kl_normalized,mean_unclipped_gradient_norm
1,0.0,0.001,0.0929563267018971,0.0929563267018971,0.8185656566747883,0.0005842724173267583,0.1178763285279274
2,0.02,0.001,0.08661004870929974,0.08647661391120628,9.347243840262394,0.006671837145083793,0.10118227452039719
3,0.04,0.001,0.08072323187085606,0.0798299457102814,31.287410889695956,0.022332199064736585,0.10542495300372441
4,0.06,0.001,0.07337186900561288,0.07014369539566488,75.37790848904808,0.053802932540362655,0.11155714839696884
5,0.08,0.001,0.06293912041907343,0.05483302299008273,141.95805338405123,0.10132623367883742,0.1327995757261912
6,0.1,0.001,0.056259710441699765,0.04313032209073137,183.9427338670564,0.13129388570096817,0.10898353904485703
7,0.12,0.001,0.04962635127790022,0.038727058810275675,127.24923762379076,0.09082743584853016,0.09771406650543213
8,0.14,0.001,0.0429208890453681,0.03727012470164555,56.54800906597368,0.040362604615256016,0.07847351332505544
9,0.16,0.001,0.04028254207348664,0.0367225870090043,31.1718573346234,0.02224971972492748,0.09191372493902843
10,0.18,0.001,0.03785879614969228,0.03303768585792324,37.52430435795112,0.02678394315342692,0.05870381804804007
11,0.2,0.001,0.03691925498463163,0.032104499038033835,33.727369065252724,0.024073782344934135,0.06625022118290265
12,0.22,0.001,0.03574828013477709,0.03247075850431551,20.871854462079554,0.01489782616850789,0.07099824274579684
13,0.24,0.001,0.034705690389511566,0.031532528641439926,18.52333277503916,0.013221508047850937,0.0427951297412316
14,0.25,0.001,0.03414213009828689,0.030756657530597392,18.972190588112646,0.013541891925847713,0.095267949004968
15,0.25,0.001,0.03348606484848381,0.03134708946583255,11.986816630267457,0.008555900521247292,0.08270969428122044
16,0.25,0.001,0.03318455042755044,0.030854917137614832,13.055266079486616,0.009318533961089661,0.06878924369812012
17,0.25,0.001,0.03282358179856467,0.03006704865436026,15.447614631396812,0.011026134640540194,0.08885498220721881
18,0.25,0.001,0.032283804860691094,0.030167845771616738,11.857828313072256,0.00846383177235707,0.0869635200748841
19,0.25,0.001,0.03156476027813534,0.029206427451748177,13.216097684514603,0.00943333168059572,0.05526216452320417
20,0.25,0.001,0.031237231792519558,0.028673435192580192,14.367519129042657,0.01025518852893837,0.0478309690952301
21,0.25,0.001,0.03022903043951764,0.028045847361919864,12.234562188986963,0.008732735324044942,0.04493476077914238
22,0.25,0.001,0.029180208208576947,0.026926134906759196,12.631829434593252,0.009016295099638295,0.04760855374236902
23,0.25,0.001,0.02814763470634118,0.025812297959455707,13.087229773502221,0.00934134887473392,0.07159921651085217
24,0.25,0.001,0.026789782456303604,0.023858396948984006,16.42748551080691,0.011725542834266174,0.05418199424942335
25,0.25,0.001,0.025871090090914862,0.0223496241132485,19.73429743875593,0.014085865409533141,0.03805616622169813
26,0.0,0.001,0.02137029468513175,0.02137029468513175,21.819284285474943,0.015574078719111309,0.08564335852861404
27,0.02,0.001,0.020764785387472017,0.020315834289829204,31.449058891142776,0.022447579508310334,0.08785729855298996
28,0.04,0.001,0.020474201855843498,0.019300074347813657,41.123822794664626,0.029353192572922647,0.08660169318318367
29,0.06,0.001,0.020300568737739683,0.018128883993665645,50.70884192549942,0.03619474798393963,0.07545359618961811
30,0.08,0.001,0.019848855562358096,0.016894450536210266,51.739027061718424,0.036930069280312935,0.05750308185815811
31,0.1,0.001,0.019760994903193226,0.016428657594893203,46.686046344321845,0.03332337355055093,0.06262653010586898
32,0.12,0.001,0.019776906093094973,0.016094029981067917,42.9975892393381,0.030690641855344824,0.09295697510242462
33,0.14,0.001,0.019481025498685422,0.01589832213651014,35.852627440586986,0.02559074050006209,0.11960739642381668
34,0.16,0.001,0.01919537513898123,0.015441276533091628,32.87182724715879,0.02346311723565938,0.05781300117572149
35,0.18,0.001,0.018619721892896113,0.01489388514560141,28.999432621386227,0.020699095375721788,0.05563175802429517
36,0.2,0.001,0.018767127104653607,0.015177095365154263,25.14817372264478,0.017950159687826397,0.05898094673951467
37,0.22,0.001,0.018351655453443527,0.014580386359519606,24.01612979453682,0.01714213404320972,0.02486417970309655
38,0.24,0.001,0.018343094211296748,0.014420228072710886,22.8997314504329,0.016345275838995647,0.02929604798555374
39,0.25,0.001,0.018076864352462276,0.014395498026837438,20.630375740512104,0.014725464482878018,0.019949959591031075
40,0.25,0.001,0.018046149408957303,0.01473631664185516,18.548301466359387,0.01323933009733004,0.02439843211323023
41,0.25,0.001,0.018035350404929793,0.01480776385947962,18.087395200793374,0.012910346324620538,0.061644295851389565
42,0.25,0.001,0.01834781665429973,0.014724061693121123,20.30752550675565,0.014495021774986188,0.09118004391590755
43,0.25,0.001,0.01808905581499906,0.01460304167496678,19.535620875006554,0.013944054871525021,0.06607355674107869
44,0.25,0.001,0.01785983999053504,0.014402845086867377,19.37299778317445,0.013827978431958923,0.03975967628260454
45,0.25,0.001,0.01787895277992591,0.014414822813998533,19.412983721534676,0.013856519430074715,0.049861920376618706
46,0.25,0.001,0.01762305217601309,0.014170772452282425,19.346576255439913,0.013809119382897868,0.06457563241322835
47,0.25,0.001,0.017469529712560192,0.013641296085845304,21.453423980098442,0.01531293645974193,0.052201145639022194
48,0.25,0.001,0.017572184287061626,0.013941383726844852,20.347005421683292,0.014523201585783935,0.05115788554151853
49,0.25,0.001,0.017449242406643476,0.01433757112530254,17.4378080304037,0.012446686674092577,0.07561436792214711
50,0.25,0.001,0.017214378067011,0.014024927668373457,17.873678591427385,0.012757800564901774,0.06110758086045583
51,0.0,0.001,0.013504108764081193,0.013504108764081193,18.73085943644479,0.013369635572051954,0.05284493292371432
52,0.02,0.001,0.013932731046322607,0.013606042744929358,22.884528230500703,0.01633442414739522,0.05254136646787325
53,0.04,0.001,0.01348485492619892,0.012669913033210991,28.54333688108713,0.020373545239890885,0.036209248627225556
54,0.06,0.001,0.013764044019899913,0.012310784691382174,33.93361072412273,0.024220992665326718,0.03922784452637037
55,0.08,0.001,0.014263893815144996,0.011973958237459196,40.10250173479118,0.02862419824039342,0.039229160795609154
56,0.1,0.001,0.014667190548857586,0.01161199595604167,42.80327345060822,0.030551943933339203,0.02078057701388995
57,0.12,0.001,0.015192193060413303,0.011508236507941413,43.010194304805474,0.03069963904697036,0.03085201419889927
58,0.14,0.001,0.015417957965959638,0.011471635862034838,39.49141250200719,0.02818801748894161,0.028133191789189976
59,0.16,0.001,0.015756700587952695,0.011844666262201015,34.25475211431516,0.024450215641909464,0.024103255321582157
60,0.18,0.001,0.015649283329812472,0.0119030673006837,29.158047068039043,0.02081231054106998,0.041124666730562844
61,0.2,0.001,0.01609843295542586,0.012638224995126261,24.238758522392118,0.01730104105809573,0.021818739362061024
62,0.22,0.001,0.01587311407838692,0.012526719587161237,21.31044989464267,0.015210885006882705,0.029533285026748974
63,0.24,0.001,0.0162399300942885,0.012885733951358187,19.58012269807342,0.013975819199195876,0.030860588264962036
64,0.25,0.001,0.016522180614055405,0.013306312306765341,18.0217243424998,0.012863472050321057,0.04101348854601383
65,0.25,0.001,0.015921068546555988,0.012619289850828632,18.50316701799431,0.013207114216983805,0.013598092210789522
66,0.25,0.001,0.016391072209749447,0.012892345529074636,19.606865978881018,0.013994907907837986,0.03996234045674404
67,0.25,0.001,0.01584703508989523,0.0124079478379564,19.27264618073534,0.013756349879182969,0.03965438902378082
68,0.25,0.001,0.01579409194547658,0.012291460348005663,19.628749591392157,0.014010527902492617,0.03698728047311306
69,0.25,0.001,0.016271636927587874,0.012921218454037736,18.775745686268646,0.013401674294267413,0.029724172316491604
70,0.25,0.001,0.01598747930920764,0.012594007468163568,19.01701644283013,0.013573887539493313,0.021481220920880634
71,0.25,0.001,0.015756956020357624,0.012181732997348245,20.035550418316117,0.014300892518426922,0.03781338439633449
72,0.25,0.001,0.01578305211018196,0.012405124692958873,18.92990760035163,0.013511711349287388,0.034093646332621574
73,0.25,0.001,0.01594277357545075,0.01256603883241847,18.92322321386145,0.013506940195475697,0.029859085256854694
74,0.25,0.001,0.01597490705449709,0.01251416510258545,19.393992916849637,0.013842964251855558,0.04925925160447756
75,0.25,0.001,0.015780092548303957,0.012346326142249491,19.24282611616506,0.013735065036520385,0.049399811774492264
76,0.0,0.001,0.012416308995761327,0.012416308995761327,19.878080880081892,0.01418849456108629,0.060944244265556335
77,0.02,0.001,0.011894112140340293,0.011552949748533284,23.898450979450406,0.01705813774407595,0.030358219519257545
78,0.04,0.001,0.012323314055250395,0.011486883900259565,29.2959737585695,0.020910759285203067,0.054594013219078384
79,0.06,0.001,0.012642171865191636,0.011089025634097173,36.265962613509004,0.025885769174524627,0.0687529519200325
80,0.08,0.001,0.013181714991095082,0.010884445398145873,40.2309331445886,0.028715869482218843,0.07320333396395047
81,0.1,0.001,0.013127444780762963,0.009933543129005289,44.746558118986606,0.03193901364667138,0.04352457945545515
82,0.12,0.001,0.013747966467034098,0.009993587170521285,43.83238023079482,0.03128649552519259,0.0259402592976888
83,0.14,0.001,0.014058948200721068,0.010139691437150808,39.22056584710243,0.027994693681015294,0.03274506889283657
84,0.16,0.001,0.014188233550462948,0.010260049866249897,34.3961607529813,0.02455114971661763,0.038190713773171105
85,0.18,0.001,0.01428088210773148,0.01066623762524968,28.13398162790593,0.02008135733612129,0.03244261257350445
86,0.2,0.001,0.014573748692270093,0.01109984382712001,24.33470509676325,0.017369525408110816,0.016742668735484283
87,0.22,0.001,0.014645561432128385,0.011190354711557394,22.0033826379968,0.015705483681653677,0.02223881334066391
88,0.24,0.001,0.015253222985005619,0.011707653804063398,20.69726085022792,0.014773205460548123,0.025115637419124443
89,0.25,0.001,0.015160841354787749,0.01150636188685894,20.4797036087753,0.014617918350303568,0.023721101228147745
90,0.25,0.001,0.015093392261222706,0.011552999239889967,19.84036242081815,0.014161572034845218,0.01886393316090107
91,0.25,0.001,0.015047740922528226,0.011459416259805228,20.108972024597577,0.01435329908964852,0.026507490314543247
92,0.25,0.001,0.014930674568718712,0.011243258196635535,20.664281678679806,0.01474966572354019,0.02174091897904873
93,0.25,0.001,0.015184050132114215,0.011514766266782012,20.562668281913602,0.014677136532415133,0.019880570471286774
94,0.25,0.001,0.014997541366907573,0.011424292322723257,20.024487860250794,0.014292996331371016,0.02088910962144534
95,0.25,0.001,0.015138386479960192,0.011699280076528956,19.272754349164515,0.013756427087198084,0.02991255186498165
96,0.25,0.001,0.014822551243057187,0.011215144343324155,20.21590830655706,0.014429627627806611,0.03836489779253801
97,0.25,0.001,0.015119451735693736,0.011468485135260045,20.460018529187913,0.014603867615408932,0.04681200720369816
98,0.25,0.001,0.014609264053604347,0.011000818660445262,20.22172892013652,0.014433782241353691,0.02307949944709738
99,0.25,0.001,0.01494181003021514,0.011445054246875263,19.595818410783806,0.013987022420259676,0.050700491604705654
100,0.25,0.001,0.014707167101586425,0.011225922295711184,19.508895733212466,0.013924979110073137,0.03711545964082082
101,0.25,0.001,0.014634648819247748,0.010994039413412945,20.401974825251024,0.01456243741987939,0.048358636597792305
102,0.25,0.001,0.01468266929256036,0.011175319183642831,19.655188797304294,0.014029399569810346,0.04932276221613089
103,0.25,0.001,0.01481547605421319,0.011379651837800974,19.25435957172573,0.013743297338847773,0.018499572140475113
104,0.25,0.001,0.014594920973399742,0.011141375738552353,19.353668673726535,0.013814181779961838,0.02036259261270364
105,0.25,0.001,0.014496969559148655,0.0110911160594965,19.086402893066406,0.013623413913680518,0.03792976743231217
106,0.25,0.001,0.014236637484907303,0.010755982931278297,19.505586892966456,0.013922617339733373,0.03606007061898708
107,0.25,0.001,0.014646748618391537,0.011213325720355414,19.240899706846914,0.01373369001202492,0.029862120437125366
108,0.25,0.001,0.014201702625059442,0.010866260468559777,18.691817277229873,0.013341768220720824,0.02738817036151886
109,0.25,0.001,0.014196774828554,0.010940235901948989,18.249644797920382,0.013026156172676932,0.019889773490528267
110,0.25,0.001,0.01422080104458052,0.010926848777488575,18.459308624267578,0.013175809153652804,0.028008601007362206
111,0.25,0.001,0.013981206705106185,0.010524632140444029,19.370644447787495,0.0138262986779354,0.014526943986614546
112,0.25,0.001,0.014535727829441129,0.010982049210309583,19.914814686615195,0.014214714265963737,0.05205423881610235
113,0.25,0.001,0.014106522070481473,0.010786281479835111,18.606627304281965,0.01328096167329191,0.034236773227651916
114,0.25,0.001,0.014043105416149901,0.01072400597692936,18.600231644291206,0.013276396605489797,0.03751245637734731
115,0.25,0.001,0.014077188634632417,0.010638797530691895,19.268743963049562,0.0137535645703423,0.023206031570831936
116,0.25,0.001,0.014276896184622842,0.010771922723408914,19.641872470010846,0.014019894696652995,0.01580211582283179
117,0.25,0.001,0.01377314989823823,0.01031145094050057,19.39936258968891,0.013846796994781519,0.03611970320343971
118,0.25,0.001,0.01383919450110637,0.010558054594935588,18.38750904518486,0.013124560346313248,0.02009377566476663
119,0.25,0.001,0.014170894036757066,0.010966972947970733,17.95477493337337,0.012815685177282918,0.04715561866760254
120,0.25,0.001,0.013756170656357036,0.010302069009400455,19.356784654143674,0.013816405891608617,0.049742824087540306
121,0.25,0.001,0.01389772477465988,0.010381322866618234,19.705916743950556,0.014065607954283053,0.03572912017504374
122,0.25,0.001,0.014603993274121476,0.011288077495492144,18.58239102203574,0.01326366239974,0.04813020800550779
123,0.25,0.001,0.014032146337148327,0.010712875778343053,18.60119404888793,0.013277083546672327,0.0434266763428847
124,0.25,0.001,0.013804604868160798,0.010298153885558948,19.650150452684237,0.01402580332097376,0.01611709501594305
125,0.25,0.001,0.0136268102632673,0.01004059597749838,20.097145182974387,0.014344857375427829,0.023797762890656788
126,0.25,0.001,0.013495827281235048,0.010014804748930788,19.507651105023072,0.01392409072449898,0.016668618346254032
127,0.25,0.001,0.013604572367848166,0.010243577363857087,18.835016391421323,0.013443980293662615,0.024775947754581768
128,0.25,0.001,0.013992517586522455,0.01076019260932335,18.113950575758146,0.012929300910605386,0.021071995608508587
129,0.25,0.001,0.013540141922015471,0.010181038509179282,18.824417165461803,0.013436414821885656,0.02436868567019701
130,0.25,0.001,0.01383379244889389,0.010197234096243077,20.379273421012314,0.014546233705219354,0.02069239318370819
131,0.25,0.001,0.013612520405960163,0.010038424677046753,20.029231781927532,0.0142963824282138,0.026323576147357624
132,0.25,0.001,0.013506128890252354,0.010249898206417593,18.247916420034112,0.013024922498239909,0.02920731653769811
133,0.25,0.001,0.01379417323026081,0.010566365105043721,18.088636526325406,0.012911232352837549,0.0209182221442461
134,0.25,0.001,0.013244560682183545,0.00991390409860635,18.664998931372725,0.013322625932457335,0.02033709113796552
135,0.25,0.001,0.013514391509128497,0.010245566193839447,18.31849655048959,0.013075300892569301,0.02764880284667015
136,0.25,0.001,0.013276825971501385,0.009929967869148158,18.755793014628775,0.013387432558621539,0.018053841156264145
137,0.25,0.001,0.013255447511804984,0.00984187524190685,19.129659447894,0.013654289398925053,0.0163961467333138
138,0.25,0.001,0.013505290512420587,0.010170834832793515,18.686288667205197,0.01333782203226638,0.025140380176405113
139,0.25,0.001,0.01350825557472722,0.010152220269727627,18.80722157267116,0.01342414102260611,0.027519134804606438
140,0.25,0.001,0.013240374237198958,0.009987524704345122,18.228968857118748,0.01301139818495271,0.024888438793520134
141,0.25,0.001,0.013389458261030232,0.010184563340106666,17.96023225464277,0.012819580481543733,0.03295643006761869
142,0.25,0.001,0.01339651412961867,0.009964833623610886,19.231138651803036,0.01372672280642615,0.03581110077599684
143,0.25,0.001,0.013263860111118563,0.009886828801225897,18.924883132012898,0.013508125005005638,0.03123213102420171
144,0.25,0.001,0.013099823359575047,0.00993905562107395,17.712941406557224,0.012643070240226427,0.02249103660384814
145,0.25,0.001,0.013027032149718112,0.0098134679094757,18.008815227738964,0.012854257835645228,0.02294271904975176
146,0.25,0.001,0.013311838062367583,0.00993351965842631,18.93209581567137,0.013513273244590557,0.01339805405586958
147,0.25,0.001,0.013046882165308367,0.009767465237153057,18.37785027011129,0.013117666145689714,0.02527059552570184
148,0.25,0.001,0.012933242847305416,0.009818346183372025,17.45587942904274,0.012459585602457343,0.02345162940522035
149,0.25,0.001,0.012846135359332465,0.009673538167754675,17.779233433256213,0.012690387889547619,0.01766646436105172
150,0.25,0.001,0.01264474880350316,0.009311741505493253,18.67817154186684,0.013332028224030576,0.022320393472909927
151,0.25,0.001,0.012818687114139532,0.009569033617841317,18.2110606199943,0.012998615717340685,0.018980732498069603
152,0.25,0.001,0.012951525553260873,0.009789319108896608,17.72100674546005,0.012648827084553924,0.02648019262899955
153,0.25,0.001,0.012780261982307337,0.00956503789396894,18.01811560048353,0.012860896217332997,0.024503014360864956
154,0.25,0.001,0.012682845215969438,0.009586972534506513,17.349270257373785,0.012383490547732894,0.011894076752165953
155,0.25,0.001,0.012546983078722186,0.009563481035148537,16.719544711529007,0.011934007645630983,0.01848638306061427
156,0.25,0.001,0.012549020312476478,0.009491434658333759,17.13471169439738,0.012230343821839672,0.021044194077452023
157,0.25,0.001,0.012695791549830629,0.00961708786253561,17.253054356415,0.012314813958897216,0.017711313751836617
158,0.25,0.001,0.012516373368417657,0.009442275621296976,17.227245753243466,0.012296392400602046,0.027643876150250435
159,0.25,0.001,0.01270386766667334,0.00954012770280742,17.729598435779547,0.012654959625824087,0.020498817476133507
160,0.25,0.001,0.012513303922976823,0.009238995005370386,18.349227662054485,0.013097236018597063,0.027685146468381088
161,0.25,0.001,0.012400755802506968,0.00922998031538805,17.76902723632403,0.0126831029524083,0.023492110582689445
162,0.25,0.001,0.012347381837015984,0.009165951507103523,17.82873576119442,0.012725721456955332,0.026158999651670456
163,0.25,0.001,0.01231539617573855,0.009139490045057047,17.797777572734244,0.01270362424891809,0.019298475546141464
164,0.25,0.001,0.0123320074826979,0.009259309519657352,17.219400533893765,0.012290792672301046,0.017110240024824936
165,0.25,0.001,0.012486713650892645,0.009538649368856178,16.52095360723918,0.011792258106523325,0.015379433520138264
166,0.25,0.001,0.01245243679857094,0.009479316901540595,16.661364420948413,0.011892479957850402,0.017422958898047607
167,0.25,0.001,0.012342590888674627,0.009159026629972778,17.84069491392814,0.012734257611654632,0.02877218338350455
168,0.25,0.001,0.012469646908442846,0.009228888236536276,18.16121100099295,0.012963034261950713,0.023568693238000076
169,0.25,0.001,0.012486408620872753,0.009190698616806693,18.46915854383635,0.013182839788605532,0.02008269230524699
170,0.25,0.001,0.012404639586406266,0.009108358312823228,18.472359407668147,0.01318512448798583,0.018674344445268314
171,0.25,0.001,0.012281514335448709,0.009042716922626,18.150220806966693,0.012955189726600067,0.02236756682395935
172,0.25,0.001,0.012117627739356268,0.00895816807153841,17.70561346271694,0.012637839730704453,0.024137340486049652
173,0.25,0.001,0.012361798297938884,0.009140408022841752,18.052672699793874,0.012885562241109117,0.03135831312586864
174,0.25,0.001,0.012273414541760947,0.009141823289378377,17.549439014204395,0.01252636617716231,0.03313859552145004
175,0.25,0.001,0.01203118391560028,0.009101818978236425,16.416161876396846,0.011717460297214023,0.03200684922436873
176,0.25,0.001,0.012121440861499149,0.009254503638902366,16.06631840955491,0.011467750470774382,0.027583464980125427
177,0.25,0.001,0.01264358946941043,0.009662859210581987,16.704011904313262,0.01192292070257906,0.036858305024604
178,0.25,0.001,0.012455632472598312,0.009250290141809706,17.96273909959217,0.012821369806989415,0.03645507308344046
179,0.25,0.001,0.012058209765377461,0.008846647462388814,17.997595460622904,0.012846249436561673,0.01918389027317365
180,0.25,0.001,0.01228173213367094,0.009130415362899736,17.659979865054957,0.012605267569632374,0.023167846413950127
181,0.25,0.001,0.011946201855754292,0.00876126466819004,17.84838882548697,0.012739749340104904,0.0181011442715923
182,0.25,0.001,0.011926895382520336,0.008740971864969938,17.853916808262767,0.01274369508084423,0.024764979258179665
183,0.25,0.001,0.011778994100855901,0.008684886394431128,17.339380021063274,0.01237643113566258,0.019097717789312203
184,0.25,0.001,0.011901412771752216,0.008890071740036443,16.87555420638731,0.01204536345923434,0.022479098290205002
185,0.25,0.001,0.011944294550874889,0.008966774267188254,16.686025517098855,0.011910082453318241,0.02661774680018425
186,0.25,0.001,0.011661789692538296,0.008805311028689346,16.00770772383517,0.011425915577327032,0.018366880404452484
187,0.25,0.001,0.011913441296591856,0.009171518040883462,15.365737851034075,0.010967692970045734,0.027518773451447487
188,0.25,0.001,0.011689869999485528,0.008917319357095149,15.537373715599111,0.01109020250934983,0.017128590494394302
189,0.25,0.001,0.01177779440111762,0.008887380336555058,16.19787981686176,0.011561655829308895,0.021327277024586994
190,0.25,0.001,0.011923753368924529,0.008921901732933201,16.82237605920574,0.01200740618073215,0.016337411167720955
191,0.25,0.001,0.01156245398916454,0.008480325134958597,17.27225092433443,0.012328516005948914,0.011092264670878649
192,0.25,0.001,0.011577651660964392,0.008518940337852344,17.141020371609887,0.012234846803433182,0.019267341122031212
193,0.25,0.001,0.011714839320254807,0.00873143425923866,16.71900333174123,0.011933621221799594,0.019038095294187467
194,0.25,0.001,0.011773829935931119,0.00887678582971328,16.235035800293787,0.011588176873871368,0.016527409975727398
195,0.25,0.001,0.01159740825677478,0.008644367786961914,16.548839837912745,0.011812162625205385,0.01847083183626334
196,0.25,0.001,0.011626406422747461,0.008621841006531012,16.83758539801476,0.012018262239839228,0.02657988667488098
197,0.25,0.001,0.01166695160728773,0.008784717417653375,16.152040059134464,0.011528936516155934,0.015983036408821743
198,0.25,0.001,0.011452813451522149,0.008552674497883992,16.252378066914194,0.011600555365392002,0.012041191880901655
199,0.25,0.001,0.011801026817786213,0.008803632554141867,16.79739959127951,0.011989578580499293,0.01697948155924678
200,0.25,0.001,0.011415866184854668,0.008375760136584708,17.03675537621415,0.012160424965177836,0.014403052938481173
201,0.25,0.001,0.011575983699736178,0.008510640316061526,17.17818581497909,0.012261374600270587,0.01988406541446845
202,0.25,0.001,0.011629188114514686,0.008607909233378085,16.93124672550483,0.01208511543576362,0.012920647238691648
203,0.25,0.001,0.011638624137329976,0.008642566924752204,16.789905381682736,0.011984229394491603,0.01716027595102787
204,0.25,0.001,0.011328631411962862,0.008280147973373033,17.083701908188377,0.012193934267086636,0.010492223625381788
205,0.25,0.001,0.01140842998662851,0.00838402754958444,16.948753388936087,0.01209761126976166,0.010977355763316154
206,0.25,0.001,0.011476660053551998,0.008564808705959144,16.31801545059921,0.011647405746323489,0.013629173239072164
207,0.25,0.001,0.011175540032102757,0.00828428641461686,16.202583921035664,0.011565013505378776,0.011882737278938293
208,0.25,0.001,0.01120919184821764,0.008348436488601185,16.03167273374212,0.01144302122322778,0.01340739925702413
209,0.25,0.001,0.011216568029266875,0.00845847031314101,15.456379141583538,0.011032390536462197,0.01987216031799714
210,0.25,0.001,0.011371877569480231,0.008535764045738334,15.893580571117017,0.011344454369105651,0.024457660193244617
211,0.25,0.001,0.01125843945465632,0.008276833146310492,16.708921176475165,0.011926424822608968,0.015715105769534905
212,0.25,0.001,0.011151925760677597,0.008158862534535412,16.77312437479928,0.011972251516630464,0.009244228092332682
213,0.25,0.001,0.011111260504280561,0.008168086947110676,16.493547490779186,0.01177269628178386,0.015348726573089758
214,0.25,0.001,0.011255222216448528,0.008315984528486762,16.471488927034724,0.011756951411159688,0.014369476276139418
215,0.25,0.001,0.011221476580522605,0.008347831391448143,16.10390769395252,0.011494580795112435,0.016479220241308212
216,0.25,0.001,0.010894943985012954,0.007983863453737042,16.31369494111746,0.011644321870890408,0.014010035432875156
217,0.25,0.001,0.011085559926527058,0.008131157581838185,16.556470640553723,0.011817609308032636,0.019199205252031486
218,0.25,0.001,0.011144465385567423,0.008255627000041857,16.18904947114471,0.01155535294157367,0.013246389416356882
219,0.25,0.001,0.011202042991132944,0.008337298430027378,16.054028619855842,0.01145897831538604,0.015218792172769705
220,0.25,0.001,0.011031249913093228,0.00818031764395485,15.976624815256004,0.011403729347077805,0.013756708862880865
221,0.25,0.001,0.011270801761756407,0.008441952019679866,15.852873411754635,0.011315398580838425,0.01289710309356451
222,0.25,0.001,0.010962645516999617,0.008089662066992097,16.100200589071186,0.011491934753084358,0.01152964448556304
223,0.25,0.001,0.010908988354440104,0.008012054338051168,16.23441692326693,0.011587735134380394,0.013223624788224697
224,0.25,0.001,0.011037202764477505,0.008173227300804933,16.04971944565741,0.011455902530804718,0.012744143605232239
225,0.25,0.001,0.011238641724390472,0.008295487543730528,16.493436851757483,0.011772617310319403,0.01093255759527286
226,0.25,0.001,0.011166713138004677,0.00816227948205583,16.836846396427028,0.01201773475833478,0.012807964036862055
227,0.25,0.001,0.010929764442195828,0.007875501084447708,17.116092105839876,0.012217053608736528,0.010254533650974432
228,0.25,0.001,0.010988289915375262,0.008018259609105603,16.64404930524378,0.011880120845998415,0.008544146704177061
229,0.25,0.001,0.010839106471296526,0.007986030135078719,15.988640938829256,0.011412306166187906,0.014024380749712387
230,0.25,0.001,0.01081523034196572,0.008041915374389232,15.541656295725163,0.011093259311723886,0.012145774438977242
231,0.25,0.001,0.010729771501215912,0.007947969725418011,15.589215675456412,0.01112720604957631,0.013841174232463041
232,0.25,0.001,0.01084918283776149,0.008022544849288944,15.840478737082258,0.01130655156108655,0.024641069273153942
233,0.25,0.001,0.010941087143283162,0.008098112100472786,15.93203197709666,0.011371900055029735,0.022675063150624435
234,0.25,0.001,0.010862109445085462,0.007952566518004509,16.305076944748027,0.01163817055299645,0.018751244836797316
235,0.25,0.001,0.010847350682488224,0.007907695086960424,16.473830677518908,0.011758622896159107,0.021914518748720486
236,0.25,0.001,0.011081645215217699,0.008167729269238127,16.329584249714078,0.011655663276027179,0.02150417926410834
237,0.25,0.001,0.010873838271570686,0.007992359890833797,16.147805501950668,0.011525913991399477,0.015132725238800049
238,0.25,0.001,0.01057155395939246,0.007660411323276942,16.314043889909783,0.011644570942119759,0.011005952022969723
239,0.25,0.001,0.010717040309119944,0.007816379771086594,16.255300432243605,0.011602641279260245,0.008695363687972227
240,0.25,0.001,0.010565175668605223,0.00771389794754702,15.978559935652969,0.01140511058933117,0.011224241772045692
241,0.25,0.001,0.010859153370979249,0.008001870975748405,16.01221071793729,0.011429129705879578,0.017804580740630627
242,0.25,0.001,0.010861976478473851,0.008023311709047564,15.907877301209725,0.011354659030128283,0.013994493521749973
243,0.25,0.001,0.010600285773359289,0.007803187196161723,15.674940659695825,0.011188394475157619,0.011158217986424765
244,0.25,0.001,0.010864271838593002,0.008048080507940893,15.78193613986841,0.011264765267572027,0.015369617069760958
245,0.25,0.001,0.010680224790219092,0.007793861125664623,16.175180435180664,0.011545453558301687,0.015874204846719902
246,0.25,0.001,0.010796790692530223,0.007940809579953651,16.004921177089614,0.011423926607487233,0.012398362625390291
247,0.25,0.001,0.010706049458892553,0.00788117569539971,15.830591739424124,0.011299494460688168,0.01458187618603309
248,0.25,0.001,0.010728582102280336,0.007876514844696394,15.982985042085584,0.011408269123544314,0.016887297853827477
249,0.25,0.001,0.010632003076224519,0.007746615278340826,16.169712092252386,0.01154155038704667,0.017544150662918884
250,0.25,0.001,0.010489614480393846,0.00763665508453878,15.98798578377538,0.011411838532316474,0.013288417520622412
251,0.25,0.001,0.010599080173161206,0.007787789674413285,15.754470761190325,0.011245161142891024,0.012752472112576166
252,0.25,0.001,0.0106113207770274,0.00787071092991821,15.358375914144837,0.010962438197105523,0.012855101997653643
253,0.25,0.001,0.010704088774853505,0.007989241760349113,15.214002122815023,0.010859387667962185,0.018310278964539368
254,0.25,0.001,0.010751552804804488,0.00785939848588017,16.207631744794398,0.011568616520195859,0.026045849546790123
255,0.25,0.001,0.01083557813384589,0.007890604108246982,16.503634651235284,0.011779896253558375,0.03259775973856449
256,0.25,0.001,0.010614850683350292,0.007842361208226456,15.537031781753438,0.011089958445220155,0.029242184634009998
257,0.25,0.001,0.010476906327593247,0.007727350577112012,15.408510784174771,0.010998223257797838,0.016695577651262283
258,0.25,0.001,0.010498224045056225,0.007685013840462537,15.765231650947724,0.01125284200638667,0.02066905548175176
259,0.25,0.001,0.010637871521031296,0.007928963822481417,15.180719010781921,0.010835630985568823,0.017521160033841927
260,0.25,0.001,0.01067344996228114,0.007961383476953379,15.198421235052532,0.010848266406175968,0.0214157501856486
261,0.25,0.001,0.010472049861646338,0.007666359914954277,15.723084987409964,0.011222758734767998,0.01871728120992581
262,0.25,0.001,0.010472087858357286,0.007622691546410522,15.968017219697069,0.011397585453031456,0.013572069505850473
263,0.25,0.001,0.010494660779883798,0.007722122282189811,15.53730598552115,0.011090154165254213,0.011603998020291328
264,0.25,0.001,0.010254630793961102,0.007482038454571426,15.537606060104881,0.011090368351252593,0.015466015475491682
265,0.25,0.001,0.01035366886164118,0.007581252954750253,15.5366174582667,0.011089662711111135,0.014980828544745842
266,0.25,0.001,0.010421544850972676,0.007670799607798557,15.415176916442462,0.011002981382185912,0.011719215350846449
267,0.25,0.001,0.010436143732360945,0.007678126041221139,15.455933212433886,0.011032072242993494,0.012920271450032791
268,0.25,0.001,0.010383658317361502,0.007620979112966749,15.482053820718855,0.011050716503011317,0.014957159447173277
269,0.25,0.001,0.01048865778709218,0.0077384705030228065,15.412048877485647,0.01100074866344443,0.018882408427695434
270,0.25,0.001,0.010428001154089135,0.007693014388916476,15.326864997812566,0.010939946465248084,0.020601579298575718
271,0.25,0.001,0.01039085273424651,0.007578298052610367,15.761557892664968,0.011250219766356151,0.016365959929923218
272,0.25,0.001,0.0103332660779757,0.007515493067819,15.790799825783544,0.011271091952736291,0.016246600697437923
273,0.25,0.001,0.0103560653796432,0.007580377033367853,15.55495786986895,0.011102753654438937,0.014881683513522148
274,0.25,0.001,0.01031478410024171,0.007537326281702759,15.564873612167052,0.011109831272067846,0.015799361281096935
275,0.25,0.001,0.010239112597183892,0.007391939695999526,15.95555736874574,0.011388691912024082,0.013005776951710383
276,0.25,0.001,0.010368887660087355,0.007546369692673219,15.81739190120825,0.011290072734624018,0.011443162336945534
277,0.25,0.001,0.010221018555930397,0.007473466014677046,15.397284398942986,0.010990210134862946,0.01754099813600381
278,0.25,0.001,0.010202845983557253,0.0075079956898253235,15.101941870362968,0.010779401763285488,0.015477488748729229
279,0.25,0.001,0.010356580526036704,0.0076402778605986765,15.222160812992378,0.010865211144177286,0.022339054383337498
280,0.25,0.001,0.010307794874346497,0.007524125540516521,15.59968396641264,0.011134678063106808,0.01950851548463106
281,0.25,0.001,0.010182345473526307,0.007368016350489334,15.771501681948669,0.01125731740324673,0.010073900533219179
282,0.25,0.001,0.010317185156097348,0.007482193735421904,15.887290173728994,0.011339964435209847,0.02159531383464734
283,0.25,0.001,0.010343448427699556,0.007556944397971934,15.615568314622713,0.011146015927639339,0.02153785216311614
284,0.25,0.001,0.010333884794940084,0.007539963868490401,15.65713394728283,0.011175684473435282,0.016616133662561577
285,0.25,0.001,0.010321032980944486,0.007563629600175675,15.45248929606188,0.01102961405857379,0.021350780501961708
286,0.25,0.001,0.010263626813738538,0.0075166886641125155,15.393841237829836,0.01098775248952879,0.02337859570980072
287,0.25,0.001,0.010259654104159582,0.007487977354868547,15.532476111546458,0.011086706717734802,0.022745863844950993
288,0.25,0.001,0.0101299621039789,0.007375462555745304,15.436214767046422,0.011017997692395733,0.017201494115094345
289,0.25,0.001,0.010198887050051817,0.007475925015673141,15.259479189879142,0.010891848101269908,0.015155606903135777
290,0.25,0.001,0.010353201562726257,0.0076147263882144186,15.34641591654528,0.01095390143936137,0.0190825251241525
291,0.25,0.001,0.010296878504923127,0.007481001061231098,15.780178082869357,0.011263510408900326,0.019875329608718555
292,0.25,0.001,0.010366929632505314,0.007596658883403812,15.524596329503412,0.01108108231941714,0.019411200967927773
293,0.25,0.001,0.010124092446577629,0.007401973565402847,15.254756453853325,0.010888477126233637,0.01291325083002448
294,0.25,0.001,0.010186409452717576,0.007488359381513507,15.119873066076496,0.010792200618184507,0.015101755348344644
295,0.25,0.001,0.010131279825414187,0.007410154302898269,15.249186951042022,0.010884501749494662,0.024549571176369984
296,0.25,0.001,0.01015375130778591,0.007427710414732862,15.276734716940247,0.010904164680185758,0.016482101132472355
297,0.25,0.001,0.010226693998197181,0.0075202414784705475,15.166959052117878,0.010825809459042025,0.013289176548520723
298,0.25,0.001,0.010216861456982642,0.007422611898673861,15.65897591482073,0.011176999225425217,0.019044621537129085
299,0.25,0.001,0.01012458443491651,0.007264512606690194,16.02784433300863,0.011440288603146774,0.021226542225728433
300,0.25,0.001,0.010157386509814119,0.007309332621227575,15.960495513557587,0.011392216640654951,0.02193912211805582
301,0.25,0.001,0.010088515724211732,0.007339961695541072,15.402897674765363,0.010994216755721173,0.011034753794471422
302,0.25,0.001,0.010062986659823648,0.007364439234237543,15.122661622578665,0.01079419102254009,0.012844553838173548
303,0.25,0.001,0.010055701004578763,0.0073675197399152605,15.064569722886054,0.010752726426042865,0.01194846568008264
304,0.25,0.001,0.010340944770098533,0.007670887349010914,14.963002352106491,0.010680230087156668,0.015681297828753788
305,0.25,0.001,0.010122795301745802,0.00737801974876815,15.381720997343127,0.01097910135427775,0.014525053401788076
306,0.25,0.001,0.010125266119287718,0.007341744581349944,15.598854429769837,0.011134085959864266,0.015181241557002068
307,0.25,0.001,0.010121643074456878,0.007338598779958966,15.596181031041498,0.011132177752349391,0.011437399468074242
308,0.25,0.001,0.010025971675379164,0.007223034805724485,15.707659823782492,0.011211748625112414,0.009901732516785463
309,0.25,0.001,0.010023318731144771,0.007195987782422328,15.844363231786945,0.011309324219690895,0.013409435438613096
310,0.25,0.001,0.009961884750065788,0.007154378321196809,15.733264193438844,0.011230024406451709,0.009303305918971697
311,0.25,0.001,0.009893135536437067,0.007077596344103749,15.778281839101906,0.011262156915847185,0.010227354088177284
312,0.25,0.001,0.010061300940961646,0.0072650117955901875,15.6704044406046,0.011185156631409421,0.014791204283634821
313,0.25,0.001,0.009956076634960287,0.007166081651945242,15.635132341576902,0.01115998025808487,0.019011494393150013
314,0.25,0.001,0.00992087934216197,0.007164673592220217,15.445776708974135,0.011024822775855914,0.011226866239060959
315,0.25,0.001,0.009913316321553,0.007137168383213298,15.55753386580704,0.011104592338192033,0.013391378025213877
316,0.25,0.001,0.009879361156799249,0.007154907049898733,15.267841518325294,0.010897816929568377,0.017183317492405575
317,0.25,0.001,0.010067141496095082,0.007348877690332448,15.233148984461023,0.010873054235875106,0.01570317552735408
318,0.25,0.001,0.010072072617859648,0.007242240489854309,15.858378013508432,0.011319327632768331,0.013633684565623602
319,0.25,0.001,0.009927302673959092,0.00711975693577688,15.733485407477257,0.0112301823036954,0.014511310961097479
320,0.25,0.001,0.009915030980170172,0.0071534120177712615,15.47611338340196,0.011046476362171279,0.01694434943298499
321,0.25,0.001,0.009971898561656076,0.007245700106324766,15.277616180829554,0.010904793847844079,0.012740879319608212
322,0.25,0.001,0.009847965991537044,0.007130232573980653,15.230179377050208,0.0108709346017489,0.0163511725453039
323,0.25,0.001,0.00990643149754345,0.007218867262212822,15.06111302471801,0.010750259118285517,0.011898188851773739
324,0.25,0.001,0.009894578486380961,0.007205065708582433,15.072028883351576,0.01075805059482625,0.015878258273005486
325,0.25,0.001,0.009885744735498556,0.007151272829196997,15.32397996019197,0.010937887194997838,0.01853339746594429
326,0.25,0.001,0.009886809962257843,0.007154006817246843,15.314628101835314,0.01093121206412228,0.013220923021435738
327,0.25,0.001,0.009966641426986497,0.007204837581430305,15.477149016105088,0.011047215571809484,0.013914727295438448
328,0.25,0.001,0.009979828154580705,0.007188256761221677,15.643966373981245,0.01116628577728854,0.01231902992973725
329,0.25,0.001,0.00994343491858684,0.007116004780884957,15.844917105348319,0.011309719561276459,0.01634814217686653
330,0.25,0.001,0.009948777491164287,0.007167553516642359,15.585979346460944,0.011124896036017804,0.020877985283732414
331,0.25,0.001,0.009966217787723813,0.007241307832800702,15.270394459666822,0.010899639157506653,0.02380128422131141
332,0.25,0.001,0.009860827762558557,0.007186840682121731,14.985024292197004,0.010695948816700216,0.017732069672395784
333,0.25,0.001,0.009940226781088234,0.007262011208640249,15.008720839583633,0.010712862840530787,0.01691020590563615
334,0.25,0.001,0.009914243706320757,0.007145992655232049,15.513280932535261,0.011073005662052292,0.026521618167559307
335,0.25,0.001,0.01019664068750087,0.007430409428182265,15.5019609208075,0.01106492571078337,0.02909273561090231
336,0.25,0.001,0.009941499455263151,0.007102312448265769,15.910806054236906,0.01135674950338109,0.026352794840931892
337,0.25,0.001,0.009720515597286641,0.007032933719956235,15.061209915468357,0.010750328276565566,0.021046565535167854
338,0.25,0.001,0.010078066559945977,0.007514627562873315,14.365512547076948,0.010253756279141291,0.022500519330302875
339,0.25,0.001,0.009965672432726261,0.0073010766778716304,14.932393630879037,0.010658382320399028,0.023945460406442482
340,0.25,0.001,0.009929492319590293,0.007207698376236746,15.252932234898509,0.01088717504275411,0.031266684333483376
341,0.25,0.001,0.010038022245686727,0.007345384174345324,15.089544501080608,0.010770552820186016,0.01989974609265725
342,0.25,0.001,0.009927710630749697,0.007219508580938482,15.176764840247648,0.010832808594038292,0.021136029933889706
343,0.25,0.001,0.00984611334091665,0.0070503595935168285,15.667404334817157,0.011183015228277771,0.014856130505601564
344,0.25,0.001,0.00984708809812597,0.007023494240621592,15.82342165748545,0.011294376629183048,0.017383410905798275
345,0.25,0.001,0.009863593915614905,0.007093801716305066,15.521914174892759,0.01107916786216471,0.01614150187621514
346,0.25,0.001,0.009873763776865581,0.007161440996565674,15.199855164393483,0.0108492899103451,0.028663037965695064
347,0.25,0.001,0.009773352433421067,0.007133724946128642,14.792472768949983,0.01055851018483225,0.023278103210031986
348,0.25,0.001,0.009889223400328384,0.007177390598835761,15.197112006629073,0.010847331910513257,0.02038079748551051
349,0.25,0.001,0.009911757162553351,0.007164494647025662,15.39565824342254,0.010989049424284468,0.015813616725305717
350,0.25,0.001,0.009904791938528518,0.007174960468839479,15.297975949793054,0.010919326159738082,0.018086555724342663
351,0.25,0.001,0.009864433712307238,0.00706971601126778,15.661597245491592,0.01117887026801684,0.018601958950360615
352,0.25,0.001,0.00979888036647099,0.0070131065873991726,15.611475624494105,0.011143094664164244,0.018252676352858543
353,0.25,0.001,0.009758722599620786,0.007006675020585324,15.42247387546821,0.011008189775494797,0.016619013932844002
354,0.25,0.001,0.009767225793494073,0.007126272243491355,14.799903652011949,0.010563814169887187,0.010388038121163845
355,0.25,0.001,0.00984824369442743,0.007279919022881744,14.392893605584266,0.010273300218118677,0.013202844187617302
356,0.25,0.001,0.009762849727483003,0.007111146636682269,14.86014487759379,0.010606812903350313,0.015876498073339462
357,0.25,0.001,0.009723834412159935,0.006964650483264419,15.462466246329697,0.011036735364974801,0.015692581422626972
358,0.25,0.001,0.009747927889677903,0.007013020471313456,15.326419791919273,0.010939628688022321,0.01389184578632315
359,0.25,0.001,0.009711821869815757,0.006958825704360368,15.427788561622569,0.011011983270251656,0.014144983453055223
360,0.25,0.001,0.009696762533795913,0.006916776665130118,15.579040117711829,0.011119942981949913,0.021995901440580685
361,0.25,0.001,0.009689370982798954,0.006996952334806423,15.088313653165063,0.010769674270638874,0.014117509747544924
362,0.25,0.001,0.009650750379484372,0.007044385449848319,14.606070160065721,0.010425460499690023,0.01910193481793006
363,0.25,0.001,0.009666393654758498,0.0070059151738732055,14.909321676164666,0.010641914115749227,0.01703896699473262
364,0.25,0.001,0.009641310743887552,0.006964866396964796,14.998794555664062,0.010705777698546796,0.018941607015828293
365,0.25,0.001,0.009715696059217389,0.007072245039595854,14.813898489779273,0.010573803347451302,0.016563260617355507
366,0.25,0.001,0.009640491380037478,0.006907160184502402,15.317587289234135,0.010933324260695314,0.017192719814678032
367,0.25,0.001,0.009610840394442913,0.006790340531167368,15.806082539910438,0.011282000385375045,0.018775196745991707
368,0.25,0.001,0.00958586109789626,0.006897493665600383,15.06561237693633,0.010753470647349272,0.008657762004683415
369,0.25,0.001,0.009602406374710118,0.007016493113798983,14.491460192123515,0.010343654669609932,0.011244673902789751
370,0.25,0.001,0.009699792644921565,0.007118375640637523,14.466261722897523,0.010325668610205226,0.014870315790176392
371,0.25,0.001,0.00952801049605712,0.006844191874483688,15.040119228747066,0.010735274253209897,0.01320127056290706
372,0.25,0.001,0.009642517369165517,0.006887215939694203,15.440709050069719,0.011021205603190377,0.012447606151302656
373,0.25,0.001,0.009484058039750429,0.006734124969241003,15.41062468970382,0.010999732112565181,0.01357703609392047
374,0.25,0.001,0.009525748194764124,0.006807405770375025,15.23359093890094,0.010873369692291891,0.009982115433861813
375,0.25,0.001,0.00965446363759521,0.006962349441452515,15.086609750786083,0.010768458066228467,0.012870551397403082
376,0.25,0.001,0.009640019824540855,0.006984272943622114,14.882806329919188,0.010622988101298492,0.012531645130366087
377,0.25,0.001,0.009649947579425054,0.0069533865680080536,15.111526591665793,0.010786243106114056,0.014746832971771559
378,0.25,0.001,0.009585814450511196,0.006834240661521486,15.419817918099014,0.011006294017201294,0.016001106860737007
379,0.25,0.001,0.009498081601306095,0.006760588203300565,15.340914809463808,0.01094997488184426,0.01148525532335043
380,0.25,0.001,0.00957558480335162,0.006907104708304341,14.954163096895154,0.010673920840039368,0.011736984364688396
381,0.25,0.001,0.009421704730781532,0.006770160399227334,14.859254158583264,0.010606177129609753,0.011650826626767715
382,0.25,0.001,0.009575341478140162,0.006912153161087092,14.924509035660916,0.010652754486553116,0.014103607895473639
383,0.25,0.001,0.009509461831876495,0.006807697477481709,15.140687347258497,0.010807057349934687,0.010213301827510199
384,0.25,0.001,0.009623083354742734,0.006885005798715873,15.344187557297264,0.010952310890290695,0.013726026751101017
385,0.25,0.001,0.00947009634551586,0.006753080030715706,15.226157783661913,0.010868064085411787,0.01628984184935689
386,0.25,0.001,0.009478089180868744,0.006826873559304732,14.857411058157082,0.010604861568991493,0.011292645707726479
387,0.25,0.001,0.00951504353558857,0.006859482719169167,14.881763080622525,0.010622243455119576,0.021453906471530598
388,0.25,0.001,0.009599310345947742,0.0069978726752752424,14.578457627520466,0.010405751340128812,0.016634680951635044
389,0.25,0.001,0.00949505975957485,0.006911819816360737,14.47647553642324,0.010332958983885254,0.013852886234720549
390,0.25,0.001,0.009391788955802885,0.00672169176286599,14.96322389897084,0.010680388221963483,0.01284348126500845
391,0.25,0.001,0.00945242986883093,0.006791875903938441,14.909745696407036,0.010642216771168478,0.012769692887862524
392,0.25,0.001,0.00952198447022062,0.0069169293207760225,14.598727431073284,0.010420219436883144,0.02071863164504369
393,0.25,0.001,0.00941886149046805,0.006798988164421296,14.681770087888577,0.01047949328186194,0.009001125736782948
394,0.25,0.001,0.009695213144307569,0.0070996086844461875,14.545766990456805,0.010382417552074807,0.020714116593201954
395,0.25,0.001,0.00938243605196476,0.006780443275534866,14.58156676580442,0.010407970568025995,0.010211839030186335
396,0.25,0.001,0.009526154920208774,0.006873471149862213,14.865640397039837,0.010610735472548063,0.010867239286502203
397,0.25,0.001,0.009548055576848104,0.006794059580354482,15.433394323259392,0.011015984527665518,0.012228905533750853
398,0.25,0.001,0.009394599431063105,0.006635373823919753,15.462701791084854,0.011036903491138369,0.01591915621732672
399,0.25,0.001,0.009520785583045659,0.0067880233568483155,15.31440029528317,0.010931049461301334,0.011424852224687735
400,0.25,0.001,0.009498876031963217,0.006821309566347791,15.005082597668538,0.010710265951226651,0.010390562936663628
401,0.25,0.001,0.00954558659694939,0.0068332554597482584,15.19990410900756,0.010849324845829808,0.015778660774230957
402,0.25,0.001,0.009461079867894217,0.006748254154652557,15.202675499372035,0.010851302997410446,0.012802033995588621
403,0.25,0.001,0.009450160141959287,0.006772905225621774,15.003338679371264,0.010709021184419175,0.016089902569850285
404,0.25,0.001,0.009467778546148099,0.00684753581944028,14.683839567555678,0.010480970426520827,0.01045679859817028
405,0.25,0.001,0.009490601680922828,0.006845402221926707,14.823697576586833,0.010580797699205448,0.014970698083440462
406,0.25,0.001,0.00940563726620186,0.006712912134951193,15.090032782330608,0.010770901343562176,0.00926266610622406
407,0.25,0.001,0.00964672352193586,0.006961267794663674,15.0492930316285,0.01074182229238294,0.017003918377061684
408,0.25,0.001,0.009332816185267179,0.006605432475073225,15.284257978400928,0.010909534602713012,0.016241866784791153
409,0.25,0.001,0.009454596306403612,0.0067755166759977,15.013561459995756,0.01071631795859797,0.013152996388574442
410,0.25,0.001,0.00952616620233795,0.006945048349490702,14.464585259456763,0.01032447199104694,0.01589294724787275
411,0.25,0.001,0.009501377589400582,0.006837996538578464,14.925587775723246,0.01065352446518433,0.01272407608727614
412,0.25,0.001,0.0093937642159778,0.006699295158204216,15.099804174179999,0.01077787592732334,0.011036721523851156
413,0.25,0.001,0.009469972923398018,0.006818169674792346,14.860706310144208,0.01060721364035989,0.012366484540204207
414,0.25,0.001,0.009466996916488514,0.00679878169208165,14.952678891636381,0.010672861450133034,0.01256673876196146
415,0.25,0.001,0.00937287570696149,0.006745977395982951,14.721138979764593,0.010507593847083935,0.012652871819833914
416,0.25,0.001,0.009419200873164923,0.006810769213726056,14.617650780901814,0.010433726467453115,0.010333253381152948
417,0.25,0.001,0.009434657065110319,0.006756113148325642,15.010558659598331,0.010714174632118724,0.018282967619597912
418,0.25,0.001,0.009501445413435866,0.006812748117934937,15.067458568803415,0.010754788414563466,0.022809037938714027
419,0.25,0.001,0.009435532258310973,0.006735868902014406,15.128913508165603,0.010798653467641401,0.020594905751446884
420,0.25,0.001,0.009420287364081249,0.006711384281516075,15.180691763858666,0.010835611537372353,0.016754651286949713
421,0.25,0.001,0.009343871371758064,0.0066509575851811656,15.091088621408348,0.010771654976023089,0.01802189229056239
422,0.25,0.001,0.009404192322352588,0.006798104129906669,14.604518186325995,0.010424352738276941,0.014616811648011208
423,0.25,0.001,0.009428142826229134,0.006816139000924241,14.637671240224135,0.010448016588311303,0.015251718771954378
424,0.25,0.001,0.009518982798811174,0.006829725709687543,15.070595613261997,0.010757027561214844,0.01349883402387301
425,0.25,0.001,0.009540813006210647,0.00683924377014573,15.139595172549255,0.010806277781976627,0.01990293214718501
426,0.25,0.001,0.009317600043278012,0.006593062633010965,15.26830732102362,0.01089814940829666,0.02098443980018298
427,0.25,0.001,0.009368106572820036,0.006655192543321208,15.20317128200659,0.010851656875093926,0.01807627857973178
428,0.25,0.001,0.009409308333524921,0.006767415232181349,14.805169060726294,0.010567572491596212,0.013262517129381498
429,0.25,0.001,0.009354359126531037,0.006797674396419085,14.327660931836839,0.010226738709376758,0.012102894174555937
430,0.25,0.001,0.009236035693511866,0.006668767323029921,14.38697114726841,0.010269072910255824,0.00961040643354257
431,0.25,0.001,0.009316001674972924,0.00673877265329329,14.44279104271191,0.010308915804933554,0.012703834722439447
432,0.25,0.001,0.009506983126219887,0.006918275366293504,14.507119255577958,0.010354831731319028,0.014518446289002895
433,0.25,0.001,0.009302685943575913,0.006636810213977458,14.939566375425198,0.010663502052409134,0.009440713717291752
434,0.25,0.001,0.009412266807818172,0.006698202623066886,15.209614747322647,0.010856256065183902,0.011370358678201834
435,0.25,0.001,0.009337185263233697,0.006657589798880703,15.01645252688619,0.010718381532395568,0.010918871189157167
436,0.25,0.001,0.009319994504869785,0.006691751857881978,14.728673416496123,0.01051297174624991,0.011466720451911291
437,0.25,0.001,0.009221386208180212,0.0066428988353168005,14.449843822709665,0.01031394990914323,0.009745706804096699
438,0.25,0.001,0.009453885857290869,0.006904080703904565,14.289109031626042,0.010199221293094963,0.009433756892879805
439,0.25,0.001,0.009278487851655724,0.006722904582376648,14.32148878366355,0.010222333178917594,0.010694885005553564
440,0.25,0.001,0.009340798369790083,0.006756645171034256,14.481594520927276,0.010336612791525536,0.012131161677340666
441,0.25,0.001,0.009355293393085067,0.006691592526715874,14.927378180843071,0.01065480241316422,0.010546692957480749
442,0.25,0.001,0.009359965413408791,0.006650960213510982,15.181265120538288,0.010836020785537678,0.01477120661487182
443,0.25,0.001,0.00935509165236414,0.006673310148910988,15.028705097684924,0.010727127121830781,0.014008904186387857
444,0.25,0.001,0.009323807945787507,0.006657102457778966,14.944216344180523,0.010666821087923285,0.017806302445630234
445,0.25,0.001,0.009363722418678687,0.006619960254045741,15.376044791816865,0.010975049815715107,0.018555702331165474
446,0.25,0.001,0.009380100201190318,0.006675397527197863,15.157151619059928,0.010818809149935708,0.01646459537247817
447,0.25,0.001,0.009387519085567269,0.006691480408603913,15.108602357390742,0.010784155858237504,0.01946317497640848
448,0.25,0.001,0.009437524451055383,0.006778785699490933,14.899572391638019,0.010634955311661684,0.014044246636331081
449,0.25,0.001,0.009301679627657336,0.006664327008262177,14.77972277058851,0.010549409543603505,0.013567751894394556
450,0.25,0.001,0.009268976854247934,0.006685517578317015,14.477706576353752,0.010333837670488046,0.009909143360952536
451,0.25,0.001,0.00936384232802279,0.00681906176931006,14.26095236067804,0.01017912374066955,0.016215841596325237
452,0.25,0.001,0.009297972895055009,0.006652928094985901,14.822832190750429,0.010580180007673396,0.0177468229085207
453,0.25,0.001,0.009461421294500364,0.00678405324434674,15.00396998616673,0.010709471795979107,0.014052612707018852
454,0.25,0.001,0.009296150728060094,0.006631621584646254,14.932022286741525,0.01065811726391258,0.013790057972073555
455,0.25,0.001,0.009349017397769346,0.006669272199873157,15.017291222642733,0.01071898017319253,0.012891383841633797
456,0.25,0.001,0.00932196206444462,0.006638504461629079,15.038097458397782,0.010733831162311051,0.013167275115847588
457,0.25,0.001,0.00923263829126454,0.006541905743413724,15.078864308811674,0.01076292955661076,0.013401318341493607
458,0.25,0.001,0.00936327483380001,0.006672906370570996,15.07682612118305,0.010761474747453996,0.01302080104748408
459,0.25,0.001,0.009256194514416208,0.006605475562805898,14.854628863750689,0.010602875705746388,0.014011681700746218
460,0.25,0.001,0.009311077578755832,0.006711617493439441,14.567375893560833,0.010397841465782178,0.014808123310407003
461,0.25,0.001,0.009203112127896923,0.006580465466984166,14.697311164548733,0.010490586127443777,0.01221777560810248
462,0.25,0.001,0.009270031092650939,0.0066433744880077025,14.719783117307113,0.010506626065172815,0.011299848866959413
463,0.25,0.001,0.009369934265245527,0.006711784078295799,14.89627430422994,0.010632601216438217,0.015376176685094833
464,0.25,0.001,0.009253170591272763,0.00656792376152921,15.048125843073697,0.010740989181351674,0.015741981255511444
465,0.25,0.001,0.00913506259379171,0.006436231839876847,15.124248402230691,0.010795323627573655,0.01547066681087017
466,0.25,0.001,0.009222619379276797,0.006549892593925231,14.977962813921422,0.010690908503869681,0.01111030112951994
467,0.25,0.001,0.009354043089403402,0.006674811294014822,15.01441504331243,0.010716927225776182,0.012618819872538248
468,0.25,0.001,0.009260558629495985,0.006525851067330613,15.32530206001845,0.010938830877957495,0.008743386094768843
469,0.25,0.001,0.009274051737215294,0.006559190315338189,15.214082116248624,0.0108594447653452,0.014400977020462355
470,0.25,0.001,0.00927247748953984,0.006511332154674018,15.47345967900833,0.01104458221199738,0.012628297166277965
471,0.25,0.001,0.009261535818144779,0.006500898801015328,15.470609524106019,0.011042547840189878,0.011439469332496325
472,0.25,0.001,0.009185584449528047,0.006484494628947253,15.136908492785972,0.010804360094779423,0.010923483719428381
473,0.25,0.001,0.009229172471185659,0.006618451089566986,14.630482161605117,0.01044288519743406,0.011721957940608263
474,0.25,0.001,0.009255334591155484,0.0066172460237855476,14.783848960927669,0.010552354718720677,0.010178472536305586
475,0.25,0.001,0.00920634712998899,0.006541450698578717,14.934078421368694,0.010659584883203921,0.016200835971782606
476,0.25,0.001,0.009279755912971177,0.006592790058645226,15.057758907343716,0.010747865030223923,0.018232943800588448
477,0.25,0.001,0.00921426957860689,0.006545013282448053,14.958512344616372,0.010677025228134455,0.014700420200824738
478,0.25,0.001,0.009270824766999123,0.00662752809690549,14.813033756793745,0.010573186121908454,0.01693791834016641
479,0.25,0.001,0.00925945795622448,0.006597199108476607,14.919298101591584,0.010649035047531466,0.017578942701220512
480,0.25,0.001,0.0092400439183584,0.006610585814154388,14.735483137553171,0.010517832360851657,0.013196821014086405
481,0.25,0.001,0.00939794695442355,0.006750578807679398,14.835850677234214,0.010589472289246405,0.018936458354194958
482,0.25,0.001,0.009190140123285303,0.0065064279412563215,15.039522535848938,0.010734848348214802,0.01953758206218481
483,0.25,0.001,0.009273588576122819,0.006521592094819218,15.422187203528898,0.011007985155980655,0.018322563419739406
484,0.25,0.001,0.00910139438264922,0.00634337740406494,15.455928936900708,0.011032069191221062,0.011358531812826792
485,0.25,0.001,0.009207477586831422,0.006550742960191213,14.888339516300483,0.010626937556245884,0.013752047282954058
486,0.25,0.001,0.009329492988802443,0.0067426780263749545,14.496513065875776,0.01034726128899056,0.012305210344493389
487,0.25,0.001,0.009113247425064145,0.006517882349482119,14.544424581847736,0.0103814593731961,0.013422135263681412
488,0.25,0.001,0.00920908693099182,0.00655454533149632,14.876050577867751,0.010618166008470915,0.009913140907883644
489,0.25,0.001,0.009201393637731172,0.006487342972783435,15.209541960850657,0.010856204111956215,0.009727365958193937
490,0.25,0.001,0.009070809261760855,0.006369306327737618,15.139222484307002,0.010806011766100644,0.013548527689029774
491,0.25,0.001,0.009235665145886425,0.006629628241812222,14.604230445503388,0.010424147355819691,0.011759840262432894
492,0.25,0.001,0.00910420455788606,0.006520391651272973,14.479687773941347,0.010335251801528441,0.011619692668318748
493,0.25,0.001,0.009087792691468392,0.006491592078900977,14.549107717987676,0.010384802082789205,0.010108246933668852
494,0.25,0.001,0.00916962206813713,0.006537297021772638,14.751551909734738,0.010529301862765695,0.01533083338290453
495,0.25,0.001,0.009180396857777698,0.006484014053997777,15.110529342753775,0.01078553129389991,0.009933646457890669
496,0.25,0.001,0.009032771953900388,0.006339313165478458,15.09414369467921,0.010773835613618278,0.00900887573758761
497,0.25,0.001,0.009141009563467646,0.00646804995059767,14.97926420173389,0.010691837403093426,0.011394923087209463
498,0.25,0.001,0.009148646102305627,0.006516020607528271,14.753233378365536,0.010530502054507878,0.010647550380478302
499,0.25,0.001,0.009148160814488894,0.006513509474344701,14.764588080796619,0.010538606767163897,0.011449432000517845
500,0.25,0.001,0.009223500429183846,0.006550617228518397,14.978837461279543,0.010691532806052494,0.01590661269923051
