epoch,beta,learning_rate,train_loss,train_reconstruction_loss,train_kl_unnormalized,train_kl_normalized,mean_unclipped_gradient_norm
1,0.0,0.001,0.06545229583978653,0.06545229583978653,158.54921020889282,0.11316860114838888,0.11058462643995881
2,0.02,0.001,0.05172023540735245,0.048235751152038576,244.08818463134764,0.17422425740995548,0.10458427062258124
3,0.04,0.001,0.04135667166113854,0.038953202188014985,84.18151092529297,0.06008673156694716,0.09320096578449011
4,0.06,0.001,0.038574738293886184,0.03475081357359886,89.28865713500977,0.06373208931835102,0.08162222849205136
5,0.08,0.001,0.0360887670814991,0.032680425137281414,59.68858950805664,0.04260427516635021,0.038007797207683325
6,0.1,0.001,0.03452618777751923,0.03221279406547546,32.410643905639645,0.02313393569281916,0.032288622576743364
7,0.12,0.001,0.032025538027286526,0.029582904487848283,28.517754837036133,0.020355285394030073,0.025118404533714056
8,0.14,0.001,0.028777013212442398,0.025782575070858002,29.96576837158203,0.021388842520758053,0.02703081350773573
9,0.16,0.001,0.026267450109124183,0.022454892560839653,33.383710205078124,0.02382848694152614,0.028955429093912244
10,0.18,0.001,0.02473317803442478,0.020804923951625823,30.57490837097168,0.02182363195643946,0.03189922182355076
11,0.2,0.001,0.023869365230202676,0.020092765778303146,26.455079788208007,0.018882997707500362,0.021521096350625157
12,0.22,0.001,0.023445736065506935,0.01945931516587734,25.386252609252928,0.01812009465328546,0.025167797110043466
13,0.24,0.001,0.023218353554606438,0.019001443773508073,24.6162109375,0.017570457485724483,0.030230686417780817
14,0.25,0.001,0.022790462881326676,0.0188796988427639,21.91592251586914,0.015643056756509024,0.0351541880518198
15,0.25,0.001,0.02250014281272888,0.01844970378279686,22.69865921020508,0.016201755324914403,0.03717112087178975
16,0.25,0.001,0.02211675162613392,0.018269459381699563,21.560225173950194,0.015389168575267804,0.0704938811250031
17,0.25,0.001,0.02222980985045433,0.018332928791642188,21.838120498657226,0.015587523553645415,0.11314118094742298
18,0.25,0.001,0.021576237440109253,0.01751638039946556,22.751438720703124,0.016239428066169254,0.08401446021161973
19,0.25,0.001,0.0205181215852499,0.016745668306946754,21.14082843017578,0.015089813297770007,0.0526956245303154
20,0.25,0.001,0.019677057147026063,0.015745063066482545,22.034893096923827,0.015727975087026287,0.03388198162429035
21,0.25,0.001,0.019160715207457543,0.015505142882466317,20.48582650756836,0.014622288727743297,0.022087145480327308
22,0.25,0.001,0.01905472819507122,0.01529558590054512,21.066233032226563,0.01503656890237442,0.03186264226678759
23,0.25,0.001,0.018846451595425605,0.015189988858997822,20.490816024780273,0.014625850124753943,0.0372775006107986
24,0.25,0.001,0.018597782015800476,0.014755213931202889,21.53375196838379,0.015370272639817124,0.02105937444139272
25,0.25,0.001,0.018434427455067636,0.014818898543715478,20.261425338745116,0.014462116587255614,0.034610139206051826
26,0.0,0.001,0.013885847784578801,0.013885847784578801,25.43985354614258,0.018158353708881213,0.021922559826634824
27,0.02,0.001,0.01328829401731491,0.012621570065617562,46.704014373779295,0.03333619869648772,0.018340966780669987
28,0.04,0.001,0.013545264959335328,0.011696376204490662,64.757326171875,0.046222217110546034,0.018289164290763438
29,0.06,0.001,0.014101678006350994,0.01142708294838667,62.45179458618164,0.04457658428706755,0.02358047477900982
30,0.08,0.001,0.014256347805261612,0.011549826443195342,47.39795785522461,0.03383151881172349,0.01637658808613196
31,0.1,0.001,0.014654874846339226,0.012124145098030567,35.455524948120114,0.02530729832128488,0.015811872959602624
32,0.12,0.001,0.015053950190544129,0.012227591946721078,32.99773468017578,0.023552986923751452,0.023455320042558014
33,0.14,0.001,0.015414215043187142,0.012075980812311173,33.40618838500976,0.023844531324061214,0.016127018549013883
34,0.16,0.001,0.015563041627407074,0.01218290850520134,29.59728941345215,0.021125831130229943,0.020882239565253258
35,0.18,0.001,0.015989501804113387,0.01254452895373106,26.813371536254884,0.01913873771324403,0.0228882001247257
36,0.2,0.001,0.016252843111753464,0.012522695288062095,26.12968505859375,0.018650738799852785,0.014120733132585883
37,0.22,0.001,0.01638757833838463,0.012639472141861915,23.868619995117186,0.017036845107150027,0.010788628074806184
38,0.24,0.001,0.016681941822171212,0.012874043256044387,22.228607315063478,0.015866243622457872,0.022363136988133192
39,0.25,0.001,0.01669701088964939,0.012775073230266571,21.978540603637697,0.015687752036857742,0.03021686850115657
40,0.25,0.001,0.016568352282047272,0.012807115525007249,21.077972442626955,0.015044948210297612,0.022854087001178414
41,0.25,0.001,0.016612662598490716,0.012837717607617379,21.15479150390625,0.015099779802930941,0.012091289041563869
42,0.25,0.001,0.01644025480747223,0.01263044998049736,21.35014823913574,0.015239220727434504,0.012416829587891698
43,0.25,0.001,0.01631990632414818,0.012532296039164066,21.22576998901367,0.015150442533200336,0.01202234358061105
44,0.25,0.001,0.016297848388552666,0.012543014846742154,21.0420887298584,0.0150193352818404,0.015210710756946355
45,0.25,0.001,0.016219640731811525,0.012487801022827625,20.913229919433594,0.014927358971758453,0.024225082132034004
46,0.25,0.001,0.016356913477182388,0.012724683433771134,20.35501922607422,0.014528921646020142,0.02257280715275556
47,0.25,0.001,0.016115611754357814,0.012437915675342083,20.609808288574218,0.01471078393188738,0.0360304081114009
48,0.25,0.001,0.01602096475660801,0.012429619714617729,20.12589845275879,0.014365380765709344,0.02341180096846074
49,0.25,0.001,0.016014088064432143,0.01243776848167181,20.04169383239746,0.014305277539184482,0.028156019281595945
50,0.25,0.001,0.01576800435781479,0.012206236973404885,19.960145935058595,0.014247070617457955,0.015151796862483025
51,0.0,0.001,0.01146379417181015,0.01146379417181015,27.20493765258789,0.019418228160305417,0.02146397705655545
52,0.02,0.001,0.010980057820677758,0.010277209222316742,49.23455288696289,0.03514243603637608,0.01933018071576953
53,0.04,0.001,0.011487112507224083,0.009733203142881394,61.43067346191406,0.04384773266375022,0.01457003178074956
54,0.06,0.001,0.011960694417357445,0.009632185623049737,54.370682189941405,0.038808481220514925,0.011012336588464677
55,0.08,0.001,0.01216820552200079,0.009911554001271725,39.519608917236326,0.028208143409876034,0.013158871559426188
56,0.1,0.001,0.012634066216647625,0.010387746773660183,31.47093441772461,0.022463193731423706,0.014506237115710974
57,0.12,0.001,0.01299302003532648,0.010374326303601265,30.573250030517578,0.021822448273031817,0.02067379094660282
58,0.14,0.001,0.01330417138338089,0.010357377529144287,29.488987350463866,0.021048527730523816,0.00854093418456614
59,0.16,0.001,0.013564964585006237,0.010557181902229786,26.33689710998535,0.018798641763015954,0.02015822724206373
60,0.18,0.001,0.013850512176752091,0.010687934823334216,24.615393447875977,0.017569873981353304,0.013618297292850912
61,0.2,0.001,0.014225872799754142,0.010897769406437875,23.313364196777343,0.01664051691418797,0.02033374714665115
62,0.22,0.001,0.014549870938062669,0.011056093461811543,22.24901072692871,0.01588080708560222,0.018842490622773767
63,0.24,0.001,0.014690185226500034,0.011149869337677955,20.66659327697754,0.01475131568663636,0.0161551630590111
64,0.25,0.001,0.014779363989830017,0.011116160340607166,20.52859437561035,0.014652815400150144,0.015866216272115707
65,0.25,0.001,0.014704145282506943,0.011165940776467324,19.828098129272462,0.014152818079423599,0.012936696468386799
66,0.25,0.001,0.014507051050662995,0.010915985360741615,20.124332443237304,0.014364262985893864,0.01449842459987849
67,0.25,0.001,0.014466852083802223,0.011122429825365543,18.742142578125,0.01337768920637045,0.012354458624031395
68,0.25,0.001,0.01443488109856844,0.01096892349421978,19.423225997924806,0.013863830119860676,0.01387990772491321
69,0.25,0.001,0.01446025713533163,0.011064703278243541,19.02868421936035,0.013582215716888188,0.018528044514823705
70,0.25,0.001,0.014340952411293984,0.0109475107640028,19.016847061157225,0.013573766638941632,0.015020281134638935
71,0.25,0.001,0.014185999535024167,0.010853650763630866,18.674482833862303,0.013329395313249325,0.0147544639185071
72,0.25,0.001,0.014183598451316356,0.010942338667809963,18.16401968383789,0.012965039032004204,0.01297664549201727
73,0.25,0.001,0.014215269915759563,0.010750903092324734,19.41431185913086,0.013857467422648722,0.012152528739534318
74,0.25,0.001,0.014187426000833512,0.010904963262379169,18.394921813964842,0.013129851401830723,0.015463523333892226
75,0.25,0.001,0.013965854950249195,0.010644231252372264,18.6143798828125,0.013286495276811206,0.014004250522702932
76,0.0,0.001,0.010195674829185009,0.010195674829185009,23.688033935546876,0.01690794713458021,0.01872926449868828
77,0.02,0.001,0.009775940284132957,0.009086967706680297,48.26252432250977,0.03444862549786565,0.009786427370272577
78,0.04,0.001,0.01039028151333332,0.008668486662209034,60.305863098144535,0.043044870162844064,0.013825591770000756
79,0.06,0.001,0.010813057221472263,0.008746553637087345,48.252860473632815,0.03444172767568367,0.011865821143146604
80,0.08,0.001,0.010958166234195233,0.009101792819797993,32.509741073608396,0.023204668860534187,0.010871736507397145
81,0.1,0.001,0.011280927337706088,0.00936663656681776,26.81921403503418,0.019142907947918758,0.010494498943444341
82,0.12,0.001,0.01168091195076704,0.009357108138501644,27.130412200927733,0.019365033690883465,0.012298793415538967
83,0.14,0.001,0.011967442393302918,0.009418055310845375,25.512080490112304,0.01820990755896667,0.013963061908725649
84,0.16,0.001,0.012288313806056977,0.009599866263568402,23.540721939086914,0.01680279938550101,0.014694464509375393
85,0.18,0.001,0.012605205588042736,0.009693269871175289,22.66456398010254,0.01617741897223593,0.013403601478785276
86,0.2,0.001,0.012952365383505821,0.00988235092163086,21.505449798583985,0.015350071233821545,0.014220371376723051
87,0.22,0.001,0.013226039379835129,0.009949970163404941,20.86260646057129,0.014891225168145103,0.009032998641487211
88,0.24,0.001,0.013406313717365266,0.010007509894669055,19.840518188476562,0.0141616832180418,0.013800754211843014
89,0.25,0.001,0.013581731222569943,0.010125391356647015,19.369328369140625,0.013825359292748484,0.01219934516120702
90,0.25,0.001,0.013457693219184875,0.010162905916571617,18.463988067626953,0.013179149227428232,0.01143332349602133
91,0.25,0.001,0.013515529565513135,0.01014100220054388,18.910851791381837,0.013498109772578043,0.014409691444598138
92,0.25,0.001,0.013411714032292367,0.010156594030559064,18.241692169189452,0.013020479778150929,0.0149063675198704
93,0.25,0.001,0.013453625246882438,0.010152042999863624,18.50206719970703,0.013206329193224148,0.013199227629229426
94,0.25,0.001,0.013425211638212205,0.010148679651319981,18.36168585205078,0.013106128374054804,0.013845642213709652
95,0.25,0.001,0.013323215231299401,0.010097820661962032,18.07511129760742,0.012901578370883241,0.011573923751711845
96,0.25,0.001,0.013342539764940738,0.010111330084502696,18.10769970703125,0.012924839191314241,0.014993133721873164
97,0.25,0.001,0.013324829488992692,0.01006096925586462,18.29067234802246,0.013055440648124526,0.013508997042663395
98,0.25,0.001,0.013144193775951862,0.00999819227308035,17.630193466186522,0.012584006756735561,0.010190585220698267
99,0.25,0.001,0.013218339018523694,0.010008675880730152,17.986951919555665,0.012838652333729954,0.011871410650201142
100,0.25,0.001,0.013209295883774758,0.010032885730266571,17.800602966308595,0.012705640946687077,0.011729443504009396
101,0.25,0.001,0.013206817284226418,0.010030492275953293,17.8001258392334,0.012705300384891791,0.015878666890785098
102,0.25,0.001,0.013241426661610604,0.010151440091431142,17.3162841796875,0.01235994588129015,0.017691779881715775
103,0.25,0.001,0.013139262735843659,0.009959539897739888,17.819167388916014,0.012718891783665963,0.014708355069160461
104,0.25,0.001,0.013175115026533603,0.01005436160415411,17.488702529907226,0.012483013939976606,0.018333337851800025
105,0.25,0.001,0.013124629482626915,0.010000186495482922,17.5093779296875,0.012497771541532834,0.01170551823452115
106,0.25,0.001,0.013005109027028084,0.009824293442070484,17.825290435791015,0.012723262266803008,0.012019646062981337
107,0.25,0.001,0.013046886481344699,0.009943760760128498,17.38991751098633,0.012412503576721148,0.01613194530364126
108,0.25,0.001,0.012973915986716747,0.00971793108433485,18.246539413452147,0.013023939624162846,0.009664042911026627
109,0.25,0.001,0.012992230758070945,0.009899866044521331,17.329612762451173,0.012369459502106476,0.011566016764845699
110,0.25,0.001,0.012992914691567421,0.009753745466470719,18.152303756713867,0.012956676485877136,0.014815075672231615
111,0.25,0.001,0.012897285796701909,0.009823747053742409,17.224112197875975,0.012294155744379712,0.011819031496997923
112,0.25,0.001,0.01296137572079897,0.009780263394117356,17.8269541015625,0.012724449751293719,0.011629449087195098
113,0.25,0.001,0.012896331451833248,0.00978626874089241,17.428791961669923,0.012440251221748695,0.013473407016135752
114,0.25,0.001,0.01292545922845602,0.009825435303151607,17.37253356933594,0.012400095338569549,0.024801208404824138
115,0.25,0.001,0.01294103705137968,0.009823176980018616,17.47248908996582,0.012471441177705796,0.019141661003232002
116,0.25,0.001,0.012814621061086655,0.009707260265946389,17.413650390625,0.012429443533636689,0.019327623303979635
117,0.25,0.001,0.012872706852853298,0.009777140595018864,17.347553283691408,0.012382265013341475,0.01841430412605405
118,0.25,0.001,0.012817183561623096,0.009677932068705559,17.592366958618165,0.012557007108221389,0.010912880883552134
119,0.25,0.001,0.012771002419292927,0.009645651385188104,17.514467086791992,0.012501404059094926,0.014891099475789815
120,0.25,0.001,0.012678197383880615,0.009603206306695937,17.232250701904295,0.012299964812208634,0.010696378536522388
121,0.25,0.001,0.012800293363630772,0.00977277971804142,16.966186630249023,0.012110054696823,0.009601170429959893
122,0.25,0.001,0.012700369581580162,0.009615345507860184,17.2884757232666,0.01234009687599329,0.010075360245537013
123,0.25,0.001,0.012746451616287232,0.009666040860116482,17.26262292480469,0.012321643772166086,0.011836130754090846
124,0.25,0.001,0.012720808699727058,0.009531763590872287,17.871408935546874,0.012756180539291131,0.012244359706528485
125,0.25,0.001,0.012727550864219665,0.009653082847595215,17.229318588256834,0.012297871940226149,0.011443112744018435
126,0.25,0.001,0.012576711528003217,0.009527248151600361,17.089192703247072,0.012197853464130673,0.010858088382519782
127,0.25,0.001,0.012777895294129848,0.0097061827480793,17.213876998901366,0.012286850106282202,0.011461979593150318
128,0.25,0.001,0.012593505382537841,0.009509266711771488,17.284073318481447,0.012336954545668414,0.015075511415489018
129,0.25,0.001,0.012726904608309268,0.009656273186206817,17.20781900024414,0.012282526052993676,0.01341926062013954
130,0.25,0.001,0.012695746906101703,0.009556438729166984,17.5926826171875,0.012557232417692719,0.017023707856424153
131,0.25,0.001,0.012671298496425152,0.009605778075754643,17.179176071166992,0.01226208142124696,0.013366539031267166
132,0.25,0.001,0.012643733121454715,0.009561927378177643,17.270438461303712,0.012327222313564392,0.013631304958835244
133,0.25,0.001,0.012623705014586449,0.009508225098252297,17.459149993896485,0.012461920052745528,0.012802535085938871
134,0.25,0.001,0.012590829662978649,0.009519414268434048,17.212211975097656,0.012285661652460854,0.01634449092671275
135,0.25,0.001,0.012566891252994537,0.009479231119155884,17.303248046875,0.012350641004193435,0.010983050451613963
136,0.25,0.001,0.012505067817866802,0.009513389565050602,16.76536489868164,0.0119667129897799,0.011651035165414214
137,0.25,0.001,0.012548341155052186,0.009494456268846988,17.113971771240234,0.0122155401650537,0.01504967431537807
138,0.25,0.001,0.01256389120221138,0.009454862400889396,17.422997253417968,0.012436115098799405,0.013366847415454686
139,0.25,0.001,0.012522105053067207,0.009479762926697732,17.049286163330077,0.01216936913870812,0.011697688605636358
140,0.25,0.001,0.012534717850387097,0.009407661654055119,17.524024017333986,0.012508225565548883,0.012609076802618802
141,0.25,0.001,0.012534859046339988,0.009533279448747635,16.82085168457031,0.012006318118893869,0.013629785855300725
142,0.25,0.001,0.012517477124929429,0.00944345234334469,17.226835540771486,0.012296099600836179,0.012144583160988986
143,0.25,0.001,0.012401388749480248,0.009385187208652496,16.90279457092285,0.012064806974249002,0.012745154846925288
144,0.25,0.001,0.01241376070678234,0.009361085526645184,17.10719268798828,0.012210701418978074,0.01454100979026407
145,0.25,0.001,0.012423964180052281,0.009463008001446723,16.593199531555175,0.011843825504322038,0.015242896741256118
146,0.25,0.001,0.012483652085065841,0.009408003337681294,17.235936126708985,0.012302595379521046,0.013332718517631292
147,0.25,0.001,0.012487895458936691,0.009452589251101018,17.009856033325196,0.01214122486318715,0.013208032585680485
148,0.25,0.001,0.012452807515859603,0.009399837963283062,17.108841857910157,0.012211878556681054,0.014048678567633033
149,0.25,0.001,0.012449956931173801,0.009362634211778641,17.30135678100586,0.012349291064244013,0.012776381568983197
150,0.25,0.001,0.012389385178685187,0.009337905436754227,17.100493072509767,0.012205919395081918,0.01193696993868798
151,0.25,0.001,0.012346348583698272,0.009305511690676213,17.040849731445313,0.012163347417162964,0.009125865530222654
152,0.25,0.001,0.012409782767295837,0.009387480162084103,16.936983779907226,0.01208921040678603,0.010342319263145328
153,0.25,0.001,0.012388524249196052,0.009344717368483543,17.057493377685546,0.012175227250310882,0.015104370890185237
154,0.25,0.001,0.01236679571866989,0.009379623331129551,16.7401153717041,0.01194869048658394,0.013356241281144321
155,0.25,0.001,0.012308117106556892,0.009244431212544441,17.168895278930663,0.012254743239779202,0.009848742745816708
156,0.25,0.001,0.012306668929755687,0.009293393053114414,16.886397720336912,0.01205310329788502,0.012964956811629236
157,0.25,0.001,0.01234721203148365,0.009316632695496083,16.98336585998535,0.012122316816549145,0.014207536820322275
158,0.25,0.001,0.012307651236653328,0.009288365222513676,16.920079437255858,0.012077144494829306,0.01401996926870197
159,0.25,0.001,0.012289116039872169,0.009263608738780021,16.954942962646484,0.012102029238148812,0.011006656452082098
160,0.25,0.001,0.012239336609840393,0.009137983806431294,17.37998159790039,0.012405411561670514,0.013563018525019288
161,0.25,0.001,0.012325955867767333,0.009331257745623588,16.78228790283203,0.011978792221864406,0.014012051047757268
162,0.25,0.001,0.012359175696969033,0.00929959223419428,17.145905715942384,0.012238333844355733,0.013187666074372828
163,0.25,0.001,0.012322460204362869,0.009245003007352353,17.246070785522463,0.012309829254477133,0.011620843666605651
164,0.25,0.001,0.012313488900661468,0.00927390179783106,17.033846298217775,0.012158348535487348,0.012097385304514319
165,0.25,0.001,0.012302567347884178,0.009243378952145576,17.14369221496582,0.012236753900760757,0.01192027289653197
166,0.25,0.001,0.012259120717644692,0.009196135468780994,17.164968658447265,0.012251940512810325,0.012311917496845126
167,0.25,0.001,0.01234053461253643,0.00936601037532091,16.66923370361328,0.011898096861965225,0.012592754734214395
168,0.25,0.001,0.012306732356548309,0.009241576299071312,17.17713491821289,0.012260624495512412,0.01175340497866273
169,0.25,0.001,0.01226174020767212,0.009242046430706977,16.922362854003907,0.01207877434261521,0.012216803268529475
170,0.25,0.001,0.012297454573214054,0.00923046912252903,17.18738626098633,0.012267941656664047,0.01050820603268221
171,0.25,0.001,0.01222595553100109,0.00926192495971918,16.61042805480957,0.011856122808572142,0.012721270322799683
172,0.25,0.001,0.01225266295671463,0.009207971647381782,17.06245166015625,0.01217876635271681,0.012853691820055246
173,0.25,0.001,0.012283588409423828,0.009199695937335491,17.282134078979492,0.012335570363297282,0.014395489357411861
174,0.25,0.001,0.012220702290534973,0.009239124275743962,16.708763549804686,0.011926312312494422,0.013681402429938316
175,0.25,0.001,0.012221404999494553,0.009231018736958503,16.758125396728516,0.011961545607943266,0.012259551556780934
176,0.25,0.001,0.01222687104344368,0.009232749141752719,16.7790597076416,0.0119764880140197,0.010476755676791072
177,0.25,0.001,0.01222302757948637,0.009191835194826126,16.98680191040039,0.012124769386438538,0.009784913796465844
178,0.25,0.001,0.012217208594083786,0.00918545699864626,16.98993717956543,0.012127007265928216,0.01177477405872196
179,0.25,0.001,0.012253796294331551,0.00916912305355072,17.286509613037108,0.012338693513945117,0.012605960946530104
180,0.25,0.001,0.012293272741138936,0.009289327055215835,16.834111419677733,0.012015782597914157,0.013232212397269905
181,0.25,0.001,0.012223548509180546,0.00915208013355732,17.212509857177736,0.012285874273503023,0.010256869019940495
182,0.25,0.001,0.012117129266262055,0.009099292814731598,16.911955894470214,0.012071346105974457,0.015482326853089035
183,0.25,0.001,0.012055349938571453,0.009096250496804714,16.582793579101562,0.01183639798651075,0.012083568959496915
184,0.25,0.001,0.012175678350031376,0.009135146796703339,17.039138427734375,0.012162125929860369,0.010141064296476543
185,0.25,0.001,0.012177841320633888,0.00917269179970026,16.840857421875,0.01202059773153105,0.01188386179273948
186,0.25,0.001,0.012177956208586693,0.009113739170134067,17.171872665405274,0.012256868426413473,0.012456177733838558
187,0.25,0.001,0.01213959438353777,0.009106804803013801,16.99575341796875,0.012131158756580121,0.009447884513065219
188,0.25,0.001,0.012115419499576091,0.009142580814659596,16.659787841796874,0.011891354633687989,0.010561696835793555
189,0.25,0.001,0.012163880459964275,0.0091278166025877,17.014102081298827,0.012144255589792168,0.009769548545591533
190,0.25,0.001,0.012026171162724496,0.009009506680071354,16.905387130737303,0.012066657480897433,0.012247736332938075
191,0.25,0.001,0.01219250112771988,0.009251972407102585,16.478723678588867,0.011762115402276136,0.012779722921550274
192,0.25,0.001,0.012092543289065361,0.009058640718460083,17.001990219116212,0.012135610434772457,0.012632203404791653
193,0.25,0.001,0.012125640489161014,0.009154727756977081,16.648994430541993,0.011883650557132044,0.013095124159008265
194,0.25,0.001,0.012080030173063278,0.009020150661468506,17.14756477355957,0.012239518039657081,0.012710868963040411
195,0.25,0.001,0.012051820173859596,0.009077674478292466,16.667111724853516,0.011896582244720568,0.012068955576978624
196,0.25,0.001,0.012069426193833352,0.009099271535873412,16.64474772644043,0.011880619362198735,0.01028991595376283
197,0.25,0.001,0.012134562499821186,0.009150495283305644,16.722712295532226,0.011936268590672539,0.014628839446231723
198,0.25,0.001,0.012148362085223198,0.009118241138756275,16.98079788970947,0.012120483861320109,0.013802718371152878
199,0.25,0.001,0.012151420339941979,0.00915970166772604,16.76559194946289,0.011966875053149814,0.01113893644651398
200,0.25,0.001,0.012003388293087482,0.008996719554066657,16.84937110900879,0.012026674596009129,0.01008863269817084
201,0.25,0.001,0.01208418646454811,0.00905488020181656,16.97623191833496,0.012117224781109893,0.010638263542205095
202,0.25,0.001,0.012059085473418236,0.009114104948937893,16.503671646118164,0.011779922659613251,0.011319941375404596
203,0.25,0.001,0.01207038551568985,0.009035615764558315,17.006850952148437,0.012139079908742639,0.01150977867655456
204,0.25,0.001,0.012074691049754619,0.00899695049226284,17.247658081054688,0.012310962227733539,0.01607957121450454
205,0.25,0.001,0.01200478895008564,0.009087823264300823,16.346675827026367,0.011667862831567713,0.012199418619275093
206,0.25,0.001,0.011985000908374786,0.008923254452645779,17.15802783203125,0.012246986318366347,0.013584433938376606
207,0.25,0.001,0.011976912394165993,0.009064293131232262,16.32231800842285,0.01165047680829611,0.015289172064512968
208,0.25,0.001,0.012087621167302132,0.009031767912209034,17.125001846313477,0.01222341316653353,0.013291233917698264
209,0.25,0.001,0.012095218680799007,0.009039709880948066,17.123070587158203,0.01222203468034133,0.01099672878626734
210,0.25,0.001,0.012076803356409073,0.009018232077360154,17.140232925415038,0.01223428474333693,0.017354689771309495
211,0.25,0.001,0.011973098367452622,0.009005372926592826,16.63113381958008,0.011870902083925824,0.015368964523077011
212,0.25,0.001,0.01204446791857481,0.00907703384757042,16.62950015258789,0.011869736011840036,0.0139786769868806
213,0.25,0.001,0.011998141944408416,0.009019463822245598,16.692512283325197,0.011914712550553317,0.01237956597469747
214,0.25,0.001,0.011949841171503066,0.00897225335240364,16.686402267456053,0.011910351368633871,0.013744654832407832
215,0.25,0.001,0.012012613795697688,0.00899828653037548,16.892290298461916,0.01205730927798852,0.012090396601706743
216,0.25,0.001,0.011955389589071273,0.008966871611773968,16.74765439605713,0.011954071660283462,0.011931074666790664
217,0.25,0.001,0.011955705739557744,0.009019195713102817,16.456202529907227,0.01174604034968396,0.012906449497677386
218,0.25,0.001,0.011968573093414307,0.00893619156628847,16.9934656829834,0.012129525826540612,0.011761707020923495
219,0.25,0.001,0.011922052375972271,0.008978926345705986,16.49327850341797,0.011772504285094909,0.010216416441835463
220,0.25,0.001,0.011897383540868759,0.008916461020708083,16.705090744018555,0.011923690752333016,0.009307175525464118
221,0.25,0.001,0.011940777011215686,0.008934094354510307,16.849451278686523,0.012026731819190952,0.011411024199333042
222,0.25,0.001,0.011893182463943958,0.00891096606105566,16.712341796875,0.011928866378925766,0.009959952672943473
223,0.25,0.001,0.01192079185694456,0.008957636162638664,16.605524505615236,0.011852622773458412,0.01314062881283462
224,0.25,0.001,0.011925118714571,0.008926163122057915,16.806148010253906,0.011995822990902147,0.011553643620572984
225,0.25,0.001,0.011831086292862893,0.008813459485769271,16.910780059814453,0.01207050682356492,0.00996379676507786
226,0.25,0.001,0.011931612685322762,0.009002874929457902,16.412647369384764,0.011714951726898475,0.015781499561853707
227,0.25,0.001,0.01192174942791462,0.008879932872951031,17.0463397064209,0.012167266028851462,0.015323617029935122
228,0.25,0.001,0.011911356702446937,0.00895443569868803,16.570584869384767,0.01182768370405765,0.01280479843262583
229,0.25,0.001,0.01190601658821106,0.008908026248216629,16.800737182617187,0.011991960872674652,0.012125361477956176
230,0.25,0.001,0.011930480241775513,0.008922739170491696,16.855381607055666,0.012030964744507969,0.011231289012357593
231,0.25,0.001,0.011889265663921834,0.008842641063034534,17.073284439086915,0.01218649852896996,0.011582376202568412
232,0.25,0.001,0.01185532271116972,0.008918264657258987,16.459272842407227,0.011748231864673253,0.01278961671050638
233,0.25,0.001,0.011949321575462819,0.008976876832544804,16.657579711914064,0.011889778523850153,0.010489685228094459
234,0.25,0.001,0.011913977369666099,0.00887878143042326,17.00923777770996,0.012140783567244797,0.011161489994265139
235,0.25,0.001,0.011917090184986592,0.00891359905153513,16.831564315795898,0.012013964536613774,0.012408567825332284
236,0.25,0.001,0.011943193577229977,0.008961843125522137,16.707488159179686,0.011925401969435893,0.016818168573081493
237,0.25,0.001,0.011987633675336838,0.0089343096986413,17.110827392578123,0.012213295783424784,0.016407800489105284
238,0.25,0.001,0.01186795473843813,0.008880412876605988,16.74218519592285,0.011950167877175483,0.01296853693202138
239,0.25,0.001,0.011914422124624253,0.00893521474301815,16.695479110717773,0.011916830200369575,0.012477664276957512
240,0.25,0.001,0.011846980147063733,0.008914907179772854,16.431337356567383,0.011728292188841815,0.014164621126838028
241,0.25,0.001,0.011918934389948845,0.0089236428886652,16.785613082885742,0.011981165655164699,0.01433002797421068
242,0.25,0.001,0.011913783006370068,0.008941423773765564,16.657100997924804,0.011889436829353893,0.013188821380026639
243,0.25,0.001,0.011875985950231552,0.008833559744060039,17.04975680541992,0.012169705071677318,0.012425101362168789
244,0.25,0.001,0.011950694404542446,0.008928918279707432,16.934033569335938,0.012087104617655916,0.013345257146283984
245,0.25,0.001,0.011821377515792847,0.008757848851382732,17.168014701843262,0.012254114705098688,0.010187283158302307
246,0.25,0.001,0.011859362177550794,0.008923847131431102,16.45062651062012,0.011742060321641769,0.011421533883549273
247,0.25,0.001,0.011804775506258011,0.008778117775917053,16.961390213012695,0.01210663112991627,0.010314214741811156
248,0.25,0.001,0.011797785073518753,0.008833930097520351,16.609443939208983,0.011855420370598845,0.013709072838537395
249,0.25,0.001,0.011873228281736373,0.008840011581778526,16.99814604187012,0.012132866553797372,0.010828575526829809
250,0.25,0.001,0.011782379411160946,0.00881592484563589,16.62401208496094,0.011865818761570977,0.010749913984909654
251,0.25,0.001,0.011784002363681793,0.008780511595308781,16.83156262207031,0.012013963327673313,0.009526139765512198
252,0.25,0.001,0.01183559188991785,0.00882792730629444,16.854952423095703,0.01203065840335168,0.01187960256356746
253,0.25,0.001,0.011825593888759613,0.008766041338443756,17.145732055664062,0.01223820988983873,0.009830268565565348
254,0.25,0.001,0.011886981904506683,0.008793559074401856,17.3355421295166,0.012373691741268095,0.014224138925783336
255,0.25,0.001,0.011880954042077065,0.008904101714491843,16.682280487060545,0.011907409341228083,0.012710003298707306
256,0.25,0.001,0.01180779081583023,0.00881269121915102,16.784537933349608,0.011980398239364459,0.016109217307530344
257,0.25,0.001,0.011822177521884442,0.00887365224212408,16.52353546142578,0.011794100971752876,0.013577898615039885
258,0.25,0.001,0.01185274513065815,0.008832414217293262,16.925934936523436,0.012081324008938927,0.014369838172569871
259,0.25,0.001,0.011829040959477425,0.008806179448962212,16.940116790771484,0.012091446674355091,0.01092480996157974
260,0.25,0.001,0.011856091909110546,0.008843464963138103,16.882761756896972,0.012050508034901479,0.013167365221306682
261,0.25,0.001,0.01184442150592804,0.008829374246299267,16.89632475280762,0.012060188974166752,0.012173134833574295
262,0.25,0.001,0.011875727549195289,0.008861005321145058,16.894503662109376,0.012058889123561296,0.014730819151736796
263,0.25,0.001,0.01184131747484207,0.008819036848843097,16.936861099243163,0.012089122840287769,0.014469359768554568
264,0.25,0.001,0.011840690396726132,0.008834703870117665,16.84554949951172,0.012023946823348836,0.011857647099532187
265,0.25,0.001,0.011792545653879643,0.00878568559885025,16.850443870544435,0.01202744030731223,0.011500462656840682
266,0.25,0.001,0.011806850746273995,0.00881025318056345,16.79293292236328,0.011986390379988067,0.01396367372944951
267,0.25,0.001,0.011818182736635208,0.008815302267670631,16.8281416015625,0.012011521485769094,0.01161537563893944
268,0.25,0.001,0.01175001548230648,0.008772931560873986,16.683577980041505,0.011908335460415065,0.010430364171043038
269,0.25,0.001,0.01177665102481842,0.008793061263859273,16.72003677368164,0.011934358867724227,0.011696867528371513
270,0.25,0.001,0.011783066190779208,0.008862719021737575,16.3656255569458,0.011681388691610136,0.012878049165010452
271,0.25,0.001,0.011776897385716438,0.008695607267320157,17.267550811767578,0.012325161178991847,0.011172464117407799
272,0.25,0.001,0.011726529322564601,0.008770773552358151,16.564054718017577,0.011823022639555729,0.011213097372092307
273,0.25,0.001,0.011740250453352929,0.008725016094744206,16.89737289428711,0.012060937112267744,0.010780971904750913
274,0.25,0.001,0.011689094051718711,0.008735437102615833,16.552294677734373,0.011814628606519896,0.012425562832504511
275,0.25,0.001,0.011861551344394684,0.00882268863171339,17.02978746032715,0.012155451434923019,0.012790758162736893
276,0.25,0.001,0.011774574562907219,0.008770318433642387,16.835850425720214,0.012017023858472671,0.012481858138926327
277,0.25,0.001,0.011739028334617615,0.008734635882079601,16.836615020751953,0.012017569607959995,0.01185976027045399
278,0.25,0.001,0.011745042897760868,0.008772954896092415,16.655580520629883,0.011888351549343243,0.01128959539346397
279,0.25,0.001,0.01183200218528509,0.0088334733620286,16.803756683349608,0.011994116119450112,0.014355808380059898
280,0.25,0.001,0.011823290504515171,0.008797079339623452,16.95888639831543,0.012104843967391456,0.012346643721684813
281,0.25,0.001,0.011724106505513192,0.008706300333142281,16.91178643798828,0.012071225152025895,0.01138522895053029
282,0.25,0.001,0.01169686609506607,0.008724988251924515,16.654404174804686,0.011887511902073294,0.010857205605134368
283,0.25,0.001,0.011741683855652808,0.008777063384652138,16.613734039306642,0.011858482540547211,0.012109104078263044
284,0.25,0.001,0.011792293988168239,0.008788247749209404,16.834676025390625,0.012016185599850553,0.01227024313993752
285,0.25,0.001,0.011638667665421962,0.008667982146143914,16.647721420288086,0.011882741913124972,0.011522409738972783
286,0.25,0.001,0.011739958047866822,0.00873807468265295,16.822554107666015,0.012007533267427562,0.009439150569960475
287,0.25,0.001,0.011729398772120475,0.008690580449998379,17.029537475585936,0.012155273001845778,0.011212930898182094
288,0.25,0.001,0.011723649621009826,0.008780540753155947,16.493182250976563,0.011772435582424384,0.010008702869527042
289,0.25,0.001,0.01170765794068575,0.008732842240482569,16.670867416381835,0.01189926296672508,0.010979735990986228
290,0.25,0.001,0.011729304276406765,0.008739357247948647,16.755664108276367,0.011959788799626243,0.011480881716124713
291,0.25,0.001,0.011795393101871013,0.008768974624574185,16.96005015563965,0.012105674629293111,0.012880489113740623
292,0.25,0.001,0.0116935882717371,0.008676576919853688,16.90733155822754,0.012068045366329437,0.011066283914260566
293,0.25,0.001,0.011770320661365985,0.008766366861760617,16.83415769958496,0.012015815631395404,0.015584956854581833
294,0.25,0.001,0.011742164880037308,0.008736742459237576,16.842388244628907,0.012021690395880733,0.012722463114187121
295,0.25,0.001,0.011715200431644916,0.008775736905634404,16.472753799438475,0.01175785424656565,0.013386324048042297
296,0.25,0.001,0.011792193233966828,0.008751322627067565,17.041038345336915,0.012163482045208361,0.013186930445954204
297,0.25,0.001,0.011756200224161148,0.008738034941256046,16.913798400878907,0.012072661242597364,0.015984134341124445
298,0.25,0.001,0.011692602783441544,0.008651179634034634,17.044134307861327,0.012165691868566258,0.01149545586667955
299,0.25,0.001,0.011679159745573998,0.008761135295033456,16.35260934448242,0.01167209803317803,0.010685446730349213
300,0.25,0.001,0.011759736359119415,0.008685618780553342,17.227355575561525,0.012296470789123144,0.01045668008737266
301,0.25,0.001,0.011638344936072827,0.008660030253231525,16.690474609375,0.011913258108047822,0.01085961319040507
302,0.25,0.001,0.011693777337670326,0.008782587632536889,16.314306488037108,0.0116447583783277,0.01204602571669966
303,0.25,0.001,0.011722277708351611,0.008700051456689834,16.936555786132814,0.01208890491515547,0.013414336834102869
304,0.25,0.001,0.011673302173614501,0.008696228854358196,16.683518814086913,0.011908293229184092,0.011048433720134199
305,0.25,0.001,0.01166465227305889,0.00862428257614374,17.03823271179199,0.012161479451671658,0.010655552614480257
306,0.25,0.001,0.011678051702678204,0.008700895346701145,16.683984085083008,0.011908625328396151,0.010891276528127491
307,0.25,0.001,0.0116808727607131,0.008697032436728477,16.721441299438478,0.011935361384324395,0.012274144566617906
308,0.25,0.001,0.01165989178419113,0.008689703248441219,16.6449375,0.011880754817987152,0.011952829430811107
309,0.25,0.001,0.011637892380356788,0.008644847095012665,16.773026489257813,0.011972181648292514,0.012446899549104273
310,0.25,0.001,0.011627520225942135,0.008680599227547646,16.51454524230957,0.011787683970242376,0.010064129484817386
311,0.25,0.001,0.011647445239126683,0.008655681207776069,16.765845321655274,0.011967055904107975,0.01074963016435504
312,0.25,0.001,0.011706988848745823,0.00866938629001379,17.022725341796875,0.01215041066509413,0.011392930406145751
313,0.25,0.001,0.011745661124587059,0.008714054368436336,16.989124435424806,0.012126427148768599,0.010652138153091073
314,0.25,0.001,0.011649410754442214,0.008663917377591134,16.730704803466796,0.01194197345001199,0.0129282979760319
315,0.25,0.001,0.011695365026593208,0.008739827305078506,16.56283297729492,0.011822150590503155,0.012593662715516984
316,0.25,0.001,0.011684015832841396,0.008647691033780575,17.015563743591308,0.012145298889073024,0.011399625800549984
317,0.25,0.001,0.011699853956699372,0.008650250062346458,17.089981307983397,0.01219841635116588,0.011517071514390409
318,0.25,0.001,0.011634805977344512,0.008640175305306912,16.78190927886963,0.011978521969214583,0.011914229835383594
319,0.25,0.001,0.011667660005390644,0.008675518997013569,16.76795863342285,0.011968564335062706,0.012813700595870614
320,0.25,0.001,0.011642481543123723,0.008614054165780545,16.971307312011717,0.012113709715925566,0.012543204997200519
321,0.25,0.001,0.011679669745266437,0.008749291457235813,16.421840362548828,0.011721513463632283,0.011117811547592282
322,0.25,0.001,0.011643194124102592,0.008605434089899062,17.02360745239258,0.012151040294355873,0.010962832137010992
323,0.25,0.001,0.011626374527812004,0.008639894530177116,16.736234146118164,0.01194592016139769,0.010758922435343266
324,0.25,0.001,0.011623810008168221,0.008644237220287322,16.697525802612304,0.01191829107966617,0.011507833551149815
325,0.25,0.001,0.011650055848062038,0.008683689773082733,16.62351596069336,0.011865464640038088,0.012729953392408788
326,0.25,0.001,0.011605996236205101,0.008568384729325772,17.022775131225586,0.012150446203587142,0.009728904056828469
327,0.25,0.001,0.011645705044269561,0.008725828841328621,16.362986434936523,0.01167950494999038,0.013713494525291026
328,0.25,0.001,0.01168724287301302,0.00864648548513651,17.040404296875,0.012163029476713062,0.012375083053484559
329,0.25,0.001,0.011657837279140949,0.008656890511512756,16.817306243896486,0.012003787468876863,0.01224597985856235
330,0.25,0.001,0.01166128458827734,0.008730642847716808,16.423316802978515,0.011722567311190946,0.015072919544763863
331,0.25,0.001,0.011675301030278206,0.008557090364396572,17.474453582763672,0.012472843385270287,0.011511008720844984
332,0.25,0.001,0.01152099683880806,0.008571900717914105,16.526734474182128,0.011796384349880177,0.010392110329121351
333,0.25,0.001,0.011582676969468594,0.008680879890918732,16.261671310424806,0.011607188658404571,0.011089984094724059
334,0.25,0.001,0.011573273174464703,0.008551402166485787,16.934565185546877,0.01208748407248171,0.009772702935151756
335,0.25,0.001,0.011578874349594117,0.008633278027176857,16.50712191772461,0.011782385380245975,0.01066145475488156
336,0.25,0.001,0.011631356939673423,0.0086313848644495,16.811844207763674,0.011999888799260295,0.010604379931464791
337,0.25,0.001,0.011699150316417217,0.008733959451317786,16.61693034362793,0.011860763985458909,0.012757316930219531
338,0.25,0.001,0.011566965773701667,0.008584698423743249,16.71262648010254,0.011929069578945423,0.01054569985717535
339,0.25,0.001,0.011641764901578427,0.008645722307264805,16.78982332611084,0.011984170825204027,0.012864249758422375
340,0.25,0.001,0.011743565425276756,0.008706429593265057,17.020109313964845,0.012148543407540931,0.01801770448219031
341,0.25,0.001,0.011612691268324852,0.008663037985563279,16.529857330322265,0.011798613369252153,0.011486526345834136
342,0.25,0.001,0.011659283690154553,0.00861494892835617,17.060452865600585,0.012177339661385143,0.010334805585443974
343,0.25,0.001,0.011599008187651635,0.008601698070764541,16.796925247192384,0.01198924000513375,0.012177657568827271
344,0.25,0.001,0.011573384702205657,0.00863726482540369,16.454015991210937,0.01174447965111416,0.013005023472942412
345,0.25,0.001,0.011620522126555443,0.008603074967861175,16.909773208618166,0.012069788157471924,0.010594447609037161
346,0.25,0.001,0.011533165909349918,0.008544890124350786,16.746298370361327,0.011953103761856765,0.012235138681717217
347,0.25,0.001,0.011569890566170216,0.008645243495702743,16.389722579956054,0.011698588565279125,0.012206786894239485
348,0.25,0.001,0.011574388861656189,0.008629938282072544,16.50070152282715,0.011777802657264204,0.011971555300988257
349,0.25,0.001,0.011641268514096737,0.00859926975518465,17.047361419677735,0.01216799530312472,0.0121628912165761
350,0.25,0.001,0.011557942815124988,0.008604244042187929,16.55252749633789,0.011814794786822192,0.01265551254618913
351,0.25,0.001,0.011605672627687455,0.008537642296403646,17.193241104125978,0.01227212070244538,0.011593126924708486
352,0.25,0.001,0.011615822814404965,0.008660327423363924,16.56259684753418,0.011821982046776718,0.014308239566162229
353,0.25,0.001,0.011595559418201446,0.00858122343569994,16.892338790893554,0.012057343890716313,0.012587083620019257
354,0.25,0.001,0.011613671250641345,0.008603797502815723,16.867331985473633,0.012039494636312372,0.014705929555930197
355,0.25,0.001,0.011621218726038933,0.008665882166475057,16.56170724487305,0.01182134706985942,0.019243797520175576
356,0.25,0.001,0.011617581889033318,0.00862893943116069,16.748353210449217,0.011954570457137199,0.014989120536483824
357,0.25,0.001,0.011659514002501965,0.008581463389098645,17.2493953704834,0.01231220226301456,0.013143126270733774
358,0.25,0.001,0.01154192689806223,0.008570308640599251,16.65294938659668,0.011886473509348095,0.010112323565408587
359,0.25,0.001,0.011605089142918587,0.00859127825498581,16.88939646911621,0.012055243732416995,0.009963365795556456
360,0.25,0.001,0.011523027047514916,0.008548218451440335,16.670827224731447,0.01189923427889468,0.010302094276994467
361,0.25,0.001,0.011526507541537286,0.008609673283994198,16.3459404296875,0.011667337922689149,0.010922408080659807
362,0.25,0.001,0.01160047460347414,0.008619972363114356,16.702734420776366,0.011922008865650511,0.013828957336954772
363,0.25,0.001,0.011608109593391418,0.008649918615818025,16.577701934814453,0.01183276369365771,0.0157907132524997
364,0.25,0.001,0.01154600302875042,0.008507051154971123,17.03028614807129,0.012155807386203633,0.010650735115632415
365,0.25,0.001,0.011542224787175655,0.008589716248214245,16.54585675048828,0.01181003336937065,0.011882937513291836
366,0.25,0.001,0.011536748237907887,0.008583324320614339,16.55098844909668,0.01181369625203189,0.0106565086171031
367,0.25,0.001,0.011545515045523643,0.00856231363862753,16.717861221313477,0.011932806010930391,0.011786647839471698
368,0.25,0.001,0.01154483637213707,0.008547492027282715,16.79711865234375,0.011989378053064777,0.014730373746715486
369,0.25,0.001,0.011588084161281586,0.00860634472221136,16.709666885375977,0.011926957091631675,0.012112002586945891
370,0.25,0.001,0.01150408311188221,0.00848490622639656,16.919466934204102,0.012076707304927981,0.009254598175175488
371,0.25,0.001,0.011506072714924813,0.00851584256440401,16.757249267578125,0.01196092024809288,0.010536096524447203
372,0.25,0.001,0.011479232169687747,0.008548188544809819,16.425567764282228,0.011724173993063688,0.0105550471926108
373,0.25,0.001,0.011558944210410118,0.008555435106158256,16.831665130615235,0.012014036495799596,0.01311433978844434
374,0.25,0.001,0.011480431348085404,0.008539060100913048,16.4834453125,0.011765485590649535,0.011921281344257295
375,0.25,0.001,0.01153844741731882,0.00858846990019083,16.53167478942871,0.011799910627714997,0.011368103441782296
376,0.25,0.001,0.011552026949822903,0.008498896166682243,17.109745056152345,0.012212523237796107,0.010977376601658762
377,0.25,0.001,0.011464576810598374,0.008525577068328858,16.47015560913086,0.011755999721007038,0.009699261863715947
378,0.25,0.001,0.011447510898113251,0.008468015037477017,16.697094436645507,0.011917983181046045,0.011561449151486158
379,0.25,0.001,0.011499929301440715,0.008608434036374093,16.203939346313476,0.011565980975241596,0.011764434864744544
380,0.25,0.001,0.011425070129334927,0.00848069366812706,16.500285346984864,0.011777505600988482,0.010345194605179131
381,0.25,0.001,0.011507720306515694,0.00852677223458886,16.70523327636719,0.011923792488484788,0.010926984250545502
382,0.25,0.001,0.011479059495031833,0.008507887810468674,16.65044602203369,0.011884686668118266,0.01344634429551661
383,0.25,0.001,0.011533496022224426,0.008528593316674233,16.83947508239746,0.012019611050961785,0.012460546800866723
384,0.25,0.001,0.011531586736440658,0.00858480852842331,16.513745651245117,0.011787113241431203,0.013167017023079097
385,0.25,0.001,0.011492875896394254,0.008500339150428773,16.770175834655763,0.011970146919811395,0.014724119449965656
386,0.25,0.001,0.011607823923230171,0.008592316463589668,16.898903442382814,0.012062029580573029,0.012133428128436208
387,0.25,0.001,0.011515958681702614,0.00851980149000883,16.79046466064453,0.011984628594321579,0.01128570141736418
388,0.25,0.001,0.01159002085030079,0.008606609508395195,16.719037170410157,0.011933645375025094,0.012398125603795052
389,0.25,0.001,0.011531600937247276,0.008487736612558364,17.057816665649415,0.012175458005459968,0.012026933138258755
390,0.25,0.001,0.011542327903211117,0.008595166794955731,16.51589027404785,0.011788644021447432,0.011622775346040726
391,0.25,0.001,0.011471122846007348,0.008467282488942147,16.833521575927733,0.012015361581675755,0.009654395573306829
392,0.25,0.001,0.011485989809036255,0.008541956320405006,16.498364166259766,0.011776134308536593,0.010454431525431573
393,0.25,0.001,0.011519300252199173,0.008535222701728344,16.72277119445801,0.011936310631304788,0.01403742260299623
394,0.25,0.001,0.011514614969491958,0.008507533110678195,16.85168731689453,0.012028327849318008,0.0137698904145509
395,0.25,0.001,0.011521889679133892,0.00860259822010994,16.35970933532715,0.011677165835351284,0.01310207776259631
396,0.25,0.001,0.011623085118830204,0.008530647292733192,17.330020553588867,0.012369750573582345,0.010632634512148798
397,0.25,0.001,0.011481798559427261,0.008520395673811436,16.59570277404785,0.01184561225842102,0.010787800303660333
398,0.25,0.001,0.011486410081386567,0.008533573731780052,16.547695678710937,0.01181134595197069,0.011248554452322423
399,0.25,0.001,0.011412304885685443,0.008377540327608585,17.006821060180663,0.012139058572577204,0.01117232977412641
400,0.25,0.001,0.01155855318903923,0.008612177751958371,16.51148812866211,0.011785501876275594,0.011767699616029859
401,0.25,0.001,0.011573438681662083,0.008513308867812156,17.148967895507813,0.012240519554252543,0.010686344583518803
402,0.25,0.001,0.011505468755960464,0.008548445992171765,16.571155731201173,0.011828091171449803,0.013292088406160474
403,0.25,0.001,0.011482768893241882,0.008451640903949738,16.986441879272462,0.012124512404905398,0.013751116581261158
404,0.25,0.001,0.011533771321177482,0.008618851616978646,16.335210662841796,0.011659679273977014,0.013212876976467669
405,0.25,0.001,0.011507713750004768,0.008497967198491097,16.866619827270508,0.012038986314968242,0.010380105231888592
406,0.25,0.001,0.01154445794224739,0.008508213315159082,17.015113754272463,0.012144977697553506,0.010523843695409596
407,0.25,0.001,0.011428051248192787,0.008450453355908393,16.686458549499513,0.011910391541398653,0.00978448218666017
408,0.25,0.001,0.01153652498871088,0.008587082095444202,16.52867901611328,0.011797772316997345,0.012133575044572353
409,0.25,0.001,0.011489518910646439,0.008465324945747853,16.947583587646484,0.012096776293823329,0.010419677593745291
410,0.25,0.001,0.011458963058888912,0.008472880154848098,16.73400831604004,0.011944331417587465,0.012267194339074194
411,0.25,0.001,0.011475402057170868,0.008514010779559612,16.595636596679686,0.011845565022612196,0.014351870166137815
412,0.25,0.001,0.011443699039518833,0.008398392200469972,17.06589976501465,0.012181227526777052,0.014156984048895538
413,0.25,0.001,0.01155491503328085,0.00864036375284195,16.333146102905275,0.011658205640903122,0.013321639271453023
414,0.25,0.001,0.011479929983615876,0.008454532571136951,16.954327697753907,0.012101590076912139,0.013009147485718131
415,0.25,0.001,0.01148040185123682,0.00851869884133339,16.597383087158203,0.011846811625380588,0.011404113960452378
416,0.25,0.001,0.01143152540922165,0.008397856816649438,17.000679443359374,0.012134674834660509,0.012388561270199716
417,0.25,0.001,0.011467464298009872,0.008534721292555333,16.435091400146483,0.011730971734579931,0.010813144268468022
418,0.25,0.001,0.0115126860588789,0.008526604034006596,16.734003997802734,0.011944328335333857,0.013246806571260095
419,0.25,0.001,0.011442436292767524,0.008450346030294896,16.767674125671387,0.011968361260293638,0.010729195084422827
420,0.25,0.001,0.011542506366968155,0.00851356941461563,16.974162353515624,0.012115747575671394,0.012172202696092427
421,0.25,0.001,0.011459507882595062,0.008442001584917307,16.910104888916017,0.012070024902866535,0.011817866237834096
422,0.25,0.001,0.011462140046060085,0.008475127279758453,16.739220916748046,0.011948052046215593,0.013523201807402074
423,0.25,0.001,0.011498637154698371,0.00850229549407959,16.791499877929688,0.01198536750744446,0.013006402412429452
424,0.25,0.001,0.01153145219385624,0.008491661176085472,17.034988632202147,0.012159163905925871,0.015682071214541793
425,0.25,0.001,0.011546756841242314,0.008537785775959492,16.862275024414064,0.012035885099510396,0.014597483444958925
426,0.25,0.001,0.011484385535120965,0.008552274107933045,16.431552597045897,0.011728445822302567,0.018120333435945213
427,0.25,0.001,0.011479353308677673,0.008557474873960018,16.374206558227538,0.011687513603303026,0.01344331307336688
428,0.25,0.001,0.011499149769544602,0.00848040047287941,16.917072067260744,0.012074997906681473,0.012091644457541406
429,0.25,0.001,0.011488749369978905,0.00852678393572569,16.59885420227051,0.011847861671856181,0.014351017423905432
430,0.25,0.001,0.011449330978095532,0.008407373413443565,17.047131088256837,0.012167830898113375,0.010391069983597845
431,0.25,0.001,0.011424465321004391,0.008511876098811627,16.3221494140625,0.011650356469709137,0.011425159696955234
432,0.25,0.001,0.011515730991959572,0.008559182219207286,16.56850047302246,0.0118261959122216,0.014929442084394395
433,0.25,0.001,0.011479014612734317,0.008423200003802776,17.12478515625,0.012223258498394004,0.01231147174257785
434,0.25,0.001,0.011430661126971244,0.008446511045098306,16.723176879882814,0.0119366001997736,0.012750987894833088
435,0.25,0.001,0.011451306961476802,0.008480450205504895,16.648682357788086,0.011883427807129254,0.012406037538312376
436,0.25,0.001,0.011393874473869801,0.008445823639631271,16.52087747192383,0.01179220376297204,0.009567828848958015
437,0.25,0.001,0.011511107183992862,0.008558406993746758,16.546931945800782,0.011810800817844955,0.01289950916543603
438,0.25,0.001,0.011441629290580749,0.00842536936700344,16.903120986938475,0.012065039962125964,0.012359520886093378
439,0.25,0.001,0.011393838152289391,0.00842975240945816,16.61073695373535,0.011856343293172984,0.01248769392259419
440,0.25,0.001,0.011465886071324349,0.008518924906849861,16.514769348144533,0.01178784393158068,0.012080104788765311
441,0.25,0.001,0.011450867764651776,0.008476145252585412,16.670344467163087,0.011898889698189212,0.0124802429927513
442,0.25,0.001,0.011417796783149243,0.008432721771299839,16.7283600769043,0.01194029984075967,0.010480938712134957
443,0.25,0.001,0.011435763508081436,0.008477770619094372,16.576591567993162,0.011831971140608967,0.01317668182309717
444,0.25,0.001,0.011407728821039199,0.00843058680742979,16.683903213500976,0.011908567604211974,0.010725151281803846
445,0.25,0.001,0.01144866544008255,0.008462296023964882,16.73561407470703,0.011945477569384032,0.011965267360210419
446,0.25,0.001,0.011526817351579666,0.008549242801964283,16.686328720092774,0.01191029887230034,0.012647900963202119
447,0.25,0.001,0.011424364924430847,0.008461455136537552,16.60414649963379,0.01185163918603411,0.012705301051028073
448,0.25,0.001,0.0114066069573164,0.008416518166661262,16.756458938598634,0.0119603561303345,0.01164905703626573
449,0.25,0.001,0.011427566625177861,0.00848320770263672,16.500187896728516,0.011777436043346549,0.010393016622401774
450,0.25,0.001,0.011400491259992122,0.008429419890046119,16.64988293457031,0.011884284749871743,0.011658584582619369
451,0.25,0.001,0.011402117572724819,0.008397350668907165,16.8387138671875,0.012019067713909709,0.01581197965424508
452,0.25,0.001,0.011385939344763755,0.008451586849987506,16.444112411499024,0.01173741071484584,0.0145357915898785
453,0.25,0.001,0.01143496174365282,0.008432308234274388,16.826871673583984,0.012010615041815834,0.015379949007183313
454,0.25,0.001,0.011408079050481319,0.008455746255815029,16.54487321472168,0.011809331345268865,0.014396248501725495
455,0.25,0.001,0.011431934110820293,0.008466183699667455,16.620065948486328,0.011863002104558406,0.013274206896312535
456,0.25,0.001,0.011467124737799168,0.008431367084383964,17.012386016845703,0.012143030704386654,0.012836143374443054
457,0.25,0.001,0.011320826768875122,0.008356607533991338,16.611484268188477,0.011856876708200197,0.011464741313830018
458,0.25,0.001,0.011395452722907066,0.008449090871959926,16.5114119720459,0.01178544751752027,0.012549725826829672
459,0.25,0.001,0.01140008769184351,0.008409867778420448,16.75719267272949,0.011960879852055312,0.010524956742301583
460,0.25,0.001,0.011366550639271736,0.008431253284215926,16.449406356811522,0.011741189405290165,0.009783158544450998
461,0.25,0.001,0.011412855349481105,0.008467502258718014,16.505759155273438,0.011781412673285823,0.011349408770911396
462,0.25,0.001,0.01137483112514019,0.008396439410746097,16.690907913208008,0.011913567389870098,0.012951655895449221
463,0.25,0.001,0.011466034427285195,0.008478005774319172,16.744913238525392,0.011952115088169445,0.015302993939258158
464,0.25,0.001,0.011398927219212054,0.0083857327029109,16.885942031860353,0.01205277803844422,0.011918770615011454
465,0.25,0.001,0.011395754784345628,0.008414504170417786,16.706928741455076,0.011925002670560368,0.012195087387226522
466,0.25,0.001,0.011398901715874672,0.008430105749517679,16.63713282775879,0.011875184031233969,0.010357319028116763
467,0.25,0.001,0.011397088333964347,0.00838790152221918,16.863483543395997,0.012036747711203425,0.010760196950286627
468,0.25,0.001,0.011394640289247035,0.008418740645051003,16.676941314697267,0.011903598368806043,0.01247796241659671
469,0.25,0.001,0.011443462207913398,0.008435327515006065,16.857587127685548,0.012032538991924017,0.011642599711194634
470,0.25,0.001,0.01143439944833517,0.008499776370823383,16.445628265380858,0.011738492694775773,0.01345351489726454
471,0.25,0.001,0.011354255944490433,0.00832013438642025,17.003218154907227,0.012136486905715366,0.011912578833289444
472,0.25,0.001,0.011363571181893349,0.008425818987190723,16.463163436889648,0.011751008877151782,0.011787117109633982
473,0.25,0.001,0.01140109372138977,0.008431457437574863,16.641841842651367,0.011878545212456364,0.01162280497374013
474,0.25,0.001,0.011335212729871274,0.008369262792170047,16.621183029174805,0.011863799449803572,0.011030823108740151
475,0.25,0.001,0.011388719700276852,0.00844634547829628,16.48906523132324,0.011769496953121515,0.012220957200042903
476,0.25,0.001,0.011411915048956871,0.008326303377747537,17.291767791748047,0.01234244667505214,0.01069820998236537
477,0.25,0.001,0.011382925152778625,0.008452448792755604,16.422388763427733,0.011721904898949132,0.012884141062386334
478,0.25,0.001,0.01140610457956791,0.00839606898277998,16.868240325927733,0.012040142987814228,0.012003537965938449
479,0.25,0.001,0.011353181101381778,0.008412778243422509,16.478017929077147,0.011761611655301318,0.010065665119327605
480,0.25,0.001,0.01138477772474289,0.00840215826779604,16.714598739624023,0.011930477330209866,0.016682591987773776
481,0.25,0.001,0.011444671757519245,0.00847759098559618,16.62752067565918,0.01186832310896444,0.01386609731707722
482,0.25,0.001,0.01134946371614933,0.008360524833202362,16.750014251708983,0.011955756068314763,0.013283232459798455
483,0.25,0.001,0.011440034858882427,0.008455188482999802,16.727078201293946,0.01193938486887505,0.012397344689816236
484,0.25,0.001,0.011417798817157746,0.008386991903185844,16.9846416015625,0.012123227410108852,0.011446405434980989
485,0.25,0.001,0.011452399857342243,0.008497597366571427,16.558713607788086,0.011819210283931538,0.01084882440045476
486,0.25,0.001,0.011370196469128131,0.00830668766051531,17.167903228759766,0.012254035138301046,0.010962733766064048
487,0.25,0.001,0.011432054348289967,0.008456984035670757,16.672293991088868,0.011900281221333953,0.010055393446236849
488,0.25,0.001,0.011413516245782376,0.008378756612539291,17.00679440307617,0.012139039545379137,0.011246369918808341
489,0.25,0.001,0.011382620334625244,0.00839599697291851,16.737037933349608,0.011946493885331626,0.011623743339441717
490,0.25,0.001,0.011421598330140113,0.008424855820834637,16.7937452545166,0.011986970203081086,0.010966205620206892
491,0.25,0.001,0.011408500775694847,0.008377347312867642,16.986584350585936,0.012124614097491746,0.010629313008394092
492,0.25,0.001,0.0114353678971529,0.008495921298861503,16.472658866882323,0.011757786485997375,0.009910280816257
493,0.25,0.001,0.011369547478854656,0.008423035070300101,16.512256500244142,0.011786050321373406,0.012745260959491134
494,0.25,0.001,0.011433512277901172,0.008428063444793224,16.842536483764647,0.012021796205399463,0.012935278587974608
495,0.25,0.001,0.011428146935999393,0.008485694795846939,16.489501693725586,0.01176980848945438,0.01287328836042434
496,0.25,0.001,0.011400924935936928,0.008357377871870995,17.056038055419922,0.012174188476388239,0.010779949952848256
497,0.25,0.001,0.011406518928706645,0.008412002354860306,16.781270599365236,0.011978066095192887,0.012673129909671843
498,0.25,0.001,0.011395511575043201,0.00835530585795641,17.037314193725585,0.012160823835635678,0.013100426644086838
499,0.25,0.001,0.011343663707375527,0.008395563535392284,16.521153594970702,0.011792400852941257,0.014731418690644205
500,0.25,0.001,0.011381181642413139,0.008421472232788801,16.586211990356446,0.011838837965993181,0.014623953844420612
