epoch,beta,learning_rate,train_loss,train_reconstruction_loss,train_kl_unnormalized,train_kl_normalized,mean_unclipped_gradient_norm
1,0.0,0.001,0.08971514440839624,0.08971514440839624,149.50803263351662,0.10671522671914106,0.1923531424254179
2,0.02,0.001,0.06322918816747645,0.05018819048845195,913.5219753321128,0.6520499467038635,0.13018429465591908
3,0.04,0.001,0.05092514317194952,0.04506970636375513,205.086695836332,0.14638593564334904,0.1633261749520898
4,0.06,0.001,0.04134992910607374,0.03650017187683717,113.2418271345485,0.08082928417883548,0.11666835565119982
5,0.08,0.001,0.03813008761853913,0.03418049637018265,69.16720616095748,0.049369883055644166,0.07476477324962616
6,0.1,0.001,0.036853167934183785,0.03395901970363111,40.547020531895264,0.028941485033472707,0.05265201791189611
7,0.12,0.001,0.0351940619920639,0.03268270155644367,29.32013718320333,0.020928006554748985,0.042726352578029037
8,0.14,0.001,0.03340479654565236,0.031142656172242694,22.637558532905977,0.016158143135550303,0.05168056907132268
9,0.16,0.001,0.03093500569120578,0.02832151160795156,22.88440780400732,0.016334338189869606,0.04200713476166129
10,0.18,0.001,0.028051923171059076,0.024939921530962986,24.221745612476962,0.017288897653445368,0.0570251508615911
11,0.2,0.001,0.026405915170752428,0.02300392096329457,23.830968163954193,0.017009970138439825,0.08421186031773686
12,0.22,0.001,0.0254269837399863,0.021641030627650857,24.109639281270898,0.017208878858865736,0.09807056467980146
13,0.24,0.001,0.024932954133739055,0.0212861206693602,21.288389393083737,0.015195138753093317,0.12495449464768171
14,0.25,0.001,0.024120392923346393,0.020210545284514138,21.910786017495557,0.01563939044789119,0.13716931641101837
15,0.25,0.001,0.023584832170966522,0.019604581137944114,22.305327090938306,0.015921004347564816,0.13474064180627465
16,0.25,0.001,0.022652567898959607,0.01897157077329517,20.628308405706928,0.014723988869169827,0.07593153929337859
17,0.25,0.001,0.022141041051370863,0.01816891159061226,22.259813467993368,0.015888517821551297,0.05912581039592624
18,0.25,0.001,0.02203869146911237,0.018443641048663594,20.146662670286812,0.01438020176323113,0.07108450611121953
19,0.25,0.001,0.021796336004778837,0.018145953901967573,20.456740982597207,0.014601528181725344,0.07836699346080422
20,0.25,0.001,0.021608877573201204,0.018027072294084415,20.072434749882007,0.014327219664441119,0.04363316751550883
21,0.25,0.001,0.021533205786366055,0.01785302043567744,20.623758933240538,0.014720741565482183,0.05132598779164255
22,0.25,0.001,0.021270169314611433,0.017681273174839626,20.1121739723986,0.014355584562739901,0.09135637665167451
23,0.25,0.001,0.02084865428056249,0.017305940848489396,19.853367504844584,0.014170854750067512,0.07448015571571887
24,0.25,0.001,0.020261094324088545,0.016746306609136823,19.696871906830026,0.014059151967758763,0.04042943427339196
25,0.25,0.001,0.019732632369020786,0.01622919520530422,19.63326262233153,0.014013749195097451,0.08149999554734677
26,0.0,0.001,0.01475116083231251,0.01475116083231251,26.84607562740063,0.019162081104497238,0.08132996573112905
27,0.02,0.001,0.01339638851474123,0.012616535022637043,54.628743834684684,0.03899267939663432,0.044731455971486866
28,0.04,0.001,0.01385408808090306,0.011680886713255173,76.11637811521399,0.05433003434347894,0.045000517973676324
29,0.06,0.001,0.014395085081753627,0.011551890049775235,66.38860430150042,0.04738658408386897,0.03785517090000212
30,0.08,0.001,0.014459719138690475,0.011976622264746708,43.48523353783721,0.03103871059089023,0.040695783449336886
31,0.1,0.001,0.014640532451485418,0.0123717702656891,31.785356286672062,0.022687620475854434,0.04177234694361687
32,0.12,0.001,0.01497434964695156,0.012351876146127013,30.61737966437927,0.021853946941027318,0.05034784507006407
33,0.14,0.001,0.01537406189067752,0.012363283636363414,30.129290292058958,0.021505560522526022,0.03816566942259669
34,0.16,0.001,0.015527395527646537,0.012376013048584253,27.594293582414537,0.019696141029560698,0.02761471434496343
35,0.18,0.001,0.015674770360575338,0.012465159783999208,24.981466428720875,0.017831168043341096,0.02228324708994478
36,0.2,0.001,0.015862544837149176,0.012499778107633048,23.556182064940387,0.016813834450350028,0.029336660634726286
37,0.22,0.001,0.016312136032884953,0.012686893133940428,23.08620618529509,0.016478377005920836,0.027488211053423584
38,0.24,0.001,0.016394106169583155,0.012678542594368996,21.689603829433626,0.01548151593821101,0.051947048981674016
39,0.25,0.001,0.016543647247154677,0.012836869920765309,20.77277973947545,0.014827109021752641,0.05892503913491964
40,0.25,0.001,0.016373066877117985,0.012743813872321787,20.338334304554728,0.014517012351573681,0.055966200307011604
41,0.25,0.001,0.016283935305345533,0.012666149482924282,20.274071767086276,0.014471143302702553,0.04449741437565535
42,0.25,0.001,0.016105361741681687,0.01260234823640988,19.630889163883346,0.014012055077718305,0.05965579964686185
43,0.25,0.001,0.01615267550662191,0.012752836449596728,19.052698923799838,0.013599356833547351,0.07551515335217118
44,0.25,0.001,0.015892650440164174,0.012475081334485515,19.15205624606266,0.0136702756931211,0.054276726208627224
45,0.25,0.001,0.015679287726141217,0.012367816953015726,18.55748340630581,0.013245883944543761,0.03795484162401408
46,0.25,0.001,0.01580755461186233,0.012365184518234465,19.291040663430486,0.013769479417152381,0.05338655470404774
47,0.25,0.001,0.01565287319752767,0.012332977062102898,18.604698623147538,0.013279585027228792,0.03777221392374486
48,0.25,0.001,0.015379906805049403,0.011972982037835802,19.092406824386693,0.013627699375008346,0.061194505891762674
49,0.25,0.001,0.015408602572339811,0.012216186749754719,17.890299679590914,0.012769664296638767,0.057141985511407256
50,0.25,0.001,0.015325929677903279,0.012029775702209837,18.471645721562968,0.013184615076062075,0.055944479536265135
51,0.0,0.001,0.011405032151427298,0.011405032151427298,23.375622504439384,0.016684955392176577,0.049935319693759084
52,0.02,0.001,0.01099045281269294,0.010352498429802116,44.68869360205027,0.03189771135049984,0.05823484645225108
53,0.04,0.001,0.011436234343027023,0.00975982919879771,58.71609629270677,0.04191013297123967,0.033516719937324524
54,0.06,0.001,0.011903531019165645,0.009694993552326036,51.5693566754367,0.03680896265198908,0.030540157109498978
55,0.08,0.001,0.012063923420186208,0.010021646063782601,35.76538337994219,0.025528467794391288,0.015469536767341197
56,0.1,0.001,0.012322011413460983,0.010388041510089206,27.094919869695676,0.01933970012112468,0.018547052517533302
57,0.12,0.001,0.012690604413569844,0.010506830131537855,25.49556536266351,0.018198119459431485,0.026568729779683053
58,0.14,0.001,0.012910008323544126,0.010303173482511387,26.086968595150367,0.018620248818808256,0.02502728474792093
59,0.16,0.001,0.013130514149501577,0.010458143812940614,23.399941892365074,0.016702313984557512,0.021028007729910314
60,0.18,0.001,0.013445115848473566,0.010624297443458457,21.95536891403676,0.015671212643852076,0.021932281786575913
61,0.2,0.001,0.013721354819040955,0.010616159480695062,21.75189391755361,0.015525977100323775,0.025500248186290264
62,0.22,0.001,0.013990381065686088,0.01084962333231729,20.000916944913925,0.014276171980666613,0.03962900419719517
63,0.24,0.001,0.014166788349709705,0.010853903379781262,19.338967098323685,0.013803688150123972,0.019453695334959775
64,0.25,0.001,0.014401653241016173,0.010971221194013425,19.224142580291176,0.013721729179365578,0.03970250813290477
65,0.25,0.001,0.014351103151516525,0.011084388552665213,18.30666933079602,0.013066858908491092,0.04125562764238566
66,0.25,0.001,0.014254447718253961,0.01091083150458112,18.737625548137753,0.013374465059341723,0.02731435257010162
67,0.25,0.001,0.014133055400811058,0.010858127209581512,18.35269835597538,0.01309971331618514,0.0168306966079399
68,0.25,0.001,0.014122622750606193,0.010943430569217325,17.81619292559853,0.012716768683510727,0.046378957107663155
69,0.25,0.001,0.014040488166450708,0.010783467762607747,18.252342490910987,0.013028081720850097,0.019692127010785043
70,0.25,0.001,0.013944705007189499,0.010720174541864117,18.070268396047062,0.012898121624587483,0.029557005153037608
71,0.25,0.001,0.013900957608863805,0.010732475604029812,17.756173179642392,0.012673928036861093,0.040005152113735676
72,0.25,0.001,0.013920558530969511,0.01070460554461203,18.02220070586075,0.01286381206699554,0.04769682278856635
73,0.25,0.001,0.013944590048152869,0.010778431327613013,17.74315453770265,0.012664635644327373,0.049127545207738876
74,0.25,0.001,0.013851660916227887,0.01079286650282045,17.141483585620474,0.01223517743441861,0.01893330132588744
75,0.25,0.001,0.013875149227367687,0.0105565341426709,18.597518721801503,0.013274460186867596,0.02853133692406118
76,0.0,0.001,0.010137539998567925,0.010137539998567925,21.964807824949133,0.015677949910741708,0.036833795718848705
77,0.02,0.001,0.00984494376048788,0.009252642703267876,41.49069212274412,0.02961505504835412,0.047717010136693716
78,0.04,0.001,0.010284931638077803,0.008792221581170604,52.282174510597436,0.037317754825551344,0.017148099723272026
79,0.06,0.001,0.010678713863213899,0.008801818844747568,43.82549873622823,0.03128158368039131,0.01115484070032835
80,0.08,0.001,0.010802075194898751,0.009078361047334612,30.18654305252999,0.021546426161691643,0.01829538820311427
81,0.1,0.001,0.011142461570388092,0.009357375296956563,25.009057094757143,0.017850861595115734,0.0220682272920385
82,0.12,0.001,0.011428348088174249,0.009305628720429844,24.782747646960935,0.01768932737113557,0.013421661918982863
83,0.14,0.001,0.011799288851389806,0.00941114777617452,23.89846888564076,0.017058150525082628,0.0218687083106488
84,0.16,0.001,0.01213559609622012,0.009611871509593065,22.098364409922556,0.015773279378959712,0.024600912001915276
85,0.18,0.001,0.012331913915581395,0.009583424282938803,21.392409844288995,0.015269386041605278,0.01678951201029122
86,0.2,0.001,0.01265386392465464,0.009735644419749495,20.442127458735648,0.014591097400953353,0.04117300547659397
87,0.22,0.001,0.012917854706513732,0.009954414447081238,18.87172761092853,0.013470183876465761,0.032532859477214515
88,0.24,0.001,0.013245340699178317,0.00997952573460241,19.06419515111999,0.013607562563254811,0.03543306572828442
89,0.25,0.001,0.013208098172954826,0.009988466073566413,18.042819224220228,0.012878529067965902,0.02812783361878246
90,0.25,0.001,0.01315757810353984,0.01004574599331692,17.438707180461208,0.01244732846571107,0.022465258603915572
91,0.25,0.001,0.013191806928241054,0.009992905291641182,17.926645398388825,0.01279560699385355,0.015121492673642933
92,0.25,0.001,0.01309243753350229,0.0100038166747026,17.308631685929907,0.01235448371586717,0.023543085786513984
93,0.25,0.001,0.013098131550285413,0.009949049523531893,17.647456601168766,0.012596328766001974,0.028882572194561362
94,0.25,0.001,0.013167669741915139,0.010014993640242265,17.66759663782936,0.012610704238279343,0.04202228435315192
95,0.25,0.001,0.013074676576216311,0.009906270216551603,17.75574955711285,0.012673625665319665,0.025791822758037597
96,0.25,0.001,0.01311871328533069,0.0100463824813295,17.217341393170127,0.012289322907330568,0.018251775996759534
97,0.25,0.001,0.013019808702217512,0.009839580505153083,17.821998771396707,0.012720912756171812,0.022286148509010673
98,0.25,0.001,0.01321050558153672,0.010011562836475064,17.92687650612849,0.012795771952982506,0.026320698321796954
99,0.25,0.001,0.012972197382631157,0.009831412211216068,17.600960586165584,0.012563141032238104,0.02757270319852978
100,0.25,0.001,0.012876182866510245,0.009794889435965359,17.26756835730439,0.012325173702572727,0.02905443322379142
101,0.25,0.001,0.01292757029277671,0.009793512231528386,17.56326153382877,0.012536232358193268,0.023277780506759882
102,0.25,0.001,0.012828963546234032,0.009792705949217018,17.015186843394236,0.012145029866805308,0.01683619659161195
103,0.25,0.001,0.012861099051377719,0.00978184482841004,17.256140121587382,0.012317016503631251,0.015266475034877658
104,0.25,0.001,0.01288784218909285,0.009739193637585093,17.645026475751077,0.012594594201107121,0.01956249086651951
105,0.25,0.001,0.0127762378269266,0.009763731374278944,16.882086272030634,0.012050025890100381,0.02633365785004571
106,0.25,0.001,0.012868343525816976,0.009775584621942118,17.33182193939273,0.012371036359309586,0.03191352728754282
107,0.25,0.001,0.012954339200323583,0.009906653075679235,17.079232978422606,0.01219074445283555,0.044456910458393395
108,0.25,0.001,0.012879996093880533,0.009833556053565042,17.07224941452759,0.012185759753410129,0.03816106845624745
109,0.25,0.001,0.012727709310148728,0.009707176486236318,16.92706667555648,0.0120821318169568,0.022884556325152516
110,0.25,0.001,0.01275065838357352,0.009687721715668422,17.16469703387617,0.012251746633744589,0.020250870380550623
111,0.25,0.001,0.012814657325177824,0.009741989946253365,17.21922885600112,0.012290670132763111,0.0345091070048511
112,0.25,0.001,0.01285687045997207,0.009814277310740973,17.05069290670821,0.01217037323819287,0.033876024186611176
113,0.25,0.001,0.012812553358600633,0.009683057477227208,17.537694931030273,0.012517983533925962,0.01945779554080218
114,0.25,0.001,0.012672369222551397,0.009622674666749535,17.09048862098901,0.012198778458950043,0.01766758190933615
115,0.25,0.001,0.01272962361745272,0.00970448458874462,16.95287856976025,0.012100555724311386,0.03002209321130067
116,0.25,0.001,0.012690988783423238,0.00967042065869107,16.92726391292564,0.012082272600232433,0.02788883587345481
117,0.25,0.001,0.012690138279816179,0.00972497494529645,16.616774799928287,0.011860652962118691,0.04175936640240252
118,0.25,0.001,0.012729274410373359,0.009721826001737337,16.85374219332956,0.012029794570542155,0.026841828832402825
119,0.25,0.001,0.01249848784478323,0.009471141068276508,16.96525202613783,0.012109387598956339,0.025683672749437392
120,0.25,0.001,0.012540064252415255,0.009565408100492646,16.669974199665365,0.011898625410182273,0.02526750904507935
121,0.25,0.001,0.01246333816565091,0.00945154556884024,16.87808535342923,0.01204717013092736,0.02098590275272727
122,0.25,0.001,0.012548308090417643,0.009545166473174643,16.829606340921995,0.012012566981386148,0.03052258095704019
123,0.25,0.001,0.012479112458285061,0.00944966333286374,16.977033165153234,0.012117796691758198,0.027589187026023865
124,0.25,0.001,0.012424067294687842,0.00942707790687898,16.795128696895592,0.011987957670874797,0.02039411966688931
125,0.25,0.001,0.012537341547394968,0.009543004715990174,16.780264028178873,0.01197734762896422,0.02701381966471672
126,0.25,0.001,0.012617720431008518,0.009607069316808142,16.87168926485894,0.012042604757215518,0.04457117151468992
127,0.25,0.001,0.012476759231678503,0.009514501969678044,16.6004894372068,0.01184902886310264,0.032294950913637877
128,0.25,0.001,0.012483065197388165,0.009529340603935196,16.55267368229048,0.011814899130828322,0.036688123480416834
129,0.25,0.001,0.01244261359605386,0.009427750642588342,16.8952919436397,0.012059451779899859,0.0321052276995033
130,0.25,0.001,0.0124237384075505,0.009470215253920795,16.551543193968453,0.011814092215537796,0.0199116492876783
131,0.25,0.001,0.012357633343133648,0.009420344129686937,16.460569051212957,0.011749157067246935,0.024501942447386682
132,0.25,0.001,0.012384609014013614,0.009403533074763722,16.705948986937457,0.011924303345422882,0.023821467300876975
133,0.25,0.001,0.012398488199365537,0.00939607017698828,16.825551194288536,0.012009672515552131,0.0135486003709957
134,0.25,0.001,0.012318099283133021,0.009319576285079526,16.803722576706793,0.011994091774951315,0.015071597066707909
135,0.25,0.001,0.012310199083717607,0.009353452243517486,16.569609890899976,0.011826987787937171,0.02547260106075555
136,0.25,0.001,0.012291406500999016,0.009325677904228452,16.619943395785846,0.011862914629397463,0.025421765283681452
137,0.25,0.001,0.012240121430777682,0.009268345830413768,16.65383094835381,0.011887102746862107,0.023842368740588427
138,0.25,0.001,0.012286949154215092,0.009330762320806686,16.566471223293615,0.011824747482722065,0.017670275294221938
139,0.25,0.001,0.012289760949280665,0.00931067489445334,16.694797774695157,0.011916343879154289,0.0286415129667148
140,0.25,0.001,0.012237057929745795,0.009205599434067162,16.988293044502402,0.012125833721986012,0.0182250119978562
141,0.25,0.001,0.012187996054834265,0.009231524935696032,16.56806446863863,0.0118258847028113,0.0157089673448354
142,0.25,0.001,0.012195034716706061,0.009190306438829182,16.838496640231266,0.012018912662549083,0.028143027680926025
143,0.25,0.001,0.012145873907727962,0.00922026393627884,16.39511803246739,0.011702439709113055,0.018292246502824128
144,0.25,0.001,0.012289189476916462,0.00934723938867792,16.486688785114964,0.011767800703151294,0.028963907388970256
145,0.25,0.001,0.01223535264700278,0.009267485006430452,16.631930253699828,0.011871470559386029,0.029654864105395973
146,0.25,0.001,0.01227250353225151,0.009366774678790246,16.283704676060687,0.011622915543226756,0.03547846945002675
147,0.25,0.001,0.012304702064018532,0.0092965226196577,16.857837708857463,0.012032717850719103,0.04968879988882691
148,0.25,0.001,0.012213036441292792,0.00929845696109073,16.33330387362359,0.011658318253835539,0.02779982448555529
149,0.25,0.001,0.012078706727271786,0.009123926577867944,16.558587506320134,0.011819120275745991,0.01565812004264444
150,0.25,0.001,0.012066420397112664,0.009152444009523301,16.329923868677064,0.011655905687849438,0.013884460844565183
151,0.25,0.001,0.012039323790399415,0.009024782199607015,16.893491386620635,0.012058166585739211,0.014711550204083323
152,0.25,0.001,0.012063238369242632,0.009140462562099627,16.379235854975118,0.011691103393986522,0.017293285578489304
153,0.25,0.001,0.012170360814430022,0.009184237550127481,16.73423480390258,0.011944493079159587,0.03666741237975657
154,0.25,0.001,0.012218527970271717,0.009248461208786496,16.644254122994887,0.0118802670399678,0.041444597649388015
155,0.25,0.001,0.012196914568963404,0.009221093655254746,16.67649995409621,0.01190328333625711,0.025218970142304897
156,0.25,0.001,0.012130385556400195,0.009223213806235094,16.291791342494385,0.011628687610631253,0.022583473473787308
157,0.25,0.001,0.012111741357282706,0.009156340013777289,16.562069604192747,0.011821605713199677,0.03606677788775414
158,0.25,0.001,0.012180629969887544,0.00916388846198894,16.905819397131935,0.012066966022221225,0.03760562639217824
159,0.25,0.001,0.012258904647774264,0.009363841498756707,16.22393300687595,0.011580251967791541,0.053365628933534026
160,0.25,0.001,0.01214090077350371,0.009188801357386506,16.543566550491747,0.011808398679865629,0.03979033778887242
161,0.25,0.001,0.01207242943229842,0.00913484651004285,16.462215698337754,0.011750332404238225,0.02820309530943632
162,0.25,0.001,0.012101761160694483,0.009137743551260744,16.610355329414002,0.01185607089893933,0.025824814336374402
163,0.25,0.001,0.012033544428304366,0.009086886381959865,16.51307068388746,0.011786631466015317,0.015192057937383652
164,0.25,0.001,0.011931674356624827,0.009002041250529518,16.417664099834656,0.011718532548061853,0.02085759863257408
165,0.25,0.001,0.011971130811595718,0.008983895845617904,16.740463949693268,0.011948939293142946,0.02674919948913157
166,0.25,0.001,0.011963546643566364,0.009085814672714734,16.12681037647988,0.011510928177358944,0.01688076532445848
167,0.25,0.001,0.011922069502477232,0.00900739435075407,16.333839629537625,0.011658700663481531,0.021338234131690115
168,0.25,0.001,0.01190388212972058,0.008981511996191828,16.37696224762154,0.011689480547909737,0.02346165233757347
169,0.25,0.001,0.011960001082970354,0.009094679244018173,16.057263336500196,0.011461287178087221,0.017797041800804436
170,0.25,0.001,0.011910682579109714,0.008926976472139359,16.720689785505385,0.011934824971809697,0.015246037859469652
171,0.25,0.001,0.011909592706157917,0.008952890923305071,16.569356078145898,0.0118268066225167,0.01461897708941251
172,0.25,0.001,0.011906228306273577,0.00901872144782593,16.18158968405833,0.011550028325523433,0.0135887220967561
173,0.25,0.001,0.011868001368200107,0.008942148685144233,16.396478234850537,0.011703410588758413,0.017381650279276073
174,0.25,0.001,0.011908468362605024,0.00896948884146012,16.47004274435979,0.011755919160856382,0.016682395711541176
175,0.25,0.001,0.011918226103366417,0.008991664983254384,16.40044940637895,0.011706245115188401,0.019550475757569075
176,0.25,0.001,0.011910184580124992,0.00898111432922969,16.414509986288113,0.01171628121790729,0.021282191621139646
177,0.25,0.001,0.011949883315066703,0.009006877087585487,16.492607315796153,0.01177202520756328,0.021748504717834294
178,0.25,0.001,0.01188210813456948,0.008989584234607308,16.209704078562822,0.011570095702043414,0.020168784423731267
179,0.25,0.001,0.011822698490075875,0.008869777243032211,16.548170963757222,0.01181168519897018,0.02100428845733404
180,0.25,0.001,0.011762854942589189,0.008884446722667251,16.13059927078279,0.011513632598702918,0.016669400851242244
181,0.25,0.001,0.011833927500798582,0.00895402109783166,16.13899499339699,0.011519625262952886,0.015019662911072373
182,0.25,0.001,0.01186942804161467,0.008923027479713918,16.51162772686347,0.011785601518103832,0.017508359160274267
183,0.25,0.001,0.011925078080753194,0.009067295154163883,16.015015789262936,0.011431131898117727,0.023287163814529777
184,0.25,0.001,0.01183632082677211,0.008910244898501169,16.397729606867333,0.01170430378791387,0.02420465333852917
185,0.25,0.001,0.011862279092873561,0.008933153847283012,16.414818140559504,0.011716501170991794,0.02548392361495644
186,0.25,0.001,0.011929731547739162,0.008968496568780975,16.59476204953761,0.011844940791961179,0.021405137958936393
187,0.25,0.001,0.01183943047007402,0.008877619935709026,16.597986659326732,0.011847242440632929,0.01711358840111643
188,0.25,0.001,0.011781410057494312,0.008863924367699406,16.349589409559407,0.0116699424764878,0.015104449877981097
189,0.25,0.001,0.011784222305583182,0.008827464277846331,16.569671965342224,0.011827032095176462,0.02069543767720461
190,0.25,0.001,0.011820210097260416,0.00895002715888439,16.084505578919096,0.011480732033489718,0.017051573609933257
191,0.25,0.001,0.011828245653426722,0.008858893997967243,16.640246421160928,0.011877406439087029,0.030279587721452117
192,0.25,0.001,0.011872470577194944,0.008984282332820535,16.185407186599765,0.011552753166737876,0.03255556715885177
193,0.25,0.001,0.011914761542558421,0.008923440656405027,16.763362723252968,0.011965283885262646,0.0335214976221323
194,0.25,0.001,0.011838118810136657,0.008994022584549444,15.938315455251546,0.011376385050143859,0.03089953598100692
195,0.25,0.001,0.01191496438422631,0.008949941588032967,16.615987395443845,0.011860090931794322,0.03305553714744747
196,0.25,0.001,0.01189442503505186,0.008995888087828498,16.243400310922514,0.011594147259759111,0.03468832257203758
197,0.25,0.001,0.011826694071961718,0.008888110250141277,16.46782349445128,0.011754335113812478,0.022354488726705313
198,0.25,0.001,0.011706780766706625,0.008741739015474075,16.616093677369438,0.011860166793268692,0.017563701490871608
199,0.25,0.001,0.011741374045734863,0.008836689111553055,16.277854708390844,0.011618739977438147,0.014512448571622372
200,0.25,0.001,0.011758514658580991,0.00879862482439812,16.587223266012234,0.011839559790158626,0.016804704442620277
201,0.25,0.001,0.011686534943576273,0.008768775797835969,16.351123909362922,0.011671037765426783,0.014952169149182737
202,0.25,0.001,0.011678708145601019,0.008719141002052263,16.585414731179,0.011838268901626696,0.019419779302552342
203,0.25,0.001,0.011710930203470657,0.00880179479951525,16.302794916395854,0.011636541696214028,0.021040484425611794
204,0.25,0.001,0.011688198845654663,0.008765412836738071,16.37929292412043,0.011691144128565619,0.014202777529135346
205,0.25,0.001,0.011679353095233316,0.008708137124465751,16.65069364655242,0.011884863416525638,0.014852806110866368
206,0.25,0.001,0.011800085009699823,0.008927622522248853,16.097280753181472,0.011489850644669146,0.03164078760892153
207,0.25,0.001,0.011761947867454716,0.008778900242486428,16.716998902641407,0.011932190508666243,0.023064591106958687
208,0.25,0.001,0.011769355428337056,0.008875265190599483,16.21848208521005,0.01157636123141331,0.027205412392504513
209,0.25,0.001,0.011748624234489458,0.00875373325059832,16.783369167861462,0.011979564002756219,0.01990824064705521
210,0.25,0.001,0.011752139100326625,0.008854904941172342,16.236101433230342,0.01158893749695242,0.024267051718197763
211,0.25,0.001,0.011691920023745934,0.008736158017310196,16.564090314638143,0.0118230480475647,0.01835281599778682
212,0.25,0.001,0.011695313870144662,0.008805653893064109,16.193653835384232,0.011558639425684678,0.024503824999555945
213,0.25,0.001,0.011648631625515184,0.008694223592948316,16.556502479601004,0.011817632033976448,0.01539735565893352
214,0.25,0.001,0.01164555815602643,0.008734773257300103,16.312038517197387,0.01164313955545852,0.022547200205735862
215,0.25,0.001,0.01163842482589543,0.008784480840123272,15.99350223660718,0.011415776043259943,0.022208618465811014
216,0.25,0.001,0.011708906771992343,0.008836548115342607,16.096698072110936,0.01148943474097854,0.02161966252606362
217,0.25,0.001,0.011750716358298798,0.008780655571665918,16.64422150693507,0.011880243759411185,0.022833876544609666
218,0.25,0.001,0.011746681697806636,0.008751548187017814,16.78472711248537,0.011980533270867502,0.03311757417395711
219,0.25,0.001,0.011723929483420168,0.008882101922682904,15.925600967725781,0.01136730975569292,0.015502094058319926
220,0.25,0.001,0.011728574072704933,0.008803625297509056,16.391412691184026,0.011699794925898663,0.028169121127575636
221,0.25,0.001,0.011648800449605277,0.008754889694643294,16.217475246039214,0.011575642573903793,0.02132081752642989
222,0.25,0.001,0.011599649002460572,0.008738396677629932,16.034458202210747,0.011445009423419519,0.02720292389858514
223,0.25,0.001,0.011655366584845277,0.008739375729028267,16.341213787771714,0.011663964159722852,0.02447771863080561
224,0.25,0.001,0.011719961112096812,0.008797775164619865,16.375930192823947,0.011688743892094181,0.014327722834423184
225,0.25,0.001,0.011708910192026599,0.008824852032738587,16.162262177915313,0.011536232817926704,0.02977688331156969
226,0.25,0.001,0.01164628141258293,0.008812539314458415,15.88029147886782,0.011334968935665823,0.03149929956998676
227,0.25,0.001,0.011618261929360336,0.008593320874750053,16.951770125450818,0.012099764543505222,0.02448967390228063
228,0.25,0.001,0.011734310070943235,0.00891353429094859,15.807627640089063,0.011283103240606041,0.02546461415477097
229,0.25,0.001,0.011693043914275527,0.00872840519045676,16.613835468172777,0.011858554938024823,0.02183549921028316
230,0.25,0.001,0.011590313710785609,0.008675549647893313,16.334338042830623,0.01165905641886554,0.019709235639311373
231,0.25,0.001,0.011587218542841879,0.008664619599494282,16.37824543931041,0.011690396459179452,0.027302151662297547
232,0.25,0.001,0.011653065096221413,0.008728850685402223,16.387296664689927,0.011696857005488885,0.030270320479758084
233,0.25,0.001,0.011625803163224572,0.008700050553598583,16.395917139869642,0.011703010092697818,0.031463153194636106
234,0.25,0.001,0.011585454584832356,0.008644620425190333,16.480434119079206,0.011763336273432696,0.020732689066790044
235,0.25,0.001,0.011576416836137688,0.008695309001773533,16.14572855923519,0.01152443151979671,0.016571827698498964
236,0.25,0.001,0.01151759228192752,0.008568103263827356,16.528936340316104,0.011797955988805214,0.02052336814813316
237,0.25,0.001,0.011569029046903075,0.00870901468309082,16.027520183730473,0.01144005723321233,0.019887254806235433
238,0.25,0.001,0.011558248010115981,0.008562188478875011,16.78991714748311,0.011984237792636052,0.014256497961468995
239,0.25,0.001,0.011594535598224164,0.008683889056312889,16.311264042067876,0.011642586753795772,0.01823123951908201
240,0.25,0.001,0.011563445538640147,0.008640670782394536,16.379229631204943,0.011691098951609524,0.02386235527228564
241,0.25,0.001,0.011570914856514005,0.008657245684827295,16.328202150062133,0.011654676766639638,0.022580142598599195
242,0.25,0.001,0.011626518164257789,0.00863702481103155,16.753121244633622,0.011957973764906225,0.03226282284595072
243,0.25,0.001,0.011662064192112777,0.008799947650484849,16.039300894687468,0.011448466020476422,0.03821112681180239
244,0.25,0.001,0.011701403387933035,0.008811294490039846,16.196169839273665,0.011560435288560789,0.039089931873604655
245,0.25,0.001,0.011616282806671487,0.008692345535285414,16.38574499078484,0.011695749458090536,0.0353408606024459
246,0.25,0.001,0.011626190150113843,0.008672905796147214,16.550206039046444,0.011813137786614164,0.028264119289815426
247,0.25,0.001,0.011572150509641166,0.008701271209321402,16.088408034131522,0.01148351751187118,0.027606249321252108
248,0.25,0.001,0.011640861883199538,0.00870058998185558,16.477284174622476,0.011761087919073859,0.022911789594218135
249,0.25,0.001,0.011554899600204198,0.008637419623752477,16.349557844731404,0.011669919946275092,0.01788327330723405
250,0.25,0.001,0.011531629004673196,0.008566511003592193,16.616522352979178,0.011860472771576858,0.019802949740551412
251,0.25,0.001,0.011490268230298242,0.008649064441812312,15.92210578918457,0.01136481498157357,0.026667075813747942
252,0.25,0.001,0.011466011867735978,0.008561920152980998,16.27452974777381,0.011616366700766458,0.020104527822695673
253,0.25,0.001,0.011463769542399428,0.00861980950378177,15.937552927929076,0.011375840776537527,0.01815160270780325
254,0.25,0.001,0.011488813484993633,0.008576768868464767,16.31909715258254,0.011648177839102455,0.02443268650677055
255,0.25,0.001,0.011583864121135939,0.008693073547614392,16.199990322296205,0.01156316225717074,0.03982407017610967
256,0.25,0.001,0.011487803783555494,0.008508324037871804,16.697005385396874,0.011917919618413186,0.02771696588024497
257,0.25,0.001,0.011543428544771696,0.00867633817285797,16.067175238017995,0.011468362054259811,0.020238716970197856
258,0.25,0.001,0.011571520157858325,0.008554220703160215,16.90894700689455,0.01206919843461424,0.022017953917384148
259,0.25,0.001,0.01146607866048004,0.00861772749425225,15.962160038798736,0.011393404738614372,0.016309329657815397
260,0.25,0.001,0.011400858838585572,0.008512116157856141,16.188513606475638,0.011554970454300956,0.015505620220210403
261,0.25,0.001,0.011477450433815197,0.00857661328704285,16.25629108882896,0.011603348386030663,0.017704449885059148
262,0.25,0.001,0.011492246487770922,0.008603498429091092,16.188544207674475,0.011554992296698412,0.015097943716682494
263,0.25,0.001,0.011574406441231113,0.008651762043897816,16.37849840789349,0.011690577022051027,0.013298136531375349
264,0.25,0.001,0.011497957377241524,0.008531858818897188,16.62201569622892,0.011864393787458188,0.014073614729568362
265,0.25,0.001,0.01142560850657787,0.008510976497060571,16.33359848731246,0.011658528541978916,0.01570028334390372
266,0.25,0.001,0.011491114553647399,0.008576374992899332,16.334201040248036,0.011658958629727363,0.023454005946405232
267,0.25,0.001,0.011495924581985508,0.008578471557503577,16.349406608708964,0.011669811997650938,0.026824851636774838
268,0.25,0.001,0.011590407517717253,0.008709473187387736,16.144756914429475,0.011523737983175929,0.03525595075916499
269,0.25,0.001,0.01151924537560885,0.008584799536645786,16.44463484570975,0.011737783615781407,0.02283557504415512
270,0.25,0.001,0.011527120789011362,0.008627151611546882,16.251427943124153,0.011599877189953,0.014678683714009821
271,0.25,0.001,0.01146985906213211,0.008533928621101479,16.452954780084852,0.01174372218421474,0.01387889008037746
272,0.25,0.001,0.011371286521764912,0.008450257517047428,16.369446147209917,0.011684115736766537,0.01252775453031063
273,0.25,0.001,0.011488979487895717,0.008541416048241433,16.518145865836573,0.01179025400844866,0.016305575496517122
274,0.25,0.001,0.011455510379377138,0.008532924093461609,16.378174417451927,0.011690345765490311,0.015435432665981352
275,0.25,0.001,0.011415527486057645,0.008573056232681914,15.929208488703273,0.011369884717132957,0.015111263608559966
276,0.25,0.001,0.01132717146684021,0.008389001128911226,16.465507125058103,0.011752681745223486,0.013956503244116902
277,0.25,0.001,0.011335458069853095,0.008531793419248377,15.711737973207223,0.011214659509783885,0.013927305350080132
278,0.25,0.001,0.011461330266642172,0.008433123597474711,16.970069427330955,0.012112826143705178,0.017156461952254176
279,0.25,0.001,0.011398835465436439,0.008530128745280502,16.07623196245484,0.011474826525663699,0.014091567951254547
280,0.25,0.001,0.011358204960729732,0.008491241233131707,16.066464557528246,0.011467854787671839,0.014240452437661588
281,0.25,0.001,0.011356954859464675,0.008468183231907497,16.18867608948391,0.011555086430752254,0.015884973108768463
282,0.25,0.001,0.011389035004383588,0.00847799810998935,16.313451022345237,0.011644147767555487,0.014036142034456134
283,0.25,0.001,0.011362768801041959,0.008521374686385868,15.923172395264181,0.011365576299260658,0.01691969984676689
284,0.25,0.001,0.011353503562712221,0.008431205788475612,16.376556643364573,0.011689191037376569,0.012452377821318805
285,0.25,0.001,0.011393088639358015,0.008481108387135016,16.318738375924575,0.01164792175297971,0.015444055665284395
286,0.25,0.001,0.01138237107638464,0.008539605244123115,15.930859515960629,0.011371063180557193,0.019231251790188253
287,0.25,0.001,0.011430584580592795,0.008545455915585067,16.168260705744796,0.011540514422373159,0.026451707119122148
288,0.25,0.001,0.011416679108223736,0.008432556911991882,16.72302088010784,0.011936488850897814,0.016645277151837945
289,0.25,0.001,0.011363666839042138,0.008451383829210148,16.320434136281182,0.01164913214581098,0.016262404271401465
290,0.25,0.001,0.011376689090967054,0.008516871848674433,16.02641635448798,0.011439269346529609,0.014370108023285866
291,0.25,0.001,0.011371892882756002,0.008465401822456115,16.28797609572122,0.011625964379529778,0.016074263490736485
292,0.25,0.001,0.011387040935814505,0.008453813465098249,16.437806613261117,0.011732909788194945,0.022255009156651795
293,0.25,0.001,0.011376109011160183,0.008440091873524956,16.453439915603287,0.011744068462243603,0.01966570853255689
294,0.25,0.001,0.011365121545460627,0.008504610261753481,16.030305143686824,0.011442045070440275,0.016775352705735713
295,0.25,0.001,0.011427473304073845,0.008482488618856431,16.503693451214435,0.011779938223564906,0.01885843218769878
296,0.25,0.001,0.011410908343849824,0.008473753116418275,16.459817205441023,0.011748620417873678,0.020856080576777458
297,0.25,0.001,0.011252714379346445,0.008419805491199263,15.87562233520699,0.011331636213566731,0.013961344608105719
298,0.25,0.001,0.011333594011193401,0.008447938124281754,16.171216072767415,0.011542623892053828,0.02373260201420635
299,0.25,0.001,0.011393975089294428,0.008467009718800139,16.402714655643216,0.011707861995462681,0.025564403156749904
300,0.25,0.001,0.011392804994277018,0.008510616835447841,16.151782595290022,0.011528752744675248,0.023876432911492884
301,0.25,0.001,0.01139431095843462,0.008517980089485023,16.118957340344007,0.011505322869624558,0.021794511005282402
302,0.25,0.001,0.011318714830378898,0.008429355657851958,16.191969021377087,0.011557436846093568,0.016843311139382422
303,0.25,0.001,0.011316716822645859,0.008395836447484185,16.368613957861022,0.011683521740086383,0.014816068578511477
304,0.25,0.001,0.011363883757485477,0.008457141290642399,16.289384993232616,0.011626970016582881,0.022137690568342805
305,0.25,0.001,0.011414589735607389,0.008493397276000837,16.370362662074463,0.011684769922965355,0.022907877690158784
306,0.25,0.001,0.011392511559615305,0.008443175467987212,16.528079476884113,0.011797344380359823,0.018368943594396114
307,0.25,0.001,0.01125966279236658,0.008391033109503026,16.07580119433632,0.011474519053773249,0.01730832434259355
308,0.25,0.001,0.011332873107247163,0.00845430176394033,16.131514196853797,0.01151428565085924,0.020910314400680363
309,0.25,0.001,0.01134136109758705,0.00840236188645527,16.470151514997063,0.011755996798713107,0.016861375304870307
310,0.25,0.001,0.011338602407351291,0.008403933103466581,16.44588684886383,0.01173867726542743,0.014935335086192936
311,0.25,0.001,0.011301354442903916,0.008371582688347656,16.418441141323655,0.011719087181530089,0.013018579687923193
312,0.25,0.001,0.01133958438881877,0.008394145768423544,16.506238499364674,0.011781754817533671,0.016918787150643766
313,0.25,0.001,0.011268760239032713,0.008377213381028623,16.204229203544728,0.011566187868340277,0.01951606757938862
314,0.25,0.001,0.011359071710957739,0.00850557004702365,15.991024140774083,0.011414007238239888,0.020492537994869053
315,0.25,0.001,0.011285512249271282,0.008371327663450997,16.331091349209526,0.011656739007287314,0.013496031635440886
316,0.25,0.001,0.01132988287544263,0.00849829603468762,15.868213410666193,0.011326347901974442,0.015896563767455518
317,0.25,0.001,0.011324147036637418,0.008425324738204542,16.244999907459746,0.011595289013176122,0.02234183077234775
318,0.25,0.001,0.011329319532221818,0.008463678389616576,16.059052636578585,0.011462564337315193,0.01936864119488746
319,0.25,0.001,0.011310627998974726,0.00843298241947165,16.126326463416625,0.011510582771889096,0.014654916361905634
320,0.25,0.001,0.011276593315172046,0.008313075724856962,16.607552602047214,0.011854070379762466,0.017080271732993424
321,0.25,0.001,0.011245527773286704,0.008366319160356277,16.13508508399533,0.011516834463950985,0.014349911245517433
322,0.25,0.001,0.011323208321811386,0.008439924610712583,16.157921996146502,0.011533134900889723,0.013104397454299033
323,0.25,0.001,0.011252375821231054,0.008294277612532106,16.5771830485111,0.011832393325132832,0.013974932953715324
324,0.25,0.001,0.011287837520646153,0.008433385940739158,15.996345273139333,0.011417805334146562,0.017861136700958014
325,0.25,0.001,0.011344441970993059,0.008418506874638708,16.39694078879466,0.011703740748604325,0.019107812084257603
326,0.25,0.001,0.011295302621320294,0.008451582898924396,15.936205495623307,0.011374879011865315,0.017312711221165955
327,0.25,0.001,0.011413879377576902,0.008486011121927572,16.407773254808653,0.011711472701505106,0.01866073627024889
328,0.25,0.001,0.011346012050585358,0.008444560985304493,16.259731854177964,0.01160580432132617,0.023012214922346175
329,0.25,0.001,0.011302303954461173,0.00841319812208974,16.19054944430612,0.011556423586228494,0.017033896991051733
330,0.25,0.001,0.011339454616114715,0.008435611904740707,16.27313357653847,0.011615370147422177,0.015258272411301732
331,0.25,0.001,0.011278684529046176,0.008334155019473806,16.501143708358477,0.011778118278628463,0.015144996927119792
332,0.25,0.001,0.011235294426112806,0.008400033161992943,15.888804031563204,0.01134104499040914,0.019322932581417263
333,0.25,0.001,0.011306856259205893,0.008395018620855935,16.31793879467162,0.011647351031171748,0.011849282658658922
334,0.25,0.001,0.011200149483309907,0.008340448071103006,16.025765755480165,0.011438804964653937,0.012303419993259013
335,0.25,0.001,0.011245606157983146,0.008364070794060981,16.14812487002952,0.011526141948629208,0.020874606678262353
336,0.25,0.001,0.011283457215043225,0.0083794884698656,16.273841384059452,0.011615875363354355,0.01706950517836958
337,0.25,0.001,0.011234294109839737,0.008324062405056894,16.308938713312646,0.011640926990230296,0.0165263926028274
338,0.25,0.001,0.0113050773105971,0.008434706140068478,16.085559801169378,0.0114814845118982,0.021411261754110456
339,0.25,0.001,0.01123271549474409,0.008275000156838611,16.57503671984583,0.011830861327513084,0.018691643606871367
340,0.25,0.001,0.01130277094370948,0.008461919601516708,15.9201309825284,0.011363405412225839,0.01926439313683659
341,0.25,0.001,0.011360509196657976,0.008326930699710557,17.000175276977284,0.012134314972860303,0.019456736161373556
342,0.25,0.001,0.011275763283162873,0.00844355561383582,15.871692882450239,0.011328831464989463,0.01645811670459807
343,0.25,0.001,0.011323899330108548,0.008417977445947477,16.284786893330935,0.011623688003805093,0.018889740109443665
344,0.25,0.001,0.011237821574779792,0.008327120749789264,16.311567481723856,0.011642803341701539,0.018655417254194617
345,0.25,0.001,0.011345337471673907,0.008466597510373418,16.132458535514942,0.011514959697012807,0.014624639530666173
346,0.25,0.001,0.011271664015326595,0.008362140376237464,16.304970876657887,0.011638094844152668,0.01937133213505149
347,0.25,0.001,0.011361721084532882,0.008436502517436268,16.392924800546282,0.011700874233080858,0.022173215867951512
348,0.25,0.001,0.011399383137550881,0.008538072326051417,16.0347868176741,0.011445243981209207,0.026754319784231484
349,0.25,0.001,0.011365045484209857,0.008451960940061756,16.324925707377073,0.011652338120897268,0.017635627300478518
350,0.25,0.001,0.01124637571624276,0.008350926092660565,16.226099814651903,0.011581798582906425,0.015269421273842454
351,0.25,0.001,0.011287624360546315,0.008315708375456188,16.65461728169674,0.011887664012631506,0.019400994176976383
352,0.25,0.001,0.011173307240429278,0.008334839756411961,15.906772390536824,0.011353870371546627,0.014893987216055393
353,0.25,0.001,0.011304117276455763,0.008435311060328823,16.07679099080956,0.011475225546616388,0.013090744148939848
354,0.25,0.001,0.011196404608017093,0.008288511773085296,16.295831158663884,0.011631571133949952,0.011237009544856846
355,0.25,0.001,0.011300997678307128,0.008417839691867286,16.157218088934467,0.011532632468903974,0.018730011419393122
356,0.25,0.001,0.011267283591120999,0.008327018467627761,16.477245123749736,0.011761060045503023,0.013692345935851336
357,0.25,0.001,0.01122424847180012,0.008264322135216384,16.587427214939062,0.0118397053639822,0.016863611876033247
358,0.25,0.001,0.011159388255133509,0.0083412144795869,15.793046523235535,0.011272695591174543,0.013822924927808344
359,0.25,0.001,0.011190088259713385,0.008300843133371408,16.191329750984846,0.011556980550310382,0.015615102020092309
360,0.25,0.001,0.011127278947568885,0.008264209902096765,16.04463835300135,0.011452275769451356,0.017016452155075967
361,0.25,0.001,0.01121047348569542,0.00833677253948373,16.104220802450477,0.011494804284404338,0.01723479013890028
362,0.25,0.001,0.011222690522732963,0.008308039247087496,16.33370612110624,0.011658605368384182,0.023143933853134513
363,0.25,0.001,0.011176276454285938,0.00833405092910772,15.927831530322113,0.011368901877460466,0.013858560239896178
364,0.25,0.001,0.011187816754232369,0.008307002023997909,16.144085565539143,0.01152325879053472,0.01604333403520286
365,0.25,0.001,0.011198560720881242,0.008314012087072734,16.165010908202486,0.011538194795290854,0.019955410854890943
366,0.25,0.001,0.011170649772708251,0.008185260192275296,16.730123957910717,0.01194155885646732,0.019306094269268215
367,0.25,0.001,0.011248423819019924,0.008371786125945335,16.120678176959522,0.011506551161284457,0.019792647566646338
368,0.25,0.001,0.011280485172221332,0.00835333185538743,16.403767456341388,0.011708613459201562,0.019172412459738553
369,0.25,0.001,0.011224722711365506,0.00833017899536203,16.221023973691935,0.011578175570087034,0.019043922540731728
370,0.25,0.001,0.01120576380687865,0.00829831717850831,16.293330724154732,0.011629786384121864,0.01537176442798227
371,0.25,0.001,0.011306746116215228,0.008477697773041332,15.853986214496398,0.011316192872588436,0.025398597586899996
372,0.25,0.001,0.011334047821935632,0.00834193318452305,16.76781119583544,0.011968459097669835,0.026667444733902812
373,0.25,0.001,0.011250825221640582,0.008339543805490705,16.31482055839268,0.011645125309345238,0.020535455900244415
374,0.25,0.001,0.011277155064061937,0.008454498865044752,15.81816541078444,0.0112906248470981,0.021214655484072864
375,0.25,0.001,0.011155709344310403,0.008218995128254676,16.457347093395,0.011746857311488224,0.021079336293041706
376,0.25,0.001,0.011254101143936025,0.008367904654406556,16.174245647199466,0.011544786329193053,0.02870043844450265
377,0.25,0.001,0.011202548692753394,0.008326290102407242,16.11855444380535,0.011505035291795397,0.017952753230929375
378,0.25,0.001,0.011200511678353356,0.008341895995782164,16.019682589552847,0.011434462947575195,0.014903076516930014
379,0.25,0.001,0.01112896578856948,0.008209714424915006,16.35948533354821,0.01167700594828566,0.015271564363501966
380,0.25,0.001,0.011168710370246701,0.008302838125485842,16.060348170286428,0.011463489058020292,0.020684281713329256
381,0.25,0.001,0.011147593884944667,0.008314045091667105,15.879207682758882,0.011334195348150522,0.0189374927431345
382,0.25,0.001,0.011102071241913111,0.008199399906854166,16.266570413784592,0.01161068552018886,0.014765423198696226
383,0.25,0.001,0.01114951816459414,0.008291023680337536,16.019003790455223,0.011433978437155762,0.019901678198948503
384,0.25,0.001,0.011149845982363179,0.008285476357553598,16.051927747706532,0.011457478763530716,0.01560972211882472
385,0.25,0.001,0.011203318871246624,0.008307449679067339,16.22845117732229,0.011583476928852457,0.018990345648489892
386,0.25,0.001,0.011132097548352154,0.008250266443821359,16.149781906032363,0.01152732470095101,0.013204993796534836
387,0.25,0.001,0.011110205026362908,0.00820520141751103,16.27964039485987,0.011620014557358938,0.01495925581548363
388,0.25,0.001,0.011071692102264014,0.008189993611068343,16.149038655275096,0.01152679418649186,0.014841739204712212
389,0.25,0.001,0.011166149015404237,0.008313127264520445,15.98833382751847,0.011412086957543519,0.013995318615343422
390,0.25,0.001,0.011192426736814618,0.0082860613720091,16.2872718301347,0.011625461691744967,0.018895804067142308
391,0.25,0.001,0.011135885886661319,0.008230012705421274,16.28451311115432,0.011623492584692592,0.015327760367654264
392,0.25,0.001,0.011025491123921812,0.008124233306130872,16.25864758023638,0.011605030392745455,0.016309951897710562
393,0.25,0.001,0.011158442383317086,0.008313541934438564,15.94282222341645,0.01137960187253137,0.015034825541079044
394,0.25,0.001,0.011136588953544302,0.00823235329987174,16.275337235166035,0.011616943065785892,0.015118013718165457
395,0.25,0.001,0.011160174015295033,0.008252558578389049,16.294277234963435,0.011630461980701952,0.016667266841977835
396,0.25,0.001,0.011202226229603082,0.008334971215801472,16.068097518729765,0.011469020355981274,0.02085482655093074
397,0.25,0.001,0.010996939390819978,0.008185238602701457,15.756771744666368,0.011246803529383561,0.010907165298704058
398,0.25,0.001,0.011088712230355855,0.008239524725762377,15.966846864258322,0.011396750081554833,0.020563806989230216
399,0.25,0.001,0.01109082523406734,0.008223500652024852,16.068487378401148,0.011469298628409098,0.017293610726483166
400,0.25,0.001,0.011156263759278057,0.008356269046524247,15.69117090149563,0.0111999792301896,0.01701228611636907
401,0.25,0.001,0.011135874475529398,0.008217549546464252,16.354293006944754,0.011673299790824236,0.01870418223552406
402,0.25,0.001,0.01114519397555102,0.00830547880218024,15.913764754516347,0.011358861352260063,0.01534646621439606
403,0.25,0.001,0.011052613356588156,0.00811542679472109,16.45999399157307,0.011748746603549659,0.016833902685903013
404,0.25,0.001,0.011097316982104036,0.00819859668293614,16.24442718919981,0.011594880220699365,0.01810225995723158
405,0.25,0.001,0.011116471345728898,0.00824812864826405,16.074192558798263,0.01147337084853552,0.02156544558238238
406,0.25,0.001,0.011187732478288743,0.008320651448765353,16.067123206025126,0.011468324915078605,0.02314395143184811
407,0.25,0.001,0.011168033079028378,0.008302687326084534,16.05739749796953,0.011461382939307301,0.017213161336258054
408,0.25,0.001,0.011205885998733607,0.008307182640303898,16.244333597712824,0.011594813417353907,0.01483245799317956
409,0.25,0.001,0.011154373901622031,0.008193265687526517,16.59405021826758,0.011844432703974004,0.02042784821242094
410,0.25,0.001,0.011250852208607878,0.008347613227578942,16.269751172473885,0.011612955869003487,0.030742636299692094
411,0.25,0.001,0.011134503615362909,0.008226629498264984,16.295727269883443,0.011631496980644855,0.0173699629958719
412,0.25,0.001,0.011054470225204257,0.008174703088987595,16.1382155547809,0.01151906891847316,0.012933080201037228
413,0.25,0.001,0.011087361260439757,0.008254766308688918,15.87386207540747,0.0113303797825892,0.01389493013266474
414,0.25,0.001,0.011115877846322005,0.008184981779321749,16.42474206952312,0.01172358463206504,0.02707178075797856
415,0.25,0.001,0.011168732088144737,0.00834942585545629,15.799392321911137,0.01127722506917283,0.02764961216598749
416,0.25,0.001,0.011249076886129777,0.008348777341911091,16.2532777129235,0.011601197511008922,0.023432221030816436
417,0.25,0.001,0.01117628219582156,0.00820123586640353,16.672159338296083,0.011900185109419046,0.022750662174075842
418,0.25,0.001,0.01110020517284101,0.008306626644615464,15.655214050866368,0.011174314097691911,0.018386128125712276
419,0.25,0.001,0.011157421389349692,0.008218296039421773,16.47085788902012,0.011756500991449051,0.028238497208803892
420,0.25,0.001,0.011120062764726253,0.008296250775923062,15.824643778153899,0.011295248949431761,0.02119621157180518
421,0.25,0.001,0.01114420879958878,0.008260873387449096,16.15821268165286,0.011533342385191192,0.018116201390512288
422,0.25,0.001,0.011109303008368343,0.008240749709510355,16.075372317638674,0.011474212931933386,0.014498951961286366
423,0.25,0.001,0.011081424843138843,0.008209177973390496,16.09607237017478,0.011488988130031963,0.014297325164079666
424,0.25,0.001,0.011071660258420326,0.008175891372987647,16.227889542788702,0.011583076047672164,0.01509023190010339
425,0.25,0.001,0.011121943806898868,0.008260855867307718,16.033537153909002,0.011444352001362599,0.0229731856379658
426,0.25,0.001,0.011082329612326398,0.008169676443573578,16.32250943711506,0.011650613445478271,0.017342155799269676
427,0.25,0.001,0.011012996193060422,0.008228543618915599,15.604072292065073,0.011137810344086419,0.015172043815255165
428,0.25,0.001,0.011077025213078566,0.008169130377455893,16.29584257488211,0.011631579282571098,0.011807666276581585
429,0.25,0.001,0.011085087742602029,0.008232152371400956,15.987850489845355,0.011411741962773272,0.012374403304420412
430,0.25,0.001,0.011075561292593936,0.008126871358984322,16.52445836953181,0.011794759721293227,0.029448676737956703
431,0.25,0.001,0.011092698823715053,0.00832063157795802,15.534664970350166,0.011088269072341303,0.021698447410017252
432,0.25,0.001,0.011084171813098025,0.00815385474098189,16.421498165250075,0.011721269211456156,0.023821244249120355
433,0.25,0.001,0.011121575841155206,0.008303533365565016,15.792310487751175,0.011272170226803123,0.021152649191208184
434,0.25,0.001,0.01106982105187994,0.008126659686278575,16.493477468948523,0.011772646301890451,0.01808437134604901
435,0.25,0.001,0.011084530535610957,0.008264700974491357,15.802325702659273,0.011279318845581207,0.017462548450566828
436,0.25,0.001,0.011064554683257493,0.008182141208527357,16.153044814107812,0.011529653686015568,0.025156760471872985
437,0.25,0.001,0.011055660651829521,0.008146973585394951,16.300282583853896,0.011634748453857171,0.017616430413909256
438,0.25,0.001,0.011077038702673604,0.008162945792825586,16.330577253050993,0.011656372057852244,0.02098503813613206
439,0.25,0.001,0.011049258464360162,0.008257789130950646,15.643394076002913,0.011165877284798653,0.0180447306483984
440,0.25,0.001,0.010975920116929395,0.008038607497927043,16.460700706051885,0.011749251039294707,0.014228765736334026
441,0.25,0.001,0.011036764912011728,0.0082025848511832,15.88274465373762,0.011336719952703512,0.013835105462931097
442,0.25,0.001,0.010994960839757094,0.00805402125595507,16.48102524982365,0.01176375820829668,0.010594649007543921
443,0.25,0.001,0.010946636537327149,0.00816666264094739,15.578973993130168,0.01111989578381882,0.012870631995610893
444,0.25,0.001,0.01107081723066984,0.00813500148911099,16.45231078114042,0.011743262513305082,0.012068097945302725
445,0.25,0.001,0.011082430852339885,0.00818462396479972,16.239310176984752,0.011591227820831372,0.02151629258878529
446,0.25,0.001,0.011060535390559964,0.00818756836153458,16.100108065037738,0.011491868711661482,0.019566259114071727
447,0.25,0.001,0.011009030668201053,0.00814771438153589,16.034816507008976,0.011445265172740169,0.011092094238847494
448,0.25,0.001,0.011029267255877901,0.008166154893212377,16.04488111786653,0.011452449049155268,0.011789744370616972
449,0.25,0.001,0.011076884385050587,0.008162847965069131,16.330259777061126,0.011656145451149983,0.01795477280393243
450,0.25,0.001,0.011066214743387226,0.008198604065466027,16.07009122366696,0.011470443414466068,0.01823737600352615
451,0.25,0.001,0.011163619728000652,0.008262366847774804,16.258620956994296,0.011605011389717555,0.022676568594761193
452,0.25,0.001,0.01113809801109275,0.008231500224919993,16.28857388426715,0.011626391066571843,0.021569425123743713
453,0.25,0.001,0.011132411355452149,0.008217713812128923,16.33396533735112,0.011658790390686024,0.020689507597126067
454,0.25,0.001,0.011098376354727591,0.008183582602282656,16.334504659091255,0.011659175345532659,0.01726979948580265
455,0.25,0.001,0.011028240913124697,0.008096830096943518,16.427627280758916,0.011725644026237627,0.012596858490724117
456,0.25,0.001,0.01102550838547049,0.008179606099871603,15.948436824663197,0.011383609439445537,0.01604339713230729
457,0.25,0.001,0.011049669241777665,0.00819558472351204,15.994288936288472,0.011416337570512828,0.019826918258331716
458,0.25,0.001,0.011141827493314951,0.008264124792045866,16.126646890023057,0.011510811484670277,0.03143799630925059
459,0.25,0.001,0.011159904028963694,0.0082145952065485,16.505510147031014,0.01178123493720986,0.022425989853218198
460,0.25,0.001,0.011003426766112477,0.008158641711795131,15.942176058297367,0.011379140655458506,0.023331067990511656
461,0.25,0.001,0.01116331380506149,0.00825891201044112,16.27626737821575,0.011617606979454496,0.029444900923408568
462,0.25,0.001,0.011038739413085212,0.008159920186317664,16.132903101051028,0.011515277017167043,0.022192448959685862
463,0.25,0.001,0.01100657002063223,0.00810287731829914,16.272292690635474,0.011614769943351515,0.017756587243638933
464,0.25,0.001,0.011028093775823743,0.008206750145706977,15.810809850195007,0.011285374625406857,0.018310269922949374
465,0.25,0.001,0.010974514708389569,0.008084846712018914,16.193699802884478,0.011558672236177358,0.014279544237069786
466,0.25,0.001,0.010935944643081603,0.008118667242181389,15.788022330011357,0.011269109443262924,0.01227546064183116
467,0.25,0.001,0.010970156422052105,0.0081052424362812,16.054978579718284,0.011459656373817476,0.01550524402409792
468,0.25,0.001,0.010972702409099935,0.008161739039862828,15.75263932453068,0.011243853907587923,0.014385891612619162
469,0.25,0.001,0.010959630279893169,0.008141421477673945,15.793242199684732,0.011272835260303163,0.017237544408999383
470,0.25,0.001,0.011061298371232377,0.008208513098510298,15.987008680132584,0.011411141099309482,0.02542611677199602
471,0.25,0.001,0.011083418441185872,0.008207203719243874,16.118307894107446,0.011504859310569198,0.022054304950870574
472,0.25,0.001,0.011039379280301624,0.00815508300963486,16.16359742548869,0.011537185885430899,0.013765353709459305
473,0.25,0.001,0.01101985636375269,0.008174003389642607,15.948159896755019,0.011383411774985738,0.013314628857187927
474,0.25,0.001,0.01100991027029173,0.008141502018605742,16.07456117283576,0.011473633956342441,0.01664323383010924
475,0.25,0.001,0.011027019428155368,0.008166689258496547,16.02929058751881,0.011441320904724345,0.018007621401920915
476,0.25,0.001,0.011014630535854676,0.00811635874725085,16.24191580635023,0.011593087656210015,0.016893678926862776
477,0.25,0.001,0.011002246986506876,0.00816238523482312,15.914585232983551,0.011359446989995397,0.024002515361644328
478,0.25,0.001,0.010984301720677811,0.008030702981180152,16.551967338131963,0.011814394959408968,0.016420113621279597
479,0.25,0.001,0.010980388762075494,0.008218740577768682,15.476276732187928,0.01104659295659381,0.01673824992030859
480,0.25,0.001,0.011037098936005525,0.008041580651919815,16.786885088321313,0.011982073581956684,0.020130874821916223
481,0.25,0.001,0.011120477967384215,0.008238729593073774,16.149319340142426,0.011526994532578463,0.012698967009782791
482,0.25,0.001,0.011077021478066738,0.008205082372515335,16.09434602852903,0.011487755909014298,0.011652429297100753
483,0.25,0.001,0.010997415137222515,0.008139812448771674,16.01400482082168,0.011430410293234603,0.013344155682716519
484,0.25,0.001,0.010914813519099684,0.008057874191886822,16.010289502790926,0.011427758388858619,0.01744049065746367
485,0.25,0.001,0.01104886492321536,0.008146380583730396,16.26552260046463,0.011609937616320223,0.016555733629502356
486,0.25,0.001,0.011032288301043943,0.008151681317961415,16.142921726489615,0.01152242807029951,0.018508251872844994
487,0.25,0.001,0.011065717203258722,0.008193681461810444,16.094888061969414,0.011488142799407148,0.02633443975355476
488,0.25,0.001,0.01100955334042893,0.008133357629911013,16.118200819776053,0.011504782883494685,0.021603597095236182
489,0.25,0.001,0.011022387169659262,0.00811272209591868,16.305762834489222,0.011638660124546197,0.018730379757471383
490,0.25,0.001,0.011050920672948028,0.008259082627181344,15.645461872873327,0.011167353228317863,0.028417041059583426
491,0.25,0.001,0.011057290271904498,0.008252359481454518,15.718833694378368,0.011219724264367143,0.025042051798664033
492,0.25,0.001,0.011119401140725687,0.008164659181380322,16.55837329792827,0.01181896737896379,0.020595796406269073
493,0.25,0.001,0.011074193076683609,0.008247482673982488,15.840885003075968,0.011306841543951441,0.02311322814784944
494,0.25,0.001,0.011016300123083815,0.00814122181883498,16.11193975675579,0.011500313887762875,0.013523366767913103
495,0.25,0.001,0.010968224396287524,0.008109008317856051,16.023047586572446,0.011436864801265129,0.0140883750282228
496,0.25,0.001,0.010969661207313578,0.008034900468550545,16.44639914717704,0.011739042931603882,0.01599390641786158
497,0.25,0.001,0.010993433772102153,0.008148076784620081,15.945382271529738,0.011381429173111876,0.0184337820392102
498,0.25,0.001,0.011013295913663438,0.00814210031461554,16.090181028170974,0.011484783032241952,0.02067428990267217
499,0.25,0.001,0.011012511082880183,0.008175876835411674,15.896498299839601,0.011346536973475804,0.02360107738059014
500,0.25,0.001,0.01102102380868102,0.008158989326487877,16.038842211187756,0.011448138623260355,0.018888736492954195
