epoch,beta,learning_rate,train_loss,train_reconstruction_loss,train_kl_unnormalized,train_kl_normalized,mean_unclipped_gradient_norm
1,0.0,0.001,0.07768444021057092,0.07768444021057092,99.0721851129695,0.07071533555529587,0.1715539683188711
2,0.02,0.001,0.051623050751925095,0.04275631931926918,621.1145671667272,0.44333659326675745,0.11981040026460375
3,0.04,0.001,0.04156742760488048,0.03651148958864888,177.08421846123954,0.12639844287026378,0.08898586833051272
4,0.06,0.001,0.03540155726022709,0.031275173221102265,96.35105657227756,0.06877305965187548,0.0704687764602048
5,0.08,0.001,0.03275983498265516,0.028379686695949372,76.70735552724824,0.05475185976248982,0.05662323694143977
6,0.1,0.001,0.03146593719903006,0.027752675179820187,52.02280648938018,0.03713262418942197,0.059757496629442484
7,0.12,0.001,0.03034537932254866,0.027860203812531854,29.014425007230205,0.02070979657903655,0.03208512147622449
8,0.14,0.001,0.029717739662360444,0.027574078018223744,21.451929847885168,0.015311869984214967,0.053693873940833976
9,0.16,0.001,0.0295297006249865,0.027270339602436005,19.783527367272413,0.014121004544805435,0.07034059800207615
10,0.18,0.001,0.028965093341171012,0.026768135667430158,17.09965346786387,0.012205320105541663,0.0735548199819667
11,0.2,0.001,0.02869663745037355,0.026511362760639715,15.307845780202404,0.010926371006568455,0.06997847157929625
12,0.22,0.001,0.027965849074182127,0.02547557486681163,15.85852047283667,0.011319429316799906,0.0504577388720853
13,0.24,0.001,0.02705351674068528,0.024680431185331204,13.852886638314917,0.009887856272887165,0.025359038529651507
14,0.25,0.001,0.02634750471466328,0.023708516053290704,14.788891764316698,0.010555954150118986,0.0664023667840021
15,0.25,0.001,0.02579233484811771,0.0230307404571247,15.475974999313541,0.011046377586947567,0.08102526888251305
16,0.25,0.001,0.024993963234472682,0.022118315688154516,16.1151293868832,0.011502590568796003,0.0808793173304626
17,0.25,0.001,0.02414314602308139,0.021299981814979923,15.933091986733135,0.011372656664334858,0.03511202588145222
18,0.25,0.001,0.02359065367478176,0.020683370252802494,16.29241531577262,0.011629132987703511,0.04104455214525972
19,0.25,0.001,0.022987681097171125,0.020179274512459423,15.73830989054188,0.011233625903313262,0.02657857058303697
20,0.25,0.001,0.022452600705630914,0.019688897139978002,15.487795757489566,0.01105481495895044,0.031472308561205864
21,0.25,0.001,0.022015779964571186,0.019110921806767402,16.278826077001895,0.011619433316917841,0.042953024086143286
22,0.25,0.001,0.02188025971915582,0.018958094327148133,16.375814181376786,0.011688661085922045,0.07751019724777766
23,0.25,0.001,0.021580068676898708,0.018633373505219562,16.51328208568918,0.011786782359521185,0.06083420158496925
24,0.25,0.001,0.020563430829123937,0.01756754029806348,16.788970466930884,0.011983562074897133,0.025029652885028293
25,0.25,0.001,0.020394811128928783,0.01720226547865238,17.891024120862443,0.012770181385340787,0.04024941234716347
26,0.0,0.001,0.01706777789008355,0.01706777789008355,19.891603623742288,0.014198146769266444,0.05101115868559906
27,0.02,0.001,0.01601538523430492,0.015521523633785091,34.595007479045094,0.02469308171238051,0.023764546428407942
28,0.04,0.001,0.0160417655633175,0.014635800374876754,49.243941141515606,0.0351491371459783,0.018378140670912608
29,0.06,0.001,0.016721133147263877,0.014343434584971454,55.51926442638295,0.039628311510623085,0.02765811181494168
30,0.08,0.001,0.016910760907096502,0.014142558884904845,48.47814705435979,0.03460253180182712,0.02180195613098996
31,0.1,0.001,0.016913731716810054,0.01438596692109312,35.413991900119925,0.025277653033633066,0.02156588262213128
32,0.12,0.001,0.01722614989048986,0.014933661168354647,26.764806425658882,0.019104073108964226,0.023136679881385395
33,0.14,0.001,0.017492390759198184,0.015035248937627215,24.58896623905247,0.017551010877268004,0.025762442499399185
34,0.16,0.001,0.01756996638198499,0.014620528201183218,25.82601677351301,0.018433987704149186,0.021293905962790762
35,0.18,0.001,0.01780558590638317,0.014730811667854017,23.931991623782878,0.017082078246811475,0.0188330989331007
36,0.2,0.001,0.018118246529060064,0.01506963250179454,21.35554281948248,0.015243071248738386,0.020220777418996607
37,0.22,0.001,0.018277273119443202,0.014939301289745532,21.256810960093453,0.015172598829474271,0.01840818300843239
38,0.24,0.001,0.01847451332783495,0.015229633032437642,18.94198925046291,0.013520334939659465,0.02612855618021318
39,0.25,0.001,0.018542584464464038,0.015268172586022496,18.349805144051178,0.013097648211314188,0.02140333809490715
40,0.25,0.001,0.01832896843097175,0.015083773476060271,18.18607336384743,0.01298078041673621,0.0173517500183412
41,0.25,0.001,0.018451483706171765,0.015232257258083243,18.040545727046602,0.012876906300532906,0.024717621771352633
42,0.25,0.001,0.018198607931218694,0.01506501402305143,17.560656573195327,0.01253437300013942,0.027033195963927677
43,0.25,0.001,0.018072278145472985,0.01492377667298454,17.64420349848591,0.012594006779790086,0.021452813409268856
44,0.25,0.001,0.018133528530597687,0.015164632750971102,16.63769287351874,0.011875583778385969,0.04372364282608032
45,0.25,0.001,0.017881722424024474,0.01489421417412956,16.741997133548804,0.01195003364279001,0.025566117505409887
46,0.25,0.001,0.01787305029887879,0.014883066882768732,16.75586637482958,0.01195993317261212,0.027462596872023175
47,0.25,0.001,0.01787684756743296,0.014772744767349624,17.395391711395934,0.012416410928905022,0.03769422681736095
48,0.25,0.001,0.017786851166440104,0.014747799210213944,17.03084880856838,0.01215620899969192,0.03815801308623382
49,0.25,0.001,0.017583759483359846,0.014579454578076715,16.836125562709817,0.012017220244618,0.034751368686556816
50,0.25,0.001,0.017722482585819543,0.014678177107262144,17.06028659186328,0.012177220979202914,0.03929161852491753
51,0.0,0.001,0.014169424353281269,0.014169424353281269,19.29503275771013,0.013772328877737421,0.02737419001225914
52,0.02,0.001,0.013566783440360813,0.013136695460177284,30.127654525644914,0.021504392951923565,0.023064665629395416
53,0.04,0.001,0.013802477035644148,0.01258805635314626,42.535084619498775,0.030360517215916327,0.023655175497489318
54,0.06,0.001,0.01435343049748967,0.012336665545852086,47.09146434345572,0.03361275113737025,0.017348733531045064
55,0.08,0.001,0.014635950229005447,0.012310970465317915,40.716209411621094,0.029062247974033614,0.011141493118235044
56,0.1,0.001,0.014812360203444666,0.012622631312072422,30.67809873921364,0.021897286751758487,0.017149480059742928
57,0.12,0.001,0.015043434299856497,0.012964473165170924,24.271875889785132,0.01732467943596369,0.02161322527432016
58,0.14,0.001,0.015302304433508431,0.013142241385917937,21.616061073060724,0.015429022892976962,0.01864671880113227
59,0.16,0.001,0.015601844142002115,0.013191743710586085,21.10344517435013,0.015063130031656054,0.022988172114959786
60,0.18,0.001,0.015810229366959454,0.013085760857026413,21.205445413193086,0.015135935341322689,0.014322833557214056
61,0.2,0.001,0.01598593682588094,0.013165824342983568,19.754887732433517,0.014100562264406508,0.01582484632464392
62,0.22,0.001,0.016139752140455405,0.013252072197938461,18.389272927654986,0.013125819363065658,0.009705858837280954
63,0.24,0.001,0.016404397421332036,0.013361904724594434,17.760551447973274,0.012677053139167218,0.010575850095067705
64,0.25,0.001,0.016472113872069892,0.013492848396228403,16.69580390575754,0.011917062031233076,0.01872604513274772
65,0.25,0.001,0.016375205855279212,0.01338265799805704,16.770236917696256,0.011970190519412031,0.011541042676461595
66,0.25,0.001,0.016196451448177357,0.013342046861999047,15.99608565426106,0.011417620024454718,0.012454167008399963
67,0.25,0.001,0.01618420679240617,0.013283273528505363,16.256830705115732,0.011603733551117582,0.0169454872874277
68,0.25,0.001,0.01618375925661445,0.013380385611962281,15.710106464936272,0.011213494978541237,0.015440070136849369
69,0.25,0.001,0.015988219827686806,0.013133679537107134,15.996841444654395,0.011418159489403565,0.0196161400526762
70,0.25,0.001,0.016015224964847485,0.01323981787599532,15.553382537767181,0.011101629220390565,0.011925752607307263
71,0.25,0.001,0.01587461837747278,0.01312328748915044,15.418458351004677,0.011005323591009763,0.017243432945438793
72,0.25,0.001,0.01591116614858358,0.013176953791205778,15.322525849843666,0.010936849286112538,0.025084828824869225
73,0.25,0.001,0.015876776623040947,0.013193955531111556,15.034531840485291,0.010731286110267874,0.018666513530271395
74,0.25,0.001,0.01583929901856082,0.013147327618577807,15.085808147719554,0.010767885901298754,0.02496487181633711
75,0.25,0.001,0.015806506358287446,0.013092823490536884,15.207479819691851,0.010854732205347504,0.02369612575109516
76,0.0,0.001,0.012604845043335538,0.012604845043335538,17.41478816920796,0.012430255652539586,0.01633821494345154
77,0.02,0.001,0.012294120137058289,0.011905301489792127,27.23674743391191,0.01944093321478366,0.010724547385637249
78,0.04,0.001,0.012599456356269077,0.011505331661925631,38.321720216559896,0.02735311935514625,0.011837190549288477
79,0.06,0.001,0.013047654933152688,0.011297983024041636,40.85483805649438,0.029161197756241528,0.011447819215910775
80,0.08,0.001,0.013224844019267991,0.011324785993614377,33.27476585873182,0.023750725095454547,0.010236339643597603
81,0.1,0.001,0.013320943878048207,0.011582928117647003,24.34960097147375,0.017380157724106886,0.010037555093211787
82,0.12,0.001,0.01363118888905914,0.011931209487972603,19.84725891990009,0.014166494589507557,0.011510092099862439
83,0.14,0.001,0.01394597178639293,0.011969461180907299,19.779223075997276,0.014117932245536957,0.01209707957293306
84,0.16,0.001,0.01420805810023928,0.011949670143552981,19.775012037281886,0.01411492650769585,0.016184281358229264
85,0.18,0.001,0.014458971334880897,0.012023893102985286,18.953024236963547,0.013528211446797677,0.021445776069802896
86,0.2,0.001,0.014680252490168971,0.01222183814950852,17.221193413862682,0.01229207238676851,0.021436165885201523
87,0.22,0.001,0.014917099757306733,0.012271323548698192,16.848782140643205,0.012026254204599005,0.0294781502868448
88,0.24,0.001,0.015159314823926661,0.012347817591739895,16.412116757231995,0.011714572988745179,0.019867069886199067
89,0.25,0.001,0.015103979849126783,0.012335950945911606,15.512032947213843,0.01107211488023829,0.01722462588389005
90,0.25,0.001,0.015197226367799752,0.01245832155643072,15.34882320460014,0.010955619703497602,0.017784935289195607
91,0.25,0.001,0.01508378905351194,0.01229332602175276,15.637755366001269,0.01116185250963688,0.015853183942713907
92,0.25,0.001,0.015087391188354539,0.01242702211820336,14.908707593064436,0.01064147579804742,0.021095875650644302
93,0.25,0.001,0.015107018481439076,0.012462590087870077,14.81937685922189,0.010577713675390357,0.023147822756852423
94,0.25,0.001,0.014972989802638155,0.012239869718137026,15.316405091134143,0.010932480436212807,0.01012885756790638
95,0.25,0.001,0.014981888794775114,0.012360803755615043,14.688559373608427,0.01048433931021301,0.010421740689447947
96,0.25,0.001,0.014990626030526418,0.012321730123828268,14.956493969942946,0.010675584560987113,0.013921245999102081
97,0.25,0.001,0.014941706415493505,0.012217289351455158,15.267634937407626,0.010897669477093239,0.013476645108312368
98,0.25,0.001,0.014995537579861131,0.012339184620852576,14.886202868156154,0.010625412468348432,0.015468138602695294
99,0.25,0.001,0.0148010178580698,0.01217623369900332,14.70929127392384,0.010499137240488109,0.015196638713989939
100,0.25,0.001,0.014872841359387108,0.012244285867620068,14.730426349966333,0.010514222947870331,0.018207672584269727
101,0.25,0.001,0.01483027183184341,0.012165092521581645,14.935664153623698,0.010660716740630762,0.01704927653606449
102,0.25,0.001,0.014872079389511373,0.012178510220261396,15.094760731554848,0.01077427603965371,0.015327274932393007
103,0.25,0.001,0.014704896574316223,0.01207609209380042,14.731819989920245,0.010515217694446998,0.015545646660029888
104,0.25,0.001,0.014811866515951372,0.012190046169155238,14.692681240277652,0.010487281399198896,0.01234212318169219
105,0.25,0.001,0.014758619019866427,0.012150097752222222,14.618153140713941,0.010434085039767267,0.015663441137543747
106,0.25,0.001,0.014636681768086838,0.01204144453270074,14.543710102370433,0.010380949394982464,0.019027164338954856
107,0.25,0.001,0.014579236054278381,0.012028247010973818,14.295743072528419,0.010203956511440699,0.011172528777803694
108,0.25,0.001,0.014646005094925757,0.01208503489225447,14.351677892260563,0.010243881436303042,0.01194015537787761
109,0.25,0.001,0.014593979651176696,0.01200234276768558,14.523532690220765,0.010366547244982701,0.012187579912798745
110,0.25,0.001,0.014499145207020355,0.011922456428845821,14.439763456218692,0.01030675478673711,0.010378441573785884
111,0.25,0.001,0.014520090883984834,0.011931802505914186,14.504767786319798,0.010353153309293218,0.013468026649206877
112,0.25,0.001,0.014528284814837217,0.011950811362098948,14.444159978759318,0.010309892918457757,0.012176318759364741
113,0.25,0.001,0.014620971016604043,0.011985225304687956,14.770718217770453,0.010542982311042436,0.01280674571171403
114,0.25,0.001,0.01448560699428862,0.011901608568076545,14.480726906606213,0.010335993509354898,0.01569062378257513
115,0.25,0.001,0.01442514846789079,0.01191150561011508,14.086453974101246,0.010054571002213596,0.01511896647779005
116,0.25,0.001,0.014445117977618589,0.011893623492573467,14.298574435973226,0.01020597747035919,0.017810992896556854
117,0.25,0.001,0.014542463308423393,0.012008282305868593,14.201549914763435,0.010136723707896813,0.019796939167593206
118,0.25,0.001,0.014479490145039004,0.011923746866217307,14.322385498830334,0.010222973232569831,0.00889987698090928
119,0.25,0.001,0.014405372593560983,0.011735119754425762,14.964097407744392,0.0106810117114521,0.011937322893312998
120,0.25,0.001,0.014299978809499507,0.011785064796600627,14.0935783759306,0.010059656228358744,0.009960224785442864
121,0.25,0.001,0.014381426716710652,0.011830785569067689,14.293793179295173,0.0102025647246932,0.0149789515084454
122,0.25,0.001,0.014465764529256192,0.011814156663319447,14.85961010986552,0.01060643119904748,0.014530335353421313
123,0.25,0.001,0.014331719371282968,0.011752463412678328,14.45415140072699,0.010317024554408987,0.012662616425326892
124,0.25,0.001,0.014322584756811703,0.011748185269716754,14.426934610660618,0.010297597866281668,0.014094158408365079
125,0.25,0.001,0.014332937923758712,0.011732883999593246,14.570701995513842,0.01040021555711195,0.013722174534840243
126,0.25,0.001,0.014356205267216874,0.011786079077473626,14.402987533793182,0.010280505020551878,0.009882724245211907
127,0.25,0.001,0.014274810597956326,0.011616850843366172,14.895207164922962,0.010631839518146297,0.009613595370735441
128,0.25,0.001,0.014221725775917177,0.011690494797959887,14.185018385535056,0.010124923901167064,0.010981784401727574
129,0.25,0.001,0.014327256785464315,0.011742744881723504,14.483603596395852,0.010338046821124805,0.010560929509145873
130,0.25,0.001,0.014266867741650941,0.011716182304951556,14.294042146584808,0.010202742431538049,0.00909990624391607
131,0.25,0.001,0.014253760626525926,0.011625785765427103,14.727171788297248,0.01051189992026927,0.006910730219845261
132,0.25,0.001,0.014203294130238023,0.011632805926984855,14.4050155676956,0.010281952582223839,0.01685089711099863
133,0.25,0.001,0.014215489876773072,0.011690494654504332,14.150072617752336,0.010099980455212232,0.011371244410318988
134,0.25,0.001,0.014231406013346971,0.01163232983670637,14.565223586588441,0.010396305200991036,0.009988270300839628
135,0.25,0.001,0.01417265767527603,0.011581642029483627,14.520052282617844,0.010364063014002743,0.01092293718829751
136,0.25,0.001,0.014145412817050892,0.01152307967129357,14.69555526024555,0.010489332805314455,0.012858976610004902
137,0.25,0.001,0.014156721095146934,0.011711095111367172,13.705287453014869,0.009782503535342518,0.017902558403355733
138,0.25,0.001,0.01417183968031319,0.011675068450531487,13.991906926218046,0.009987085600441146,0.02105658900524889
139,0.25,0.001,0.01425877787755725,0.01164190222971451,14.664971531166133,0.010467502877349131,0.01761551227952753
140,0.25,0.001,0.014160867436609088,0.01154895513694196,14.637157440185547,0.010447649850239505,0.016991652149174894
141,0.25,0.001,0.01416472167751244,0.011684274401124066,13.900426281693512,0.009921788923407218,0.012765479207571064
142,0.25,0.001,0.014167663001416657,0.011600476864971275,14.386511210415941,0.010268744618426796,0.01603819310132946
143,0.25,0.001,0.014180637839134137,0.01157134366255882,14.622486170463283,0.010437177851865298,0.014624596906027623
144,0.25,0.001,0.014124762717734631,0.0115210264374691,14.591337369531757,0.010414944589244652,0.016047671171171323
145,0.25,0.001,0.014019028258607848,0.01144115485633498,14.446401791933988,0.010311493070616694,0.010422079092157739
146,0.25,0.001,0.013999622178544042,0.011417905754503091,14.46793907370719,0.01032686586274603,0.011022483464330435
147,0.25,0.001,0.014025107545272645,0.011494829465150104,14.179680066470121,0.010121113537808795,0.01205752497272832
148,0.25,0.001,0.014159920463716488,0.01164600163843929,14.088000269565722,0.010055674710610793,0.019579491444996426
149,0.25,0.001,0.01399216130558028,0.01142256790066188,14.400003190728446,0.010278374868471411,0.014645576477050781
150,0.25,0.001,0.014043959927879511,0.011526787787912673,14.10623187832261,0.010068687993092513,0.012219918758741446
151,0.25,0.001,0.013922241805599488,0.011312345939991236,14.625856140714985,0.010439583255328327,0.009566229568528277
152,0.25,0.001,0.013909594620370778,0.011375668884453098,14.200118843675535,0.010135702243879753,0.012933182530105114
153,0.25,0.001,0.014023487310410275,0.011499433912573642,14.144794862835798,0.01009621332108194,0.016312858621988977
154,0.25,0.001,0.01408474681065543,0.011486644303303185,14.559767324359026,0.010392410652647413,0.017236877099743912
155,0.25,0.001,0.013981339760798697,0.011440575311830254,14.238444808642846,0.010163058393035579,0.01387564352314387
156,0.25,0.001,0.014030206994060199,0.011518583705871933,14.075137180337697,0.010046493347849891,0.01508987255926643
157,0.25,0.001,0.013998434708105323,0.011398899649021677,14.567793920745476,0.01039813984350141,0.009579908302319902
158,0.25,0.001,0.013922113597320169,0.01135154157958943,14.405484570267731,0.010282287344944848,0.009515044279396534
159,0.25,0.001,0.013918875069938108,0.0113856930121743,14.19595101410136,0.0101327273476812,0.010433482405330454
160,0.25,0.001,0.013911160663189252,0.01135456792481954,14.327146101114511,0.010226371235627774,0.008767782910061734
161,0.25,0.001,0.013822985111683388,0.011295784954755842,14.162429769931038,0.010108800692313374,0.009053196624985762
162,0.25,0.001,0.013912572974024892,0.011426698792188413,13.930839844029807,0.009943497390456678,0.013259659920419966
163,0.25,0.001,0.013892374003720459,0.01132644657364393,14.379457462096273,0.010263709823052301,0.008143761926995856
164,0.25,0.001,0.01384815745383574,0.011261944495105073,14.493137835290439,0.010344852130828293,0.00911001581698656
165,0.25,0.001,0.01385420639851201,0.011248575090851936,14.601958155923484,0.010422525450337962,0.011215168384036847
166,0.25,0.001,0.013830359068797095,0.01128340720183109,14.273117951484064,0.010187807245884414,0.01493380471531834
167,0.25,0.001,0.013868576216267782,0.011333708491968788,14.205398799737683,0.010139470949134676,0.011855543324989932
168,0.25,0.001,0.013776038308835116,0.011213953763902332,14.357922248560525,0.01024833850718096,0.00834162360323327
169,0.25,0.001,0.013917522149702448,0.01142853636221737,13.948275416870864,0.009955942481706542,0.011101178359240294
170,0.25,0.001,0.01391028757218481,0.011330421337707555,14.457569670269134,0.010319464432740282,0.011786841720874821
171,0.25,0.001,0.013822509668093438,0.011202177249150201,14.68434368543928,0.010481330253703984,0.0115084519742855
172,0.25,0.001,0.013936316460134202,0.011368450797493126,14.390318460161353,0.010271462141442794,0.01282837348324912
173,0.25,0.001,0.013834011367542674,0.011234172098429687,14.56950002311203,0.010399357618209872,0.009966145336095775
174,0.25,0.001,0.013784697051626837,0.01125332142037401,14.185829470384967,0.010125502833965001,0.011372777832938092
175,0.25,0.001,0.01379567073444064,0.011226312232301696,14.398685961305949,0.010277434661888615,0.008791393600404263
176,0.25,0.001,0.013741411746896274,0.011198742866224649,14.24911697919328,0.010170675930901698,0.010465905402920075
177,0.25,0.001,0.013734687055964341,0.011227809912855293,14.048540537398136,0.010027509305780254,0.012032434211245604
178,0.25,0.001,0.013791529971805645,0.011216106371439464,14.432674167791614,0.010301694623691373,0.010704712942242622
179,0.25,0.001,0.013745069469628095,0.011144403293091248,14.574132450635393,0.01040266413321584,0.014744702992694718
180,0.25,0.001,0.013745794100072099,0.01127601923161439,13.84061860921622,0.009879099649690378,0.011488604958036117
181,0.25,0.001,0.01367498077178934,0.011095442959451297,14.455730771668675,0.01031815187128385,0.010542813355901412
182,0.25,0.001,0.01370760241710105,0.011158562215240923,14.284821200195909,0.010196160742466744,0.015358925663999148
183,0.25,0.001,0.01379199292793105,0.011282672046758872,14.062234817915266,0.010037283952830312,0.016244140852774893
184,0.25,0.001,0.013894663495182409,0.011322982955386994,14.411698063894706,0.010286722386791368,0.01978508130248104
185,0.25,0.001,0.013786595918165296,0.01123298364429573,14.3104429338264,0.010214448917791863,0.02000945500497307
186,0.25,0.001,0.013738723023177505,0.011275710456055068,13.802721825671954,0.009852049839880053,0.013514501242233174
187,0.25,0.001,0.013742637579172193,0.011138162199945205,14.595480128430504,0.010417901590599932,0.013744256725268704
188,0.25,0.001,0.013633114761675192,0.011109936656771924,14.139891260702045,0.010092713248181331,0.010073227408741201
189,0.25,0.001,0.013737055309080407,0.011178220360378181,14.339710608671231,0.010235339477995169,0.0104534492960998
190,0.25,0.001,0.013648613968586281,0.01105927424345958,14.510660416339604,0.010357359326437976,0.011311603111347981
191,0.25,0.001,0.013650478567463552,0.01116211096184615,13.944811988867874,0.00995347037035537,0.011885679193905421
192,0.25,0.001,0.013701812956199814,0.011134719603619832,14.385990919285707,0.010268373247170384,0.016147362600479807
193,0.25,0.001,0.013693122956036502,0.011123671485589303,14.399205877028933,0.01027780576518839,0.016089312732219696
194,0.25,0.001,0.013823221398922808,0.01124791198007052,14.432034149729535,0.010301237794239497,0.016690706168966635
195,0.25,0.001,0.013645387445929436,0.011063861662936386,14.466870662344114,0.01032610325649116,0.012783064906086241
196,0.25,0.001,0.01362255683583196,0.01107484929054101,14.277354305705698,0.010190831053323125,0.010947253688105516
197,0.25,0.001,0.013647141848169357,0.011055422475456754,14.52399605235727,0.010366877981696838,0.01033671639327492
198,0.25,0.001,0.013600388195702674,0.011090753126370295,14.06399532168885,0.010038540557950643,0.008841395045497588
199,0.25,0.001,0.013672089677823202,0.011128801964041219,14.252585308476007,0.010173151540668099,0.010107989223407847
200,0.25,0.001,0.013648571344069717,0.011075727466247921,14.418216166694473,0.01029137485131654,0.012699306543384279
201,0.25,0.001,0.013684391572361032,0.011212923354526167,13.850108354190743,0.009885873200707168,0.012938582870577062
202,0.25,0.001,0.013562223015576236,0.010997153276664121,14.374650850272703,0.010260278979495148,0.01049827185592481
203,0.25,0.001,0.01365224435051088,0.011082629124408537,14.400125202747896,0.010278461957707277,0.015031331750963415
204,0.25,0.001,0.013675213377002835,0.011140396035205764,14.205114616450004,0.01013926810596003,0.015432501344808511
205,0.25,0.001,0.013610202837325542,0.011022223901996402,14.503033987758794,0.010351915765709346,0.008679420354643039
206,0.25,0.001,0.013585909080753116,0.011016476065976987,14.399102315926028,0.01027773184577161,0.009097563568502665
207,0.25,0.001,0.013546168412512265,0.010978904231690545,14.386947825368868,0.010269056263646586,0.0124507117351251
208,0.25,0.001,0.013566382557226569,0.011042066881647173,14.146266941919304,0.010097264055616919,0.009146556058632476
209,0.25,0.001,0.013577618943595653,0.011062259371403814,14.096075347116932,0.010061438506150558,0.010952092241495848
210,0.25,0.001,0.013508525121419675,0.01094424457022861,14.370228783717074,0.010257122615072858,0.01057709680337991
211,0.25,0.001,0.013580082831471649,0.011025662921041178,14.314969130425116,0.010217679607726706,0.009696160177034991
212,0.25,0.001,0.013540030482127206,0.010976080989925086,14.3683731083765,0.010255798078784083,0.010893629065581731
213,0.25,0.001,0.01351607460209822,0.010980116148777579,14.211511621265364,0.0101438341336655,0.014040156467152494
214,0.25,0.001,0.013518828251979753,0.010966955085255406,14.300696890628133,0.01020749242728632,0.017842734631683146
215,0.25,0.001,0.013523850246152698,0.01098209296405534,14.24400852128754,0.010167029636893319,0.012032218410500459
216,0.25,0.001,0.013606680723358047,0.011054691186853318,14.301349098933064,0.010207957957839447,0.010622710255639893
217,0.25,0.001,0.013547596888284228,0.010991435293062684,14.324729984721811,0.010224646670036981,0.011293731496802397
218,0.25,0.001,0.013549800046826634,0.010940262637941353,14.623848376472305,0.010438150161650468,0.011426090528922421
219,0.25,0.001,0.013567909272729184,0.01096004657538421,14.614463258197663,0.010431451290647868,0.008718050218054227
220,0.25,0.001,0.01355362733630213,0.01100199102608528,14.299369944919876,0.010206545285453159,0.012348008608179433
221,0.25,0.001,0.013472291160475072,0.010944390412155895,14.166355634376881,0.010111602879640885,0.008474920543708972
222,0.25,0.001,0.01357485428179243,0.011029345591377221,14.265031481138942,0.010182035318443214,0.013754772155412607
223,0.25,0.001,0.013479206205543796,0.010880178790129631,14.56495026679377,0.01039611011191561,0.012125706832323755
224,0.25,0.001,0.013536631241258607,0.010974591768695119,14.357670044840694,0.010248158490250316,0.01574124502284186
225,0.25,0.001,0.013582185092940015,0.011088811951828323,13.972862399877721,0.009973492077000514,0.016331673466733525
226,0.25,0.001,0.013607349697600659,0.011015092091029167,14.527011841025503,0.010369030578890439,0.014565274518515383
227,0.25,0.001,0.013498773074237524,0.01093111227979214,14.389170982435456,0.010270643099525665,0.012688277754932642
228,0.25,0.001,0.013457479957299885,0.010875406586234902,14.469938432091897,0.010328292956525266,0.009273716248571873
229,0.25,0.001,0.013447384548107103,0.01091150163438326,14.21108775616858,0.010143531588985424,0.010751513032508748
230,0.25,0.001,0.013427586472322277,0.010852707704770537,14.42962139101658,0.0102995156252795,0.010285499838313885
231,0.25,0.001,0.013463213361235004,0.010947763974480058,14.09657760470887,0.010061797005502405,0.010091004760137625
232,0.25,0.001,0.013530852519030384,0.010954799563202706,14.436200801784077,0.010304211849952945,0.01328772000436272
233,0.25,0.001,0.013489151767439101,0.010915163988680157,14.424627509268689,0.010295951112968372,0.016238653367119178
234,0.25,0.001,0.013573794019998286,0.011006641843809329,14.386320974541176,0.010268608832648948,0.0184618133519377
235,0.25,0.001,0.013534612521019134,0.011044741528504926,13.953237801717371,0.009959484512289344,0.01890767365694046
236,0.25,0.001,0.013529588971605801,0.011027624429838873,14.021009533795867,0.010007858339611611,0.014103969958211695
237,0.25,0.001,0.013397601011839939,0.010799309270670477,14.560827931448417,0.010393167688400012,0.010173162911087275
238,0.25,0.001,0.013484582409699856,0.010931826804589234,14.305643160943589,0.010211022955705631,0.012857792699443442
239,0.25,0.001,0.013489220309592693,0.010909267314106299,14.458057042147535,0.010319812307028933,0.01587094087153673
240,0.25,0.001,0.013371954494426914,0.010743769045126758,14.728351350518485,0.010512741863325114,0.011466339030968291
241,0.25,0.001,0.013382153895235003,0.010911689144456737,13.844485537055652,0.009881859769490116,0.013565170844750745
242,0.25,0.001,0.013471249884909843,0.010892220096512353,14.452884704384653,0.010316120417119667,0.011523870751261711
243,0.25,0.001,0.013348173145159242,0.010764527341810881,14.478751763154941,0.01033458369961095,0.009468438037272011
244,0.25,0.001,0.013345821737824122,0.010836623354033912,14.061547871615309,0.01003679362713441,0.012267729733139277
245,0.25,0.001,0.013415574232767584,0.01091368050567241,14.020612565112872,0.010007574992942806,0.015350272479866232
246,0.25,0.001,0.01339335409892509,0.010786322649103796,14.609805044160204,0.010428126369850252,0.009924883555088724
247,0.25,0.001,0.013410051911158492,0.010819615258819316,14.516807411585576,0.010361746903344451,0.011291302075343472
248,0.25,0.001,0.013388510178637972,0.010827841223524952,14.349989140237748,0.010242676045851355,0.013232241850346327
249,0.25,0.001,0.013363854458651216,0.010780583909988258,14.47664828871748,0.010333082290305124,0.01080155884847045
250,0.25,0.001,0.013305876554333785,0.010766334995663837,14.231590184722378,0.010158165727853233,0.008046599171523536
251,0.25,0.001,0.01332485628904078,0.010824527295447504,14.0118437396285,0.010001316016865453,0.012763848528265953
252,0.25,0.001,0.013356800571375487,0.01078455101853478,14.414886847684903,0.01028899846372941,0.011483784365866865
253,0.25,0.001,0.013301938510338222,0.010746001461771269,14.32347077553896,0.01022374787690147,0.009421884481395994
254,0.25,0.001,0.013340313001228428,0.010838486996540813,14.020232767231015,0.010007303902377598,0.013043620357556003
255,0.25,0.001,0.013300464543215658,0.010685451759121091,14.654531315661293,0.010460050903398497,0.010553111189178057
256,0.25,0.001,0.013321736718193243,0.010806746218435484,14.094007417450324,0.010059962467844628,0.010454571273710047
257,0.25,0.001,0.013301873552296447,0.010766008791393056,14.210987314909769,0.010143459896438093,0.010747848943408047
258,0.25,0.001,0.013378723401548956,0.010827497239873578,14.297072266016729,0.010204905257685032,0.014428718547735895
259,0.25,0.001,0.013328096633526545,0.010808121702180661,14.121940004213515,0.010079900074385093,0.013648749861334051
260,0.25,0.001,0.013328949012281259,0.010759758243842784,14.397745358623327,0.010276763282386386,0.010793790154691254
261,0.25,0.001,0.01335316263867911,0.010750990713921474,14.582570745192996,0.01040868718429193,0.017322301798100983
262,0.25,0.001,0.013269550959445299,0.010803420367607423,13.820194878613162,0.009864521683521171,0.014481942834598678
263,0.25,0.001,0.013293137953760135,0.010754326306064875,14.227500756970244,0.010155246792983757,0.011448509059846401
264,0.25,0.001,0.013355529769198527,0.010734295151435513,14.689399688925894,0.010484939107013485,0.010105696573321308
265,0.25,0.001,0.013272943560371044,0.010766507115005573,14.046070238780276,0.010025746066224323,0.009274699059980256
266,0.25,0.001,0.013253353105762332,0.010760219879266248,13.971519262691581,0.009972533378081072,0.008698245909597193
267,0.25,0.001,0.01327426841796756,0.010725706676818193,14.282140895032066,0.010194247605304829,0.012814933301082678
268,0.25,0.001,0.01329030652364265,0.010765316438449041,14.150044646414685,0.010099960489946241,0.00871384363355381
269,0.25,0.001,0.013305660448786245,0.01077116084055096,14.20333539128012,0.010137998137958687,0.009359293284692935
270,0.25,0.001,0.013313693811884719,0.01073332740253516,14.460374148958762,0.010321466201969137,0.01247338139052902
271,0.25,0.001,0.013208533325266721,0.010733689746220567,13.86902354923612,0.009899374410589664,0.008309704983340842
272,0.25,0.001,0.013161117404535376,0.010660878132145241,14.011341052999706,0.010000957211277448,0.00949847319030336
273,0.25,0.001,0.013246703439808853,0.01067064719588876,14.436219136114516,0.010304224936555686,0.010008248101387705
274,0.25,0.001,0.013338215325783692,0.010773855099832516,14.37067519190259,0.010257441250465803,0.014316553516047341
275,0.25,0.001,0.01334087644000071,0.010808141820114517,14.193444730017179,0.010130938422567579,0.016950486893100396
276,0.25,0.001,0.01334321943810779,0.010710692288203752,14.752682077272597,0.010530108549088221,0.01500287385923522
277,0.25,0.001,0.013337910225419077,0.010829365461572895,14.057885482433663,0.010034179502093978,0.011095852990235602
278,0.25,0.001,0.0131954880417632,0.010658967060499203,14.214664335647248,0.010146084465130083,0.00976312147187335
279,0.25,0.001,0.01323674360522431,0.010721175897238016,14.097241315398648,0.010062270746180334,0.011298388442290681
280,0.25,0.001,0.013219763447409882,0.01074416343632785,13.873263226161667,0.009902400589694266,0.012852830413196768
281,0.25,0.001,0.013371857853201025,0.010805896925113748,14.379645310287662,0.01026384390455936,0.017036760225892067
282,0.25,0.001,0.013340726640521751,0.010754583503659314,14.492746210914369,0.010344572598796837,0.015904452252600874
283,0.25,0.001,0.013419121298893449,0.01089040937772007,14.170902599623851,0.010114848393735797,0.017274055363876478
284,0.25,0.001,0.013407736401868334,0.010741067763354201,14.944011790828192,0.010666675082675369,0.017622006790978566
285,0.25,0.001,0.013335220506619708,0.010824006922943814,14.072841910103422,0.010044855039331493,0.012303247449121304
286,0.25,0.001,0.013279533066074102,0.010717469921066883,14.357801330118715,0.010248252198514428,0.012456713909549373
287,0.25,0.001,0.013292466574929163,0.010671872588689724,14.685808911591696,0.010482376096782082,0.010994859438921725
288,0.25,0.001,0.013244728086411516,0.010710034098175598,14.204424953693865,0.010138775841323245,0.010466625913977623
289,0.25,0.001,0.013335972566676752,0.010808097089306067,14.166214775048141,0.01011150233765035,0.012269244529306889
290,0.25,0.001,0.013186552734877049,0.010521479146805544,14.935072992133628,0.010660294783821292,0.01182612543925643
291,0.25,0.001,0.013189666956881731,0.010735953641112685,13.750609043466433,0.009814852993195169,0.012687965828393186
292,0.25,0.001,0.013249133164768988,0.010761912727687499,13.938382978835724,0.009948881498098304,0.0139681857877544
293,0.25,0.001,0.013231705049904459,0.010615617569654378,14.660554093078762,0.010464349816615818,0.013619932612138135
294,0.25,0.001,0.013255135650338928,0.010770221038159064,13.925462160833307,0.009939658929930983,0.011803790527795042
295,0.25,0.001,0.01314968679983779,0.01055691439958977,14.529895045646537,0.01037108854078982,0.009158218479050058
296,0.25,0.001,0.013159815089954724,0.010649079944218867,14.070160345809676,0.01004294100343303,0.011021086680037635
297,0.25,0.001,0.013156941830018913,0.010629707127627359,14.16262309300579,0.010108938681660093,0.009706789295056037
298,0.25,0.001,0.013147644564272577,0.010564391246215785,14.476551865015752,0.010333013465393113,0.011462111425186907
299,0.25,0.001,0.01315144328787595,0.010577963708392129,14.42177987273573,0.010293918538712156,0.009807205625942774
300,0.25,0.001,0.013093794368134588,0.010615826336197865,13.886533151920384,0.009911872342555592,0.010467063036880322
301,0.25,0.001,0.013199211533174538,0.010646865402591986,14.303347461672459,0.010209384340951077,0.01553033378773502
302,0.25,0.001,0.013222990045210114,0.01072138704787621,14.018983719692837,0.010006412362378899,0.015432034086968218
303,0.25,0.001,0.013226006735653632,0.010605754993382323,14.683890858022973,0.010481007036418967,0.014786016062966414
304,0.25,0.001,0.01320060738305445,0.010682106965328488,14.113676222728925,0.010074001586530282,0.013411683695656913
305,0.25,0.001,0.01313469449654768,0.010697780718940394,13.656466080681911,0.009747656017617352,0.014383594838104077
306,0.25,0.001,0.013181539641779764,0.010642393471668577,14.22937489488597,0.010156584507413255,0.01195589532809598
307,0.25,0.001,0.013251117127776728,0.010677739174030084,14.421209386625033,0.010293511339489674,0.013531945778855256
308,0.25,0.001,0.013157267059702745,0.010636187939560792,14.12812763904301,0.010084316658845831,0.013244886882603168
309,0.25,0.001,0.013068703734167922,0.010638989581018322,13.616118109313666,0.009718856609074709,0.014051457733980246
310,0.25,0.001,0.013138017216401315,0.010669098146860932,13.835823177999856,0.009875676786580911,0.011972448389445032
311,0.25,0.001,0.013224133811799996,0.01064638501320098,14.445703844569422,0.010310994892626282,0.012956672747220312
312,0.25,0.001,0.013054636671392289,0.010555028473653246,14.007804581471936,0.00999843296322051,0.008837169368884392
313,0.25,0.001,0.01311776648141207,0.010612014293998552,14.042235271854913,0.01002300875935397,0.011788043592657362
314,0.25,0.001,0.013107411977823615,0.010547778821916919,14.344183931140853,0.010238532427652287,0.012061683860208307
315,0.25,0.001,0.013048521095026093,0.010506927001592874,14.243093728436234,0.010166376679826006,0.009429417816655976
316,0.25,0.001,0.01313460025080186,0.010612139712864292,14.135870213030604,0.010089843121363743,0.010460772551596165
317,0.25,0.001,0.013092374570285196,0.010576552376697582,14.098667398933094,0.010063288650202066,0.010214518888720445
318,0.25,0.001,0.01313633960614796,0.0105665557787806,14.401069438253463,0.01027913593023088,0.009929942499314035
319,0.25,0.001,0.013078251981101293,0.01051506653091071,14.364092306869246,0.010252742545945215,0.009540000265198094
320,0.25,0.001,0.013124053774078201,0.010616862162729055,14.050302216359631,0.010028766749721365,0.014504674822092056
321,0.25,0.001,0.013167830475567315,0.01063509944434708,14.193423765504273,0.010130923458604049,0.014643664471805096
322,0.25,0.001,0.013144188228092888,0.010609045654334912,14.206939841832392,0.010140570907803279,0.015867370846016065
323,0.25,0.001,0.013132866809012546,0.01058023425233539,14.30495336061585,0.010210530592873555,0.015486495569348335
324,0.25,0.001,0.013138668311072153,0.0106260346062026,14.080799478190452,0.010050534959450715,0.0160563818312117
325,0.25,0.001,0.013137379770501901,0.010572852366455901,14.371611721066799,0.010258109722388864,0.018556598307830945
326,0.25,0.001,0.013217136698768162,0.010743647060086063,13.861434719673287,0.009893957687132967,0.01812988825674568
327,0.25,0.001,0.013137841317119547,0.010614744378458755,14.139435294787866,0.010092387790712252,0.011298713939530509
328,0.25,0.001,0.013065995780573497,0.010550893150943999,14.094635636998856,0.010060410875802181,0.009447111947728055
329,0.25,0.001,0.013092209259389665,0.010600561255584574,13.96319590337702,0.00996659236500858,0.010707013442048005
330,0.25,0.001,0.013149947410763621,0.010578695579926075,14.409295905190167,0.010285007783861646,0.010414130320506436
331,0.25,0.001,0.013079222833651202,0.010510595440226983,14.394588234955059,0.010274509803679556,0.011784669544015611
332,0.25,0.001,0.0130919109720254,0.010581913404166698,14.066026018417844,0.010039990020283971,0.011671957692929677
333,0.25,0.001,0.013036177694014203,0.010484253031299575,14.300985851614282,0.010207698680666868,0.0122678777469056
334,0.25,0.001,0.01309017251384579,0.010543541866639278,14.271318181511242,0.01018652261349839,0.012614050880074501
335,0.25,0.001,0.013156809042547181,0.0105781183830829,14.450983371594717,0.010314763291645051,0.014037716601576124
336,0.25,0.001,0.013040602598840274,0.010478686702991027,14.356976973106926,0.010247663792367542,0.011189268037144626
337,0.25,0.001,0.013051375081821876,0.01051822355048945,14.195782840980586,0.010132607309764872,0.012151168659329414
338,0.25,0.001,0.013100673492387629,0.010515388684269851,14.48793532271257,0.010341138702864076,0.013080574172948087
339,0.25,0.001,0.01313898664350396,0.010590529303842914,14.281555698086988,0.010193829905843674,0.01746510368372713
340,0.25,0.001,0.013101217651188666,0.010567360336739743,14.1997374508958,0.010135430014914917,0.012136367415743214
341,0.25,0.001,0.013110126179704456,0.010507465189910314,14.585310849700406,0.010410643004782588,0.01471441930958203
342,0.25,0.001,0.013071740859058347,0.010518545439708205,14.308108448690774,0.010212782618622965,0.012951303007347243
343,0.25,0.001,0.013003960841569896,0.010524347110271162,13.895756548949151,0.009918455780834511,0.016489364738975252
344,0.25,0.001,0.013001590110999156,0.01045890766580778,14.24919281378935,0.010170730059806817,0.011837444800351347
345,0.25,0.001,0.013021661292005576,0.010483612413438433,14.223226006281697,0.010152195579073302,0.008311853677566563
346,0.25,0.001,0.013058526753413794,0.010518928395452156,14.231908858842546,0.010158393189751995,0.010311451407947711
347,0.25,0.001,0.013063106342038928,0.010530805176529295,14.191015819465619,0.01012920472481486,0.014798767465565885
348,0.25,0.001,0.013065841203796835,0.01052405376643088,14.244176179097742,0.010167149306993393,0.012447982361274106
349,0.25,0.001,0.013102408452984174,0.010518255559294906,14.481592579400917,0.010336611405710861,0.012262442082698857
350,0.25,0.001,0.012995827483118018,0.010386929175563721,14.620265669228104,0.010435592911654606,0.00995256272809846
351,0.25,0.001,0.012979459639155923,0.010532701854801265,13.711630954136185,0.009787031373401988,0.011152379547378846
352,0.25,0.001,0.013065830879550983,0.010504479877523221,14.353811504205456,0.010245404357034587,0.014616925668503557
353,0.25,0.001,0.0131151604677908,0.010514388696579741,14.57472567336775,0.010403087561290329,0.01373061737311738
354,0.25,0.001,0.013053083616994266,0.01048826436286742,14.373246379469892,0.010259276502119836,0.013050176668912172
355,0.25,0.001,0.013091737087952623,0.010490706912298803,14.576172742400601,0.010404120444254534,0.014424895734659262
356,0.25,0.001,0.013056889190031147,0.010475496488252158,14.466125103547112,0.01032557109460893,0.012667844071984291
357,0.25,0.001,0.012962171643935963,0.010466473775945404,13.985892174587857,0.009982792415837157,0.011989255967949117
358,0.25,0.001,0.013043669799301764,0.01044470575025583,14.56459445300487,0.010395856140617324,0.010361903945782356
359,0.25,0.001,0.01293945704839559,0.010374197253643155,14.37571551222673,0.010261038909512299,0.009013431811971324
360,0.25,0.001,0.013026531783449475,0.01055505620156276,13.850149560382722,0.009885902612692878,0.009781771073383945
361,0.25,0.001,0.013061882010353661,0.010468811773601691,14.531564857091182,0.010372280411913763,0.015768946946731636
362,0.25,0.001,0.01301668624423244,0.01053703399625559,13.89597143112593,0.009918609158548131,0.017331616686923162
363,0.25,0.001,0.013044496731773419,0.010503330222424348,14.24069653396793,0.010164665620248344,0.014384653485779251
364,0.25,0.001,0.012899082261057966,0.010323473083852702,14.433713469936679,0.010302436452488708,0.008934387471526861
365,0.25,0.001,0.013048149836602596,0.010516460907524838,14.187584268434707,0.010126755366477306,0.012352637214852231
366,0.25,0.001,0.013046388748878372,0.010488257212860369,14.335769121687687,0.010232526139677149,0.011134179175964423
367,0.25,0.001,0.013109273318210412,0.0105613860162772,14.278360569681107,0.010191549300272025,0.01473915297538042
368,0.25,0.001,0.01305603256909072,0.010485285890805546,14.406464401842038,0.01028298672508354,0.013942166896803039
369,0.25,0.001,0.013004077657656448,0.01044626406696796,14.333987427224157,0.010231254409153574,0.013045114864196097
370,0.25,0.001,0.013031306364607694,0.010488519848103483,14.249776660667363,0.010171146795622673,0.017566846683621407
371,0.25,0.001,0.013001071107015925,0.010497879380392124,14.02788646530114,0.010012766927409808,0.0137271395485316
372,0.25,0.001,0.012888293262470905,0.010431716334721425,13.766657127436332,0.009826307728362835,0.011539931142968791
373,0.25,0.001,0.012978931970912553,0.010458332242803936,14.125441234094298,0.010082399167804639,0.011529867803411824
374,0.25,0.001,0.012946564847635319,0.01038605435170725,14.349099882074556,0.010242041314828377,0.013421261417014258
375,0.25,0.001,0.013005762766308918,0.010492054301525824,14.086821619047804,0.010054833418306784,0.011524892279079981
376,0.25,0.001,0.01296910021709128,0.010389351823383118,14.456910224298976,0.010318993736116328,0.010049630488668169
377,0.25,0.001,0.01294271108264008,0.010409124892359841,14.19821709350735,0.010134344820490615,0.011106217080461127
378,0.25,0.001,0.01299890312696363,0.010532729915163337,13.820434120290145,0.009864692448458348,0.014102963996785027
379,0.25,0.001,0.012926738627236747,0.01030284460533802,14.704301593939075,0.01049557572729413,0.010342995769211225
380,0.25,0.001,0.012970182272744499,0.010430769985746638,14.230866732982085,0.010157649345454735,0.010897413760955845
381,0.25,0.001,0.01297445778796463,0.010445364958135306,14.173035568013459,0.010116370855113105,0.012267161493322678
382,0.25,0.001,0.012860487046717578,0.010335793440892818,14.148383086934357,0.010098774508875344,0.007703858161611217
383,0.25,0.001,0.012878147611954684,0.010390739742220177,13.939434739371675,0.009949632219394487,0.010861489655716079
384,0.25,0.001,0.013003675590444602,0.010513004580453438,13.957720234225024,0.009962683964471822,0.010486096143722534
385,0.25,0.001,0.013079397450941261,0.010415540028973722,14.928256335643217,0.01065542921887453,0.012399218444313322
386,0.25,0.001,0.01299542708955432,0.010418014140904387,14.443822723146173,0.010309652193537596,0.012720012904277869
387,0.25,0.001,0.012957910699701543,0.010376912252499305,14.463915204652073,0.010323993722092844,0.00955794718382614
388,0.25,0.001,0.013011104807549117,0.010452509839497597,14.338364920581174,0.010234378958302051,0.010771195537277631
389,0.25,0.001,0.012916960464312278,0.010345603298386763,14.409884907505623,0.01028542819950437,0.009739537723362446
390,0.25,0.001,0.012916386405274746,0.01039918330850986,14.106405582288076,0.010068811978792346,0.009935946802475623
391,0.25,0.001,0.01294554815989689,0.010407283214492436,14.224436375214593,0.010153059511216696,0.010391890803085906
392,0.25,0.001,0.012968076422610173,0.010411468933366039,14.327228110110555,0.010226429771670632,0.010493920317717962
393,0.25,0.001,0.01296915413816357,0.010437713596687485,14.186192062489852,0.010125761643461706,0.012318971566855907
394,0.25,0.001,0.012958179114154178,0.010429202642719874,14.172383238458984,0.010115905238014977,0.015621741435357503
395,0.25,0.001,0.012920388341642242,0.010375523575397167,14.261422681925058,0.010179459444628879,0.011651961598545313
396,0.25,0.001,0.012973654719210779,0.010474336809480978,14.006177088450686,0.009997271297966228,0.010919057897159032
397,0.25,0.001,0.012986142365922264,0.010387201142249159,14.564466215287561,0.010395764607628524,0.011451872730893748
398,0.25,0.001,0.012817657268025473,0.010246276010674923,14.410020457503265,0.010285524951822458,0.008884192444384098
399,0.25,0.001,0.012911694188099036,0.010424885391041382,13.936076548979743,0.009947235224111166,0.00995484839326569
400,0.25,0.001,0.012899880249663495,0.010299574891173606,14.572111579783098,0.010401221684356244,0.009666381935988153
401,0.25,0.001,0.012890757960984644,0.010368457241644195,14.134972833479528,0.010089202593490028,0.011252632298107659
402,0.25,0.001,0.012901037514738029,0.010376463204731567,14.147714897006532,0.010098297571025362,0.009849968831986189
403,0.25,0.001,0.01288444412676367,0.010322393580797541,14.357732255184855,0.010248202894493116,0.01021137461066246
404,0.25,0.001,0.01282281482086715,0.0102502697336426,14.41654350588549,0.010290180946385076,0.00905784931299942
405,0.25,0.001,0.01283592710722338,0.010349878112268623,13.931818927121338,0.009944196236346422,0.011241455828504903
406,0.25,0.001,0.012970053417776645,0.01043604355200688,14.200591952410187,0.010136039937480504,0.013511642481067352
407,0.25,0.001,0.012868062791148141,0.010287248850561004,14.462881337751094,0.010323255772841608,0.009691907758159297
408,0.25,0.001,0.01291695393822304,0.010394716343881156,14.134620549917804,0.01008895114198273,0.010767880428050245
409,0.25,0.001,0.012962959715891583,0.010420584060652478,14.24747375171167,0.010169503034769215,0.011393754676516567
410,0.25,0.001,0.012985470174176478,0.010389455664711651,14.548064670236304,0.010384057580468453,0.013176460218216692
411,0.25,0.001,0.01285981808841447,0.010366380424181814,13.973225120227319,0.009973750978035203,0.009904816480619567
412,0.25,0.001,0.012961316163808764,0.010433252311077123,14.167268468581668,0.010112254438673567,0.012175057083368301
413,0.25,0.001,0.012910715302038018,0.01031139186950068,14.566608589843899,0.010397293782900713,0.011814201516764504
414,0.25,0.001,0.012856693829075049,0.010377830620809552,13.89154975163616,0.009915453070404113,0.010501625681562083
415,0.25,0.001,0.012887778466517301,0.010312445309186185,14.432168424275218,0.010301333636170749,0.012186795207006591
416,0.25,0.001,0.012831778365727013,0.010303718151756925,14.167247261569669,0.010112239301620035,0.00823376647063664
417,0.25,0.001,0.012868996377132633,0.010382355265956928,13.935137524872946,0.009946564971358277,0.008552424410091979
418,0.25,0.001,0.012886183718925292,0.010409478077660418,13.879458511371192,0.0099068226348117,0.012373293217803751
419,0.25,0.001,0.01294495398975672,0.010351126485283335,14.535809339695863,0.010375310021196191,0.01028707783137049
420,0.25,0.001,0.012829335752537606,0.010238530098353592,14.518874940195992,0.010363222655386148,0.011989470172141279
421,0.25,0.001,0.012916529683218608,0.01046121113621664,13.759604162575272,0.009821273492202192,0.012206987610885076
422,0.25,0.001,0.012856670213558127,0.010235468091894042,14.68921714773388,0.010484808813514546,0.010398057555513722
423,0.25,0.001,0.01285064300353705,0.010322643780948772,14.16690875848523,0.01011199768628496,0.010180914042783635
424,0.25,0.001,0.012942557296007507,0.01043413131108421,14.057219442353563,0.010033704098753435,0.014294940446104323
425,0.25,0.001,0.012944542349732883,0.010323988706383553,14.685582624962395,0.010482214578845392,0.01330614389319505
426,0.25,0.001,0.012852551103603723,0.010345072938643925,14.051908528017822,0.010029913296229709,0.012607422058603593
427,0.25,0.001,0.012878847262915452,0.010385826653584583,13.970888133153938,0.009972082893043497,0.012382554023393564
428,0.25,0.001,0.012865396815381744,0.010242900535610019,14.696469873554257,0.010489985634228592,0.012815938331186771
429,0.25,0.001,0.01287546111293556,0.010393117206093734,13.911054774426598,0.009929375285101068,0.011170247104018927
430,0.25,0.001,0.012922312344781927,0.010377342544022429,14.262010565013933,0.01017987906139467,0.01197686285844871
431,0.25,0.001,0.012902616903477309,0.010247852858201506,14.877297968036679,0.010619056365479428,0.01310082378664187
432,0.25,0.001,0.012822753251108971,0.010320034073916216,14.025238417180068,0.010010876814546802,0.012713935226202011
433,0.25,0.001,0.012862333649892387,0.010362265162479616,14.010384897731043,0.01000027473071452,0.011720095495028155
434,0.25,0.001,0.012820214039958047,0.010298461090855318,14.131903011816346,0.010087011428848214,0.0104905073530972
435,0.25,0.001,0.012870547143072984,0.010315150323080259,14.320443279294338,0.010221586923122297,0.010176184853272778
436,0.25,0.001,0.012894849766564982,0.01032409717472302,14.40649702496517,0.010283010010681777,0.00918822708938803
437,0.25,0.001,0.012768639367720463,0.010246643259174083,14.133265996620533,0.010087984294518583,0.008871633692511491
438,0.25,0.001,0.012886481678391144,0.010364849940124526,14.131224497023306,0.010086527121358534,0.01071145265762295
439,0.25,0.001,0.012878933447825296,0.010304695027163092,14.426031397140989,0.010296953174261948,0.00997309306902545
440,0.25,0.001,0.012894331133744536,0.010365125279154055,14.173669542251996,0.010116823370629548,0.011211640334555082
441,0.25,0.001,0.012821221888101772,0.01024887520901877,14.41543239836005,0.01028938786463958,0.010088242324335235
442,0.25,0.001,0.012839423066738328,0.010337571695465184,14.02037585801775,0.010007406037129015,0.010752087059829916
443,0.25,0.001,0.012829316401977119,0.010343344485920041,13.931387945608872,0.009943888612140522,0.01355050371161529
444,0.25,0.001,0.012779090307598301,0.010223370396092644,14.322255108933577,0.010222880163407264,0.013351487261908395
445,0.25,0.001,0.012839617139334202,0.010353170631312216,13.934046512128088,0.009945786232782361,0.014189017936587334
446,0.25,0.001,0.012829864775639,0.010293021770808982,14.216468414642408,0.010147372173192297,0.013714143939848458
447,0.25,0.001,0.012845733446640606,0.010262149429372296,14.478405341542437,0.010334336432221583,0.009900152550211974
448,0.25,0.001,0.012871129761625327,0.010341517845838168,14.175945363592694,0.010118447796996926,0.010773420333862305
449,0.25,0.001,0.01278305790799244,0.01023981573565665,14.252330271713891,0.010172969501580222,0.012429482436605863
450,0.25,0.001,0.012874305088865437,0.010365580916769056,14.058889936992767,0.010034896457525172,0.011942833395940917
451,0.25,0.001,0.012722043700807689,0.01020002096190065,14.133415245485189,0.01008809082475745,0.010732968603926045
452,0.25,0.001,0.012916825279083404,0.01039348988313328,14.140771028756513,0.010093341205393656,0.01039629043745143
453,0.25,0.001,0.012805405120686389,0.010244208877601076,14.352943625601696,0.010244784886225336,0.013064086304179259
454,0.25,0.001,0.012776766072567051,0.010253473139461358,14.140534557165319,0.010093172417676887,0.011866260985178607
455,0.25,0.001,0.012774960372442138,0.010247302175588304,14.164996865326152,0.010110633023073627,0.013589023213301386
456,0.25,0.001,0.01279331445420721,0.0102450327041461,14.280571009535661,0.010193127058911964,0.010259561839380435
457,0.25,0.001,0.01277500273964953,0.010310275181854704,13.812332677957773,0.009858909834373857,0.010318138237510408
458,0.25,0.001,0.01282172745052716,0.010214858804544785,14.608892095701036,0.01042747472926555,0.00998075505984681
459,0.25,0.001,0.012801443115058913,0.010279639680986007,14.132185164174125,0.010087212822394094,0.011337780460183109
460,0.25,0.001,0.012791077182844536,0.01028525955920406,14.042602977426245,0.01002327121871966,0.015123957901128702
461,0.25,0.001,0.012839937762500751,0.010317773401081417,14.134208658213721,0.0100886571436215,0.011041643497134958
462,0.25,0.001,0.012817780521395445,0.010195650843434345,14.694414768358897,0.01048851874972084,0.009292356736425842
463,0.25,0.001,0.012783815191653364,0.010260047463923328,14.143194282550391,0.010095070865489216,0.010400664593492235
464,0.25,0.001,0.012793087263871667,0.010249599773427676,14.253703108043718,0.010173949399031918,0.013609112107328005
465,0.25,0.001,0.012759088645609491,0.010181467645416779,14.444987457946926,0.01031048355313842,0.012999348475464753
466,0.25,0.001,0.012857983417098562,0.010381582707694953,13.87775026615208,0.00990560333058678,0.011786993859069688
467,0.25,0.001,0.012779940115538378,0.010225546760325182,14.314820527447464,0.010217573538506398,0.011571866061006273
468,0.25,0.001,0.012812442975095985,0.01025850508899444,14.3122671239242,0.010215750980673947,0.010930265965206283
469,0.25,0.001,0.012782783274855328,0.010240497463781268,14.246969759318532,0.010169143297158125,0.009556229492383344
470,0.25,0.001,0.012811420389740275,0.01025347125859963,14.334746631258566,0.010231796310677064,0.009599142508315188
471,0.25,0.001,0.01278615913246838,0.010237083084935955,14.28502181922894,0.010196303939492462,0.010365848296454974
472,0.25,0.001,0.01280719222396175,0.010232145387979912,14.430562842446026,0.010300187610596735,0.012127003632485867
473,0.25,0.001,0.012764393559185683,0.010221167610990097,14.252238870541449,0.010172904261628443,0.011250736524483987
474,0.25,0.001,0.012693617035222666,0.010156540473362927,14.21777732681237,0.010148306443120893,0.010463979095220566
475,0.25,0.001,0.01283870028527704,0.01030537915987607,14.196731453128432,0.010133284406230144,0.01274447249514716
476,0.25,0.001,0.012830520490489553,0.010239712452210833,14.518888727668445,0.010363232496551352,0.011285011257444109
477,0.25,0.001,0.012726181730955912,0.01016300025425651,14.364068991980517,0.010252725904340126,0.010367258385355984
478,0.25,0.001,0.01273404928448002,0.010236670930293778,13.995307756811016,0.009989513031271246,0.013771899709744113
479,0.25,0.001,0.012729948372887516,0.010185259826991406,14.26043608835682,0.010178755237942056,0.01613501020308052
480,0.25,0.001,0.01279818500713206,0.010285654490071287,14.08022093598009,0.010050122009978651,0.01696802649114813
481,0.25,0.001,0.012803719142192296,0.010268612753390392,14.206735930407834,0.01014042536074792,0.014171331189572811
482,0.25,0.001,0.012842104282949693,0.010228149517733048,14.648603474306885,0.010455819753252594,0.013082950375974178
483,0.25,0.001,0.012859304884134412,0.010319365017699,14.233822545095878,0.010159759132830747,0.011924676996256624
484,0.25,0.001,0.012795985715058439,0.010226278993913627,14.400637437778464,0.010278827578714107,0.010553700982459955
485,0.25,0.001,0.012813256966965706,0.010274744695075276,14.2258223251492,0.010154048768843113,0.014996992557176523
486,0.25,0.001,0.012808299532346882,0.010230095041483131,14.448258057200238,0.010312818027980184,0.012724322932107108
487,0.25,0.001,0.012748825623401074,0.010215441962763267,14.19708158451071,0.010133534321563676,0.011194250280303615
488,0.25,0.001,0.012772539682904928,0.010309359864821352,13.80366080314431,0.009852720059346403,0.011543705128133297
489,0.25,0.001,0.012790084973633434,0.010267868902179024,14.134498803714669,0.010088864242480134,0.012791921251586505
490,0.25,0.001,0.012723657177319445,0.010075902206536319,14.838020296726366,0.010591020911296479,0.01620127194161926
491,0.25,0.001,0.01278111396453054,0.01033561805622939,13.704559291196045,0.0097819837910036,0.013991326093673706
492,0.25,0.001,0.012760099408405771,0.010216863056266803,14.252297653254203,0.010172946219310638,0.012651603535882064
493,0.25,0.001,0.01275995891304427,0.010162486742571688,14.556234247818553,0.010389888827850502,0.01129816033478294
494,0.25,0.001,0.012776797320830355,0.010267186381633242,14.063858722416288,0.01003844305668543,0.011677597250257219
495,0.25,0.001,0.012814598870725533,0.010250153092890613,14.371154908737518,0.010257783660769106,0.013859150931239128
496,0.25,0.001,0.012803959862891503,0.010205741974008259,14.560413917877272,0.010392872175501264,0.01190002408943006
497,0.25,0.001,0.01274042902628192,0.010226432785100343,14.08843514039056,0.010055985110914033,0.012962681773517813
498,0.25,0.001,0.012747284398393701,0.010185526153368735,14.356093264442201,0.010247033022442684,0.010536005321357931
499,0.25,0.001,0.012714728458003486,0.0101495064535431,14.375503414126072,0.010260887519005049,0.009189230323370014
500,0.25,0.001,0.012766043359554922,0.01025030041719197,14.098223478695,0.010062971790645966,0.011376765822725636
