epoch,beta,learning_rate,train_loss,train_reconstruction_loss,train_kl_unnormalized,train_kl_normalized,mean_unclipped_gradient_norm
1,0.0,0.001,0.08657858481873637,0.08657858481873637,32.523433322491854,0.023214442057453145,0.11252669245004654
2,0.02,0.001,0.061931066538976585,0.057083522398834644,339.57047172214675,0.24237721036555798,0.09194367844611406
3,0.04,0.001,0.05036405869152235,0.042130772672269654,288.37085810122284,0.20583216138559804,0.08507502358406782
4,0.06,0.001,0.041982549234576845,0.038060357680787214,91.58316822881284,0.06536985598059446,0.08610789105296135
5,0.08,0.001,0.03903842924729638,0.03452873796872471,78.97597311268682,0.056371144263159756,0.07546863425523043
6,0.1,0.001,0.03646886575481166,0.032730321424162906,52.37702291737432,0.03738545533003163,0.045712290331721306
7,0.12,0.001,0.03416536405034687,0.0312840496716292,33.63934850278108,0.024010955390992923,0.035136301070451736
8,0.14,0.001,0.03132640457023745,0.02839016000861707,29.383419202721637,0.02097317573356291,0.03249448980204761
9,0.16,0.001,0.02840594453332217,0.02518213767072429,28.228458371369737,0.020148792556295314,0.031870043370872736
10,0.18,0.001,0.026328741872440213,0.02238782336530478,30.67348037388014,0.02189399027400438,0.04242689802777022
11,0.2,0.001,0.025113640790400297,0.02080673653146495,30.16986430624257,0.02153452127497685,0.05004566255956888
12,0.22,0.001,0.023648516347874765,0.019579210035178974,25.914085338426673,0.018496848921075427,0.030645130202174187
13,0.24,0.001,0.022082440198763556,0.017610821549011314,26.103074330868928,0.018631744704403232,0.029310191283002496
14,0.25,0.001,0.021066334714060244,0.016840311722910922,23.682632545802903,0.016904091752892866,0.06650791503489017
15,0.25,0.001,0.020218350187591886,0.015880659101125988,24.30842009834621,0.017350763810382735,0.046590975020080805
16,0.25,0.001,0.0196077980587016,0.015431363524302192,23.40474032526431,0.016705738990195795,0.05326003197114915
17,0.25,0.001,0.01933868051223133,0.015343837634376857,22.387100767052694,0.015979372424734257,0.03342752350727096
18,0.25,0.001,0.018966812510853227,0.01495290574334238,22.49393376889436,0.016055627244035947,0.02453520428389311
19,0.25,0.001,0.01893060283492441,0.014814026265040688,23.069294954382855,0.01646630617728969,0.04530032246839255
20,0.25,0.001,0.01901414543390274,0.015118828537347523,21.829355853536853,0.01558126756141103,0.05099138664081693
21,0.25,0.001,0.019018325031451556,0.014789936991165514,23.6958857163139,0.016913551546262597,0.051055695628747344
22,0.25,0.001,0.018353579533488856,0.014486158363845038,21.673029294221298,0.015469685434847464,0.0370832021581009
23,0.25,0.001,0.018276763691202454,0.014236870869670225,22.639560367750086,0.016159571996966514,0.03414972103200853
24,0.25,0.001,0.017958542477825412,0.01415171641856432,21.333453385726266,0.015227304343844587,0.027645243622828275
25,0.25,0.001,0.017807071801760922,0.013918777822476367,21.790002176036005,0.015553177855842973,0.017474706924986094
26,0.0,0.001,0.013300015396721985,0.013300015396721985,27.596649435292118,0.019697822580508294,0.03156446118373424
27,0.02,0.001,0.012617020997340264,0.011882571697882984,51.4481773044752,0.03672246774052477,0.04834753763861954
28,0.04,0.001,0.013049133470200975,0.011050869070965311,69.98920951511549,0.04995660921849785,0.029950386320706457
29,0.06,0.001,0.013797283528939537,0.010837693196599898,69.10643615722657,0.04932650689309534,0.04124825727194548
30,0.08,0.001,0.013864254627538763,0.010869550154260967,52.44476364799168,0.03743380702925887,0.022026593913324177
31,0.1,0.001,0.014175479146449461,0.011532361165660879,37.030083730946416,0.02643118039325226,0.03039833955699578
32,0.12,0.001,0.014505483550222024,0.0118639484371828,30.839924422554347,0.022012794020381404,0.026111162384040654
33,0.14,0.001,0.014889175703992015,0.011807127523681392,30.842498198799465,0.02201463111977121,0.017184919444844127
34,0.16,0.001,0.015157007668977198,0.011657678886600163,30.640999122287916,0.021870805940248334,0.018221614009235054
35,0.18,0.001,0.01550698393712873,0.011849894973894824,28.46434088997219,0.020317159807260662,0.013105818536132574
36,0.2,0.001,0.01589101085682278,0.012138516812220864,26.28622000321098,0.018762469666817258,0.012975716555956751
37,0.22,0.001,0.016035578821016395,0.011967896329967871,25.90374173703401,0.01848946590794719,0.019686846528202295
38,0.24,0.001,0.016410041308921316,0.012309792969861757,23.935200732687246,0.017084368831325657,0.03753267810679972
39,0.25,0.001,0.016375479879586593,0.012366927609495496,22.463929300722867,0.01603421077853167,0.024196455953642726
40,0.25,0.001,0.016373605661742067,0.012401596432470756,22.259141175643258,0.015888037955491263,0.01910738623701036
41,0.25,0.001,0.016111535198338654,0.012113643178473348,22.404189814691957,0.015991570174655214,0.01654005702584982
42,0.25,0.001,0.016032463328345962,0.01231500071513912,20.832661504330844,0.014869851180821445,0.02646299812477082
43,0.25,0.001,0.016029297414681187,0.012176171366287314,21.592918943322225,0.015412504599087955,0.03633364615961909
44,0.25,0.001,0.015861618032921916,0.012098099323718444,21.090760222725248,0.015054075819218592,0.024461615597829223
45,0.25,0.001,0.01559591745228871,0.011875870119294394,20.847146822058637,0.014880190451148205,0.016977014834992588
46,0.25,0.001,0.015438598353901635,0.01193465169357217,19.63611664150072,0.014015786325125425,0.017205463955178857
47,0.25,0.001,0.015449415876165681,0.011925591487923394,19.747511954929518,0.014095297612369391,0.020702875044662505
48,0.25,0.001,0.015411208780563396,0.011760003459842308,20.46135442982549,0.014604821149054597,0.013085697370115668
49,0.25,0.001,0.015323634559045667,0.011704600213662437,20.281068436995795,0.014476137356884937,0.02158064499963075
50,0.25,0.001,0.015216043089394985,0.011619587874282961,20.15453360184379,0.014385819844285361,0.014790681365411729
51,0.0,0.001,0.011029857089338095,0.011029857089338095,24.496478752467944,0.017484995540662344,0.020275386632420123
52,0.02,0.001,0.010502698393943516,0.009864274177538311,44.72162356169328,0.03192121596123717,0.018703520530834794
53,0.04,0.001,0.010915409255286921,0.009249730675440767,58.3403888868249,0.041641962089097,0.014347507327329367
54,0.06,0.001,0.011486681558839654,0.009066075532008772,56.52114951092264,0.04034343291286412,0.011461968999356031
55,0.08,0.001,0.01175864292713611,0.009320225133358137,42.70279318768045,0.030480223545810457,0.011128587124403566
56,0.1,0.001,0.011986053103338118,0.009706840315914672,31.93177078910496,0.02279212761534972,0.010941866028588265
57,0.12,0.001,0.012422953189715095,0.009954628518418126,28.817693643984587,0.020569374478218834,0.023940916056744754
58,0.14,0.001,0.012799583942345951,0.010005648733805056,27.959308541339375,0.01995667990102739,0.013524961424991488
59,0.16,0.001,0.013142210601464562,0.010035985473381437,27.198885395215907,0.019413908205007786,0.013261261396110058
60,0.18,0.001,0.013497055014190467,0.010407818910544334,24.044553176216457,0.01716242196732081,0.016975252656266093
61,0.2,0.001,0.013716936313911625,0.010384839303467584,23.34133891230044,0.01666048459122087,0.020647456753067672
62,0.22,0.001,0.014173709503982378,0.010579057199799496,22.891399765014647,0.016339328882951212,0.02703348477371037
63,0.24,0.001,0.014390861129631166,0.010656456689795722,21.79958678535793,0.015560019118742278,0.019802531227469444
64,0.25,0.001,0.014252753960697548,0.01077896865165752,19.467092928679094,0.013895141276715985,0.014966296497732401
65,0.25,0.001,0.014271874320895776,0.010782929890505645,19.55204568945843,0.013955778507821865,0.016179145546630025
66,0.25,0.001,0.01416730536552875,0.01065792564464652,19.66656500774881,0.01403751963436746,0.021180728974286467
67,0.25,0.001,0.014236849352069522,0.010853661904516428,18.959383889903194,0.013532750813635398,0.02471669384976849
68,0.25,0.001,0.014190941895155802,0.010738484180815841,19.347574217423148,0.013809831704085045,0.023332490352913737
69,0.25,0.001,0.014165459411299748,0.010732256685910017,19.239669036865234,0.013732811589482679,0.023207881138660014
70,0.25,0.001,0.014070352037315784,0.010597949790889802,19.45934411753779,0.01388961036226823,0.02189904171973467
71,0.25,0.001,0.013963156177297882,0.010523124525080557,19.277938643745753,0.013760127511595827,0.018148071016184986
72,0.25,0.001,0.013801283381231454,0.01046656234918729,18.687776416280997,0.01333888395166381,0.014102785207796842
73,0.25,0.001,0.013786426737256672,0.010401783025135164,18.96754442297894,0.013538575605266908,0.01510714238975197
74,0.25,0.001,0.01373049936702718,0.01036833354636379,18.84157656794009,0.013448662789393356,0.014073300117161125
75,0.25,0.001,0.013559997689140879,0.010279785825506501,18.38230786530868,0.013120847869599342,0.012864082353189588
76,0.0,0.001,0.009868195531484873,0.009868195531484873,22.57623984295389,0.016114375334014195,0.01853239198680967
77,0.02,0.001,0.009344139565592227,0.008745832255353098,41.911434074070144,0.02991537050254828,0.01081585930660367
78,0.04,0.001,0.009849239731936351,0.008281787501081177,54.900013003141986,0.039186304784541034,0.012065395480021834
79,0.06,0.001,0.010455249128458292,0.0082586032135979,51.29168170431386,0.036610764956683695,0.013860975508578122
80,0.08,0.001,0.010616562661269436,0.008432611810934285,38.24644317626953,0.027299388419892597,0.010283428593538702
81,0.1,0.001,0.010950070822044558,0.008938874628232873,28.176857591711958,0.020111961164676628,0.013445376534946263
82,0.12,0.001,0.011423087492585183,0.00919520850090877,26.01048978722614,0.018565660090810947,0.017332585295662284
83,0.14,0.001,0.011639869099725848,0.008973878225230653,26.678950168775476,0.019042790984136672,0.014731742325238883
84,0.16,0.001,0.01202875031563251,0.009253935021874698,24.29697839488154,0.017342596998487895,0.011975102534051985
85,0.18,0.001,0.012222503206652144,0.009216410812476407,23.39741735043733,0.016700512027435638,0.016308334656059742
86,0.2,0.001,0.012549571717238944,0.009464016374524521,21.614314502218495,0.015427776232846892,0.01341590698575601
87,0.22,0.001,0.01279377815840037,0.009543876827734967,20.695963287353514,0.014772279291472887,0.014286146149970591
88,0.24,0.001,0.013045797375557215,0.009526209419836168,20.54559493686842,0.014664949990626994,0.0115223572938703
89,0.25,0.001,0.013210312463343143,0.00981855789280456,19.007392518416694,0.013567018214430189,0.01612113998271525
90,0.25,0.001,0.013177722635800424,0.00964792386993118,19.78099260744841,0.014119195294395726,0.014264163852203637
91,0.25,0.001,0.013133302687302879,0.009902765164556711,18.10393293629522,0.012922150561238558,0.013051877787802368
92,0.25,0.001,0.013056682487544807,0.009734372721742029,18.61822287518045,0.013289238312048857,0.013325351930689067
93,0.25,0.001,0.01307304450513228,0.0097822116282971,18.441827442335047,0.013163331507733795,0.012278868234716356
94,0.25,0.001,0.0128502676749359,0.009552918018206307,18.478348839801292,0.013189399600143677,0.010811527026817203
95,0.25,0.001,0.01303548712445342,0.009868599604005398,17.747238092837126,0.012667550387464045,0.012755673960782588
96,0.25,0.001,0.01296389492471581,0.009650237906886183,18.56973468946374,0.013254628614892034,0.017607829999178648
97,0.25,0.001,0.013104530294304308,0.009769427274232325,18.6899180204972,0.013340412577085795,0.021318483049981296
98,0.25,0.001,0.012912157145531282,0.009711451634116795,17.93675298276155,0.012802821543727017,0.01056561031145975
99,0.25,0.001,0.013006084533813207,0.009670884307959805,18.69046226169752,0.013340801043324425,0.012811766122467816
100,0.25,0.001,0.012915914619098539,0.00956695952007304,18.767545219089673,0.013395820998636454,0.011780934582930058
101,0.25,0.001,0.012952367637468421,0.009723934612196426,18.092138937245245,0.01291373228925428,0.018197635654360056
102,0.25,0.001,0.01295290805561387,0.009602052969453127,18.778191707445227,0.01340342020517147,0.027168152504600585
103,0.25,0.001,0.01291377372715784,0.009729428200618081,17.845072107729706,0.012737381946987656,0.02004018984735012
104,0.25,0.001,0.012778125257919664,0.009469727872182494,18.540259253460427,0.013233589759786172,0.01411802670918405
105,0.25,0.001,0.012769226802755957,0.00960835565853378,17.7135231681492,0.012643485487615418,0.018781840684823692
106,0.25,0.001,0.012768960630764131,0.009520862113846385,18.202344114884085,0.012992394086284144,0.016440623556263745
107,0.25,0.001,0.012708265917456668,0.009541440196335316,17.746891950524372,0.0126673033194321,0.01949670462636277
108,0.25,0.001,0.012571321444019028,0.009375268982156463,17.910677843508513,0.012784209738407219,0.011609267035964876
109,0.25,0.001,0.012614050118819527,0.009384799197964047,18.09672274382218,0.0129170040998017,0.011013286653906107
110,0.25,0.001,0.012534726986094662,0.009351867534544157,17.836744242129118,0.012731437717436915,0.01527267275378108
111,0.25,0.001,0.01252652317609476,0.009461859629853912,17.174374920388928,0.01225865447565234,0.012231930159032345
112,0.25,0.001,0.012461204243742901,0.009312777512747308,17.64378424934719,0.012593707529869514,0.012602151196915656
113,0.25,0.001,0.012486826231622178,0.00940651325913875,17.262073732459026,0.012321251771919362,0.01602969749365002
114,0.25,0.001,0.012407429184278717,0.009329521396885747,17.248594897726306,0.012311630904872453,0.012637695006560534
115,0.25,0.001,0.01246655296696269,0.009272016941205314,17.902180696570355,0.012778144679921739,0.01407879521138966
116,0.25,0.001,0.012410357545899309,0.009321718395728132,17.308733732804008,0.01235455655446396,0.01751001493539661
117,0.25,0.001,0.01241129932358213,0.009207066383374774,17.95652152351711,0.012816931851189943,0.014544769015628844
118,0.25,0.001,0.012411284608685453,0.009363161991147891,17.081679667597232,0.012192490840540493,0.014138110680505633
119,0.25,0.001,0.01235332972491565,0.009129971759798733,18.06369857788086,0.012893432246881413,0.011391047621145844
120,0.25,0.001,0.012475650522695935,0.009317455375972,17.69852581853452,0.012632780741280885,0.01691931445384398
121,0.25,0.001,0.012281425507820172,0.009105855024055294,17.79589725162672,0.01270228212107546,0.014629846380557865
122,0.25,0.001,0.012341513314648814,0.009205334285355133,17.575147827811865,0.012544716508074136,0.012996990932151675
123,0.25,0.001,0.0123360444508169,0.009091811214128265,18.180683036472487,0.01297693293110099,0.013769157696515322
124,0.25,0.001,0.012429969676810763,0.009175937979117683,18.235594426030698,0.013016127356196073,0.022835917421616614
125,0.25,0.001,0.012336881887977538,0.009318861867422644,16.912983139701513,0.012072079328837625,0.02146122546400875
126,0.25,0.001,0.01227537746662679,0.009083585789346177,17.886801313317342,0.012767167247192963,0.012551989406347275
127,0.25,0.001,0.012253028138176254,0.009156899356647678,17.35070507215417,0.012384514683907331,0.010625719791278243
128,0.25,0.001,0.012190123987586602,0.009013879542117534,17.799675485362176,0.01270497893316358,0.009997220186050981
129,0.25,0.001,0.012152657722649366,0.00899004419941617,17.723286570673405,0.012650454368789012,0.012652254314161837
130,0.25,0.001,0.012080714981193128,0.009040678859404896,17.036362822159475,0.012160144769564223,0.011558388476260006
131,0.25,0.001,0.012212066789684088,0.009078169063381526,17.5623640972635,0.012535591789624198,0.019245745497755706
132,0.25,0.001,0.012170067316164141,0.009084965150965296,17.288911554087765,0.012340407961518748,0.012114261626265943
133,0.25,0.001,0.012170825971533423,0.009063426599554393,17.413866457731828,0.012429597757124789,0.012466381536796689
134,0.25,0.001,0.012114097680086675,0.009052770082717357,17.155680598383366,0.012245310919616963,0.016981737513560802
135,0.25,0.001,0.012152923619293649,0.009052477242506069,17.374901962280273,0.012401785840314256,0.015074138122145087
136,0.25,0.001,0.01210791206230288,0.009022295839436676,17.291793491529383,0.012342465018936034,0.014336201478727162
137,0.25,0.001,0.012211534777737182,0.009020501925893452,17.882547892694888,0.012764131258169085,0.01677378371823579
138,0.25,0.001,0.012086699805829836,0.00892061835721783,17.742720239058784,0.012664325652433108,0.012136682926211506
139,0.25,0.001,0.01208111050174288,0.009025241159226583,17.125091619076937,0.012223477244166265,0.012350302073173225
140,0.25,0.001,0.012110513748358125,0.00894397233977266,17.745298170006794,0.012666165717349603,0.018479333026334643
141,0.25,0.001,0.012114427044339801,0.009010638798708502,17.393629787279213,0.012415153309978026,0.015885232016444206
142,0.25,0.001,0.01207512213808039,0.009014732151737679,17.150425189474355,0.012241559735527733,0.01314880105201155
143,0.25,0.001,0.01210141880032809,0.009070651767694431,16.984418728040612,0.01212306832836589,0.01299494644626975
144,0.25,0.001,0.012038224741168644,0.008936806792474312,17.380346414317255,0.012405671958827448,0.019805552437901497
145,0.25,0.001,0.01196179814312769,0.00885131418624002,17.43115307351817,0.012441936526422677,0.016266868100501597
146,0.25,0.001,0.012059600878020991,0.009058225090089052,16.819710491014565,0.012005503562465785,0.017453433538321406
147,0.25,0.001,0.011965560516261535,0.00888200765070708,17.280231210459835,0.012334212141655842,0.02033978665713221
148,0.25,0.001,0.01197367977027012,0.008914143187196358,17.145642255700153,0.012238145792790972,0.013616392330732197
149,0.25,0.001,0.011818576636521713,0.008780509877302077,17.025325277577277,0.012152266436529106,0.01103257219074294
150,0.25,0.001,0.011857682345030101,0.008850243736220443,16.853686291238535,0.012029754668978255,0.012378857412841171
151,0.25,0.001,0.011841103904273198,0.008766439751438473,17.23041701109513,0.012298655967947988,0.01511487941024825
152,0.25,0.001,0.011866413729022378,0.008820434173812036,17.069669789853304,0.012183918479552679,0.018089866149239242
153,0.25,0.001,0.011872421375111393,0.00880687124217334,17.179343646505604,0.012262201032480803,0.01829443161841482
154,0.25,0.001,0.011848454711877782,0.008785410970449447,17.165298130201258,0.012252175681799612,0.01040567917516455
155,0.25,0.001,0.011803998134058455,0.00874141043295031,17.162741586436397,0.01225035088253847,0.009323397476691753
156,0.25,0.001,0.011836038205934608,0.008778400241356829,17.135003164540166,0.012230551866195693,0.014211932721082121
157,0.25,0.001,0.011938635818660259,0.008850628259065359,17.30519387618355,0.01235202989020953,0.01860451721586287
158,0.25,0.001,0.012020066210433193,0.008856508994232053,17.728574039625084,0.012654228436563228,0.013855824596248567
159,0.25,0.001,0.011949140416539234,0.008847131150896135,17.383659238400668,0.012408036572734238,0.018755694618448615
160,0.25,0.001,0.011882707476615906,0.008909291077567183,16.663025167713993,0.01189366535882512,0.018786900327540934
161,0.25,0.001,0.011754704477346462,0.008659466858143392,17.345712014903192,0.012380950760102207,0.015056869597174227
162,0.25,0.001,0.01183094081023465,0.00882281243963086,16.857551806905995,0.012032513780803708,0.012415801407769322
163,0.25,0.001,0.011809711879038292,0.008754727616906165,17.120132977029552,0.012219937885103178,0.013483688642736524
164,0.25,0.001,0.011770729072715926,0.008745911685021028,16.951077353436013,0.012099270059554613,0.010528286569751799
165,0.25,0.001,0.011739538609981537,0.00864067531960166,17.366031580385954,0.012395454375721595,0.012512403074651957
166,0.25,0.001,0.011704563916377399,0.008640233726929063,17.172507360707158,0.012257321456607536,0.012185389176011086
167,0.25,0.001,0.011733527530146682,0.008724415286079697,16.863066366444464,0.012036449940360074,0.015196710941381752
168,0.25,0.001,0.011740029789507389,0.0086683575225913,17.21365152441937,0.012286689168036666,0.01220316521357745
169,0.25,0.001,0.011763678410130998,0.008683068195924811,17.263739345384682,0.012322440646241743,0.013493149657733738
170,0.25,0.001,0.011777013540267944,0.008687713025542705,17.312440241938052,0.012357202171261994,0.013789268850814551
171,0.25,0.001,0.011744181568855825,0.008662780649636102,17.268170713341753,0.01232560364977998,0.013830628828145564
172,0.25,0.001,0.01173641754557257,0.00857367898620989,17.723987819837486,0.012650954903524258,0.010065800801385194
173,0.25,0.001,0.011678487475475539,0.00868655576006226,16.76678587872049,0.0119677272510496,0.011858758167363703
174,0.25,0.001,0.01166058407853479,0.008533235355887724,17.52566201583199,0.012509394729359023,0.015570878516882658
175,0.25,0.001,0.01168464625497227,0.00867176016225763,16.88421289195185,0.012051543820094112,0.013885645428672433
176,0.25,0.001,0.011634055994774984,0.008567321268112764,17.185981228040614,0.012266938778044693,0.010044589929748327
177,0.25,0.001,0.011637233197689056,0.00860366668228222,17.000107309092645,0.012134266459024014,0.012035550025757402
178,0.25,0.001,0.01173974336327418,0.00872044073741721,16.920172202068827,0.012077210708114794,0.020546975545585155
179,0.25,0.001,0.011735581444657367,0.00869837506957676,17.020504180244778,0.012148825253565152,0.02488010481465608
180,0.25,0.001,0.011734258699352327,0.008647990947508294,17.295445334393044,0.012345071616269125,0.021351318689994514
181,0.25,0.001,0.011633551817225373,0.008607214324824189,16.959595224131707,0.012105349910158249,0.015177628141827881
182,0.25,0.001,0.011525527485038923,0.008552454310752775,16.66110262663468,0.01189229309538521,0.014451537397690117
183,0.25,0.001,0.011553659743588903,0.008624435693997404,16.415372068985647,0.011716896551738507,0.013077340146992356
184,0.25,0.001,0.011566164563207523,0.008547413284363954,16.91708282802416,0.01207500558745479,0.016671574558131397
185,0.25,0.001,0.011649034261379553,0.008638695878503116,16.86993512692659,0.012041352695879078,0.01548621873371303
186,0.25,0.001,0.011597847436433254,0.00857643931294265,16.931971276324727,0.01208563260265862,0.012034119630698115
187,0.25,0.001,0.01161305663054404,0.008561555118016574,17.100615459939707,0.012206006752276736,0.014477458666078746
188,0.25,0.001,0.011671024617617544,0.00864774915592178,16.942435961184295,0.012093102042244322,0.013585098611656576
189,0.25,0.001,0.011537789326647053,0.008501220486410286,17.016932147482166,0.012146275622756721,0.014913672930561006
190,0.25,0.001,0.011666218288566755,0.00858297814493594,17.27847777656887,0.01233296058284716,0.016627483651973307
191,0.25,0.001,0.011543489895437074,0.008428893274749103,17.454200114374576,0.012458386948161725,0.015680811484344304
192,0.25,0.001,0.01159315692341846,0.008663323845552361,16.41878438203231,0.01171933217846703,0.017199486668687314
193,0.25,0.001,0.011520415180079315,0.008463497467986915,17.130967828501827,0.01222767154068653,0.011559290578588843
194,0.25,0.001,0.011473247878577399,0.00855174555402735,16.372097993933636,0.011686008560980468,0.011528411239851266
195,0.25,0.001,0.011548967789048735,0.008479868231908135,17.199235368811564,0.012276399263962573,0.01578950765542686
196,0.25,0.001,0.011565182519995647,0.008582704684332662,16.713805289890455,0.011929910984932516,0.01541735022328794
197,0.25,0.001,0.011468236731446308,0.008496337189622546,16.654525035360585,0.011887598169422258,0.011429675621911883
198,0.25,0.001,0.011492113129276296,0.008425589314783396,17.18479996556821,0.012266095621390586,0.013759126712102443
199,0.25,0.001,0.0113906295079252,0.008365435124901326,16.95319062937861,0.012100778464938337,0.009461035137064755
200,0.25,0.001,0.011467137495460718,0.008415103800918745,17.103596728780996,0.012208134710050675,0.012109326315112412
201,0.25,0.001,0.011499951804137749,0.00847844027954599,16.93255031419837,0.012086045905923175,0.010512173816096038
202,0.25,0.001,0.011479617898230968,0.008489306983740433,16.75770383917767,0.01196124471033381,0.014878795831464231
203,0.25,0.001,0.01146041644818109,0.008401895537162604,17.139951473733653,0.012234083849916954,0.013815592741593719
204,0.25,0.001,0.011403405010376287,0.008405214548110962,16.801859847359037,0.011992762203682396,0.015329766552895308
205,0.25,0.001,0.011488954131693943,0.008484673354288806,16.835990059894065,0.012017123525977206,0.020537369535304606
206,0.25,0.001,0.011395349442634893,0.008441521871187116,16.553249226445736,0.011815309940360981,0.018424345063976943
207,0.25,0.001,0.011437476474953735,0.008454335181285506,16.717525017779806,0.011932566036959176,0.012768694723490626
208,0.25,0.001,0.011501490219455698,0.008544736752367539,16.569647084111754,0.011827014335554428,0.015599963488057256
209,0.25,0.001,0.011522841275386188,0.00847440203246863,17.08345310377038,0.012193756676495632,0.013816587161272764
210,0.25,0.001,0.01153016589258028,0.008431156716592933,17.36684795877208,0.012396037086917973,0.015092403744347394
211,0.25,0.001,0.011635479071865911,0.008659788788012837,16.675769241996434,0.011902761771589176,0.022889709332957864
212,0.25,0.001,0.011421004666582397,0.008420943497153728,16.812342734958815,0.012000244635944906,0.016604498610831797
213,0.25,0.001,0.011384220226951267,0.008372147267927295,16.879658574643344,0.01204829305827505,0.010433696443215013
214,0.25,0.001,0.011304529999261317,0.008297423682297054,16.851824237989344,0.01202842558029218,0.01243536442052573
215,0.25,0.001,0.011317919073221477,0.008373604629836653,16.499938666302224,0.011777258148681103,0.011718995461706072
216,0.25,0.001,0.011333456198158471,0.00842195328163064,16.316063690185548,0.011646012626827656,0.014938967884518206
217,0.25,0.001,0.011428090298305387,0.008411263868860576,16.906293819261634,0.012067304653291673,0.01300986111164093
218,0.25,0.001,0.011298204148593156,0.008288961689433326,16.863794641909394,0.01203696976581684,0.008830386504996568
219,0.25,0.001,0.011344317881309468,0.008370044738378215,16.667827174974523,0.011897092915756262,0.0101767024025321
220,0.25,0.001,0.011373955351502998,0.008305903447225042,17.19336299066958,0.012272207702119614,0.009699111164081842
221,0.25,0.001,0.011438053214679594,0.0084078390961108,16.981319667982017,0.012120856294062825,0.01144726510392502
222,0.25,0.001,0.011476573412833006,0.008496253030455632,16.70171488886294,0.011921281148367553,0.014555391331668943
223,0.25,0.001,0.011462293144153512,0.008407537428581196,17.118851388019063,0.012219023117786627,0.01258200011216104
224,0.25,0.001,0.011471217344312563,0.008428673429981522,17.05041556980299,0.012170175281800848,0.02079927211161703
225,0.25,0.001,0.011409569782731326,0.008417892577531545,16.765360110739003,0.011966709572261957,0.015289707342162728
226,0.25,0.001,0.011324319000477376,0.008328664545779643,16.787648574165676,0.011982618539732816,0.00977251207223162
227,0.25,0.001,0.011264615846068964,0.008222306641223637,17.049100627069887,0.012169236707401774,0.011097427166532725
228,0.25,0.001,0.011399677395820618,0.008445714316938234,16.554009578538977,0.01181585266134117,0.016791362199001014
229,0.25,0.001,0.011362543661633263,0.008410070265602806,16.545661163330077,0.011809893763975787,0.016551327193155885
230,0.25,0.001,0.011347081884741783,0.008319181171448335,16.968355129076087,0.01211160251896937,0.014248567284084857
231,0.25,0.001,0.011331559555686039,0.008369246684014797,16.600801061547322,0.011849251293038774,0.013298665755428374
232,0.25,0.001,0.01132964283713828,0.008255413247515326,17.22798377327297,0.012296919181493912,0.012349947355687618
233,0.25,0.001,0.011403029727871003,0.008431963209548723,16.64985759569251,0.011884266663592083,0.016421882901340723
234,0.25,0.001,0.01134047073352596,0.008276091232571912,17.172782143302587,0.012257517589794853,0.014956834609620273
235,0.25,0.001,0.011438544288925503,0.008494807200749284,16.496702227385146,0.011774948056663202,0.012907856260426342
236,0.25,0.001,0.011414369778788609,0.008352921773558078,17.156355335401454,0.012245792530622022,0.013894467381760478
237,0.25,0.001,0.011275089961355147,0.00825196322782532,16.941603088378905,0.012092507557729412,0.010607038158923388
238,0.25,0.001,0.01124638753902653,0.008327737381762785,16.356116601695184,0.01167460142876173,0.010818706068675965
239,0.25,0.001,0.011212235672966293,0.008217468404251596,16.78267593383789,0.011979069189034897,0.010488047206308693
240,0.25,0.001,0.011369958366064921,0.008357388659825792,16.8824404840884,0.012050278718121626,0.019266858114860952
241,0.25,0.001,0.011338262778261433,0.008330482503642206,16.855601534636126,0.012031121723509012,0.014796058996580541
242,0.25,0.001,0.011332861933371295,0.008367948703791784,16.615373578278916,0.011859652803910718,0.01426212047226727
243,0.25,0.001,0.011273263070894324,0.008283534265406754,16.754441468612008,0.011958916108930769,0.015835799858905375
244,0.25,0.001,0.011356861889362335,0.00843361703597981,16.38186443163001,0.01169297960858673,0.02501076681073755
245,0.25,0.001,0.011243684500779795,0.008142978365978468,17.37635680488918,0.012402824271869508,0.015137728594709188
246,0.25,0.001,0.011381602619329224,0.008543596453154865,15.904187277088994,0.011352025179935043,0.013632778194732964
247,0.25,0.001,0.011350157443919907,0.008203100805859204,17.636106391575026,0.012588227260224858,0.01668097998481244
248,0.25,0.001,0.011342094393204088,0.00838132021219834,16.592179008152176,0.011843097079337742,0.012435534852556884
249,0.25,0.001,0.01131313898317192,0.008270564610543459,17.05058760435685,0.012170298075914953,0.011259135790169239
250,0.25,0.001,0.011315562527464783,0.008256451558807621,17.143258683577827,0.012236444456515222,0.015651115565560758
251,0.25,0.001,0.011209487623494604,0.008243679222853288,16.620390585194464,0.01186323382240861,0.01209000195376575
252,0.25,0.001,0.011264549041895763,0.008308629100413426,16.564974859486455,0.011823679414337226,0.013516719685867429
253,0.25,0.001,0.011229095527011415,0.008200065977871419,16.974681870833688,0.012116118394599348,0.010322073590941727
254,0.25,0.001,0.011219583540830923,0.008217075515700422,16.826055443805195,0.012010032436691789,0.015597296296618879
255,0.25,0.001,0.01122721749479356,0.008237558020197827,16.754051838750424,0.011958638000535635,0.013876416604034603
256,0.25,0.001,0.011157791664742905,0.008163703872781734,16.778867688386338,0.011976350955307878,0.010790691303554922
257,0.25,0.001,0.011172134153868842,0.008260404018928176,16.317336173679518,0.011646920894846194,0.013187513686716557
258,0.25,0.001,0.01121810415516729,0.008167150406085927,17.09754474474036,0.012203814949850365,0.010890117613598704
259,0.25,0.001,0.011240738055304341,0.008205553435760996,17.009174877664318,0.01214073867070972,0.011390767176635563
260,0.25,0.001,0.011152210880232894,0.008261756161632746,16.198107188680897,0.011561818121827907,0.012563214171677828
261,0.25,0.001,0.01111387223329233,0.008081081315227176,16.995759781547214,0.012131163298748904,0.013109666178934276
262,0.25,0.001,0.011229611949428267,0.00825736025834213,16.65649997877038,0.011889007836381428,0.011793050915002823
263,0.25,0.001,0.011221760786745858,0.00819226951216874,16.977268019966456,0.012117964325457855,0.01302026497432962
264,0.25,0.001,0.011231186945477258,0.008224300282966831,16.850592654684316,0.012027546505841768,0.017275292542763054
265,0.25,0.001,0.0112663552812908,0.008249149787361207,16.90841936857804,0.01206882181911352,0.015780573012307286
266,0.25,0.001,0.011261707884461984,0.008310974988600481,16.535908110245416,0.011802932269982452,0.021776956622488797
267,0.25,0.001,0.011210803493209506,0.008248025778195132,16.603407138326894,0.011851111447770802,0.017194844491314143
268,0.25,0.001,0.011269200747103796,0.008250327051981636,16.91776873547098,0.012075495171642383,0.021371903945691884
269,0.25,0.001,0.011247183350117311,0.008297636918723584,16.529257202148436,0.01179818501224014,0.017413856810890138
270,0.25,0.001,0.011243876466608566,0.00828496715782777,16.5817278654679,0.01183563730583005,0.02305979875382036
271,0.25,0.001,0.011106671473902204,0.008135721354704837,16.649204751719598,0.011883800679314488,0.012994199816603214
272,0.25,0.001,0.011224286039562329,0.008311479522482209,16.323367392498515,0.011651225833332272,0.0128772429889068
273,0.25,0.001,0.011203967569314915,0.008066410117823145,17.582872025862983,0.012550229854291921,0.014105559850577265
274,0.25,0.001,0.011126068096769892,0.008145747204189716,16.70171830550484,0.011921283587084112,0.012083130539394915
275,0.25,0.001,0.011175427197114281,0.00816640223821868,16.862575829547385,0.012036099806957449,0.015524377580732107
276,0.25,0.001,0.011220561826358671,0.008240078721681367,16.70262792836065,0.011921932853933368,0.018591713742353022
277,0.25,0.001,0.011396099805184032,0.008430147000952907,16.621200262981912,0.011863811750879309,0.022574478294700384
278,0.25,0.001,0.011200314266202242,0.00827166415427042,16.412154894289763,0.011714600210056932,0.017072663875296712
279,0.25,0.001,0.011144857481122017,0.008163063535871713,16.709973111359968,0.011927175668351156,0.012791805318556726
280,0.25,0.001,0.011146836436313132,0.008233715674799422,16.325129351408584,0.011652483477093922,0.018466784269548953
281,0.25,0.001,0.011201201022967048,0.008203515669573908,16.79902974004331,0.011990742141358536,0.017766306875273585
282,0.25,0.001,0.011185367000491723,0.008214853963126307,16.64675584876019,0.011882052711463377,0.015933139715343714
283,0.25,0.001,0.01112025135561176,0.008182390730666077,16.463771322499152,0.011751442771234227,0.014491771231405437
284,0.25,0.001,0.011211154820478481,0.008143688471097013,17.190081753938095,0.012269865634502566,0.015255489153787494
285,0.25,0.001,0.011105347149398016,0.008173060818048923,16.432534425154977,0.011729146627519612,0.013902264996431768
286,0.25,0.001,0.0111244296250136,0.008123426766985136,16.817619622271994,0.012004011150800853,0.01619607408065349
287,0.25,0.001,0.011152191217178883,0.008123566202171471,16.972414199165677,0.012114499785271718,0.01562767178984359
288,0.25,0.001,0.01114717117794182,0.008134137199300787,16.88504303641941,0.012052136357187302,0.0168946617632173
289,0.25,0.001,0.011095350721608038,0.008174127397005973,16.37053622370181,0.011684893807067671,0.013461326248943806
290,0.25,0.001,0.011056508383025293,0.008100348913475223,16.56631808073624,0.011824638173259273,0.012464496889151633
291,0.25,0.001,0.011078372678678968,0.00808792106969201,16.758491267328676,0.011961806757550804,0.011621560202911496
292,0.25,0.001,0.011066201863729435,0.008076803851872682,16.75258618230405,0.01195759185032409,0.010345366841647774
293,0.25,0.001,0.011124245741445086,0.008212486221252577,16.317501250557278,0.011647038722738956,0.012834914028644562
294,0.25,0.001,0.011193744862533134,0.008116958974658146,17.242308682980745,0.012307143956445929,0.016926993848755956
295,0.25,0.001,0.0110734390904722,0.008064770317919877,16.860579125777534,0.012034674607978253,0.01625257031992078
296,0.25,0.001,0.011156465315624423,0.008248928092096163,16.293838583904765,0.011630148882159005,0.01685041910968721
297,0.25,0.001,0.011104261713183445,0.008070267542548802,17.00250355264415,0.012135976839860207,0.013801655848510563
298,0.25,0.001,0.011077775360773439,0.008121144573163727,16.56896057128906,0.011826524319264141,0.01607126760063693
299,0.25,0.001,0.011160756534208421,0.008209439225332892,16.539181526847507,0.011805268755779806,0.020436648395843804
300,0.25,0.001,0.011181567261076492,0.008216244573502438,16.617669445535412,0.011861291538569173,0.01910494384355843
301,0.25,0.001,0.011201681285772635,0.008216554465015298,16.728650731625763,0.011940507303087626,0.01798321702517569
302,0.25,0.001,0.011013536479162133,0.007978417793207843,17.00880642766538,0.012140475679989564,0.013052879890892655
303,0.25,0.001,0.011091878605277642,0.008194503382496212,16.236891107973847,0.011589501147732939,0.014417874452192336
304,0.25,0.001,0.011148048572890137,0.008102719226609106,17.06602532759957,0.012181317150320892,0.01676697365473956
305,0.25,0.001,0.011088706115665642,0.00797523128921571,17.4479143059772,0.01245390028977673,0.011372888227924705
306,0.25,0.001,0.011072172775216724,0.008145284466445446,16.40228218410326,0.011707553307711107,0.010917410778347403
307,0.25,0.001,0.011070899632961853,0.00806083815658222,16.86838496664296,0.01204024622886721,0.011643332371022552
308,0.25,0.001,0.011089962251160455,0.008071127744472545,16.917549539648967,0.012075338714952867,0.01347382360836491
309,0.25,0.001,0.01112321870320517,0.008146836762518987,16.67964401245117,0.011905527489258508,0.01473063399316743
310,0.25,0.001,0.01098701832411082,0.008014090654804655,16.660286820453145,0.011891710792614665,0.01120184501633048
311,0.25,0.001,0.011024548842207245,0.008057100115262944,16.6295828446098,0.011869795035410278,0.010456255520693958
312,0.25,0.001,0.01102804500285698,0.008155431185403596,16.098128691963527,0.011490455882914724,0.01019766292301938
313,0.25,0.001,0.010927685609330301,0.007950823997025904,16.682333208167034,0.011907446972281965,0.010791965760290623
314,0.25,0.001,0.01092337324567463,0.008025320757018483,16.240687444935674,0.01159221088146729,0.010817667294759303
315,0.25,0.001,0.0109485884156564,0.007978931559330743,16.641958186937416,0.011878628256200868,0.010331883560866117
316,0.25,0.001,0.010989651675133601,0.008031651960766833,16.576631396749747,0.011831999569414524,0.012058390188030899
317,0.25,0.001,0.011001469680796499,0.007947545919729316,17.11418863379437,0.012215694956312898,0.015463593765161932
318,0.25,0.001,0.01099691591023103,0.008049939293414354,16.514857283882474,0.011787906697988917,0.014644250157289207
319,0.25,0.001,0.011027650778060375,0.008130791516083738,16.233998638650647,0.011587436572912667,0.013445514487102628
320,0.25,0.001,0.011052305769661198,0.008070593051936316,16.709518465788467,0.011926851153310826,0.014178092707879841
321,0.25,0.001,0.010952453971233057,0.00802311587916768,16.416009919539743,0.011717351834075476,0.014163316111080348
322,0.25,0.001,0.01103482895895191,0.008063736177333023,16.650004328852116,0.011884371398181381,0.013676132657565176
323,0.25,0.001,0.010987811648975249,0.008067658324928388,16.364539643992547,0.011680613593142432,0.012521743308752775
324,0.25,0.001,0.011005036257531332,0.008065861848223468,16.471133621879247,0.011756697802911668,0.010672633186914027
325,0.25,0.001,0.011005774950203688,0.008009942726272604,16.78864457503609,0.011983329461124976,0.011649987776763737
326,0.25,0.001,0.010994887708321861,0.00806652169836604,16.410562407452126,0.011713463531371968,0.012765794293954968
327,0.25,0.001,0.010946596689198328,0.008003769401946793,16.491603984003483,0.011771309053535677,0.011122662923298776
328,0.25,0.001,0.010893133638993554,0.00801015001843157,16.156239401775856,0.011531933905621596,0.011796008213423193
329,0.25,0.001,0.011024274353099906,0.008104174385738114,16.36424155857252,0.011680400826961113,0.012922302004881203
330,0.25,0.001,0.011038376698675363,0.007963160457818405,17.233512148649798,0.012300865202462383,0.010379942657891661
331,0.25,0.001,0.010981983197448046,0.008030187148276878,16.54186500881029,0.011807184160464161,0.011665970901958644
332,0.25,0.001,0.011016457001476184,0.007996554482404305,16.923534326967985,0.01207961051175445,0.018686749041080475
333,0.25,0.001,0.011011041028668051,0.008036000897055086,16.67212487925654,0.011900160513387966,0.015973454574123025
334,0.25,0.001,0.011047125850682673,0.00809400981778036,16.549262602432915,0.011812464384320424,0.012020916561596096
335,0.25,0.001,0.010962449078974517,0.007966811165375554,16.78755640776261,0.011982552753577881,0.011392347398214042
336,0.25,0.001,0.010885925550499689,0.007984030125257762,16.262221328071927,0.011607581247731568,0.011010233778506517
337,0.25,0.001,0.010945670201402644,0.007930833773444529,16.895143542082412,0.012059345854448546,0.010861198650673032
338,0.25,0.001,0.011001605103197304,0.007972760571409826,16.973645168802012,0.012115378421700223,0.012245876307133585
339,0.25,0.001,0.01104728791700757,0.00796753509051126,17.258934618079145,0.012319011147808099,0.01239437737967819
340,0.25,0.001,0.011032235735784407,0.008178841484629589,15.990421660050101,0.011413577202034333,0.014814134570769966
341,0.25,0.001,0.011137222774002862,0.008132719293074764,16.837237134187117,0.01201801365752114,0.021781182382255793
342,0.25,0.001,0.011054866185978703,0.00812186344486216,16.43654773546302,0.011732011231593875,0.017837368533946574
343,0.25,0.001,0.010992334791175697,0.00800377834264351,16.747871199898096,0.011954226409634616,0.017425859696231782
344,0.25,0.001,0.010904308610960194,0.008030386054483444,16.105462994782823,0.0114956909313225,0.013822067878209054
345,0.25,0.001,0.010901504285309626,0.007917040213942527,16.724937438964844,0.011937856844371765,0.010980130638927221
346,0.25,0.001,0.01098534947504168,0.008032139706546846,16.549787985760233,0.011812839390264264,0.013815218000672758
347,0.25,0.001,0.010875029448905716,0.007807852149657581,17.188462265678073,0.012268709682853728,0.015526355127803981
348,0.25,0.001,0.010892348922789096,0.00803215194331563,16.02854408595873,0.011440788069920577,0.0115483264089562
349,0.25,0.001,0.010895051369848458,0.007924877900792205,16.644851684570312,0.011880693565003791,0.013189872610382736
350,0.25,0.001,0.01094103790819645,0.007971085178787293,16.643614346048107,0.011879810382618206,0.011773298610933125
351,0.25,0.001,0.010929751841594344,0.007983350024923034,16.511634693975033,0.011785606491059981,0.01150779437739402
352,0.25,0.001,0.010911411581479985,0.007970732409992944,16.47956533017366,0.011762716152871992,0.013188382727093995
353,0.25,0.001,0.010960451335362767,0.007893643422943094,17.186391954836637,0.012267231944922652,0.012808004510588944
354,0.25,0.001,0.010876823257168999,0.007905652519801389,16.650441609258237,0.011884683518385609,0.010281151277013123
355,0.25,0.001,0.010889274100570575,0.007942806573017784,16.51200475278108,0.011785870630107838,0.010836572328116745
356,0.25,0.001,0.011012129566591719,0.007957766836752062,17.116649660856826,0.012217451578056263,0.014105798676609993
357,0.25,0.001,0.011061607625173485,0.008007794966840226,17.113567460101585,0.012215251577517192,0.01269917213357985
358,0.25,0.001,0.010971279944414677,0.007949219660266587,16.935626627051313,0.012088241703819638,0.011448958655819297
359,0.25,0.001,0.010965237426369087,0.008010517983980801,16.55824740865956,0.011818877522240943,0.012723253690637648
360,0.25,0.001,0.010921010213053745,0.007828196466131055,17.332127529641856,0.012371254482256856,0.01257667236495763
361,0.25,0.001,0.010950366051300712,0.008075534609024939,16.110556660527767,0.011499326667043374,0.013541726511903107
362,0.25,0.001,0.010894868571473204,0.007986874473483667,16.296399721891984,0.011631976960665227,0.011764620780013502
363,0.25,0.001,0.011008748112489348,0.007980536054009977,16.970099556964378,0.01211284764951062,0.01650871883612126
364,0.25,0.001,0.010888470717422341,0.007969817721649357,16.356131279986837,0.01167461190577219,0.013275296427309513
365,0.25,0.001,0.010918031924444696,0.008001458280436372,16.344479303774627,0.011666295006263117,0.014842574717476964
366,0.25,0.001,0.010870615295741869,0.007950690421073332,16.363258942313816,0.011679699459181882,0.015101127210073173
367,0.25,0.001,0.01102670731589846,0.007920695314912692,17.40609187250552,0.012424048445756973,0.011953744222410023
368,0.25,0.001,0.010953307864458665,0.007988926079934058,16.6123963729195,0.011857527746552105,0.010152275499422103
369,0.25,0.001,0.0109203795052093,0.007962073960705944,16.578343947037407,0.01183322194649351,0.0114839943125844
370,0.25,0.001,0.0108749622317112,0.007915283371087002,16.586040579754375,0.01183871561724081,0.009164194343611598
371,0.25,0.001,0.01090304437700821,0.00795809344752975,16.503506055085555,0.011779804464729161,0.016750749258790165
372,0.25,0.001,0.010909072909018267,0.007905105509511803,16.834232728377632,0.012015869185137496,0.01622819947078824
373,0.25,0.001,0.011005170052142247,0.008016953329839135,16.745966057155442,0.011952866564707667,0.013696140493266284
374,0.25,0.001,0.010941641162271086,0.008038811944425106,16.267454064410664,0.011611316248687126,0.013047303073108196
375,0.25,0.001,0.01098238578795091,0.007992017495891322,16.75802521083666,0.011961474097670706,0.01709609862882644
376,0.25,0.001,0.010955007617240367,0.007958300994790118,16.793543790734333,0.011986826403093741,0.012694234726950526
377,0.25,0.001,0.011062056295897649,0.008095092261615007,16.626866166487986,0.011867855936108484,0.014074777136556804
378,0.25,0.001,0.011017369608516278,0.00801542818384326,16.822880305414614,0.012007766099510788,0.015046655433252454
379,0.25,0.001,0.010946675228035968,0.008002136315664519,16.50119686955991,0.011778156223811499,0.011438563698902726
380,0.25,0.001,0.011023551104185373,0.00800270151913814,16.92884113477624,0.01208339838313793,0.014965836831834167
381,0.25,0.001,0.011060846078654995,0.008079049886082825,16.709985716446585,0.011927184665557877,0.017699776333756745
382,0.25,0.001,0.010994702034994312,0.008068927179050186,16.396043478924295,0.01170310027046702,0.013173162937164307
383,0.25,0.001,0.011023113115326218,0.008108381538287452,16.334156036376953,0.011658926507049932,0.012147841975092888
384,0.25,0.001,0.01089395372925893,0.008003667389731045,16.19716553066088,0.011561145989051306,0.014035453728865832
385,0.25,0.001,0.010910123602851577,0.007970924059981885,16.471274749092434,0.01175679853611166,0.012379281339235604
386,0.25,0.001,0.01095350362036539,0.007896179859728916,17.133242474431576,0.01222929512807393,0.01141249673673883
387,0.25,0.001,0.010834392686576946,0.007916465353058733,16.352065078071927,0.011671709548944987,0.011696916189976037
388,0.25,0.001,0.010935416858157385,0.0079130496100887,16.93734598574431,0.012089468940574099,0.011172509111929685
389,0.25,0.001,0.010924923565724621,0.00791098420386729,16.890115771086318,0.012055757152809649,0.010129901813343167
390,0.25,0.001,0.010824117210248242,0.007853264385915321,16.648659880264944,0.01188341176321552,0.010586352611426264
391,0.25,0.001,0.010851673587508824,0.007956451760685962,16.224822898533034,0.011580887150987176,0.01148713642032817
392,0.25,0.001,0.010921906866133212,0.007938853299002284,16.717032573534095,0.011932214542137113,0.010031760903075337
393,0.25,0.001,0.010803099632587122,0.0077926109099517695,16.87077985017196,0.012041955638952148,0.01252064824802801
394,0.25,0.001,0.010861210452149744,0.007931840095831,16.416192693295685,0.011717482293572936,0.014561412739567459
395,0.25,0.001,0.010964702069759368,0.007983606608341569,16.70605916562288,0.011924381988310405,0.017555804690346122
396,0.25,0.001,0.0109503500001586,0.007952314416837433,16.800991531040356,0.011992142420442796,0.01285053335595876
397,0.25,0.001,0.011010779205547726,0.007972528384593518,17.02635784978452,0.012153003461659187,0.01556348311714828
398,0.25,0.001,0.010907006425702054,0.007952398207524549,16.557624468596085,0.011818432882652451,0.014840408461168408
399,0.25,0.001,0.011040111080459927,0.00807156404885261,16.635737012780233,0.011874187732177183,0.020726270624436438
400,0.25,0.001,0.010894328857893529,0.007961184041493612,16.437343174478283,0.011732578996772507,0.01725053519476205
401,0.25,0.001,0.010812902742105982,0.007924381028050962,16.187277387536092,0.011554088071046461,0.010806610283907503
402,0.25,0.001,0.010754326342240625,0.007766867566691793,16.741718740048615,0.011949834932225992,0.010415280819870532
403,0.25,0.001,0.010828986666772676,0.007909865628765977,16.358753801428755,0.011676483798307461,0.010426255175843835
404,0.25,0.001,0.010812532294379628,0.007869807663171188,16.491029308153234,0.011770898863778183,0.010872428014408797
405,0.25,0.001,0.010848548101342243,0.00787065172486979,16.68813078507133,0.011911585142806089,0.011350211221724749
406,0.25,0.001,0.010819073879848356,0.007835576164981593,16.719521663499915,0.011933991194503866,0.010743280174210668
407,0.25,0.001,0.010905058617177216,0.007894628231778092,16.870451554008152,0.012041721309070772,0.012064534530509263
408,0.25,0.001,0.010811467646904613,0.007848900394595187,16.60222632366678,0.011850268610754304,0.010773406305816025
409,0.25,0.001,0.01081356243432864,0.00782635747657522,16.740296173095704,0.01194881953825532,0.012207984225824475
410,0.25,0.001,0.010871881246566772,0.007913672478626604,16.57780184538468,0.011832835007412335,0.015633700415492058
411,0.25,0.001,0.010856316805533742,0.00780308683929236,17.11030099288277,0.012212920052021963,0.014430440496653318
412,0.25,0.001,0.01088386474420195,0.007849113821335461,17.006744650135868,0.01213900403293067,0.014574708533473313
413,0.25,0.001,0.010779068465142146,0.007874393872106852,16.277797035548996,0.01161869881195503,0.012065941002219915
414,0.25,0.001,0.010799343252311583,0.007853112045837485,16.5106805552607,0.011784925449864881,0.011678559123538435
415,0.25,0.001,0.010794442624825498,0.007877503076325293,16.34652922257133,0.011667758188844633,0.014643162256106734
416,0.25,0.001,0.010759102358766225,0.00785625661196916,16.267547740107,0.011611383112139185,0.013514790683984756
417,0.25,0.001,0.010825494782108327,0.007852507265203673,16.660622107464334,0.011891950112394243,0.014763898914679885
418,0.25,0.001,0.010805571306010951,0.00779526610656277,16.869750163866126,0.01204122067370887,0.01670058793388307
419,0.25,0.001,0.010825726827201636,0.007901567107309465,16.386992081351902,0.011696639601250466,0.011511681601405144
420,0.25,0.001,0.010806921553676543,0.007874477480578682,16.43341691390328,0.011729776526697558,0.012167870649136603
421,0.25,0.001,0.01081256302802459,0.00785578280363394,16.569796139260998,0.01182712072752391,0.012917972751893103
422,0.25,0.001,0.010775393037044483,0.007792304367150949,16.717229129957115,0.011932354839369818,0.011153478117194027
423,0.25,0.001,0.010841375548878441,0.007942062098047008,16.247754378940748,0.011597255088465916,0.012453551171347499
424,0.25,0.001,0.010799380877743597,0.007815605823112571,16.7210750579834,0.011935099970009563,0.013687708240468055
425,0.25,0.001,0.010788932620831158,0.00781990911649621,16.63840791453486,0.011876094157412462,0.010141277511138469
426,0.25,0.001,0.010823783812963445,0.0078029817091706,16.928575814288596,0.012083209003774872,0.011121994582936168
427,0.25,0.001,0.01081222027702176,0.007725908335946176,17.2956915150518,0.012345247334084083,0.00964954064693302
428,0.25,0.001,0.010862020305965258,0.007931254107667053,16.424014912480892,0.011723065604911416,0.01102254819124937
429,0.25,0.001,0.010810690948172755,0.007808274613774341,16.82554230068041,0.012009666167509215,0.011816671933047473
430,0.25,0.001,0.010798410974119021,0.007873744501367859,16.389830133189324,0.011698665334182245,0.011091568099800497
431,0.25,0.001,0.010762157080614048,0.007817044384453608,16.504412377398946,0.011780451375730867,0.01055044459644705
432,0.25,0.001,0.010717647279734196,0.0077859905345932295,16.429003939421282,0.011726626651978074,0.010830425366293639
433,0.25,0.001,0.010784960368081279,0.007796242112374824,16.74877758026123,0.011954873362070828,0.011530723422765732
434,0.25,0.001,0.010814730976910695,0.007789345239491566,16.95426075147546,0.012101542292273703,0.013247244292870164
435,0.25,0.001,0.010798248940187952,0.00786746976411213,16.42408740831458,0.011723117350688494,0.013372774701565504
436,0.25,0.001,0.010833132453262806,0.0078731553386087,16.58771276059358,0.011839909179581427,0.016422239947132766
437,0.25,0.001,0.01076661693337171,0.007845688190149224,16.368884940769362,0.011683715161148724,0.011409842933062464
438,0.25,0.001,0.010773472973833914,0.007860928887258405,16.3218970671944,0.011650176350602712,0.014833677909336984
439,0.25,0.001,0.010813462272610354,0.007795243038107519,16.91410026550293,0.01207287670628332,0.017888200585730374
440,0.25,0.001,0.010806730519170346,0.007838984404731056,16.631249535602073,0.011870984679230602,0.01177106040995568
441,0.25,0.001,0.010842695654086444,0.007898613733603902,16.498634238865066,0.011776327079846586,0.012389103532768786
442,0.25,0.001,0.010901155128427174,0.007890042840786602,16.87427334992782,0.012044449214795017,0.01516190532129258
443,0.25,0.001,0.01081466355725475,0.007828520465156306,16.734346903925356,0.011944573093451361,0.012425057939253747
444,0.25,0.001,0.010731786748637324,0.007756548431580482,16.673235030796217,0.011900952912773889,0.012395699159242213
445,0.25,0.001,0.010803827238471612,0.007880720257273186,16.381091640306554,0.011692428008784122,0.011023477418348193
446,0.25,0.001,0.010801765824789587,0.007777905188824819,16.945714933975882,0.012095442493915691,0.011127093923278153
447,0.25,0.001,0.010779032346023166,0.0077930525350181955,16.733431144382642,0.011943919446383042,0.013188621844165027
448,0.25,0.001,0.01076088124157294,0.007865715156430784,16.224510939224906,0.011580664481959248,0.01346706016920507
449,0.25,0.001,0.010868298221865426,0.007885770370130954,16.714086715034817,0.011930111859411004,0.015613146941177547
450,0.25,0.001,0.010862366215366384,0.007881565242195908,16.70440906027089,0.01192320418291998,0.017225062823854387
451,0.25,0.001,0.010764586050873217,0.007824048910128034,16.478770347263502,0.01176214871325018,0.013685960555449128
452,0.25,0.001,0.010676082758151966,0.007805750008834445,16.085344944829526,0.011481331152626357,0.010883250564802438
453,0.25,0.001,0.010810481854107068,0.007765154585080303,17.066013933264692,0.012181309017319552,0.010496261762455106
454,0.25,0.001,0.01074553830144198,0.00785263499002094,16.211829575248387,0.011571612830298636,0.014717448968440294
455,0.25,0.001,0.01079271243804175,0.007830444286051003,16.60055044422979,0.011849072408443817,0.013179699890315533
456,0.25,0.001,0.010815078927123028,0.007927658036351204,16.181107147880223,0.011549683902840988,0.013562032370828092
457,0.25,0.001,0.010718738441557988,0.007763029529672602,16.563792336505394,0.011822835357962452,0.015518467174842954
458,0.25,0.001,0.01086970636540133,0.007834817971224371,17.007515019955843,0.012139553904322515,0.01916967285797
459,0.25,0.001,0.01086705242810042,0.007867196177982766,16.811195207678754,0.011999425558657212,0.011818371014669538
460,0.25,0.001,0.010698947310447692,0.00768581719097236,16.885582144364065,0.012052521159431881,0.00989529158687219
461,0.25,0.001,0.01075849371921757,0.007825892572493658,16.434297520181406,0.011730405082213709,0.014256174443289638
462,0.25,0.001,0.010806843500746333,0.00789876263588667,16.296886178721554,0.0116323241818141,0.015682623896282166
463,0.25,0.001,0.010693992431397023,0.007709024895144545,16.727758407592773,0.011939870383720751,0.01413511042483151
464,0.25,0.001,0.010754922890792723,0.007820778323904327,16.44294712232507,0.011736578959546802,0.01537714246660471
465,0.25,0.001,0.010761969504149064,0.007765363650801389,16.792978916997495,0.011986423209848319,0.013711484672967345
466,0.25,0.001,0.010759975510122984,0.007731805782279243,16.969864132093345,0.012112679608917449,0.013761528127361089
467,0.25,0.001,0.010698850857822791,0.007759391658170068,16.472728165336278,0.01175783594956194,0.012098118604626507
468,0.25,0.001,0.01075869521693043,0.007783363990323699,16.673756375520124,0.011901325036060046,0.0142363240593113
469,0.25,0.001,0.010732078843790552,0.007728877291083336,16.829941127611242,0.012012805944047996,0.013781804358586669
470,0.25,0.001,0.010837781170140143,0.007891014963388444,16.513679189267364,0.011787065802474921,0.0140207625227049
471,0.25,0.001,0.010722218065158181,0.007802812317791193,16.360350111256476,0.011677623205750519,0.012150685535743833
472,0.25,0.001,0.010707017649774966,0.007780782003765521,16.398624320652175,0.011704942413027962,0.012990483199246228
473,0.25,0.001,0.010701419437385123,0.007741194720501485,16.589100083060888,0.01184089941688857,0.01133202004712075
474,0.25,0.001,0.010700066460539465,0.007739920136721238,16.588659211863643,0.011840584733664271,0.012629635049961507
475,0.25,0.001,0.010676152080945347,0.00772729034981002,16.525421142578125,0.011795446925466186,0.012564108183141798
476,0.25,0.001,0.010746288113296032,0.0078901424801544,16.00583950540294,0.01142458208808204,0.015764671843498945
477,0.25,0.001,0.010716097542773122,0.007785877565164929,16.420953933052395,0.011720880751643395,0.013442444906104356
478,0.25,0.001,0.010819618403911591,0.007884765238217685,16.446916364586873,0.011739412108912828,0.012864012154750526
479,0.25,0.001,0.010780061344089716,0.007752190449315569,16.96818907364555,0.012111483992609244,0.009619939897675067
480,0.25,0.001,0.010705989129517389,0.007771499313252128,16.44488060992697,0.011737959036350441,0.010789028485305607
481,0.25,0.001,0.010788438404383866,0.007806079510761344,16.713140313521677,0.011929436340843452,0.010720819933339953
482,0.25,0.001,0.010778540308060853,0.007750282132917124,16.97035884027896,0.012113032719685194,0.01151855697389692
483,0.25,0.001,0.010770968534052372,0.007830456984431848,16.478625886336616,0.011762045600525779,0.01725114037981257
484,0.25,0.001,0.010842686510928299,0.007961308405451152,16.147243002186652,0.011525512492638581,0.02248492615763098
485,0.25,0.001,0.010781302667506362,0.007749160792192687,16.99212256721828,0.012128567142910978,0.014059032080695033
486,0.25,0.001,0.010785916058913521,0.00782994667230093,16.56525185626486,0.011823877127954933,0.015536174294538796
487,0.25,0.001,0.010895836547664975,0.007895956188440323,16.81133039723272,0.0119995220536993,0.015851851552724838
488,0.25,0.001,0.010843317769467831,0.007843828954450462,16.809136432150137,0.011997956054354131,0.017626271466724575
489,0.25,0.001,0.010779418496657972,0.007843225643686627,16.454424800043522,0.01174477144899609,0.013279466540552676
490,0.25,0.001,0.01079827415878358,0.007827434247440618,16.64858682051949,0.011883359614931827,0.012599609151948243
491,0.25,0.001,0.010839645920888237,0.007901388260981312,16.465996451999832,0.011753031014989174,0.011060975317377597
492,0.25,0.001,0.010844980131672776,0.007742341117852408,17.38718787483547,0.012410555228290841,0.013879706966690719
493,0.25,0.001,0.010807050578296184,0.007850839877906053,16.566603552776833,0.011824841936314655,0.016133870114572346
494,0.25,0.001,0.010771421173020549,0.007815187732162682,16.5667318261188,0.011824933494731477,0.014329738332889974
495,0.25,0.001,0.010749899012886959,0.007789052213015763,16.59258509096892,0.011843386931455332,0.011305667227134109
496,0.25,0.001,0.010807890858015288,0.007804806473786416,16.82928576262101,0.012012338160329056,0.011101471143774688
497,0.25,0.001,0.01067128907079282,0.007723806587898213,16.517691885906718,0.011789929968527279,0.011035525938495994
498,0.25,0.001,0.010752771519448446,0.007727000789473886,16.956418792061182,0.012103082649579716,0.013518639374524355
499,0.25,0.001,0.010830068199530892,0.00783072024097909,16.808345695163894,0.011997391645370373,0.015695236215833575
500,0.25,0.001,0.010794503638601821,0.007775551874352538,16.91820483000382,0.012075806445398872,0.01840826158877462
