epoch,beta,learning_rate,train_loss,train_reconstruction_loss,train_kl_unnormalized,train_kl_normalized,mean_unclipped_gradient_norm
1,0.0,0.001,0.06687061819765303,0.06687061819765303,3.4329849680264792,0.002450381847270863,0.1052293951312701
2,0.02,0.001,0.056836133615838155,0.05577290513449245,74.47908189561632,0.053161371802724,0.10548661649227142
3,0.04,0.001,0.0523221492767334,0.04552471306588915,238.08018663194446,0.16993589338468554,0.08234957853953044
4,0.06,0.001,0.04951654912696944,0.042098056938913136,173.22181362575955,0.12364155148162709,0.10211200267076492
5,0.08,0.001,0.04300315553943316,0.03919126217563947,66.75577799479167,0.04764866380784559,0.08552070955435435
6,0.1,0.001,0.03930823132395744,0.0374590510295497,25.907027350531685,0.01849181109959435,0.09539702534675598
7,0.12,0.001,0.03541038061181704,0.03311039010683695,26.852381176418728,0.019166581853261047,0.07872833932439487
8,0.14,0.001,0.03295757000645002,0.029195047914981842,37.65208392673068,0.026875149126859874,0.0860252318282922
9,0.16,0.001,0.03265494149592188,0.02857283213072353,35.743981255425346,0.025513191474250782,0.0758855485667785
10,0.18,0.001,0.03230456138650576,0.028078619804647233,32.891912672254776,0.02347745372751947,0.0757853053510189
11,0.2,0.001,0.031491142594152026,0.027571915545397334,27.454190148247612,0.019596138578335198,0.04609983414411545
12,0.22,0.001,0.03081567171547148,0.02779425039059586,19.240957472059463,0.013733731243440017,0.07514913628498714
13,0.24,0.001,0.030370205226871703,0.02769794025354915,15.599347644382053,0.011134438004555356,0.037095449243982635
14,0.25,0.001,0.029945775038666196,0.027627149803770915,12.99357541402181,0.009274500652406717,0.07843681300679843
15,0.25,0.001,0.029594163306885295,0.0278501957654953,9.77319229973687,0.006975868879184061,0.058166218300660454
16,0.25,0.001,0.02938634239965015,0.027457492219077215,10.80927488538954,0.0077153996326834685,0.08062250788013141
17,0.25,0.001,0.02852492406964302,0.026486051372355886,11.425841119554308,0.008155489735584802,0.058350921918948494
18,0.25,0.001,0.028017267998721864,0.02583489629129569,12.230008973015678,0.008729485348333817,0.03479721893866857
19,0.25,0.001,0.027133180242445733,0.025002481208907232,11.940441343519423,0.008522798960399302,0.032231599713365235
20,0.25,0.001,0.026913093816902902,0.024882040917873383,11.382024129231771,0.008124214225004834,0.04200659630199274
21,0.25,0.001,0.02644308242532942,0.02439357340335846,11.48545010884603,0.008198037194037137,0.030100421359141667
22,0.25,0.001,0.025550150415963598,0.02330744804607497,12.568106333414713,0.008970811087376669,0.05351298861205578
23,0.25,0.001,0.024987532446781795,0.022349976003170013,14.780868106418186,0.010550227056686786,0.1221178521712621
24,0.25,0.001,0.025100562307569716,0.02224802536269029,15.985620498657227,0.011410150248863117,0.14416095366080603
25,0.25,0.001,0.02474866021010611,0.021919109341171052,15.856804953681099,0.011318204820614632,0.09731429132322471
26,0.0,0.001,0.021373547199699614,0.021373547199699614,16.73940149943034,0.011948180941777544,0.07017821197708447
27,0.02,0.001,0.02067477111187246,0.020377012590567272,20.85796568128798,0.014887912691854376,0.07025667900840442
28,0.04,0.001,0.02058166844977273,0.01977020791835255,28.42140155368381,0.020286510744956326,0.07455558081467946
29,0.06,0.001,0.020801911544468667,0.019289028520385425,35.32582770453559,0.02521472355784125,0.07601780692736308
30,0.08,0.001,0.02164442878630426,0.019356590799159475,40.06576622856988,0.028597977322319685,0.12928999836246172
31,0.1,0.001,0.02156933355662558,0.018829336389899254,38.38736809624566,0.02739997722786985,0.1107615064829588
32,0.12,0.001,0.02158753987815645,0.01861612767808967,34.69123797946506,0.024761768721959357,0.09751855954527855
33,0.14,0.001,0.021424866177969508,0.018571137140194576,28.557674196031357,0.020383778869401396,0.022512792920072872
34,0.16,0.001,0.021722000920110278,0.01906780174209012,23.240833706325954,0.01658874639994715,0.10412571206688881
35,0.18,0.001,0.021869261438647907,0.019204735341999266,20.73888693915473,0.014802917158568688,0.05644214525818825
36,0.2,0.001,0.022188457763857312,0.019496981261505023,18.85379770067003,0.013457385939093526,0.10412223885456721
37,0.22,0.001,0.021993201019035444,0.018884912754098575,19.794144100613064,0.014128582512928667,0.06642969325184822
38,0.24,0.001,0.021802564668986533,0.018529448037346203,19.106815761990017,0.01363798412704498,0.042172687128186226
39,0.25,0.001,0.0221199585745732,0.018811720940801833,18.539363861083984,0.013232950650309768,0.06292042012015979
40,0.25,0.001,0.02162937033507559,0.018486028123233054,17.6152892642551,0.012573368496970093,0.06680253644784291
41,0.25,0.001,0.021827629456917446,0.018790838826033805,17.0181761847602,0.012147163586552606,0.04918789304792881
42,0.25,0.001,0.02159303550918897,0.018699285056855943,16.216579331292046,0.011575003091571768,0.04572237841784954
43,0.25,0.001,0.02091675189634164,0.01789367219640149,16.94133758544922,0.012092318048143626,0.030320010458429653
44,0.25,0.001,0.02136514563527372,0.018256612949901156,17.42021475897895,0.012434129021398252,0.0652260755499204
45,0.25,0.001,0.020783224660489295,0.017764051755269367,16.919442706637913,0.012076690011875741,0.0629620011895895
46,0.25,0.001,0.02054789558880859,0.017670294890801113,16.126077757941353,0.011510405251921022,0.08884229511022568
47,0.25,0.001,0.020028072512812085,0.01726035980714692,15.510259204440647,0.011070848825439433,0.06138170696794987
48,0.25,0.001,0.02057507385810216,0.017770851651827495,15.714861339992947,0.011216888893642361,0.10780612317224343
49,0.25,0.001,0.019715362331933446,0.01661532786157396,17.37259292602539,0.012400137705942463,0.05958183233936628
50,0.25,0.001,0.019533079945378833,0.016380705560247105,17.665906694200302,0.012609497997287868,0.13563807060321173
51,0.0,0.001,0.016489470584525004,0.016489470584525004,17.436887953016495,0.012446029945051031,0.04239217440287272
52,0.02,0.001,0.015960540829433337,0.015652015391323302,21.61220465766059,0.015426270276702778,0.040913386891285576
53,0.04,0.001,0.016186925893028576,0.015370215910176436,28.605257034301758,0.02041774235139312,0.13151020308335623
54,0.06,0.001,0.016199949093990855,0.014733278709981177,34.24674648708768,0.024444501418335245,0.08482910071810086
55,0.08,0.001,0.01650902277065648,0.014291518160866367,38.83405770195855,0.02771881349176199,0.09116545071204503
56,0.1,0.001,0.01728078495297167,0.014462254113621183,39.48761664496528,0.028185308097762513,0.114357673873504
57,0.12,0.001,0.01726991745332877,0.013900022953748703,39.343527475992836,0.028082460725191175,0.08886634558439255
58,0.14,0.001,0.01750999502837658,0.014082337833113141,34.30106205410428,0.024483270559674718,0.01797001746793588
59,0.16,0.001,0.01723435376253393,0.013968319735593267,28.59820556640625,0.020412709183730372,0.04338513811429342
60,0.18,0.001,0.017540927562448714,0.014430628675553534,24.20849100748698,0.017279436836179142,0.0686598438769579
61,0.2,0.001,0.018110228495465383,0.015075571524600187,21.257775200737846,0.015173287081183331,0.11878123506903648
62,0.22,0.001,0.018123556963271566,0.014904811771379577,20.49755816989475,0.014630662505278193,0.02985026439030965
63,0.24,0.001,0.01825369770328204,0.01499243639409542,19.037616199917263,0.013588591149120102,0.06064463096360365
64,0.25,0.001,0.018529528751969337,0.015124091671572791,19.084070417616104,0.01362174904897652,0.07870001097520192
65,0.25,0.001,0.018444778604639903,0.015192850596374936,18.223806593153213,0.013007713485476954,0.06682101637125015
66,0.25,0.001,0.018404061802559428,0.015159652050998475,18.181672626071506,0.012977639276282303,0.05152074992656708
67,0.25,0.001,0.018183135737975437,0.014937335418330299,18.189464992947048,0.012983201279762347,0.05153935061146816
68,0.25,0.001,0.017696051961845823,0.014428356351951757,18.312163670857746,0.013070780635872766,0.051316275571783386
69,0.25,0.001,0.017775087513857417,0.014771697628829215,16.83099471198188,0.012013557967153376,0.029335927839080494
70,0.25,0.001,0.017920721529258624,0.015103545660773912,15.787454817030165,0.011268704366188554,0.06266292557120323
71,0.25,0.001,0.01789633784857061,0.014941881307297282,16.55677392747667,0.01181782578692125,0.09456009541948636
72,0.25,0.001,0.018505676546030574,0.015534007714854347,16.653232998318142,0.011886675944552564,0.13359962155421576
73,0.25,0.001,0.01821683036784331,0.015090210466749139,17.52157868279351,0.012506480144749116,0.1096065603196621
74,0.25,0.001,0.017962569163905248,0.014891190350883536,17.212005827162002,0.012285514509037832,0.03800089781483015
75,0.25,0.001,0.01780596561729908,0.014773628467486965,16.99322001139323,0.012129350472086532,0.07293746247887611
76,0.0,0.001,0.014848606350521246,0.014848606350521246,17.018510606553818,0.012147402288760755,0.05958798403541247
77,0.02,0.001,0.014946140348911285,0.014661467530661158,19.941321055094402,0.014233633872301501,0.1272983339925607
78,0.04,0.001,0.014395247730943892,0.013645337480637763,26.26561228434245,0.01874776037426299,0.06968096022804578
79,0.06,0.001,0.01475129814611541,0.013402052223682404,31.5048951043023,0.022487434050180086,0.0581464342152079
80,0.08,0.001,0.015193763913379775,0.013133535058134131,36.07975557115343,0.025752859080052412,0.07116690278053284
81,0.1,0.001,0.015438378581570255,0.012712038329078091,38.19603305392795,0.027263406890740863,0.0667290488878886
82,0.12,0.001,0.016071069778667554,0.013001462962064479,35.837664710150825,0.025580060464061975,0.07678443938493729
83,0.14,0.001,0.016363089076346822,0.013112473612030348,32.52936808268229,0.02321867814609728,0.06394651470084985
84,0.16,0.001,0.01642759144306183,0.013231077024506198,27.989478217230904,0.01997821428781649,0.029923908412456512
85,0.18,0.001,0.01667716085082955,0.013518498072193729,24.584926181369358,0.01754812718156271,0.06443605944514275
86,0.2,0.001,0.016904017474088404,0.013712346346841918,22.35765881008572,0.01595835746615683,0.08363134041428566
87,0.22,0.001,0.016993346106674936,0.013690967112779617,21.03014924791124,0.015010813167673975,0.03434447509547075
88,0.24,0.001,0.01713451101548142,0.013561570499506261,20.85704294840495,0.014887254067383976,0.015317262460788092
89,0.25,0.001,0.01722673326730728,0.013579976227548387,20.43642255995009,0.014587025381834467,0.0521182045340538
90,0.25,0.001,0.017272041075759463,0.013889469413293732,18.95593304104275,0.013530287680972699,0.09363864734768867
91,0.25,0.001,0.017145963178740606,0.013821119649542702,18.632422765096027,0.013299373850889385,0.10325661549965541
92,0.25,0.001,0.017210689476794667,0.014008225666152107,17.946603563096787,0.012809852650318905,0.08512347626189391
93,0.25,0.001,0.01736905798316002,0.014309688988659117,17.144703759087456,0.012237475916550647,0.07286224452157815
94,0.25,0.001,0.017204113718536165,0.014183523857759105,16.927385542127823,0.012082359416222571,0.07584319139520328
95,0.25,0.001,0.017687264415952895,0.014516355883744027,17.769772211710613,0.012683634697866248,0.09911778072516124
96,0.25,0.001,0.01737951073381636,0.014105750247836113,18.346155378553604,0.013095043096754893,0.10597460344433784
97,0.25,0.001,0.01741024272309409,0.014317958719200559,17.329158359103733,0.012369135159959839,0.09364031006892522
98,0.25,0.001,0.016989196961124737,0.014030618800057305,16.579869164360893,0.011834310609822193,0.0642319992184639
99,0.25,0.001,0.017035490108860865,0.013998400006029341,17.019854227701824,0.012148361333120503,0.08023005289336045
100,0.25,0.001,0.016954960922400158,0.01380697244571315,17.641323301527237,0.012591950964687536,0.05839672808845838
101,0.25,0.001,0.01683141601582368,0.013779749265975423,17.101538128323025,0.012206665330708797,0.058308863081038
102,0.25,0.001,0.0169996101823118,0.014088263424734274,16.315189997355144,0.0116453890059637,0.04009015796085199
103,0.25,0.001,0.017068346341451008,0.014119107690122392,16.527533849080402,0.011796954924397147,0.09743947411576907
104,0.25,0.001,0.017218557910786733,0.014116645169754824,17.383118947347004,0.012407650926014991,0.08366748193899791
105,0.25,0.001,0.016860504531198077,0.013757440365023084,17.389571083916557,0.012412256305436515,0.0526530264566342
106,0.25,0.001,0.016855875237120524,0.0138383148651984,16.910406748453777,0.012070240362922039,0.07188055043419202
107,0.25,0.001,0.016651088578833476,0.01373503315779898,16.341577741834854,0.0116642239413525,0.036008610700567566
108,0.25,0.001,0.016664853733446863,0.013694667153888278,16.64492458767361,0.011880745601480093,0.04033988776306311
109,0.25,0.001,0.01661867979500029,0.013513858637048138,17.399414910210503,0.012419282591156676,0.027739320571223896
110,0.25,0.001,0.01656488308476077,0.013370226447780928,17.90285693274604,0.012778627360989323,0.0687020073334376
111,0.25,0.001,0.016777154989540577,0.013669179752469063,17.41709412468804,0.012431901587928652,0.07300044596195221
112,0.25,0.001,0.01675871055987146,0.013725743111636903,16.996751573350693,0.01213187121581063,0.057875960133969784
113,0.25,0.001,0.016474993692504034,0.013333786382443376,17.603324466281467,0.012564828312834737,0.030322352424263954
114,0.25,0.001,0.016686807076136272,0.013522255027459728,17.734153323703342,0.012658210794934578,0.05409463495016098
115,0.25,0.001,0.016384349308080144,0.013339614909556177,17.06268988715278,0.012178936393399557,0.0875022920469443
116,0.25,0.001,0.016706300692425832,0.013837653522690138,16.075899759928387,0.011474589407514908,0.08111532280842464
117,0.25,0.001,0.016760179152091343,0.013856031000614166,16.274844275580513,0.011616591203126704,0.02348385751247406
118,0.25,0.001,0.01650662637419171,0.01340703210896916,17.370124181111652,0.01239837557538305,0.07539709533254306
119,0.25,0.001,0.016209063016706042,0.013041490481959449,17.75107849968804,0.012670291577222013,0.04384497987727324
120,0.25,0.001,0.016137505157126322,0.01305882353335619,17.25293011135525,0.012314725275771057,0.033953926215569176
121,0.25,0.001,0.016340965612067118,0.01332208276208904,16.917818705240887,0.012075530838858591,0.04041356096665064
122,0.25,0.001,0.01636864948603842,0.013238355103466246,17.542171054416233,0.012521178482809588,0.04148019291460514
123,0.25,0.001,0.016235476359725,0.013116510998871591,17.478681988186306,0.012475861519048042,0.03903966272870699
124,0.25,0.001,0.016420337475008435,0.013396395991245905,16.94616656833225,0.012095764859623303,0.017898252233862877
125,0.25,0.001,0.015897909593251016,0.01291273430817657,16.72892337375217,0.011940701908459793,0.015374249778687954
126,0.25,0.001,0.016039261387454137,0.012960511777136061,17.253311157226562,0.01231499725712103,0.046642217164238296
127,0.25,0.001,0.015974737910760775,0.012865488417446613,17.424230999416775,0.012436995716928462,0.02566645418604215
128,0.25,0.001,0.016055164858698845,0.013011674086252848,17.05572509765625,0.012173965094686831,0.02945392703016599
129,0.25,0.001,0.015979908199773893,0.013006910267803404,16.660680135091145,0.011891991531114308,0.028310507535934448
130,0.25,0.001,0.015844755702548556,0.012948917638924386,16.228274451361763,0.011583350786125456,0.03912527672946453
131,0.25,0.001,0.01604472856140799,0.013024205755856302,16.9270085228814,0.0120820903089803,0.037800184140602745
132,0.25,0.001,0.01626970525830984,0.01311312677959601,17.689464781019424,0.0126263131913058,0.04648742203911146
133,0.25,0.001,0.016036084956592984,0.012865412566396926,17.768446816338432,0.012682688662625577,0.02778819886346658
134,0.25,0.001,0.01612270147436195,0.013011118190156089,17.437313821580673,0.012446333919757796,0.04757166653871536
135,0.25,0.001,0.0157929803762171,0.012810284168355994,16.715029186672634,0.01193078457292836,0.041839210937420525
136,0.25,0.001,0.015938062220811844,0.013128633196983073,15.74404165479872,0.011237717098357402,0.04130506018797556
137,0.25,0.001,0.015840184771352343,0.012899896336926354,16.477379269070095,0.011761155795196356,0.020364377958079178
138,0.25,0.001,0.01572069339454174,0.012665156688955095,17.123228073120117,0.012222147090021496,0.030283592951794464
139,0.25,0.001,0.016213240515854623,0.013168010860681534,17.065469317966038,0.012180920284058556,0.07000430611272652
140,0.25,0.001,0.016119723311728902,0.01308463824292024,17.008618036905926,0.012140341211210512,0.0583531620601813
141,0.25,0.001,0.015646827096740406,0.012764973979857232,16.149907218085396,0.011527414145671232,0.019173869863152504
142,0.25,0.001,0.015951509380506143,0.013117992940048376,15.879029591878256,0.011334068231176485,0.06108778342604637
143,0.25,0.001,0.01599148681594266,0.013080963761442237,16.310570610894096,0.011642091799353388,0.06447524515291055
144,0.25,0.001,0.015556449070572853,0.012610613058010737,16.508465872870552,0.01178334466300539,0.05404535432656606
145,0.25,0.001,0.015538109880354669,0.012613539790941609,16.389290703667534,0.011698280302403665,0.03168583444009224
146,0.25,0.001,0.01572425363378392,0.012751097376975749,16.66156906551785,0.011892626028206886,0.06298471863071124
147,0.25,0.001,0.01580387891994582,0.01277347281575203,16.982394960191513,0.012121623811699867,0.03151182644069195
148,0.25,0.001,0.01572137191477749,0.01264429765029086,17.243925094604492,0.012308297712066018,0.030563923840721447
149,0.25,0.001,0.015541282172004381,0.01242306124832895,17.474511040581596,0.012472884397274515,0.0323515065635244
150,0.25,0.001,0.015517416306667857,0.012520895443028875,16.792503356933594,0.01198608376654789,0.022416688191394012
151,0.25,0.001,0.01541497806708018,0.012602876561383406,15.759014977349175,0.011248404694753158,0.0242935831968983
152,0.25,0.001,0.015432448643777106,0.01260824418730206,15.82684326171875,0.011296818887736438,0.019348689975837868
153,0.25,0.001,0.015425812039110396,0.012438213970098231,16.742499669392902,0.011950392340751537,0.026170391589403152
154,0.25,0.001,0.015501122093862958,0.01252939272671938,16.653572930230034,0.011886918579750202,0.026542359963059425
155,0.25,0.001,0.015490576003988584,0.012535727272431055,16.558970981174046,0.011819393990845143,0.01789121547092994
156,0.25,0.001,0.015111909144454531,0.012244279806812605,16.07019657558865,0.011470518612126088,0.014039882303526005
157,0.25,0.001,0.01571109394232432,0.012892418437533908,15.795857535468208,0.0112747020238888,0.031628360971808434
158,0.25,0.001,0.01565409658683671,0.01261144814391931,17.051000383165146,0.01217059270746977,0.06264082839091618
159,0.25,0.001,0.01566262191368474,0.012501487508416176,17.714998881022137,0.012644538815861625,0.04364112267891566
160,0.25,0.001,0.01531900486184491,0.012302729715075757,16.903208520677353,0.012065102441596968,0.018723078072071075
161,0.25,0.001,0.01559837038318316,0.01275283025784625,15.946404774983725,0.011382159011408797,0.023053502663969994
162,0.25,0.001,0.01530956994328234,0.012471412722435262,15.90503289964464,0.01135262876491409,0.014494998070100943
163,0.25,0.001,0.01530148627029525,0.012398172169923782,16.270172542995876,0.011613256633116258,0.03344888053834438
164,0.25,0.001,0.015425461240940623,0.012456587929692533,16.63756603664822,0.011875493245287808,0.03754321796198686
165,0.25,0.001,0.015379511440793673,0.01241772249341011,16.597864362928604,0.011847155148414421,0.040141034250458084
166,0.25,0.001,0.015319383392731348,0.012433600922425589,16.171926498413086,0.011543130976740246,0.028817199791471165
167,0.25,0.001,0.015437844519813856,0.012501607649028301,16.454671223958332,0.01174494734044135,0.032684926564494766
168,0.25,0.001,0.015243186408446895,0.012253598310053349,16.75365204281277,0.011958352635840665,0.02526879869401455
169,0.25,0.001,0.015113558930655321,0.012109141486386458,16.836753845214844,0.01201766869751238,0.037207964497307934
170,0.25,0.001,0.015144630645712217,0.012089058653348021,17.123424106174046,0.01222228701368597,0.0429225138699015
171,0.25,0.001,0.014865460184713205,0.011906889474226369,16.579831017388237,0.011834283381433431,0.01852017268538475
172,0.25,0.001,0.015266638145678572,0.012548224483099248,15.233989715576172,0.010873654329461935,0.037404315546154976
173,0.25,0.001,0.015056807547807693,0.012415334271887938,14.802813847859701,0.01056589139747302,0.021255434801181156
174,0.25,0.001,0.015011917799711227,0.012163434488077959,15.962899949815538,0.01139393286924735,0.029278748358289402
175,0.25,0.001,0.015063710717691315,0.011962482188310888,17.379287719726562,0.01240491628817028,0.018495570868253708
176,0.25,0.001,0.014911232930090692,0.011797846708860662,17.447416729397244,0.012453545131618303,0.0403677299618721
177,0.25,0.001,0.015193502211736308,0.012279442408018641,16.330392413669163,0.011656240123960859,0.014774061739444733
178,0.25,0.001,0.014838812458846305,0.0120693679071135,15.519966337415907,0.011077777542766528,0.04301192114750544
179,0.25,0.001,0.014908519263068834,0.0120841052590145,15.828016493055555,0.011297656311959711,0.027426008445521195
180,0.25,0.001,0.014989539153046079,0.01207667775452137,16.32367494371202,0.011651445355968609,0.03727259890486797
181,0.25,0.001,0.015122211848696073,0.012204489463733302,16.350918028089737,0.011670890812340996,0.0436510406434536
182,0.25,0.001,0.01499850344326761,0.01208628796868854,16.320056279500324,0.011648862440756833,0.0428731677432855
183,0.25,0.001,0.014898883696231578,0.012035261218746504,16.047737969292534,0.011454488200779824,0.028183043623963993
184,0.25,0.001,0.01490866682595677,0.011977093915144602,16.428534189860027,0.011726291356074251,0.04273925038675467
185,0.25,0.001,0.015064305315415064,0.012086399934358068,16.688182830810547,0.011911622291799106,0.04050332369903723
186,0.25,0.001,0.014727680323024591,0.01173310995929771,16.78157064649794,0.011978280261597387,0.034817072873314224
187,0.25,0.001,0.01481520901951525,0.011884412831730314,16.4241820441352,0.011723184899454104,0.02976225254436334
188,0.25,0.001,0.014820383240779242,0.011993149502409829,15.843819512261284,0.011308936125811053,0.030301055560509365
189,0.25,0.001,0.014666525647044182,0.011879313323232863,15.619538307189941,0.011148849612555276,0.02590855583548546
190,0.25,0.001,0.014560548278192679,0.011732132898436652,15.85043970743815,0.011313661461411956,0.03363433542350928
191,0.25,0.001,0.014805278223421838,0.01202211446232266,15.59684944152832,0.011132654847629065,0.03481286143263181
192,0.25,0.001,0.014878072775900364,0.012056317801276842,15.81311395433214,0.011287019239351992,0.024020768081148464
193,0.25,0.001,0.014473281386825774,0.011539146304130554,16.442892922295464,0.011736540272873278,0.04566694299379984
194,0.25,0.001,0.014451587572693825,0.011561394565635257,16.196643087599014,0.011560773081798011,0.03501044834653536
195,0.25,0.001,0.014782230369746685,0.012052811164822843,15.295666800604927,0.010917677944757264,0.02706976141780615
196,0.25,0.001,0.014718770773874389,0.011929413200252585,15.631559901767307,0.011157430336736123,0.03201649493227402
197,0.25,0.001,0.014926119811005063,0.011986959725618362,16.471054077148438,0.011756641025801883,0.02632756344974041
198,0.25,0.001,0.01471900629500548,0.01180806342098448,16.312922795613606,0.011643770732058249,0.040207043290138245
199,0.25,0.001,0.014551674326260885,0.011722453869879246,15.854952494303385,0.011316882579802559,0.025314928963780403
200,0.25,0.001,0.014526519717441665,0.01171215447700686,15.771703084309896,0.011257461159393217,0.05303490658601125
201,0.25,0.001,0.014768308028578758,0.011933462590807013,15.88647429148356,0.011339382078146724,0.05617901124060154
202,0.25,0.001,0.014619218082063727,0.011737714728547467,16.147943284776474,0.011526012337456442,0.01919750900318225
203,0.25,0.001,0.014600434444016881,0.011686239184604751,16.331151750352646,0.011656782120166057,0.040842692057291664
204,0.25,0.001,0.014474602830078866,0.011659392673108313,15.776437229580349,0.011260840278073054,0.04687316156923771
205,0.25,0.001,0.014556857860750623,0.011781811093290647,15.551362779405382,0.011100187565599844,0.04829344153404236
206,0.25,0.001,0.014825350191030238,0.011966164534290632,16.022876315646702,0.011436742552210352,0.048192049687107406
207,0.25,0.001,0.014750817583666908,0.011776103845073117,16.670296986897785,0.011898855807921332,0.05923007304469744
208,0.25,0.001,0.014687664185961088,0.011715406758917702,16.656532287597656,0.011889030897642866,0.03691860722998778
209,0.25,0.001,0.014585950101415316,0.011753907841112878,15.870763566758898,0.011328168141869306,0.023007960058748722
210,0.25,0.001,0.01443464888466729,0.01166659603930182,15.51217089758979,0.011072213345888501,0.027327680960297585
211,0.25,0.001,0.014366163768702082,0.011605356302526262,15.471565670437283,0.011043230314373506,0.023857676113645237
212,0.25,0.001,0.014327288398312198,0.011510522415240606,15.78515625,0.011267063704496788,0.03092251345515251
213,0.25,0.001,0.0142689427981774,0.011401420459151268,16.069594701131184,0.011470089008658946,0.018144836649298668
214,0.25,0.001,0.014472634945478704,0.011653423412806459,15.798862881130642,0.011276847167116804,0.021857144155850012
215,0.25,0.001,0.014468951150774956,0.01162726069904036,15.924833085801867,0.011366761660101261,0.021522384136915207
216,0.25,0.001,0.014384729166825613,0.011425285807086362,16.584720187717014,0.011837773153259824,0.021107731387019157
217,0.25,0.001,0.014106916781100962,0.011219752952456474,16.179667896694607,0.011548656600067528,0.033126961129407086
218,0.25,0.001,0.014197695896857314,0.011463979569574198,15.319747394985622,0.010934866092066826,0.0165848300481836
219,0.25,0.001,0.01423591354654895,0.01153612695634365,15.129603703816732,0.010799146112645775,0.04854013274113337
220,0.25,0.001,0.01432556410630544,0.011602074839174747,15.262433793809679,0.01089395702627386,0.030757320423920948
221,0.25,0.001,0.01429890613589022,0.011460671097868018,15.905469258626303,0.011352940227427768,0.02884003023306529
222,0.25,0.001,0.014367061149742868,0.011542332772579458,15.829779307047525,0.01129891456605819,0.027270024021466572
223,0.25,0.001,0.014315047094391452,0.011529820867710643,15.608407338460287,0.011140904595617621,0.05136037742098173
224,0.25,0.001,0.014341705789168676,0.0115162276973327,15.833979500664604,0.011301912562929768,0.06689458092053731
225,0.25,0.001,0.014373700237936445,0.011581211040417353,15.649109310574001,0.011169956681351893,0.05629889294505119
226,0.25,0.001,0.014359656824833818,0.011559871025383472,15.689999050564236,0.011199142791266407,0.039101459085941315
227,0.25,0.001,0.014299674787455134,0.011566410979462994,15.317212422688803,0.010933056689999145,0.04661994427442551
228,0.25,0.001,0.014691801431278387,0.012048777089350753,14.81150902642144,0.010572097806153776,0.07425877327720325
229,0.25,0.001,0.01418470467130343,0.011462096642288897,15.257493125067818,0.010890430496122639,0.04020587758471569
230,0.25,0.001,0.01419364671326346,0.011377678149276309,15.780688815646702,0.011263874957635048,0.03362690098583698
231,0.25,0.001,0.014352123977409469,0.011566578410565853,15.610196431477865,0.011142181607050583,0.03688584888974825
232,0.25,0.001,0.014218666694230504,0.011334918956789706,16.16052203708225,0.011534990747382047,0.026499747298657894
233,0.25,0.001,0.014148864895105362,0.011296332917279668,15.985589769151476,0.011410128314883281,0.037693159033854805
234,0.25,0.001,0.014243287241293324,0.011529283184144232,15.209277788798014,0.010856015552318354,0.026013916979233425
235,0.25,0.001,0.014022650197148323,0.011295174972878562,15.284770965576172,0.010909900760582564,0.029557776326934498
236,0.25,0.001,0.0139117238836156,0.011061533043781916,15.972471872965494,0.011400765077063165,0.052606637900074325
237,0.25,0.001,0.01413982216682699,0.011280819877154298,16.021848890516495,0.011436009200939682,0.030465942186613876
238,0.25,0.001,0.01413937182062202,0.011317205097940233,15.81542322370741,0.011288667540119493,0.028944825753569603
239,0.25,0.001,0.01395279293258985,0.011093049620588621,16.02600140041775,0.011438973162325304,0.03390325388560692
240,0.25,0.001,0.013870226012335883,0.011051679650942484,15.79513168334961,0.011274183928158179,0.031979495038588844
241,0.25,0.001,0.014080346044566896,0.01131388358771801,15.503255738152397,0.01106584992016588,0.022295362316071987
242,0.25,0.001,0.01386255170736048,0.011078769030670324,15.600318484836155,0.01113513096704936,0.02537658220777909
243,0.25,0.001,0.01375265522963471,0.010987399766842524,15.49649175008138,0.011061021948666224,0.015141099691390991
244,0.25,0.001,0.013779963987569014,0.011106698049439324,14.980983098347982,0.01069306431002711,0.03484768948207299
245,0.25,0.001,0.013964514351553388,0.011367161758244038,14.555565940009224,0.010389411805859545,0.04152990008393923
246,0.25,0.001,0.013764078728854656,0.011057617763678232,15.167007658216688,0.010825844152902704,0.03053605742752552
247,0.25,0.001,0.013955627257625261,0.01117769732243485,15.567520883348253,0.011111720830369917,0.017184590299924214
248,0.25,0.001,0.013959289631909795,0.01122396242701345,15.32877508799235,0.010941309841536295,0.023508555566271145
249,0.25,0.001,0.013877276641627153,0.01117244383527173,15.157882584465874,0.010819330895407476,0.01124619630475839
250,0.25,0.001,0.013789670645362802,0.011047455482184887,15.367374844021267,0.010968861416146515,0.01862952361504237
251,0.25,0.001,0.013886710835827721,0.01113737891945574,15.407255278693306,0.010997327108275022,0.012030754859248797
252,0.25,0.001,0.013792212638590071,0.011065296414825652,15.281638887193468,0.010907665158596336,0.02339536075790723
253,0.25,0.001,0.013793821239637004,0.01101905790468057,15.549772474500868,0.011099052444326102,0.025136894236008327
254,0.25,0.001,0.013853810313675139,0.0111296358000901,15.266272438897026,0.0108966969585275,0.020865293840567272
255,0.25,0.001,0.01379098639720016,0.011105214556058248,15.051067140367296,0.010743088608399213,0.01330476626753807
256,0.25,0.001,0.013817674066457484,0.011215827220843898,14.580750995212131,0.010407388290658195,0.019252358935773373
257,0.25,0.001,0.013811185542080138,0.011132932164602809,15.008931477864584,0.01071301318905395,0.030196345411241055
258,0.25,0.001,0.01390690491017368,0.011156848217878077,15.411318355136448,0.01100022723421588,0.03496137633919716
259,0.25,0.001,0.014000563364889886,0.011195786400801606,15.717970742119682,0.011219108309864155,0.029761069764693577
260,0.25,0.001,0.013688670264350044,0.010917243444257312,15.531076855129665,0.011085707962262431,0.02497769643863042
261,0.25,0.001,0.013774843369093206,0.011046031179527441,15.29226451449924,0.010915249475017302,0.04064065280059973
262,0.25,0.001,0.013700869348314073,0.010922015644609928,15.572694566514757,0.011115413680595829,0.04020221158862114
263,0.25,0.001,0.013809804390701983,0.011082717217504978,15.282597435845268,0.010908349347498406,0.025178060866892338
264,0.25,0.001,0.013766374439001083,0.011030170549121168,15.3336853451199,0.01094481466461092,0.01568605098873377
265,0.25,0.001,0.013842429965734482,0.011060686057640446,15.588892618815104,0.011126975459539688,0.037560743590195976
266,0.25,0.001,0.013665695157315996,0.010821524490084913,15.93873151143392,0.011376682021009221,0.0101504346045355
267,0.25,0.001,0.013727806301580535,0.010896009910437796,15.869386461046007,0.01132718519703498,0.01942193725456794
268,0.25,0.001,0.013864773015181223,0.011074003556536304,15.639473385281033,0.011163078790350488,0.0251415620247523
269,0.25,0.001,0.01356653662191497,0.01076383205751578,15.706356366475424,0.01121081824873335,0.0311764944344759
270,0.25,0.001,0.013774169608950615,0.011044464694956938,15.29726537068685,0.01091881896551524,0.036335790529847145
271,0.25,0.001,0.013720780404077636,0.010982002856002914,15.348109987046984,0.010955110626014978,0.021120544833441574
272,0.25,0.001,0.013650654815137386,0.01095065257201592,15.130814446343315,0.01080001031145133,0.011571074991176525
273,0.25,0.001,0.013483043656580977,0.010750496346089575,15.313196182250977,0.010930189994468934,0.03644432220607996
274,0.25,0.001,0.013483201981418662,0.010734809045162465,15.401995976765951,0.01099357314544322,0.026168023546536762
275,0.25,0.001,0.013577282532221742,0.010891138058569696,15.053154521518284,0.010744578530705413,0.03144834159562985
276,0.25,0.001,0.013682296085688803,0.011086588415006796,14.546344651116264,0.010382829872317105,0.032439425587654114
277,0.25,0.001,0.01339819458209806,0.01075899259497722,14.790088759528267,0.010556808536422746,0.011191483276585737
278,0.25,0.001,0.013526374163726965,0.01075815823343065,15.513083457946777,0.01107286470945523,0.022046805048982304
279,0.25,0.001,0.013462290064328246,0.01065976307209995,15.705361684163412,0.011210108268496369,0.017099045527478058
280,0.25,0.001,0.013436683867540624,0.010751834449668726,15.045896106296116,0.01073939764903363,0.021995648741722107
281,0.25,0.001,0.013537553449471792,0.010876520226399103,14.912428749932182,0.010644131870044385,0.030209265028436978
282,0.25,0.001,0.013478061701688502,0.010731173679232597,15.393560197618273,0.010987551889806048,0.030439408496022224
283,0.25,0.001,0.013641684419578977,0.010773942702346377,16.070823245578342,0.011470965914045925,0.020899688825011253
284,0.25,0.001,0.013535982825689845,0.010663234318296114,16.09888479444716,0.011490995570626095,0.03310476802289486
285,0.25,0.001,0.013471806835797098,0.010785522870719433,15.053936004638672,0.010745136334502978,0.01771448242167632
286,0.25,0.001,0.013386430011855232,0.01079655397269461,14.513665517171225,0.010359504294911653,0.015670602209866047
287,0.25,0.001,0.013596448736886183,0.010998989765842756,14.556159973144531,0.010389835812380108,0.025174253309766453
288,0.25,0.001,0.01345254708495405,0.010766736645665433,15.051281293233236,0.010743241465548349,0.020462857869764168
289,0.25,0.001,0.013569481981297335,0.010822039304508103,15.396668752034506,0.010989770700952538,0.027959521239002545
290,0.25,0.001,0.013468831984533204,0.01078120805323124,15.061443010965982,0.010750494654508195,0.02852645268042882
291,0.25,0.001,0.013329636719491746,0.01056346721533272,15.501614464653862,0.011064678418739373,0.01157318257416288
292,0.25,0.001,0.013617079601519637,0.010816819551918242,15.6926572587755,0.011201040156156673,0.022763976206382115
293,0.25,0.001,0.013478624013562998,0.010790801089670923,15.062561247083876,0.010751292824471003,0.02523597702383995
294,0.25,0.001,0.013563598402672343,0.010940435239010386,14.700206544664171,0.010492652779917325,0.014200920704752207
295,0.25,0.001,0.013354853726923466,0.010612969286739826,15.365520265367296,0.010967537662646179,0.020426137062410515
296,0.25,0.001,0.013483441538280912,0.010568423507114252,16.33576160007053,0.011660072519679179,0.023086661472916603
297,0.25,0.001,0.0134347855216927,0.010502664165364372,16.43160841200087,0.011728485661670856,0.020295439288020134
298,0.25,0.001,0.013446922000083659,0.010649460678299269,15.676975038316515,0.011189846565536413,0.019769794928530853
299,0.25,0.001,0.013449122508366903,0.010770263874696361,15.012324015299479,0.010715434700427894,0.0161257553845644
300,0.25,0.001,0.013516015994052092,0.010806799762778811,15.182446797688803,0.010836864238179016,0.017507215961813927
301,0.25,0.001,0.01351865329262283,0.010834793870647749,15.040351019965279,0.010735439700189349,0.021637488156557083
302,0.25,0.001,0.013399148773815896,0.01069835407866372,15.135254753960503,0.010803179695903286,0.02565083187073469
303,0.25,0.001,0.013297979099055132,0.010554607957601547,15.373852199978298,0.010973484796558386,0.016523159729937714
304,0.25,0.001,0.013285643317633204,0.010505882195300527,15.577781041463217,0.011119044283699656,0.018516295899947483
305,0.25,0.001,0.01319429050717089,0.010455093450016446,15.3504605823093,0.01095678842420364,0.016549439014246065
306,0.25,0.001,0.013422101322147582,0.01072687396986617,15.104053921169704,0.010780909294196792,0.02758123694608609
307,0.25,0.001,0.013226591361065706,0.0105864138652881,14.795554796854654,0.010560710061994757,0.03226935056348642
308,0.25,0.001,0.013344387730790509,0.01075972771892945,14.484434127807617,0.010338639634409435,0.02005194593220949
309,0.25,0.001,0.013248753216531541,0.010556459737320742,15.087614271375868,0.010769175068790769,0.01773582212626934
310,0.25,0.001,0.013286869559023116,0.010527743130094476,15.462144639756945,0.01103650580996213,0.015520410612225533
311,0.25,0.001,0.013202176325851016,0.01047998397714562,15.255166371663412,0.010888769715676953,0.022398685105144978
312,0.25,0.001,0.013235711596078344,0.010551821543938585,15.040519502427843,0.010735559958906384,0.019245760515332222
313,0.25,0.001,0.013308369037177827,0.010511105259259542,15.675867716471354,0.011189056185918167,0.022411845934887726
314,0.25,0.001,0.013244723797672324,0.010476505590809716,15.513095008002388,0.011072872953606273,0.04541287571191788
315,0.25,0.001,0.013259648345410824,0.010614059451553557,14.825878673129612,0.010582354513297367,0.040766547744472824
316,0.25,0.001,0.013289826404717233,0.010707949391669698,14.468838691711426,0.010327507988373608,0.037868511552611984
317,0.25,0.001,0.013351739280753665,0.010638270734084977,15.206277317470974,0.010853873888273358,0.02374748435492317
318,0.25,0.001,0.013261772278282378,0.010545037997265657,15.224580976698133,0.010866938598642493,0.017292552938063938
319,0.25,0.001,0.013288136054244306,0.010626044848726856,14.918361028035482,0.010648366187034606,0.017372810592254
320,0.25,0.001,0.013151383027434349,0.01047300174832344,15.009647793240017,0.010713524477687378,0.017111835690836113
321,0.25,0.001,0.013140701171424653,0.0104940893749396,14.831612586975098,0.010586447242666023,0.028688648405174415
322,0.25,0.001,0.01320692834754785,0.010601072675651975,14.60321405198839,0.010423421878649815,0.037312040105462074
323,0.25,0.001,0.013192284127904309,0.0105739984040459,14.67287211947971,0.010473142126680735,0.03354407039781412
324,0.25,0.001,0.01305432203743193,0.01039766954878966,14.887879901462131,0.010626609494262763,0.018988131700704496
325,0.25,0.001,0.013034409946865506,0.010363800451159477,14.966094546847874,0.010682437221161937,0.009735689498484135
326,0.25,0.001,0.013068127342396312,0.010361333998541037,15.168870078192818,0.01082717350334962,0.017795710513989132
327,0.25,0.001,0.013057628543012671,0.010413133435779147,14.819752163357204,0.010577981558427698,0.013661400570223728
328,0.25,0.001,0.012896583312087588,0.010306931618187163,14.51240963406033,0.01035860787584606,0.013902821422864994
329,0.25,0.001,0.013199272151622508,0.010625303515957462,14.424521552191841,0.010295875483363198,0.016229710541665554
330,0.25,0.001,0.01307912129494879,0.010444368649688032,14.765155050489637,0.010539011456452274,0.028118332847952843
331,0.25,0.001,0.013276781783335738,0.010577238164842129,15.128240797254774,0.010798173302822822,0.03770856435100237
332,0.25,0.001,0.013078453122741647,0.010396377390457524,15.030351003011068,0.010728301929344089,0.025396301100651424
333,0.25,0.001,0.013229338245259391,0.010561398230493069,14.951136165195042,0.010671760289218445,0.013651912100613117
334,0.25,0.001,0.01309576320151488,0.010415911571019225,15.017889234754774,0.010719407019810688,0.016394955416520435
335,0.25,0.001,0.012945614341232512,0.010321066300902102,14.707967228359646,0.010498192168707813,0.018602048357327778
336,0.25,0.001,0.013007504865527153,0.010422841852737797,14.484452141655815,0.010338652492259683,0.033269928147395454
337,0.25,0.001,0.013228796422481537,0.01057943743136194,14.847008493211534,0.010597436469101738,0.03333780728280544
338,0.25,0.001,0.013121600987182723,0.010336632426414225,15.606964111328125,0.01113987445490944,0.025568421309192974
339,0.25,0.001,0.013162941361467043,0.010378171482847797,15.605850219726562,0.011139079385957575,0.026471891130010288
340,0.25,0.001,0.013015044956571527,0.010245903498596616,15.518269220987955,0.011076566182004251,0.012383874040096998
341,0.25,0.001,0.013244684992565049,0.01055186272909244,15.090574794345432,0.01077128821866198,0.012357322033494711
342,0.25,0.001,0.013061736399928728,0.010396893343163861,14.933779186672634,0.010659371296697098,0.014550750143826008
343,0.25,0.001,0.013170886474351088,0.01038871312306987,15.591299480862087,0.011128693419601775,0.032667589063445725
344,0.25,0.001,0.012923044566478994,0.010208120362626182,15.214436637030708,0.010859697813726416,0.019887326906124752
345,0.25,0.001,0.013147122433616055,0.01054560061958101,14.578929689195421,0.010406088286363612,0.024367867037653923
346,0.25,0.001,0.012953658484750323,0.010395027490125762,14.338568581475151,0.010234524326534726,0.027619029705723126
347,0.25,0.001,0.012961810868647363,0.010365081330140432,14.552073372734917,0.010386918895599513,0.01567096107949813
348,0.25,0.001,0.012881866863204373,0.010243187761969037,14.787159177992079,0.0105547174718002,0.017679745331406593
349,0.25,0.001,0.012971793715324666,0.010354970685309835,14.664677831861708,0.010467293241871312,0.025007459024588268
350,0.25,0.001,0.012901646188563771,0.010255175021787485,14.830823262532553,0.010585883841921878,0.020827019897600014
351,0.25,0.001,0.012987074856128957,0.010312058652440706,14.990790261162651,0.010700064426240294,0.025405474628011387
352,0.25,0.001,0.012909541527430216,0.010259935321907202,14.848393122355143,0.010598424783979403,0.04084505264957746
353,0.25,0.001,0.013079065312114026,0.010457184062235884,14.693023045857748,0.010487525371775695,0.01926754228770733
354,0.25,0.001,0.012932064218653573,0.010220848437812593,15.193653636508518,0.010844863409356543,0.01732354952643315
355,0.25,0.001,0.013028788483805127,0.01032879731307427,15.130750020345053,0.010799964325728089,0.0327472568800052
356,0.25,0.001,0.012922368426289823,0.01029079697198338,14.747325897216797,0.01052628543698558,0.03353230096399784
357,0.25,0.001,0.012944162202378115,0.010320296718014611,14.704142464531792,0.010495462144562307,0.03041970729827881
358,0.25,0.001,0.012990012661450438,0.010369456787076261,14.685596042209202,0.010482224155752463,0.0408464049299558
359,0.25,0.001,0.012908113602962758,0.01026264609148105,14.825199974907768,0.010581870074880635,0.022482072313626606
360,0.25,0.001,0.012887052984701263,0.01028125226083729,14.602906968858507,0.010423202690120276,0.018016815806428593
361,0.25,0.001,0.0129818060538835,0.010406169212526746,14.43386967976888,0.010302547951298273,0.02819049855073293
362,0.25,0.001,0.012874356574482389,0.010217953887250688,14.88648181491428,0.010625611573814617,0.04155062884092331
363,0.25,0.001,0.01298542662213246,0.010320665832195017,14.93331887986925,0.010659042740806032,0.035349647514522076
364,0.25,0.001,0.012839386964009868,0.010169760427541204,14.96058792538113,0.010678506727609657,0.026697900146245956
365,0.25,0.001,0.012669433322217729,0.01001066341996193,14.899745093451607,0.010635078582049684,0.017299453727900982
366,0.25,0.001,0.012815709329313703,0.01020264687637488,14.643603324890137,0.010452250767230647,0.009446028309563795
367,0.25,0.001,0.012710474638475312,0.010051856179618172,14.898897382948133,0.01063447350674385,0.009601898801823458
368,0.25,0.001,0.01294242363009188,0.010292726672357984,14.848901536729601,0.010598787677894076,0.016917563353975613
369,0.25,0.001,0.012684274982247088,0.010003445463048087,15.023370424906412,0.010723319361103791,0.024258376099169254
370,0.25,0.001,0.01281722252153688,0.010117793352239661,15.12760098775228,0.010797716622235746,0.019740784851213295
371,0.25,0.001,0.013006788885427846,0.010339625076287322,14.946786244710287,0.010668655420920976,0.018169813478986423
372,0.25,0.001,0.012867453611559339,0.01017450758566459,15.091269599066841,0.010771784153509522,0.018048671539872885
373,0.25,0.001,0.012894063463641537,0.010160194813377328,15.320601357354057,0.01093547562980304,0.021025584389766056
374,0.25,0.001,0.012760677064458529,0.00999420757095019,15.503293991088867,0.011065877224189056,0.017163616760323446
375,0.25,0.001,0.012817609020405345,0.01010739855054352,15.188019752502441,0.010840842078873977,0.025743473321199417
376,0.25,0.001,0.012944398861792352,0.010277801296777196,14.943611780802408,0.010666389565169456,0.024166119905809563
377,0.25,0.001,0.012718181022339396,0.009991539642214775,15.280100292629665,0.01090656694691625,0.021854770680268604
378,0.25,0.001,0.012842994079821639,0.010114657485650646,15.289598888821072,0.01091334681571811,0.016259153683980305
379,0.25,0.001,0.012805380548040072,0.010140490097304186,14.934046533372667,0.010659562122321676,0.015927187787989776
380,0.25,0.001,0.012761416948503919,0.01010393744541539,14.892515712314182,0.010629918424207125,0.016630059108138084
381,0.25,0.001,0.012799685820937157,0.010179180237982009,14.685312906901041,0.010482022060600315,0.018399092679222424
382,0.25,0.001,0.01270844042301178,0.010108007945948176,14.572824266221788,0.010401730382742176,0.018880876402060192
383,0.25,0.001,0.01264858204457495,0.009948570384747453,15.130865944756401,0.01080004706977616,0.019166333600878716
384,0.25,0.001,0.012872815649542544,0.010160796551240815,15.198154873318142,0.010848076283596105,0.03231251332908869
385,0.25,0.001,0.012761480899320709,0.010117415235274367,14.81734487745497,0.010576263295827958,0.03228694138427576
386,0.25,0.001,0.012671581779917082,0.01001773588359356,14.872151056925455,0.010615382624500682,0.03979338829716047
387,0.25,0.001,0.012544136080476973,0.009901118982169364,14.811467064751518,0.010572067854926138,0.015723612469931442
388,0.25,0.001,0.012717628644572364,0.010148527411123117,14.397243287828234,0.01027640491636562,0.02541377643744151
389,0.25,0.001,0.012802653945982456,0.010215608506566949,14.497802522447374,0.010348181671982423,0.020839206874370575
390,0.25,0.001,0.012714858477314314,0.009974536589450307,15.356765535142687,0.010961288747425187,0.0203923461958766
391,0.25,0.001,0.012708510272204876,0.010025435127317905,15.035952674018013,0.010732300266965034,0.01754012455542882
392,0.25,0.001,0.012701089804371199,0.01006768447243505,14.757603115505642,0.010533621067455846,0.02411092569430669
393,0.25,0.001,0.012746807601716783,0.01010416116979387,14.809391233656141,0.010570586176770978,0.014306725158045689
394,0.25,0.001,0.012747075408697128,0.010062853288319375,15.042380226982964,0.010736888099202686,0.02399103871236245
395,0.25,0.001,0.012632824066612456,0.009940948958198229,15.085268444485134,0.010767500674150703,0.01653905895849069
396,0.25,0.001,0.012696472617487112,0.010006916398803392,15.072272406684029,0.010758224415905801,0.016739106737077236
397,0.25,0.001,0.012745979966388809,0.010012690391805436,15.317355473836264,0.010933158796457005,0.012988127147157988
398,0.25,0.001,0.012566375649637647,0.009878768482142024,15.061349127027723,0.010750427642418075,0.017644069157540798
399,0.25,0.001,0.012605480021900602,0.010000486547748247,14.598383797539604,0.010419974159557177,0.02176661727329095
400,0.25,0.001,0.012456840835511684,0.009867064551346831,14.513106875949436,0.010359105550285108,0.014253584668040276
401,0.25,0.001,0.012640212662518024,0.010116441175341606,14.143214331732857,0.01009508517611196,0.02274454819659392
402,0.25,0.001,0.012725510944922766,0.010206100013520982,14.118781089782715,0.01007764531747517,0.02881419596572717
403,0.25,0.001,0.01275225749446286,0.010079681252439817,14.977116266886393,0.010690304259019552,0.01848077028989792
404,0.25,0.001,0.012586552028854689,0.009785975950459639,15.694429185655382,0.01120230491481469,0.01692186575382948
405,0.25,0.001,0.012752404436469078,0.010027438712616762,15.270707660251194,0.010899862712527618,0.022505943042536575
406,0.25,0.001,0.012592348890999952,0.009900550047556559,15.084840562608507,0.010767195262390084,0.023572957143187523
407,0.25,0.001,0.01249730990578731,0.009889582378996743,14.613705423143175,0.010430910366269218,0.02153839326153199
408,0.25,0.001,0.0127449126707183,0.0101834698062804,14.354325612386068,0.010245771315050728,0.019527270769079525
409,0.25,0.001,0.012702610343694687,0.010075405343539186,14.722855779859755,0.010508819257572986,0.018512741041680176
410,0.25,0.001,0.012502716233332952,0.00984771539353662,14.878625022040474,0.010620003584611331,0.022115737199783325
411,0.25,0.001,0.012662725419633918,0.009949279638628164,15.206149843004015,0.010853782900074244,0.016396045684814453
412,0.25,0.001,0.012674367986619473,0.009994637014137374,15.01721085442437,0.010718922808297195,0.0355920090029637
413,0.25,0.001,0.012463051825761795,0.009825601863364378,14.780271636115181,0.010549801310574718,0.02430752447495858
414,0.25,0.001,0.012680113212101989,0.010014404956665304,14.938628938463,0.01066283293252177,0.017191548210879166
415,0.25,0.001,0.012466424662205908,0.009893100708723068,14.420906702677408,0.010293295290990299,0.01948285475373268
416,0.25,0.001,0.012576765070358912,0.010025556820134321,14.296971533033583,0.010204833356911908,0.020175157735745113
417,0.25,0.001,0.012716909353103902,0.010083065471715398,14.76006105211046,0.01053537548330511,0.023635133480032284
418,0.25,0.001,0.012596180041631063,0.009919171325034566,15.0019564098782,0.01070803455380314,0.033145783469080925
419,0.25,0.001,0.012581607430345483,0.009853646573093202,15.28749254014757,0.01091184335485194,0.018672526503602665
420,0.25,0.001,0.0125202809770902,0.009906130635903941,14.64969868130154,0.010456601485582827,0.02620128635317087
421,0.25,0.001,0.012491139479809336,0.009956264040536351,14.20544073316786,0.010139500880205467,0.015521100101371607
422,0.25,0.001,0.012553205713629723,0.009999664189914862,14.310047891404894,0.010214166946042037,0.03469735011458397
423,0.25,0.001,0.012553970432943769,0.00997271254244778,14.46536996629503,0.010325032095856553,0.02170602325350046
424,0.25,0.001,0.012410016419986883,0.009764272305700514,14.826749059889051,0.01058297577436763,0.017589592064420383
425,0.25,0.001,0.012488243066602282,0.009818843772841824,14.959311803181967,0.01067759586237114,0.01608090925340851
426,0.25,0.001,0.012644776557054784,0.009969704577492343,14.991104867723253,0.01070028898481317,0.019743860388795536
427,0.25,0.001,0.012540119907094372,0.009834732860326767,15.160987854003906,0.010821547361887156,0.01564371430625518
428,0.25,0.001,0.01260278829269939,0.00988133168882794,15.251043107774523,0.01088582662938938,0.017137886956334114
429,0.25,0.001,0.012592686340212822,0.009899107842809625,15.094813770718044,0.010774313897728796,0.026169526701172192
430,0.25,0.001,0.012585785860816637,0.00997748277667496,14.61693032582601,0.010433212224001434,0.03266158886253834
431,0.25,0.001,0.012652232415146299,0.010038753661016623,14.64593505859375,0.010453915102493754,0.014329498323301474
432,0.25,0.001,0.012474627751443122,0.009730174102716975,15.37991672092014,0.010977813505296316,0.019786559666196506
433,0.25,0.001,0.01246436188618342,0.009719733976655535,15.380895402696398,0.010978512064736901,0.01179898576810956
434,0.25,0.001,0.01242446361316575,0.009815037250518799,14.623224470350477,0.010437704832512832,0.0180026035134991
435,0.25,0.001,0.012493755978842577,0.009897127230134275,14.551506890190971,0.010386514554026388,0.013639378050963083
436,0.25,0.001,0.012743850445581807,0.010079581393963762,14.930563396877712,0.01065707594352442,0.017066217338045437
437,0.25,0.001,0.01249752938747406,0.009753725594944425,15.376276440090603,0.010975215160664242,0.02421956571439902
438,0.25,0.001,0.012648211792111397,0.009916183435254626,15.310288853115505,0.010928114813073165,0.01678941212594509
439,0.25,0.001,0.012637950479984283,0.009886217200093798,15.420713848537869,0.011006933510733667,0.026124688796699047
440,0.25,0.001,0.012555717594093747,0.009852778166532516,15.147273593478733,0.010811758453589388,0.0308652197321256
441,0.25,0.001,0.012357526769240698,0.009675260012348494,15.031422509087456,0.01072906674453066,0.01927368777493636
442,0.25,0.001,0.012565388758149412,0.010004132779108154,14.353278795878092,0.010245024122682436,0.029916292677323025
443,0.25,0.001,0.012626875916288959,0.010063100709683366,14.367395824856228,0.010255100517384888,0.022263479108611744
444,0.25,0.001,0.012560836039483547,0.00988532913227876,14.993542141384548,0.010702028651951854,0.013613066946466764
445,0.25,0.001,0.012467317179673247,0.009806887867550055,14.909045961168077,0.010641717317036458,0.010231374142070612
446,0.25,0.001,0.012437513719002405,0.009758395039372973,15.0137816535102,0.010716475127416275,0.012160348861167828
447,0.25,0.001,0.012463901709351275,0.009729357643259896,15.324385854932997,0.010938176912871519,0.01933690036336581
448,0.25,0.001,0.012434158888128068,0.009778102652894126,14.884541829427084,0.01062422685897722,0.010367009788751602
449,0.25,0.001,0.012614669278264046,0.010024614528649382,14.514667087131077,0.010360219191385495,0.015834488905966282
450,0.25,0.001,0.01243873012976514,0.009739640893207656,15.12569808959961,0.010796358379442976,0.020388344302773476
451,0.25,0.001,0.012515023454195924,0.009813984856009483,15.136620415581596,0.010804154472220983,0.015587260325749716
452,0.25,0.001,0.012324195148216354,0.009674481323195828,14.848997433980307,0.010598856127038049,0.016412258769075077
453,0.25,0.001,0.012316211230225034,0.00971129433148437,14.597953372531467,0.01041966693257064,0.012969873224695524
454,0.25,0.001,0.012410843848354287,0.009770336767865552,14.797401428222656,0.010562028142914102,0.017173629564543564
455,0.25,0.001,0.012296361434790824,0.009598082345392969,15.121155209011501,0.010793115780879017,0.026315394788980484
456,0.25,0.001,0.012378750782873895,0.009763372751573721,14.656577640109592,0.010461511520420836,0.020753216929733753
457,0.25,0.001,0.01253665362795194,0.00995621643960476,14.460769441392687,0.010321748352171797,0.020360726863145828
458,0.25,0.001,0.01236932466013564,0.00975008774548769,14.678204642401802,0.010476948352892078,0.02309834398329258
459,0.25,0.001,0.012465227705736956,0.009765616204175685,15.128623326619467,0.01079844634305458,0.016942417869965237
460,0.25,0.001,0.012287379863361517,0.009511119996507963,15.558158874511719,0.01110503845432671,0.012560538637141386
461,0.25,0.001,0.012363864729801813,0.009614634120629894,15.406690809461805,0.01099692420375575,0.01732955655703942
462,0.25,0.001,0.012199632513026396,0.009448011509246297,15.420083787706163,0.011006483788512607,0.02085015829652548
463,0.25,0.001,0.012345740882058939,0.009683595659832159,14.918663448757595,0.01064858204764996,0.02031837295119961
464,0.25,0.001,0.01225452104376422,0.009743227933843931,14.073286798265245,0.010045172589768198,0.021660083904862404
465,0.25,0.001,0.01235921329094304,0.00995652698394325,13.464652591281467,0.009610744176503545,0.02037227215866248
466,0.25,0.001,0.012314337719645765,0.009741828569935428,14.416342205471462,0.01029003726300604,0.01271840495367845
467,0.25,0.001,0.01241730060428381,0.009578838427033689,15.906741672092014,0.011353848445461823,0.018555274543662865
468,0.25,0.001,0.012556835284663571,0.009765463260312876,15.642848544650608,0.011165487897680662,0.021622513110438984
469,0.25,0.001,0.012480238866474893,0.009765261680715613,15.214731216430664,0.010859908077395192,0.02699947077780962
470,0.25,0.001,0.012373053986165259,0.009792471925417582,14.461581548055014,0.010322328014314784,0.020733509212732315
471,0.25,0.001,0.01260910431543986,0.010018905107345846,14.515476438734266,0.010360796887033738,0.0171511002505819
472,0.25,0.001,0.01235782096369399,0.00968098785314295,15.000972323947483,0.010707332137007482,0.013589656911790371
473,0.25,0.001,0.012319682372940911,0.009659909022351107,14.90536986456977,0.010639093407972713,0.015689388538400333
474,0.25,0.001,0.01235920749604702,0.009719738633268409,14.791585074530708,0.010557876569971954,0.01486048505951961
475,0.25,0.001,0.012246941009329425,0.009611806728773646,14.767292552524143,0.010540537153835934,0.009677271824330091
476,0.25,0.001,0.01225899470349153,0.009664365711311499,14.540300369262695,0.010378515609752103,0.01646403968334198
477,0.25,0.001,0.012253463682201173,0.009709113380975194,14.258539305792915,0.010177401360309004,0.02493819346030553
478,0.25,0.001,0.012262990180816915,0.009680467657744884,14.472458309597439,0.010330091584295103,0.013765422316888968
479,0.25,0.001,0.012284319951302476,0.00957235735323694,15.197838359408909,0.010847850363603789,0.01875442701081435
480,0.25,0.001,0.012393533769581053,0.009658890983296765,15.324938456217447,0.010938571346336507,0.015563709661364555
481,0.25,0.001,0.012258243436614672,0.009569164262049727,15.069598727756077,0.010756316008391205,0.020008642226457596
482,0.25,0.001,0.012236222210857604,0.009527963482671313,15.177081637912327,0.010833034716568398,0.020419493938485783
483,0.25,0.001,0.012354721625645956,0.009693534527387884,14.913291189405653,0.010644747458533657,0.02371771850933631
484,0.25,0.001,0.012235804771383604,0.009616453407539262,14.67884604136149,0.010477406167995354,0.021312040587266285
485,0.25,0.001,0.012296651800473532,0.009680425748229027,14.661330540974935,0.010464904026391816,0.022439278351763885
486,0.25,0.001,0.012300734511680074,0.009607402814759148,15.093429777357313,0.01077332603665761,0.022547734280427296
487,0.25,0.001,0.01220254920836952,0.009522671500841776,15.018036524454752,0.010719512151645077,0.01343881959716479
488,0.25,0.001,0.012262796155280538,0.00970681911955277,14.323694758945042,0.010223907750852992,0.013539643647770086
489,0.25,0.001,0.012232777766055532,0.009696690986553827,14.212231424119738,0.010144347911577258,0.02599031664431095
490,0.25,0.001,0.012387764847113026,0.009818429748217264,14.398554272121853,0.01027734066532609,0.033632964516679444
491,0.25,0.001,0.012124458845290873,0.00949585841347774,14.730676862928602,0.010514401757979016,0.016013574320822954
492,0.25,0.001,0.01223742485874229,0.009582260623574257,14.879541185167101,0.01062065751974811,0.019107569009065628
493,0.25,0.001,0.012236570215059651,0.009599657729268074,14.777256859673393,0.010547649435883936,0.027449353287617367
494,0.25,0.001,0.012284272143410312,0.00966294151213434,14.689935896131727,0.010485321838780676,0.013029341585934162
495,0.25,0.001,0.012135089168118106,0.009434312168094847,15.135153664482964,0.010803107540673065,0.023879319118956726
496,0.25,0.001,0.012208972436686357,0.00954054192536407,14.95388306511773,0.010673720960112583,0.023810307495296
497,0.25,0.001,0.012131665833294392,0.009562344600756964,14.39847797817654,0.010277286208548566,0.021759478840976954
498,0.25,0.001,0.012127244948512979,0.00955410808738735,14.419857766893175,0.010292546585933744,0.01919712033122778
499,0.25,0.001,0.012205615536206298,0.009614944871928956,14.518117268880209,0.010362681847880235,0.026484348500768345
500,0.25,0.001,0.012230612234108977,0.00965143833309412,14.453691058688694,0.01031669597336809,0.01545050647109747
