epoch,beta,learning_rate,train_loss,train_reconstruction_loss,train_kl_unnormalized,train_kl_normalized,mean_unclipped_gradient_norm
1,0.0,0.001,0.09345409961847159,0.09345409961847159,9.492723180697514,0.006775676788506433,0.10254627466201782
2,0.02,0.001,0.08853575243399693,0.08787329437640998,46.405218857985275,0.03312292566594238,0.07289773225784302
3,0.04,0.001,0.08873416769963044,0.08658418517846328,75.30322030874399,0.05374962191916059,0.06957038305699825
4,0.06,0.001,0.08888153789135125,0.08585734092272244,70.61503248948317,0.050403306559231385,0.07185703329741955
5,0.08,0.001,0.08623421421417823,0.08306197306284538,55.55387086134691,0.03965301274899851,0.0784666109830141
6,0.1,0.001,0.07766062078567651,0.0727674072751632,68.5539304293119,0.048932141634055605,0.12387306429445744
7,0.12,0.001,0.06715157628059387,0.05625064671039581,127.2683363694411,0.09084106807240622,0.15612394735217094
8,0.14,0.001,0.0574473595389953,0.04810662596271588,93.47404949481671,0.06671952140957653,0.10006283782422543
9,0.16,0.001,0.048371814764462985,0.04408413544297218,37.54399211590107,0.026797995800072142,0.11482570320367813
10,0.18,0.001,0.040914857330230564,0.0372517891228199,28.51088391817533,0.020350381097912443,0.07703159283846617
11,0.2,0.001,0.03761335433675693,0.033327683519858584,30.02112124516414,0.021428352066498315,0.058278302662074566
12,0.22,0.001,0.03733969795016142,0.03383982582734181,22.287821256197414,0.015908509105065964,0.07374361529946327
13,0.24,0.001,0.036071665585041046,0.032712903733436875,19.606775283813477,0.01399484317188685,0.082428521476686
14,0.25,0.001,0.034748499210064225,0.03225098378383196,13.996080471919132,0.009990064576673185,0.028667358681559563
15,0.25,0.001,0.034297046466515616,0.032501164537209734,10.06412909581111,0.007183532545189943,0.05167101672850549
16,0.25,0.001,0.03390523246847666,0.032025954471184656,10.531477047846867,0.0075171142382918395,0.06871242169290781
17,0.25,0.001,0.03309008536430506,0.031248638263115518,10.319469745342548,0.00736578854057284,0.04373921873047948
18,0.25,0.001,0.0328293305176955,0.030481528777342577,13.15708380479079,0.009391208996995568,0.07033487735316157
19,0.25,0.001,0.03207509878736276,0.030021037046725933,11.510963073143593,0.00821624773243654,0.11057591065764427
20,0.25,0.001,0.031202817479005225,0.02904731837602762,12.079419943002554,0.00862199853176485,0.10962437279522419
21,0.25,0.001,0.02998509773841271,0.02758430789869565,13.45402717590332,0.009603160011351407,0.08169306721538305
22,0.25,0.001,0.028901549629293956,0.026582512288139418,12.995883354773888,0.009276148004835038,0.07857654197141528
23,0.25,0.001,0.027770207908291083,0.025059332211430255,15.191750232989971,0.010843504805845804,0.0738171748816967
24,0.25,0.001,0.026870445133401796,0.02404893834430438,15.811722682072567,0.01128602618277842,0.09727408364415169
25,0.25,0.001,0.025997639132233765,0.022988624297655545,16.862518897423378,0.012036059170180856,0.07505030557513237
26,0.0,0.001,0.02234411067687548,0.02234411067687548,19.36395997267503,0.01382152746086726,0.061831716913729906
27,0.02,0.001,0.021409410840043656,0.021072062735374156,23.63125859774076,0.01686742226819469,0.040331965778023005
28,0.04,0.001,0.02061482662191758,0.01970995604418791,31.693114060621994,0.02262178020030121,0.032690908294171095
29,0.06,0.001,0.020524579745072585,0.018925333252319924,37.34239783653846,0.026654102667051007,0.02125067193992436
30,0.08,0.001,0.02030257536814763,0.01795127815925158,41.17709027803861,0.029391213617443693,0.023019251879304647
31,0.1,0.001,0.01998999886787855,0.017168872631513156,39.52397977388822,0.028211263221904512,0.050099357729777694
32,0.12,0.001,0.019934638045155086,0.0169046287639783,35.37536415686974,0.025250081482419518,0.06075904704630375
33,0.14,0.001,0.019544597428578597,0.016308465757622168,32.38443462665264,0.023115228141793464,0.018310004845261574
34,0.16,0.001,0.019635669170663908,0.016334390697570946,28.906820150522087,0.020632990828352668,0.03410781407728791
35,0.18,0.001,0.019609565345140603,0.016390832427602548,25.052469693697414,0.017881848460883237,0.03767166053876281
36,0.2,0.001,0.019975408625144225,0.016618001059843943,23.518638904278095,0.01678703704802148,0.03719277284108102
37,0.22,0.001,0.01995405411491027,0.016553890246611375,21.652863135704628,0.015455291317419434,0.06565659213811159
38,0.24,0.001,0.019892034622339103,0.016113956817067586,22.054529630220852,0.015741991170750074,0.046090868301689625
39,0.25,0.001,0.02019289078620764,0.016421351151970718,21.135707561786358,0.015086158145457785,0.07540870737284422
40,0.25,0.001,0.020095021535570804,0.01661561938145986,19.498568608210636,0.013917607857395172,0.05813885829411447
41,0.25,0.001,0.019779537589504168,0.01606297865509987,20.827599452092098,0.0148662380100586,0.056609674356877804
42,0.25,0.001,0.019821960335740678,0.016316154828438394,19.64653543325571,0.01402322300732028,0.059732578694820404
43,0.25,0.001,0.019441032925477393,0.016018300245587643,19.180994767409103,0.013690931311498289,0.04913371615111828
44,0.25,0.001,0.019534172490239143,0.016267372581821222,18.307147612938515,0.01306720029474555,0.056676394771784544
45,0.25,0.001,0.019549377978994295,0.01591167262253853,20.385699345515324,0.01455082037510016,0.07206554803997278
46,0.25,0.001,0.01914422271343378,0.015541177242994308,20.191468752347507,0.01441218326363134,0.06854964233934879
47,0.25,0.001,0.019046045983066924,0.015584705827327875,19.39734935760498,0.013845359998290493,0.03847345127724111
48,0.25,0.001,0.018976278889637727,0.015786392614245415,17.876122401310848,0.01275954489743815,0.03742549894377589
49,0.25,0.001,0.019396981081137292,0.016001527555860005,19.028123415433445,0.013581815428574907,0.049322152975946665
50,0.25,0.001,0.019086264073848724,0.015573288242404278,19.68671696002667,0.01405190361172496,0.06407313141971827
51,0.0,0.001,0.015269151888787746,0.015269151888787746,21.56089107806866,0.015389643881562214,0.04824648890644312
52,0.02,0.001,0.01478933084469575,0.014426131517841266,25.44211666400616,0.018159969067813104,0.021060087019577622
53,0.04,0.001,0.014786681088690575,0.013871414228700675,32.05722280649039,0.022881672238751167,0.017399179050698876
54,0.06,0.001,0.015257705504504534,0.013606486698755851,38.5559569138747,0.027520311858582943,0.037712533259764314
55,0.08,0.001,0.015600070214042297,0.013134743301914288,43.174039107102615,0.030816587513991873,0.024649512954056263
56,0.1,0.001,0.016267868188711312,0.013194559786755305,43.05705173198994,0.030733084748029934,0.029208735562860966
57,0.12,0.001,0.016445574852136467,0.013125422195746349,38.762788625863884,0.027667943344656592,0.018220754573121667
58,0.14,0.001,0.01680902434656253,0.01358039232973869,32.30938016451322,0.02306165607745412,0.02658614469692111
59,0.16,0.001,0.01683534624484869,0.013647164719609113,27.916514763465294,0.01992613473480749,0.020979483844712377
60,0.18,0.001,0.01734155000975499,0.014175166519215474,24.645017477182243,0.017591018898773906,0.03441844880580902
61,0.2,0.001,0.017228040987482436,0.01390087532882507,23.30680040212778,0.016635831835922755,0.03312758123502135
62,0.22,0.001,0.017667172190088492,0.014289059676229954,21.5124334188608,0.015355055973490937,0.021408187225461006
63,0.24,0.001,0.017985233607200477,0.014337791559787897,21.291942302997295,0.015197674734473443,0.02329192846082151
64,0.25,0.001,0.018071900909909837,0.014292031526565552,21.182386545034554,0.015119476477540724,0.04094935650937259
65,0.25,0.001,0.01826983833542237,0.014759408166775336,19.672452926635742,0.01404172228881923,0.07241743244230747
66,0.25,0.001,0.017930281420166675,0.014431428952285877,19.607571235069862,0.013995411302690837,0.03263343358412385
67,0.25,0.001,0.017891522496938705,0.014430074809262386,19.397954500638523,0.013845791934788382,0.021310379030182958
68,0.25,0.001,0.01784220853677163,0.014326477709871072,19.702154819781963,0.01406292278357028,0.040350118186324835
69,0.25,0.001,0.01760279186643087,0.014188110255278073,19.13587658221905,0.013658727039414027,0.02065150160342455
70,0.25,0.001,0.017526607387340985,0.01414850984628384,18.930858612060547,0.013512390158501461,0.043323010206222534
71,0.25,0.001,0.017771647240106877,0.01428211723955778,19.555325141319862,0.013958119301441729,0.05465942062437534
72,0.25,0.001,0.01742832076091033,0.013982724899855943,19.309121645413914,0.013782385185877169,0.023026415379717946
73,0.25,0.001,0.017467913432763174,0.014108471429118743,18.826315659743088,0.013437769921301275,0.018812436144798994
74,0.25,0.001,0.01759639625939039,0.014194698861012092,19.063110938439003,0.013606788678400431,0.028871206333860755
75,0.25,0.001,0.01749585769497431,0.014060236370334258,19.253223419189453,0.013742486380577769,0.024146772921085358
76,0.0,0.001,0.01381574642772858,0.01381574642772858,19.01280975341797,0.013570884906079921,0.048898288048803806
77,0.02,0.001,0.013467810689829864,0.013105582445859909,25.374074642474834,0.01811140231440031,0.032021147664636374
78,0.04,0.001,0.01388516012006081,0.012886703086013977,34.97096017690805,0.02496142767802145,0.05391761381179094
79,0.06,0.001,0.014107233773057278,0.01229084304605539,42.41272412813627,0.030273179249205046,0.04126123897731304
80,0.08,0.001,0.014578046993567394,0.011924163510019962,46.47614112267127,0.03317354826743132,0.027268760139122605
81,0.1,0.001,0.015126051811071543,0.011959535141403858,44.36290124746469,0.03166516862774068,0.04516255436465144
82,0.12,0.001,0.015431034163786815,0.01208644245679562,39.048109201284554,0.027871598287854786,0.026666156016290188
83,0.14,0.001,0.015681827584138282,0.012476453342689918,32.07664064260629,0.022895532221703277,0.027921384433284402
84,0.16,0.001,0.015731929873044673,0.012746534668482266,26.140869287344124,0.018658721832508298,0.03338876832276583
85,0.18,0.001,0.016252612336896934,0.013314681557508616,22.866892154400166,0.016321835941756006,0.04328713519498706
86,0.2,0.001,0.016221642207640868,0.013136106399962535,21.61418181199294,0.015427681521765125,0.02007732423953712
87,0.22,0.001,0.016706664545031693,0.01345803660268967,20.687853006216194,0.014766490368462665,0.052128170151263475
88,0.24,0.001,0.016909194250519458,0.013361337594687939,20.71061633183406,0.01478273828110925,0.05335822748020291
89,0.25,0.001,0.017150073670423947,0.013597551375054397,19.908336052527794,0.014210089973253244,0.034332478418946266
90,0.25,0.001,0.017094328856238954,0.013433951741227737,20.51275341327374,0.01464150850340738,0.0349159617908299
91,0.25,0.001,0.016895322845532343,0.013392400068159286,19.630382244403545,0.014011693250823373,0.040564184077084064
92,0.25,0.001,0.016995494898695212,0.013573077435676869,19.179228269136868,0.013689670427649441,0.04934577411040664
93,0.25,0.001,0.016941424602499373,0.013530012506705064,19.11755136343149,0.013645646940350815,0.0312985647469759
94,0.25,0.001,0.016822301137905855,0.0133328649860162,19.55479929997371,0.013957743968575095,0.028001464437693357
95,0.25,0.001,0.01689027679654268,0.013429203930382546,19.395851428692158,0.01384429081277099,0.02608536696061492
96,0.25,0.001,0.016657869116618082,0.013215645288045589,19.290220994215744,0.01376889435704193,0.019014224410057068
97,0.25,0.001,0.016468295970788367,0.013182804346657716,18.41189457820012,0.013141966151463326,0.02963524404913187
98,0.25,0.001,0.01685748349588651,0.013510890376682464,18.754308993999775,0.013386373300499483,0.040808428544551134
99,0.25,0.001,0.016437778535943765,0.013042927218171267,19.02474594116211,0.013579404668923704,0.01982387970201671
100,0.25,0.001,0.016803377952713233,0.013516870184013477,18.417590067936825,0.01314603145463014,0.02594767976552248
101,0.25,0.001,0.016574089630292013,0.013335329623749623,18.150009888869064,0.01295503917835051,0.024107314413413405
102,0.25,0.001,0.016393294987770226,0.013105019998665039,18.42749052781325,0.013153098164035154,0.019030265510082245
103,0.25,0.001,0.01644496934918257,0.013186186265486937,18.26222214331994,0.013035133578386822,0.019686745014041662
104,0.25,0.001,0.016563171090988014,0.013223872233468752,18.71342893747183,0.01335719410240673,0.02053412119857967
105,0.25,0.001,0.01626270464979685,0.012992364999193411,18.326981397775505,0.013081357171859747,0.018989007221534848
106,0.25,0.001,0.016673730686306953,0.013413237479443733,18.271802755502556,0.013041971988224522,0.02847108943387866
107,0.25,0.001,0.016333277265612896,0.013092751614749432,18.159905360295223,0.012962102327120074,0.041189728770405054
108,0.25,0.001,0.016438633060226075,0.013125817076517986,18.56502312880296,0.013251265616561713,0.023216794710606337
109,0.25,0.001,0.016390232369303703,0.013015660600593457,18.911101708045372,0.013498288157063078,0.024695642292499542
110,0.25,0.001,0.016446201847149775,0.01319339255300852,18.22874355316162,0.013011237368423712,0.049364745151251554
111,0.25,0.001,0.01603936905471178,0.012688677543057846,18.777277432955227,0.013402767618097949,0.022229545284062624
112,0.25,0.001,0.016295041029269878,0.012875261788184825,19.164439568152794,0.013679114609673658,0.020557851996272802
113,0.25,0.001,0.01606332754286436,0.01279439920416245,18.319077418400692,0.013075715502070444,0.014116831589490175
114,0.25,0.001,0.016112052334042695,0.01297936330621059,17.555588648869442,0.012530755638022443,0.0253393508028239
115,0.25,0.001,0.016011950058432724,0.012948045148872413,17.17012434739333,0.01225562051919581,0.027611879631876945
116,0.25,0.001,0.015819696709513664,0.012670812268669788,17.64634865980882,0.01259553794418902,0.03258795943111181
117,0.25,0.001,0.015895774587988853,0.012690087278875021,17.964671208308292,0.012822748899577654,0.011559788836166263
118,0.25,0.001,0.01583644511321416,0.012724690927335849,17.438269688532902,0.01244701619452741,0.020195581018924713
119,0.25,0.001,0.015752734902959604,0.012685833498835564,17.186916791475735,0.01226760656065363,0.02131401444785297
120,0.25,0.001,0.016062876782738246,0.01282140426337719,18.16521307138296,0.012965890843242657,0.04150275373831391
121,0.25,0.001,0.016081380013089914,0.012772848901267234,18.54101122342623,0.013234126497806017,0.0441733724437654
122,0.25,0.001,0.015917490164820965,0.012804061747514285,17.447652376615086,0.012453713330917262,0.021755077876150608
123,0.25,0.001,0.015594558647045722,0.01248273396721253,17.438667737520657,0.012447300312291689,0.01646313350647688
124,0.25,0.001,0.015689644532708023,0.01262142344449575,17.194312462439903,0.012272885412162671,0.03443181701004505
125,0.25,0.001,0.015763987858708087,0.012613617958357701,17.65467306283804,0.012601479702239857,0.048017713241279125
126,0.25,0.001,0.015786808270674486,0.012518477053023301,18.31572987483098,0.013073326106231962,0.055034979712218046
127,0.25,0.001,0.015982765202912,0.012933310121297836,17.089145807119515,0.01219781999080622,0.04309425852261484
128,0.25,0.001,0.015571440784977032,0.012592885571603592,16.691822052001953,0.011914219880087047,0.040975173469632864
129,0.25,0.001,0.01571609015361621,0.012759439933758516,16.569069422208347,0.011826602014424231,0.03145753126591444
130,0.25,0.001,0.015500224123780545,0.012422612295127831,17.246936064500076,0.012310446869735958,0.037388374330475926
131,0.25,0.001,0.015566420311538072,0.012501301673742441,17.176926539494442,0.01226047575981045,0.025454716407693923
132,0.25,0.001,0.015503688930318905,0.012431805308621664,17.21483641404372,0.012287534913664326,0.026741112116724253
133,0.25,0.001,0.015515077142761303,0.01242557905900937,17.31354698768029,0.01235799213967187,0.02073437487706542
134,0.25,0.001,0.015487118194309564,0.012425573972555308,17.156892776489258,0.012246176143104396,0.0150845383759588
135,0.25,0.001,0.015315920114517212,0.012257829809991213,17.137539496788612,0.012232362238964034,0.0221576988697052
136,0.25,0.001,0.015419573164903201,0.012387201333275208,16.993410257192757,0.012129486264948435,0.013890524161979556
137,0.25,0.001,0.015175410618002597,0.012164853226680022,16.87116505549504,0.012042230589218444,0.019766812911257148
138,0.25,0.001,0.015296281387026493,0.012321596606992759,16.6701319034283,0.011898737975323554,0.01833006157539785
139,0.25,0.001,0.015210682168029822,0.012149859363069901,17.152850737938515,0.01224329103350358,0.027417940087616444
140,0.25,0.001,0.015111113683535503,0.012016886487030067,17.340049010056717,0.012376908643866322,0.028414839645847678
141,0.25,0.001,0.015348817866582137,0.012300476073645629,17.082907456618088,0.012193367206722403,0.035835236543789506
142,0.25,0.001,0.01501241483940528,0.011974127533344122,17.02656210385836,0.012153149253289336,0.029689982067793608
143,0.25,0.001,0.01505515667108389,0.012061538891150402,16.776234773489143,0.011974471644174978,0.020274429814890027
144,0.25,0.001,0.015046302515726823,0.012075194945702186,16.65008720984826,0.011884430556636873,0.01972956140525639
145,0.25,0.001,0.015163724095775532,0.012081685117804088,17.2717462686392,0.012328155794888792,0.027596775675192475
146,0.25,0.001,0.015107679968843093,0.011991802173165174,17.461379124568058,0.012463511152439728,0.043556221295148134
147,0.25,0.001,0.01494698219287854,0.012013832966868695,16.437367879427395,0.01173259663056916,0.02002285304479301
148,0.25,0.001,0.01488337035362537,0.012016810476779938,16.06419988778921,0.011466238321048688,0.011968837585300207
149,0.25,0.001,0.015082161730298629,0.012193914073017927,16.18574069096492,0.011552991214107723,0.0224087736569345
150,0.25,0.001,0.01480138416473682,0.011869911534281878,16.42797301365779,0.011725890802039823,0.018861452699638903
151,0.25,0.001,0.014754119400794689,0.011877817746538382,16.11879378098708,0.011505206124901557,0.010679429164156318
152,0.25,0.001,0.014962980093864294,0.012107687859007945,16.00105777153602,0.01142116900181015,0.015544871101155877
153,0.25,0.001,0.014802200289872976,0.011911341490653845,16.200373869675857,0.011563436024037015,0.011600585421547294
154,0.25,0.001,0.014743481977627827,0.011845482656588921,16.240388723520134,0.011591997661327718,0.011382413329556584
155,0.25,0.001,0.014701475747502767,0.011752717340221772,16.524843362661507,0.011795034520101003,0.017075024894438684
156,0.25,0.001,0.014826850535777899,0.011945591451456914,16.146577688363884,0.011525037607683001,0.02284525940194726
157,0.25,0.001,0.014651707445199672,0.011699594772205902,16.543640430157,0.011808451413388295,0.01717535825446248
158,0.25,0.001,0.014723197915233098,0.011763680583009353,16.585135826697716,0.0118380698263367,0.018666226416826248
159,0.25,0.001,0.014699269515963702,0.011820542769363293,16.132384667029747,0.011514906971470198,0.03419741056859493
160,0.25,0.001,0.014608892827079846,0.011705874250485348,16.268517640920784,0.011612075403940603,0.014782329322770238
161,0.25,0.001,0.014631071629432531,0.011730033116271863,16.257421200092022,0.011604155032185598,0.015752525301650167
162,0.25,0.001,0.014630450795476254,0.011643174390953321,16.740697420560398,0.011949105939015273,0.025311910081654787
163,0.25,0.001,0.014638913007309804,0.011617709882557392,16.93082442650428,0.012084814008925254,0.029811066226102412
164,0.25,0.001,0.014647331088781357,0.011682237928303389,16.616382158719578,0.011860372704296629,0.016464726766571403
165,0.25,0.001,0.0146483238070057,0.011717511555896355,16.424271950354942,0.011723249072344713,0.013881394173949957
166,0.25,0.001,0.014728062714521702,0.011825761542870449,16.26449702336238,0.011609205584127324,0.024741484550759196
167,0.25,0.001,0.014482600757708916,0.0116716051617494,15.752821702223558,0.011243984084385124,0.011046389467082918
168,0.25,0.001,0.014513192411798697,0.011759603181137489,15.431116104125977,0.011014358389811546,0.023309690412133932
169,0.25,0.001,0.014637705081930527,0.011804935092536302,15.874842717097355,0.011331079740968848,0.029248530976474285
170,0.25,0.001,0.014443429115299996,0.011503364174411846,16.476124029893143,0.011760259835755276,0.027564304880797863
171,0.25,0.001,0.014605487911747051,0.011636842543689104,16.63628842280461,0.011874581315349473,0.03016936546191573
172,0.25,0.001,0.014370739388351258,0.01147002146507685,16.255623744084286,0.011602872051452023,0.014586178469471633
173,0.25,0.001,0.014471921926507583,0.011670120132084075,15.701297980088453,0.011207207694567062,0.015632223803550005
174,0.25,0.001,0.014459804703409854,0.011669062149639312,15.639322134164663,0.01116297083095265,0.016484012245200574
175,0.25,0.001,0.014210104799041381,0.011388256286199275,15.813640007605919,0.011287394723487451,0.013329019071534276
176,0.25,0.001,0.01440185122191906,0.011573216018195335,15.851670925433819,0.01131454027511336,0.014956619124859571
177,0.25,0.001,0.01431640602934819,0.01147550387451282,15.920414191025953,0.011363607559618811,0.011073607602156699
178,0.25,0.001,0.01434498681471898,0.011468823999166489,16.118016169621395,0.01150465108466909,0.011970744235441089
179,0.25,0.001,0.014359979317165338,0.011507953875339948,15.982749645526592,0.011408101103159594,0.016953260637819767
180,0.25,0.001,0.014172019723516244,0.011322201946033882,15.970379315889799,0.01139927146030678,0.019820108427666128
181,0.25,0.001,0.014194437231008824,0.011446086689829826,15.401757680452787,0.01099340305528393,0.027067225193604827
182,0.25,0.001,0.014259484381629871,0.0116286795013226,14.743030621455265,0.010523219572773208,0.023296869709156454
183,0.25,0.001,0.014147675667817775,0.011427776028330509,15.242316539470966,0.010879597815468213,0.0173918588552624
184,0.25,0.001,0.014034773438022686,0.011115144866590317,16.36160190288837,0.01167851670441711,0.016069479752331972
185,0.25,0.001,0.01406658856341472,0.011209444501079045,16.01143587552584,0.011428576642059844,0.018349930876865983
186,0.25,0.001,0.01405859817392551,0.011324691514556225,15.320813252375675,0.01093562687535737,0.02563192485831678
187,0.25,0.001,0.014094571511332806,0.011452918872237206,14.803821490361141,0.010566610628380543,0.024547864450141788
188,0.25,0.001,0.01404009243616691,0.011415635163967427,14.707459449768066,0.010497829728599618,0.019027073052711785
189,0.25,0.001,0.014051807041351613,0.011342033887138734,15.185570056621845,0.01083909354505485,0.02473554667085409
190,0.25,0.001,0.014026724446851473,0.011190848425030708,15.89225064791166,0.011343505102006895,0.014118696562945843
191,0.25,0.001,0.013926356242826352,0.011195937744699992,15.30126483623798,0.010921673687536031,0.01894179219380021
192,0.25,0.001,0.01409851279682838,0.011483689411901511,14.65347069960374,0.01045929386124464,0.013599655358120799
193,0.25,0.001,0.013981315665520154,0.011226860663065543,15.435966051541842,0.01101782016526898,0.02715974417515099
194,0.25,0.001,0.013834263771199264,0.011056061905737106,15.569041032057543,0.01111280587584407,0.02701768046244979
195,0.25,0.001,0.0140177641207209,0.011374905848732362,14.81057805281419,0.010571433299653241,0.02469877526164055
196,0.25,0.001,0.013904750418777648,0.011262246837409643,14.808591035696177,0.010570015014772432,0.011844143155030906
197,0.25,0.001,0.013778006801238427,0.011012980499519752,15.49520727304312,0.011060105119945124,0.018045340664684772
198,0.25,0.001,0.01397209557203146,0.011233983203195609,15.34438235943134,0.010952449935354274,0.013618586119264364
199,0.25,0.001,0.013775468445741214,0.011054436676204205,15.24866192157452,0.010884126996127423,0.012097523780539632
200,0.25,0.001,0.013813621436174098,0.011109019987858258,15.15658789414626,0.010818406776692548,0.020828160224482417
201,0.25,0.001,0.013744440502845325,0.011055340632223166,15.069714766282301,0.010756398833891722,0.012657693354412913
202,0.25,0.001,0.01385476583471665,0.01120921396292173,14.825671709500826,0.010582206787652267,0.017800118774175644
203,0.25,0.001,0.013975353338397466,0.01129388279066636,15.02696051964393,0.010725881884114155,0.01905391295440495
204,0.25,0.001,0.013919225750634303,0.01113170084471886,15.621290133549618,0.011150100023946908,0.020448431372642517
205,0.25,0.001,0.013895726261230616,0.011190855087569127,15.158097633948692,0.010819484392540109,0.020265178754925728
206,0.25,0.001,0.013878695810070405,0.011184987182227464,15.095543347872221,0.010774834652299944,0.015744926407933235
207,0.25,0.001,0.01386541436211421,0.011144692364793558,15.24692594088041,0.010882887894989585,0.02288087154738605
208,0.25,0.001,0.013780570159164758,0.011034731466609698,15.387679760272686,0.010983354575497992,0.01856956584379077
209,0.25,0.001,0.013837332335802225,0.011096837428899912,15.357734240018404,0.010961980185594864,0.029127873945981264
210,0.25,0.001,0.013767279254702421,0.011002920281428557,15.491469163161058,0.011057436947295544,0.03901525540277362
211,0.25,0.001,0.013881219622607414,0.01119427576374549,15.057633620042067,0.01074777560317064,0.03230181662365794
212,0.25,0.001,0.01366114465949627,0.011017714268886127,14.813783792349009,0.010573721479192725,0.01775623462162912
213,0.25,0.001,0.013633022371392984,0.010961955055021323,14.96866226196289,0.010684269994263305,0.015756294829770923
214,0.25,0.001,0.01356012632067387,0.01089024250037395,14.962027036226713,0.010679533930211788,0.014602503273636103
215,0.25,0.001,0.013678905482475575,0.01098057240820848,15.121459814218374,0.01079333320072689,0.031179790385067463
216,0.25,0.001,0.013750498756193198,0.011118339517941842,14.750620768620418,0.010528637236702654,0.02114717150107026
217,0.25,0.001,0.013683386576863436,0.010993132439370338,15.076184052687426,0.010761016454452123,0.017364804865792394
218,0.25,0.001,0.013616839710336465,0.010797442868351936,15.79990137540377,0.01127758841927464,0.018871696898713708
219,0.25,0.001,0.013622452433292683,0.01093377430851643,15.06735112116887,0.010754711721034168,0.014798920135945082
220,0.25,0.001,0.013517668685660912,0.010849687055899547,14.951368038470928,0.010671925794768685,0.017946396488696337
221,0.25,0.001,0.013662226927968172,0.010946221649646759,15.220495077279898,0.010864022182212631,0.01581349177286029
222,0.25,0.001,0.013605833053588867,0.01095180378223841,14.873180389404297,0.01061611733719079,0.014828287297859788
223,0.25,0.001,0.013576789472538691,0.010931983017004453,14.82149520287147,0.010579225697981063,0.020042234798893332
224,0.25,0.001,0.013586063511096515,0.01088717128508366,15.124591240516075,0.010795568337270574,0.016980602871626616
225,0.25,0.001,0.013623936531635432,0.010923612862825394,15.132612521831806,0.010801293734355321,0.018797244178131223
226,0.25,0.001,0.013509081963163156,0.01086204993323638,14.83396889613225,0.010588129119294968,0.015539087355136871
227,0.25,0.001,0.013421329454733776,0.010857256702505626,14.369065504807692,0.010256292294652171,0.01723107951693237
228,0.25,0.001,0.013518888001831679,0.010919876539936433,14.564861591045673,0.010396046817305977,0.012226550607010722
229,0.25,0.001,0.013456441175479155,0.010784181336370798,14.975345611572266,0.010689040407974493,0.010606445604935288
230,0.25,0.001,0.013332610305112142,0.010681675102275152,14.855841710017277,0.010603741406150804,0.008316525025293231
231,0.25,0.001,0.013416193927136751,0.010849869523483973,14.38168114882249,0.010265297036989644,0.017131870612502098
232,0.25,0.001,0.01344439172400878,0.010803510936406942,14.799494963425856,0.0105635224578343,0.015314356191083789
233,0.25,0.001,0.013307380776565809,0.010619324417068409,15.063866982093224,0.010752224826619004,0.013609386514872313
234,0.25,0.001,0.013480486491551766,0.010899434797465801,14.464214398310734,0.010324207279308162,0.023545184871181846
235,0.25,0.001,0.01349287573248148,0.01089200434776453,14.57528231694148,0.010403484880043884,0.020498352125287056
236,0.25,0.001,0.013469698910529796,0.010804225475742267,14.937311465923603,0.010661892552407997,0.0189930887427181
237,0.25,0.001,0.013344362306480225,0.010769211400586825,14.431146254906288,0.01030060403633568,0.011796890292316675
238,0.25,0.001,0.01344947344981707,0.010924054667926751,14.152446233309233,0.010101674684731787,0.022781686624512076
239,0.25,0.001,0.013383993950600807,0.01067247220243399,15.195367079514723,0.01084608642363649,0.015455689979717135
240,0.25,0.001,0.01350019585627776,0.010736590179686364,15.48724680680495,0.01105442313119554,0.021169499726966023
241,0.25,0.001,0.013357440367914163,0.01067714192546331,15.020392051109901,0.01072119346974297,0.017349506495520473
242,0.25,0.001,0.01329700412371984,0.01070011887126244,14.552944916945238,0.010387540982830292,0.014023673953488469
243,0.25,0.001,0.013322014075059157,0.010742091215573825,14.457887796255259,0.010319691503394188,0.014052757760509849
244,0.25,0.001,0.01333981308226402,0.010765614704443859,14.42580824631911,0.010296793894588945,0.013300120830535889
245,0.25,0.001,0.013460617082623335,0.010851429846997444,14.621884932884804,0.010436748702987012,0.017812652746215463
246,0.25,0.001,0.013259486581843633,0.010607586815380134,14.861247356121357,0.010607599825925308,0.012832129141315818
247,0.25,0.001,0.013398209085258154,0.010750096577864427,14.8400208399846,0.01059244885080985,0.01830258418340236
248,0.25,0.001,0.0133720117692764,0.010724107627398692,14.838853395902193,0.010591615557389146,0.015579100465402007
249,0.25,0.001,0.01340133660974411,0.010697922740991298,15.14993168757512,0.01081365573702721,0.01930142007768154
250,0.25,0.001,0.013440346345305443,0.010659631628256578,15.583125554598295,0.011122859068235756,0.026839918456971645
251,0.25,0.001,0.013376742887955446,0.010753622923332911,14.69996452331543,0.010492480030917508,0.02489858097396791
252,0.25,0.001,0.01323011338424224,0.010709215385409502,14.127111214857836,0.010083591159784322,0.022196436068043113
253,0.25,0.001,0.013246219605207443,0.010711231842063941,14.206071780278133,0.010139951306408376,0.01683031627908349
254,0.25,0.001,0.013291876189983808,0.01065538336451237,14.774906231806828,0.010545971614423146,0.012522570788860321
255,0.25,0.001,0.01321163336531474,0.010533431115058752,15.008646451509916,0.010712809744118427,0.016637307591736317
256,0.25,0.001,0.013383487096199622,0.010709957792781867,14.982458701500526,0.010694117559957549,0.0160075593739748
257,0.25,0.001,0.01322141676568068,0.010546539766857257,14.990010775052584,0.010699508047860516,0.013879157369956374
258,0.25,0.001,0.013229848315509466,0.010599291740128627,14.741638917189379,0.010522226207843953,0.01930927624925971
259,0.25,0.001,0.013293829889824757,0.0106718774455098,14.693422024066631,0.010487810152795598,0.014512339374050498
260,0.25,0.001,0.013161120434793143,0.01051934865804819,14.804489649259127,0.010567087544082174,0.01346288772765547
261,0.25,0.001,0.01317809120966838,0.010508583285487615,14.959923964280348,0.010678032808194396,0.010750094894319773
262,0.25,0.001,0.013271269675057668,0.010633595574360628,14.781526492192196,0.010550696996568305,0.01914914743974805
263,0.25,0.001,0.013079175940499855,0.01052115735812829,14.335135606619028,0.010232073951905087,0.012399137951433659
264,0.25,0.001,0.013126678048418118,0.010582279163197829,14.258811657245342,0.010177595758205099,0.012922183144837618
265,0.25,0.001,0.013324309713565387,0.010750881181313442,14.421493236835186,0.010293713944921618,0.01148648583330214
266,0.25,0.001,0.013205574037363896,0.010585866796855744,14.680839538574219,0.010478829078211434,0.016810181317850947
267,0.25,0.001,0.013156255134023152,0.01052599479086124,14.739979670597958,0.010521041877657357,0.011752798571251333
268,0.25,0.001,0.013170547855014984,0.010505056008696556,14.937415783221905,0.010661967011578804,0.015527450013905764
269,0.25,0.001,0.01317359421115655,0.010494014534812707,15.016364904550406,0.010718318989686228,0.012894822633825243
270,0.25,0.001,0.01307391246350912,0.010371465164308365,15.144514303940992,0.010809788939286932,0.019149274099618196
271,0.25,0.001,0.013193139233268224,0.010496106142034898,15.11417447603666,0.010788133102096116,0.01630983711220324
272,0.25,0.001,0.01319410322377315,0.010606891690538479,14.498734107384315,0.010348846614835342,0.016998209292069077
273,0.25,0.001,0.01322165633050295,0.010557990592832748,14.927181977492113,0.010654662367945834,0.013447648612782359
274,0.25,0.001,0.013143143759897122,0.010384429317827407,15.459835566007174,0.01103485764882739,0.0154762570746243
275,0.25,0.001,0.01314955734862731,0.01052228737479219,14.723220825195312,0.01050907981812656,0.016061408910900354
276,0.25,0.001,0.013133933481115561,0.010584317864133762,14.288046470055214,0.010198462862280667,0.014096178347244859
277,0.25,0.001,0.01329971613505712,0.010699814185500145,14.569850994990421,0.01039960813346925,0.01785624912008643
278,0.25,0.001,0.013061946401229272,0.010379205959347578,15.034077204190767,0.010730961601849227,0.009170655393972993
279,0.25,0.001,0.01305812711899097,0.010409387186742745,14.843538944537823,0.010594959988963471,0.01536597078666091
280,0.25,0.001,0.013251307133871775,0.01061106795588365,14.795901518601637,0.010560957543612874,0.014755717944353819
281,0.25,0.001,0.01305771253716487,0.010405981340087377,14.860303218548115,0.010606925923303437,0.011351792607456446
282,0.25,0.001,0.013045045905388318,0.01042238544099606,14.697388135469877,0.010490641067430318,0.012624715105630457
283,0.25,0.001,0.012996701523661613,0.010409970266314654,14.496042985182543,0.010346925756732721,0.012377076898701489
284,0.25,0.001,0.013120436467803441,0.010489261565873256,14.745104716374325,0.010524700011687598,0.012450364651158452
285,0.25,0.001,0.012984743986565333,0.010297743675227348,15.057949653038612,0.01074800117989908,0.016129747265949845
286,0.25,0.001,0.013067579541641932,0.01044335223447818,14.706169275137094,0.0104969088330743,0.0177336351480335
287,0.25,0.001,0.01315315984762632,0.0105073804465624,14.82694963308481,0.01058311893867581,0.016383872367441654
288,0.25,0.001,0.013120705978228496,0.010382484680471512,15.344992637634277,0.010952885537212189,0.02426695032045245
289,0.25,0.001,0.013000498597438518,0.010342321286980923,14.896426787743202,0.010632710055491223,0.02720877481624484
290,0.25,0.001,0.013082420023588033,0.010545532577312909,14.216717573312613,0.010147550016639981,0.02099868655204773
291,0.25,0.001,0.013051064541706672,0.010494631356917895,14.326252130361704,0.010225733140872023,0.01531152578536421
292,0.25,0.001,0.013109952999422183,0.010491049275375329,14.676334821260893,0.0104756137196723,0.0208836542442441
293,0.25,0.001,0.012998839768652733,0.010356227150903298,14.809201167179989,0.010570450511905773,0.019489337224513292
294,0.25,0.001,0.012937992381361814,0.01031413574058276,14.704092759352465,0.010495426666204472,0.0191924253012985
295,0.25,0.001,0.013002667647714797,0.010338668496562885,14.929051839388334,0.01065599703025577,0.015298902639187872
296,0.25,0.001,0.01308562527768887,0.010411089142927757,14.988101739149828,0.010698145424089813,0.015851235715672374
297,0.25,0.001,0.01299044002707188,0.010324193881108211,14.941644668579102,0.01066498548792227,0.014710900839418173
298,0.25,0.001,0.013007897310532056,0.010394722653123049,14.644232383141151,0.010452699773833798,0.01190901454538107
299,0.25,0.001,0.013000185816333843,0.01040869840205862,14.52269539466271,0.010365949603613641,0.009471182012930512
300,0.25,0.001,0.012941688155898681,0.010356598247129183,14.48684472304124,0.010340360259130078,0.012332692742347717
301,0.25,0.001,0.013001908404895892,0.010306468233466148,15.105245736929087,0.010781759983532539,0.014626872725784779
302,0.25,0.001,0.01292363740503788,0.01021636936527032,15.171530356773964,0.01082907234601996,0.01274296292103827
303,0.25,0.001,0.012979415245354176,0.010352716996119572,14.720017653245192,0.010506793471267088,0.014650976983830333
304,0.25,0.001,0.012920519193777671,0.010356510989367962,14.368702668410082,0.010256033310785211,0.01490193814970553
305,0.25,0.001,0.012944150429505568,0.010437273778594457,14.048538208007812,0.010027507643117639,0.01869097724556923
306,0.25,0.001,0.01288165940115085,0.010234789779553046,14.833056156451885,0.010587477627731538,0.02321063494309783
307,0.25,0.001,0.012959985062479973,0.010318126386174789,14.804976096520058,0.010567434758401183,0.014339317800477147
308,0.25,0.001,0.012972022478397075,0.010341965951598607,14.738837315486027,0.010520226492138492,0.021166821708902717
309,0.25,0.001,0.012889749800356535,0.010273963499527711,14.658866588885967,0.010463145316835095,0.018884026911109686
310,0.25,0.001,0.012924341771465082,0.01027154578612401,14.8662691116333,0.010611184233856746,0.010595280560664833
311,0.25,0.001,0.01280423948684564,0.010100451727899222,15.152028010441708,0.010815152041714281,0.015783383627422154
312,0.25,0.001,0.013008941967899982,0.010389143314499121,14.681351441603441,0.010479194462243713,0.01972005981951952
313,0.25,0.001,0.012824766982633334,0.010195275052235676,14.735672804025503,0.010517967740203785,0.018505154876038432
314,0.25,0.001,0.012854945559341174,0.010264521034864279,14.516739771916317,0.010361698623780384,0.018219446763396263
315,0.25,0.001,0.012903375121263357,0.010366663050193053,14.215734775249775,0.010146848519093345,0.01271876972168684
316,0.25,0.001,0.01281269510778097,0.01029143246034017,14.129157139704777,0.010085051491580854,0.015933177899569273
317,0.25,0.001,0.012929362889665823,0.010315337863105994,14.648996059711163,0.0104560999712428,0.009168277960270643
318,0.25,0.001,0.013080413023439737,0.010317284828768326,15.484569549560547,0.011052512169564987,0.01186762168072164
319,0.25,0.001,0.012834773828776984,0.010039843045748197,15.662792352529673,0.011179723306587917,0.014039651723578572
320,0.25,0.001,0.01281439376851687,0.010102166292759089,15.199322847219614,0.010848909955188875,0.018558772979304194
321,0.25,0.001,0.012906266949497737,0.010243443700556572,14.92246099618765,0.01065129264538733,0.020766349509358406
322,0.25,0.001,0.012849013536022259,0.010255124563207993,14.536153206458458,0.01037555546499533,0.0191180162364617
323,0.25,0.001,0.012907132864571534,0.010346066564894639,14.35221686730018,0.010244266143683213,0.015913153532892466
324,0.25,0.001,0.012834384750861388,0.010175566117350873,14.900018251859224,0.010635273555930923,0.013271186733618379
325,0.25,0.001,0.013010873960760923,0.010392684059647413,14.672334377582256,0.010472758299487692,0.014571168110705912
326,0.25,0.001,0.01288506668061018,0.010191344799330601,15.095616267277645,0.010774886700412309,0.014968911418691278
327,0.25,0.001,0.0128618531072369,0.010137256951286243,15.268636996929462,0.010898384723004613,0.010981338797137141
328,0.25,0.001,0.01295626199302765,0.010350844392982813,14.600760239821215,0.010421670406724636,0.01684689545072615
329,0.25,0.001,0.012765484503828563,0.010201838583900379,14.366671342116137,0.01025458339908361,0.018118256237357855
330,0.25,0.001,0.01288743532047822,0.010302787718291465,14.484363702627329,0.010338589366614796,0.024696966167539358
331,0.25,0.001,0.012786587986808557,0.010094847100285383,15.084516378549429,0.010766963867629856,0.01982621639035642
332,0.25,0.001,0.012876272631379275,0.0102864233776927,14.513515619131235,0.010359397301307091,0.017068869899958372
333,0.25,0.001,0.012744924913232144,0.010217457938079651,14.163925390977125,0.01010986823053328,0.01634052488952875
334,0.25,0.001,0.012567923046075381,0.009987346398142668,14.46155254657452,0.010322307313757688,0.009871054673567414
335,0.25,0.001,0.012831626531596366,0.010227177650309525,14.59533192561223,0.010417795807003733,0.013737111119553447
336,0.25,0.001,0.012754176313487383,0.010128942963022452,14.711807764493502,0.010500933450744826,0.011941692093387246
337,0.25,0.001,0.012703662523283409,0.010099646850274159,14.592903577364408,0.010416062510609857,0.012460945639759302
338,0.25,0.001,0.012873902487067075,0.010274351287919741,14.567885178786058,0.01039820498128912,0.014481364050880075
339,0.25,0.001,0.012742806226015091,0.010083517346244592,14.902656408456656,0.010637156608462995,0.016333055216819048
340,0.25,0.001,0.012776943425146433,0.01012815789391215,14.84379474933331,0.010595142576255039,0.01608338695950806
341,0.25,0.001,0.012883820499365147,0.010259568619613465,14.706308218149038,0.010497008007244138,0.01890301308594644
342,0.25,0.001,0.012845214742880601,0.010164745940038791,15.021347339336689,0.010721875331432327,0.019096543779596686
343,0.25,0.001,0.012794889939519076,0.01012593385978387,14.956829437842735,0.01067582400988061,0.016642884584143758
344,0.25,0.001,0.01271036102508123,0.010090169640114674,14.683552815363957,0.010480765749724452,0.016224407590925694
345,0.25,0.001,0.012841430994180532,0.010229417982582863,14.63772201538086,0.01044805283039319,0.02059974253643304
346,0.25,0.001,0.012806757209965816,0.010109199855763178,15.117111499492939,0.010790229478581683,0.022596360882744193
347,0.25,0.001,0.012809629122225137,0.010124171367631508,15.049305842472958,0.010741831436454645,0.0203543835086748
348,0.25,0.001,0.012794698087068705,0.010151381819294049,14.813143510084887,0.010573264461159805,0.018541694851592183
349,0.25,0.001,0.01294179905492526,0.010332918367706813,14.620168099036583,0.010435523268405841,0.01809114485513419
350,0.25,0.001,0.012666835664556576,0.010028027786085239,14.787879503690279,0.010555231622905267,0.01417974999640137
351,0.25,0.001,0.012706392946151586,0.010089496867014812,14.665085719181942,0.010467584381999958,0.015228021889925003
352,0.25,0.001,0.012789035645815043,0.010201442413605176,14.500871218167818,0.010350372032953475,0.016440639505162835
353,0.25,0.001,0.0126986254293185,0.010080922538271317,14.669605401846079,0.010470810422445452,0.014593836618587375
354,0.25,0.001,0.012843259252034701,0.01025875543172543,14.483557260953463,0.010338013748003898,0.02062895055860281
355,0.25,0.001,0.0127892683331783,0.01012516559030001,14.929632333608774,0.010656411373025535,0.016637538094073534
356,0.25,0.001,0.012848515708286028,0.010134413050344357,15.20983285170335,0.010856411742828944,0.016832565888762474
357,0.25,0.001,0.012691733785546742,0.010090975234141717,14.574652158297026,0.010403035088006442,0.020713010104373097
358,0.25,0.001,0.01274647807272581,0.0101124129902858,14.761301480806791,0.010536260871382435,0.012737659737467766
359,0.25,0.001,0.012708093971014023,0.010037788046667209,14.964392882127028,0.010681222613937922,0.010537969646975398
360,0.25,0.001,0.012713290034578396,0.010074848380799476,14.785826903123121,0.0105537665261407,0.014888621866703033
361,0.25,0.001,0.012756496381301146,0.01014299182078013,14.64608016380897,0.010454018675095624,0.019393451046198606
362,0.25,0.001,0.012696579098701477,0.010037126950919628,14.903570982126089,0.010637809409083576,0.022799121215939522
363,0.25,0.001,0.012851261605436985,0.010204797180799337,14.830786851736216,0.010585857852773887,0.024005322018638253
364,0.25,0.001,0.01252664725940961,0.009896625549747394,14.738642692565918,0.010520087574993517,0.017632565228268504
365,0.25,0.001,0.012678706302092625,0.010128972335503651,14.288708906907301,0.010198935693723984,0.013972652610391378
366,0.25,0.001,0.012895404289548214,0.01028491255755608,14.629194553081806,0.010441966133534479,0.02332345675677061
367,0.25,0.001,0.012693772952143963,0.010051734602222076,14.805982149564302,0.010568152854792507,0.022135964361950755
368,0.25,0.001,0.01260848013827434,0.009966434266131658,14.806023964515099,0.010568182701295574,0.022810437949374318
369,0.25,0.001,0.012747035791667609,0.010119075743624797,14.727089074941782,0.01051184088147165,0.013865046203136444
370,0.25,0.001,0.012682505453435274,0.010007887362287594,14.988560529855581,0.010698472897826968,0.01653013378381729
371,0.25,0.001,0.012734954102108112,0.010035744868218899,15.126366835374098,0.010796835714042897,0.022389078978449106
372,0.25,0.001,0.012646432464512495,0.009924559853971004,15.253375713641827,0.010887491587181889,0.00989354366902262
373,0.25,0.001,0.012642017637307826,0.009983452753378795,14.898597864004282,0.01063425971734781,0.013828819151967764
374,0.25,0.001,0.01259773582793199,0.01002188098545258,14.435090505159819,0.01030341934700915,0.014881985494866967
375,0.25,0.001,0.012624192624711074,0.010003139049961017,14.688386036799503,0.010484215586580659,0.011875072494149208
376,0.25,0.001,0.012514286459638523,0.009887987962709023,14.717777252197266,0.010505194327050153,0.012815327499993145
377,0.25,0.001,0.012706665465464959,0.010115224939699356,14.522434674776518,0.010365763508048907,0.01223126077093184
378,0.25,0.001,0.012578017006699856,0.009961279753882151,14.664195647606483,0.010466949070382928,0.01486683008261025
379,0.25,0.001,0.012668206714666806,0.009974049404263496,15.098057600168081,0.010776629264930821,0.016636925982311368
380,0.25,0.001,0.012694200285925316,0.010073401463719515,14.686955965482271,0.010483194836175783,0.01837542769499123
381,0.25,0.001,0.01261627752907001,0.009911139997152181,15.159591014568623,0.010820550331597874,0.02353140478953719
382,0.25,0.001,0.012633700138674332,0.009971835793784032,14.917088655325083,0.010647457998090708,0.018611977342516184
383,0.25,0.001,0.012591487871339688,0.01006956140582378,14.132875149066631,0.010087705316964048,0.01736662955954671
384,0.25,0.001,0.012560509503460847,0.00998058793349908,14.457879286545973,0.010319685429369002,0.014170142938382924
385,0.25,0.001,0.012696134642912792,0.01006472583573598,14.746416678795448,0.010525636458811884,0.018261666176840663
386,0.25,0.001,0.012763718286385903,0.010117343268715419,14.830284998967098,0.010585499642374803,0.021709976950660348
387,0.25,0.001,0.012663766741752625,0.010000002283889513,14.927735255314754,0.010655057284307462,0.020446277922019362
388,0.25,0.001,0.012752372771501541,0.010097504736712346,14.877881636986366,0.010619472974294338,0.01522034383378923
389,0.25,0.001,0.012670950032770634,0.01007220485749153,14.563368283785307,0.010394980930610498,0.020533319795504212
390,0.25,0.001,0.012591714827487102,0.009977779852656217,14.648492372952974,0.010455740451786563,0.01806145184673369
391,0.25,0.001,0.01267115341929289,0.010011816755510293,14.902922997107872,0.010637346893010616,0.014507635962218046
392,0.25,0.001,0.012576872267975258,0.00997630635706278,14.573571425217848,0.010402263686807885,0.016773311654105783
393,0.25,0.001,0.01271699619694398,0.010089706701154891,14.723331011258638,0.010509158466280255,0.019893323304131627
394,0.25,0.001,0.01259536031060494,0.009940098326366682,14.880088806152344,0.010621048398395677,0.01296346914023161
395,0.25,0.001,0.012535111333888311,0.00992267091686909,14.640116471510668,0.010449761935410898,0.016857019159942865
396,0.25,0.001,0.012710862864668552,0.01008069791043034,14.739444732666016,0.01052066005186725,0.013054595328867435
397,0.25,0.001,0.012609186367346691,0.009955308328454312,14.872332866375263,0.010615512395699689,0.02080286806449294
398,0.25,0.001,0.012538102455437183,0.009893549749484429,14.820073934701773,0.010578211231050516,0.014936686726287007
399,0.25,0.001,0.012566020568976035,0.00989011968844212,14.99574822645921,0.010703603302254968,0.013792498735710979
400,0.25,0.001,0.012507073724499116,0.009858748302436791,14.84121506030743,0.010593301256464975,0.01713637518696487
401,0.25,0.001,0.012624694965779781,0.010062242284990273,14.359985131483812,0.010249810943243263,0.02535916306078434
402,0.25,0.001,0.012661110108288435,0.009979300630780367,15.028859211848332,0.010727237124802521,0.028127510799095035
403,0.25,0.001,0.012702766232765637,0.009903610612337407,15.686469591580904,0.011196623548594508,0.029700979124754667
404,0.25,0.001,0.012639189640489908,0.00998527893366722,14.872514871450571,0.010615642306531456,0.02511605527251959
405,0.25,0.001,0.012526883600422969,0.00996511372236105,14.356157596294697,0.01024707894096695,0.019128394778817892
406,0.25,0.001,0.012692454915780287,0.010076984118383665,14.657099357018105,0.010461883909363387,0.016221039462834597
407,0.25,0.001,0.012657639928735219,0.010023893072054936,14.75951781639686,0.010534987734758644,0.0144014039542526
408,0.25,0.001,0.012599424602320561,0.009978453485438457,14.687921964205229,0.010483884342758907,0.013729123049415648
409,0.25,0.001,0.012607537926389622,0.00994860903861431,14.900638873760517,0.010635716540871176,0.019474645610898733
410,0.25,0.001,0.012582291132555557,0.009883359576073976,15.12481139256404,0.010795725476491106,0.016953230602666736
411,0.25,0.001,0.0125503888210425,0.00990757167052764,14.810347190270058,0.010571268515538941,0.019563451292924583
412,0.25,0.001,0.012422938616229938,0.009768728739940204,14.874193338247446,0.010616840355637007,0.011857869219966233
413,0.25,0.001,0.012586172598485764,0.009964913344727112,14.689536608182467,0.010485036836675565,0.014762694481760263
414,0.25,0.001,0.012422297508097611,0.009821858257055283,14.572862551762508,0.01040175771003748,0.013279456296004355
415,0.25,0.001,0.012522750390836826,0.009924355177925183,14.561407822829027,0.01039358160087725,0.011738588800653815
416,0.25,0.001,0.012605695197215447,0.009997988334642006,14.613587306096004,0.010430826057170595,0.016703256173059344
417,0.25,0.001,0.012443599792627187,0.009796808581226148,14.832618273221529,0.010587165077245917,0.01339708617888391
418,0.25,0.001,0.012437672425921146,0.009775393570844945,14.919412612915039,0.010649116782951492,0.01234204787760973
419,0.25,0.001,0.012463970253100762,0.009834666879704365,14.734615912804237,0.010517213356748207,0.013509859330952168
420,0.25,0.001,0.01251389286839045,0.009848052779069314,14.939367514390211,0.010663360110200007,0.014595948858186603
421,0.25,0.001,0.012442928810532276,0.00979626329185871,14.83191387469952,0.01058666229457496,0.012443649349734187
422,0.25,0.001,0.012334512976499705,0.00969159441928451,14.810916020320011,0.010571674532705218,0.011138418689370155
423,0.25,0.001,0.012392868287861347,0.00976562757904713,14.72305679321289,0.010508962736054882,0.011995804263278842
424,0.25,0.001,0.01242311463619654,0.00988106021227745,14.245672812828651,0.010168217568043291,0.020651275292038918
425,0.25,0.001,0.012573680482231654,0.010047543220795117,14.156473599947416,0.010104549321875387,0.013986608479171991
426,0.25,0.001,0.01256833583689653,0.009961818416531269,14.606924790602465,0.010426070514348655,0.011281563201919198
427,0.25,0.001,0.012399437479101695,0.009671215827648457,15.288954221285307,0.010912886667584087,0.0131644899956882
428,0.25,0.001,0.012477172896839105,0.009829782092800507,14.835977480961727,0.010589562798687885,0.009966557030566037
429,0.25,0.001,0.01248491254563515,0.009914577150574097,14.404159839336689,0.01028134178396623,0.01476314035244286
430,0.25,0.001,0.012367284426895471,0.009799722868662614,14.388615388136644,0.010270246529719232,0.01397993229329586
431,0.25,0.001,0.01246690248640684,0.00992122471619111,14.265978739811825,0.01018271144883071,0.015052917879074812
432,0.25,0.001,0.01255831502091426,0.009994392928022604,14.368218862093412,0.010255687981508502,0.01676236535422504
433,0.25,0.001,0.01250669345832788,0.009834599358817706,14.974416292630709,0.01068837708253441,0.012130363145843148
434,0.25,0.001,0.01239409025471944,0.009742826509934206,14.8576812010545,0.010605054390474305,0.011936565046198666
435,0.25,0.001,0.012386360062429538,0.009821500485906234,14.37347228710468,0.010259437749539385,0.013491868390701711
436,0.25,0.001,0.012461372006397981,0.009899900796321722,14.354485731858473,0.010245885604467146,0.01570324134081602
437,0.25,0.001,0.012468690983951092,0.009831535200086923,14.778622553898739,0.010548624235473762,0.022042923141270876
438,0.25,0.001,0.012565114678671727,0.009879279165313793,15.051423219534067,0.010743342769117821,0.01664185232948512
439,0.25,0.001,0.012443525000260426,0.00973737003424993,15.165293546823355,0.010824620661544151,0.010669227805919945
440,0.25,0.001,0.01234453243131821,0.009730181441857265,14.650824106656588,0.01045740478704967,0.010909933364018798
441,0.25,0.001,0.01237721461802721,0.009859508404938074,14.109225786649263,0.01007082497262617,0.011573750176467001
442,0.25,0.001,0.012473256757053046,0.009903171529563574,14.40275764465332,0.010280340931230064,0.018712592544034123
443,0.25,0.001,0.012386728221407304,0.009751025085838942,14.770481549776518,0.010542813383138129,0.011134554399177432
444,0.25,0.001,0.01253487621075832,0.009887051840241138,14.838408836951622,0.01059129824193549,0.020680458284914494
445,0.25,0.001,0.012525597443947425,0.00973535429399747,15.636524200439453,0.011160973733361494,0.015920617152005434
446,0.25,0.001,0.012542250422904124,0.009734062406306084,15.73708754319411,0.011232753421266317,0.019275280414149165
447,0.25,0.001,0.012468195305420803,0.009798501116725115,14.960967650780312,0.01067877776643848,0.027230428298935294
448,0.25,0.001,0.01253966879672729,0.009944037892497502,14.545914796682505,0.010382523052592794,0.03368792915716767
449,0.25,0.001,0.012509137535324464,0.01002402059160746,13.926594514113207,0.009940467176383446,0.02000588783994317
450,0.25,0.001,0.01239273353264882,0.009802848960344609,14.513711855961727,0.01035953737042236,0.016950330697000027
451,0.25,0.001,0.012489494437781664,0.00970039308930819,15.630124165461613,0.011156405542799152,0.012273303349502385
452,0.25,0.001,0.012471705961685915,0.009698269172356678,15.542340205265926,0.011093747469854337,0.017924433574080467
453,0.25,0.001,0.012420828884037642,0.009734140852322945,15.056200174184946,0.010746752444100604,0.023055165074765682
454,0.25,0.001,0.01237802909543881,0.009683363569470553,15.10090446472168,0.010778661288166794,0.014284137403592467
455,0.25,0.001,0.01243351844067757,0.009813352989462705,14.683407856867863,0.010480662281847153,0.021201995201408863
456,0.25,0.001,0.012465301972742263,0.009902502983235396,14.361924098088192,0.01025119493082669,0.022191112395375967
457,0.25,0.001,0.012438888088441812,0.009820912391520463,14.671135535606972,0.010471902595008546,0.015250908792950213
458,0.25,0.001,0.012500161018509131,0.009823067686878718,15.00243172278771,0.010708373820690727,0.010050526121631265
459,0.25,0.001,0.012495282321022106,0.009828049689531326,14.947170110849234,0.010668929415309945,0.022904071724042296
460,0.25,0.001,0.012436082300085288,0.009781743614719464,14.87491431603065,0.010617354972184618,0.01941549452021718
461,0.25,0.001,0.012441374218234649,0.009783603967382358,14.89414486518273,0.010631081274220364,0.015567825175821781
462,0.25,0.001,0.012515732517036108,0.009845821258540336,14.9621828519381,0.010679645147707424,0.013886529486626387
463,0.25,0.001,0.012537031792677365,0.009801426544212379,15.330330335176908,0.010942419939455324,0.018545764265581965
464,0.25,0.001,0.012390438538904373,0.00971056972272121,15.017984903775728,0.01071947530604977,0.018138350918889046
465,0.25,0.001,0.012437705523692645,0.009820948928021468,14.664303706242489,0.010467026200030328,0.011975348694249988
466,0.25,0.001,0.012362251488062052,0.009680041935867988,15.031102253840519,0.010728838154061756,0.012105381349101663
467,0.25,0.001,0.012342712770287808,0.009640046287901126,15.145742929898775,0.01081066590285423,0.01501172105781734
468,0.25,0.001,0.012329498592477579,0.009740164001973776,14.510630387526293,0.010357337892595499,0.01518519502133131
469,0.25,0.001,0.012412674366854705,0.009811231221717138,14.578487102801983,0.01040577237887365,0.011887779692187905
470,0.25,0.001,0.01243923518520135,0.009709160703306016,15.299337313725399,0.010920297868469235,0.014178653946146369
471,0.25,0.001,0.01243232276577216,0.009734250533466157,15.119995997502254,0.010792288363670417,0.01742623932659626
472,0.25,0.001,0.012386512727691578,0.009748496258488068,14.783444184523363,0.010552065799088767,0.026095829671248794
473,0.25,0.001,0.012379760352464823,0.009783688932657242,14.54838385948768,0.010384285410055446,0.01807880331762135
474,0.25,0.001,0.01238132561915196,0.009745142494256679,14.773171791663536,0.010544733612893317,0.013182491296902299
475,0.25,0.001,0.012390239450794,0.00977315316693141,14.666152293865498,0.0104683456772773,0.014532091561704874
476,0.25,0.001,0.012304448379346957,0.009682793098573502,14.691756908710186,0.010486621633626115,0.01672158483415842
477,0.25,0.001,0.012318606631687054,0.009644273632707505,14.986964299128605,0.010697333546844115,0.016190562630072236
478,0.25,0.001,0.012397706795197267,0.009749289243840255,14.841730998112606,0.010593669520422988,0.022394492756575346
479,0.25,0.001,0.012373933640237037,0.00971150785111464,14.920233506422777,0.010649702716932746,0.018352390732616186
480,0.25,0.001,0.01244059563256227,0.009684193807725724,15.44687637915978,0.011025607693904198,0.019030259223654866
481,0.25,0.001,0.012383510645192403,0.009700368194339367,15.036330883319561,0.010732570223639944,0.021972729358822107
482,0.25,0.001,0.01236809131044608,0.0097345644249939,14.758284055269682,0.010534107105831322,0.020337402820587158
483,0.25,0.001,0.012352639952531228,0.009707503378964387,14.823345624483549,0.010580546484285188,0.014679040061309934
484,0.25,0.001,0.012437860051599832,0.009831368350065671,14.60678012554462,0.0104259672559205,0.01690775901079178
485,0.25,0.001,0.01234651686480412,0.0096986462863592,14.838667356050932,0.010591482766631643,0.020756570855155587
486,0.25,0.001,0.012395949031297978,0.009704743440334614,15.081516412588266,0.01076482256430283,0.019399511627852917
487,0.25,0.001,0.012406395461696845,0.009731217574041624,14.991696284367489,0.010700711123745531,0.021523076109588146
488,0.25,0.001,0.012386224949016022,0.009695386585707847,15.079457943256084,0.010763353278555378,0.020629637176170945
489,0.25,0.001,0.012391681209779702,0.009671920265715856,15.2415404686561,0.010879043874843754,0.015516880434006453
490,0.25,0.001,0.012308034759301405,0.009635214192362932,14.978486427894005,0.010691282246890796,0.01696287258528173
491,0.25,0.001,0.012359671581249971,0.009705638011487631,14.873203717745268,0.010616133988397764,0.010426104301586747
492,0.25,0.001,0.01236467701024734,0.00971059357890716,14.873482704162598,0.010616333122171733,0.012214279384352267
493,0.25,0.001,0.012328402210886661,0.009649834237419642,15.01069531073937,0.010714272170406403,0.021347957430407405
494,0.25,0.001,0.012297761841462208,0.00963526376737998,14.92063859792856,0.010649991861476488,0.017727083759382367
495,0.25,0.001,0.01237517036497593,0.009765511736846887,14.624525436988243,0.010438633431112237,0.015316817443817854
496,0.25,0.001,0.012256245200450603,0.009629878215491772,14.718161216148964,0.010505468391255506,0.01487887348048389
497,0.25,0.001,0.01233879175896828,0.009718989881758507,14.681370221651518,0.010479207866988948,0.021286383038386703
498,0.25,0.001,0.012354585700310193,0.00974145639114655,14.643976358266977,0.010452517029455374,0.016461382620036602
499,0.25,0.001,0.012212763182245769,0.00953731958109599,14.993186657245342,0.010701774915949567,0.012332591228187084
500,0.25,0.001,0.012335122491304692,0.009675141137379866,14.906536102294922,0.010639925840324712,0.015695382142439485
