epoch,beta,learning_rate,train_loss,train_reconstruction_loss,train_kl_unnormalized,train_kl_normalized,mean_unclipped_gradient_norm
1,0.0,0.001,0.0884156936369328,0.0884156936369328,20.505947700485617,0.01463665074981129,0.0888360542141729
2,0.02,0.001,0.059823087483760674,0.05635667093040069,242.82241083632204,0.17332077861264955,0.13956000987026426
3,0.04,0.001,0.05085715324006118,0.042191993299922514,303.4972201341774,0.2166289936717897,0.14566665142774582
4,0.06,0.001,0.04386561287686839,0.04043141620317165,80.18850113123248,0.05723661750980192,0.14526055339309904
5,0.08,0.001,0.03730228841014308,0.03213410473793571,90.50782549822772,0.06460230228281778,0.09054789402418667
6,0.1,0.001,0.03587310800426885,0.03261014453877947,45.7141241404513,0.03262963892965831,0.08618185131086244
7,0.12,0.001,0.03410306377935479,0.03112861782414058,34.72665445428146,0.024787048147238727,0.03797172299689717
8,0.14,0.001,0.033336818918992435,0.03096546282443503,23.73050104479576,0.01693825913261653,0.027092940484484036
9,0.16,0.001,0.032655409513655,0.030382028270737934,19.90628990188212,0.014208629480287022,0.04357793306310972
10,0.18,0.001,0.03227286180935175,0.029742358953167354,19.69574286273116,0.014058346083319885,0.049238634295761585
11,0.2,0.001,0.031120592840814684,0.02870789748302445,16.90093167622884,0.012063477284959915,0.06334652420547274
12,0.22,0.001,0.030431445604498855,0.0270466808062664,21.554799835584316,0.015385296099631917,0.10608824259705013
13,0.24,0.001,0.029023891333018595,0.025586043228531443,20.06844083700496,0.014324368905785125,0.05762301654451423
14,0.25,0.001,0.027855502619438935,0.024337564251924817,19.714526890314115,0.014071753669032202,0.06537270949532588
15,0.25,0.001,0.028332736510166184,0.024880112655330123,19.348505626180252,0.013810496521185048,0.11698141383628051
16,0.25,0.001,0.02818818447011256,0.02479898463390027,18.993077014157183,0.01355680015286023,0.07742944732308388
17,0.25,0.001,0.02621707532257132,0.022836265871283137,18.946055919803374,0.01352323763012375,0.07498233020305634
18,0.25,0.001,0.0255780323040009,0.021991990561112326,20.09617986548946,0.014344168355095974,0.06893339318533738
19,0.25,0.001,0.024927845863774275,0.021649938699431704,18.369392030652737,0.013111628858424509,0.07749982581784327
20,0.25,0.001,0.023848755198002558,0.020742613479102914,17.406817192687395,0.012424566161803994,0.05184420415510734
21,0.25,0.001,0.02311173360976327,0.01998662472962171,17.51311152720312,0.01250043649336411,0.07652659289952782
22,0.25,0.001,0.023473408320087204,0.019573333740350564,21.85601782101637,0.01560029823056129,0.08512610693772633
23,0.25,0.001,0.022130490213516395,0.01859358869507531,19.820797739902666,0.014147607237617892,0.05921276689817508
24,0.25,0.001,0.022108315882322035,0.01876095662140387,18.758601153338397,0.013389436940284365,0.0722013625005881
25,0.25,0.001,0.021658101680073125,0.018030062873373952,20.331529810647055,0.01451215546798505,0.05506728320486016
26,0.0,0.001,0.01780157549702517,0.01780157549702517,21.325201469555235,0.015221414325164337,0.04641618517537912
27,0.02,0.001,0.017182332632398746,0.016746313418270785,30.54315243919923,0.021800965338471968,0.03921462740335199
28,0.04,0.001,0.016868351061862928,0.01571130304330448,40.52561761064139,0.028926208144640534,0.027765663237207465
29,0.06,0.001,0.017247425871547203,0.015297766653258086,45.524544476068506,0.03249432153894968,0.030483799365659554
30,0.08,0.001,0.01770332513366178,0.015160030255105063,44.53944966574626,0.03179118462936921,0.027286442255394325
31,0.1,0.001,0.01821580762315912,0.01543933194453808,38.898419512178,0.02776475339912777,0.036660276560319796
32,0.12,0.001,0.018782350182039463,0.01604684350420276,31.937043217887656,0.022795890947814174,0.04211794750558005
33,0.14,0.001,0.01879583133954635,0.015791158288078234,30.06819551776492,0.021461952546584527,0.031123456545174122
34,0.16,0.001,0.019050984372898618,0.016153928589576868,25.367344134964675,0.018106598240517257,0.022872909644825593
35,0.18,0.001,0.0193507181767367,0.016242183933713517,24.194757592608358,0.017269634255965994,0.023274931849704847
36,0.2,0.001,0.019890329246835866,0.016540587605585366,23.464939585903235,0.0167487077700951,0.04404422651148505
37,0.22,0.001,0.02043885102433826,0.016664354818678857,24.036679035506516,0.01715680159565062,0.05201474235703548
38,0.24,0.001,0.02049705642139354,0.016743869041446705,21.909231725027222,0.01563828103142557,0.06401718614829911
39,0.25,0.001,0.02025251385354624,0.016849186356754912,19.072249124389412,0.013613311295067388,0.03727609064016077
40,0.25,0.001,0.02026586045037236,0.01674840870888842,19.711801004688642,0.014069807997636432,0.048952135930044785
41,0.25,0.001,0.020047176041101154,0.01672581448192485,18.61291025024176,0.013285446288538016,0.04791605845093727
42,0.25,0.001,0.02028826299916815,0.01676473090131032,19.745876126354432,0.014094129997397882,0.03526390468080839
43,0.25,0.001,0.020406256947252486,0.017045160356117504,18.835586599903962,0.013444387294720887,0.03510169270965788
44,0.25,0.001,0.020241610914628526,0.016831426470963463,19.110672264768365,0.013640736805687627,0.03681619682659706
45,0.25,0.001,0.020225383740710003,0.016948929642005797,18.361249191254437,0.013105816696113088,0.03732380043301317
46,0.25,0.001,0.019976746410741444,0.016510161959709595,19.426739125688638,0.013866337705702097,0.042731862204770245
47,0.25,0.001,0.02011531698708123,0.017034324650338634,17.265881655509013,0.01232396977552392,0.04482412379648951
48,0.25,0.001,0.01938203002415147,0.01628935510713832,17.331351966188667,0.012370700903774923,0.039628692178262606
49,0.25,0.001,0.01982848582241038,0.016814649032454276,16.88954123186554,0.012055347060574975,0.03618464142911964
50,0.25,0.001,0.019636394410642848,0.016388591716599742,18.200686988310043,0.012991211269314806,0.04065327377369007
51,0.0,0.001,0.015678467203592464,0.015678467203592464,20.70612705520719,0.014779533943759594,0.03659070158998171
52,0.02,0.001,0.015378479063365659,0.014950757472254845,29.961902477123118,0.0213860831385604,0.043582865968346596
53,0.04,0.001,0.01515859315357013,0.014035001128447218,39.353810130039385,0.028089800235574152,0.022751445675061807
54,0.06,0.001,0.015589135214250687,0.013704559753048025,44.00484111109208,0.03140959394082232,0.02869915481035908
55,0.08,0.001,0.016337952502144475,0.013829533301192186,43.92868693390785,0.03135523692641531,0.03539415531688266
56,0.1,0.001,0.016880441231918147,0.014222102998583406,37.24332065098932,0.02658338376230501,0.026141217909753323
57,0.12,0.001,0.017082259135200964,0.014268669443201367,32.848655024002404,0.023446577461814708,0.02301653495265378
58,0.14,0.001,0.017320274555108005,0.014493018642910275,28.292754952205783,0.020194685904500916,0.02263525588851836
59,0.16,0.001,0.017735431293936964,0.014731765239995125,26.300853794313547,0.018772914913856922,0.029443140762547653
60,0.18,0.001,0.017916855247978113,0.014769455196506564,24.497262742784287,0.017485555134035893,0.026452309245036706
61,0.2,0.001,0.018166868259393214,0.014966595030188212,22.417911663390043,0.016001364499207738,0.03508598005606069
62,0.22,0.001,0.018416267763423873,0.015108632778868689,21.063622658712823,0.015034705680737205,0.03126530980484353
63,0.24,0.001,0.01873736083144449,0.01533701157625801,19.849541952270744,0.01416812416293415,0.01662269602012303
64,0.25,0.001,0.018833472776511723,0.015542514088471033,18.44253290373447,0.013163835049061007,0.01857145068546136
65,0.25,0.001,0.018674521222274903,0.015481153915166041,17.895630351284094,0.012773469201487576,0.02388248561571042
66,0.25,0.001,0.01868519532997125,0.015332799464769183,18.78682813588639,0.01340958467943354,0.023949719448056486
67,0.25,0.001,0.01870336253776943,0.015273240602758602,19.222405521028456,0.013720489308371489,0.022175009672840435
68,0.25,0.001,0.018700368226765424,0.015532882412129443,17.75059241021586,0.012669944618283982,0.024104358835352793
69,0.25,0.001,0.018596706879243516,0.015322522230293841,18.348529369510405,0.013096737594225843,0.0390451205894351
70,0.25,0.001,0.018574739365201248,0.015232970691186178,18.72727316025405,0.01336707577462816,0.02802469167444441
71,0.25,0.001,0.01874842801173063,0.015357642588850117,19.001962055704514,0.01356314208115954,0.03376860533737474
72,0.25,0.001,0.018792604079894852,0.01549754725482322,18.46549798173514,0.013180226967691035,0.029394930228590965
73,0.25,0.001,0.01858741168085246,0.01518832134776413,19.048500841821145,0.013596360343912308,0.025979401026335027
74,0.25,0.001,0.018338375087631375,0.015013095129419255,18.634869902686997,0.013301120558663096,0.02408115038027366
75,0.25,0.001,0.01806030256154477,0.01497315253779205,17.300388124254013,0.012348599660423992,0.025011559534404013
76,0.0,0.001,0.014580340050233502,0.014580340050233502,19.8615298503556,0.01417668083537159,0.024230430523554485
77,0.02,0.001,0.014196185798150057,0.013748308654591354,31.373787669875234,0.022393852726534786,0.014638590833379162
78,0.04,0.001,0.014231548947781383,0.013094025346328872,39.8417708190561,0.028438094803037904,0.012499306350946426
79,0.06,0.001,0.014703665854550942,0.012845416852866698,43.3901179352699,0.030970819368500997,0.011964635509583686
80,0.08,0.001,0.01520499127570242,0.01292887150326319,39.86055071497986,0.02845149943967156,0.014949595141741965
81,0.1,0.001,0.015572292374385264,0.013159280826226893,33.80628779152913,0.024130112627786672,0.016482224584453635
82,0.12,0.001,0.015897330946014872,0.013435728467645063,28.739208853500397,0.02051335392826581,0.016958108792702358
83,0.14,0.001,0.016235995732727108,0.013682664348426153,25.55155236167982,0.01823808162860801,0.014442472770396206
84,0.16,0.001,0.016456879450273326,0.013702548325032751,24.117609749063412,0.01721456798648352,0.023597402394645743
85,0.18,0.001,0.0170286155830466,0.01403247038915492,23.31999764990853,0.01664525171299681,0.028704222291707993
86,0.2,0.001,0.017653935637913253,0.014569289399561479,21.60794619881851,0.015423230691519279,0.03673779095212618
87,0.22,0.001,0.017942581886741502,0.01483306442305707,19.801972870705885,0.014134170500146957,0.025491523866852123
88,0.24,0.001,0.017972919610682984,0.014474680534696485,20.420973593728583,0.014575998282461516,0.032303830712205835
89,0.25,0.001,0.018368905671594434,0.014913671386753142,19.363132562321297,0.013820936875318556,0.03309304484476646
90,0.25,0.001,0.018018496649423305,0.014662436089799767,18.807365350555955,0.013424243647791545,0.03369428558895985
91,0.25,0.001,0.017876654442174626,0.014584220277751863,18.45080169506705,0.013169737112824447,0.034295178949832916
92,0.25,0.001,0.018195181678377862,0.015036775641593551,17.699706536752206,0.012633623509459105,0.02316152247496777
93,0.25,0.001,0.017928358423387445,0.01435931712628631,20.00090749268411,0.014276165233893013,0.035509196730951466
94,0.25,0.001,0.01756461942840738,0.014189910572058508,18.91186968671416,0.013498836321708892,0.016142408156560525
95,0.25,0.001,0.017617590654619604,0.014527114277041097,17.31903003298516,0.012361905805128595,0.024081303427616756
96,0.25,0.001,0.017761023366573262,0.014588481479743768,17.778924834193774,0.012690167618981995,0.03379631218396955
97,0.25,0.001,0.017578120889835656,0.014305813385983366,18.338009869610822,0.013089229028987025,0.023899256562193234
98,0.25,0.001,0.017291757904472408,0.0142151161067943,17.241501486557038,0.012306567799112803,0.018348399808423385
99,0.25,0.001,0.01747234714295548,0.014395504958426569,17.242623371919926,0.012307368573818648,0.017431905027478933
100,0.25,0.001,0.01752337932288937,0.014480661275863763,17.051393505193104,0.01217087330848901,0.02069123855067624
101,0.25,0.001,0.017273278562007128,0.014097081366599653,17.79941071776154,0.01270478994843793,0.016020063828263018
102,0.25,0.001,0.016964068885013953,0.013775086271818037,17.871057586595562,0.012755929754886196,0.01789490681969457
103,0.25,0.001,0.01707255625534534,0.014095423129508835,16.68385338736789,0.011908532039520263,0.01802742062136531
104,0.25,0.001,0.017044175114867516,0.013968784572669172,17.234489794130678,0.012301563022220326,0.030583272274169657
105,0.25,0.001,0.017814395459074723,0.014431178134087234,18.959551820513333,0.013532870678453485,0.03307368606328964
106,0.25,0.001,0.017703421014500873,0.014228298622918757,19.474587524146365,0.013900490738148726,0.027112141613745026
107,0.25,0.001,0.017574547396039638,0.014174978978583339,19.051181049607187,0.0135982734115683,0.029735305863949988
108,0.25,0.001,0.01744213999116514,0.014298364189662198,17.61771991424858,0.012575103436294489,0.032686938531696796
109,0.25,0.001,0.017509542786848475,0.014317335876805044,17.88912606936449,0.012768826601973227,0.029467231076624658
110,0.25,0.001,0.017225201820798553,0.014152836105395944,17.217537491409868,0.012289462877523104,0.03338216840186053
111,0.25,0.001,0.017282591301214394,0.013991223083587533,18.444827959086695,0.013165473204201781,0.04210002001167999
112,0.25,0.001,0.017457118777097085,0.014172567480350853,18.406624665734363,0.013138204615085199,0.030990898091759946
113,0.25,0.001,0.017316846823279854,0.01408448394979795,18.1141637538144,0.012929453071958886,0.022498205200665526
114,0.25,0.001,0.0172094715537674,0.014192269674772814,16.908401154635246,0.012068808818440576,0.01910268318735891
115,0.25,0.001,0.017294635364448117,0.014010222113126667,18.405852014790735,0.013137653115482324,0.02484022018810113
116,0.25,0.001,0.017191329840243907,0.014064073072452294,17.52514596571002,0.012509026385231992,0.017331311893131997
117,0.25,0.001,0.016941468766935853,0.014012929371632564,16.411533881813927,0.011714156946333995,0.034992727244065866
118,0.25,0.001,0.01722911644008076,0.01401844774472725,17.992587976288377,0.012842675215052375,0.03794380111826791
119,0.25,0.001,0.0175542563134641,0.014493851597488042,17.15050846419604,0.012241619175015019,0.047388148597545095
120,0.25,0.001,0.017507564009586623,0.014220154678111363,18.42264392176102,0.01314963877356247,0.026761066272026963
121,0.25,0.001,0.017381885733462683,0.014121976054725592,18.268532650744937,0.013039637866341854,0.019100876421564154
122,0.25,0.001,0.01741105682610536,0.014109894444487016,18.499712774860463,0.013204648661570638,0.018762121597925823
123,0.25,0.001,0.017113855553402422,0.01400899155461184,17.399657719781292,0.012419455902770372,0.024176015829046566
124,0.25,0.001,0.01716144186159556,0.014077326326429496,17.2833823265388,0.012336461332290364,0.02098942817085319
125,0.25,0.001,0.017075713898180522,0.013974218101006502,17.380784203899303,0.012405984442469167,0.031153402705159452
126,0.25,0.001,0.017039115869278563,0.01389486100488355,17.620405699077406,0.01257702048470907,0.028544375052054722
127,0.25,0.001,0.01747397848969547,0.014205435686699363,18.316915181180423,0.01307417214930794,0.035365990776982575
128,0.25,0.001,0.017209667915779714,0.013851580050271041,18.81872492412842,0.013432351837350765,0.023339471262362268
129,0.25,0.001,0.01708233912909298,0.01403642416392502,17.069308662042747,0.012183660715233939,0.02042150254257851
130,0.25,0.001,0.016980468137570988,0.013887166933358064,17.334861859475893,0.012373206180924978,0.022983590244419046
131,0.25,0.001,0.017012474295950077,0.013977557268233328,17.00767633092334,0.012139669044199384,0.031105318520632055
132,0.25,0.001,0.01710009810534718,0.014053585782073453,17.072654218469214,0.012186048692697512,0.03396736002630658
133,0.25,0.001,0.01676802835327375,0.013632739973971603,17.570156617936103,0.012541153902880874,0.02621454352305995
134,0.25,0.001,0.016732416139301966,0.013801258162651611,16.42620849609375,0.011724631331972699,0.02572206262913015
135,0.25,0.001,0.01687862302519773,0.013958739646897447,16.36302529719838,0.011679532688935318,0.030725947477751307
136,0.25,0.001,0.016900915863104965,0.014002229217766669,16.244238252992982,0.011594745362593134,0.05080451381703218
137,0.25,0.001,0.016605775912254178,0.013640549571251544,16.61712649458798,0.011860903993281926,0.028689830357001886
138,0.25,0.001,0.01665546548086242,0.013780856209119044,16.109313050208733,0.011498439008000523,0.024662008819480736
139,0.25,0.001,0.016626134714507454,0.013679223534511311,16.514492758068656,0.011787646508257428,0.018143611442711618
140,0.25,0.001,0.016493826483686764,0.013570640072749373,16.38153630158125,0.011692745397274268,0.0203588114430507
141,0.25,0.001,0.01651086188402557,0.013667773873841146,15.932665105451617,0.011372351966774887,0.018313822233014636
142,0.25,0.001,0.016567815538154475,0.013669554106019742,16.24185795440079,0.011593046362884218,0.032330437718580164
143,0.25,0.001,0.01693088077299195,0.013984333513192034,16.51245074801975,0.011786188970749286,0.02691678164733781
144,0.25,0.001,0.01664107365871382,0.013533851204414582,17.412872946517975,0.012428888612789419,0.023582775352729693
145,0.25,0.001,0.01634388702211731,0.013453838014230859,16.195834622745625,0.011560196019090382,0.01947856404715114
146,0.25,0.001,0.01636973442782087,0.013590415228034785,15.575306533605268,0.011117278039689699,0.032187704307337604
147,0.25,0.001,0.016475213252254862,0.013602044781920506,16.101237685592086,0.011492675007560375,0.019870135312279064
148,0.25,0.001,0.0165015779776938,0.013485598321604682,16.90154840421026,0.012063917490514104,0.018348392926984362
149,0.25,0.001,0.016304521358501144,0.01344821049485058,16.006765635157652,0.011425243137157497,0.015562908982651101
150,0.25,0.001,0.016440460278668946,0.013672564928483429,15.511285675896538,0.011071581496000384,0.027055241219285462
151,0.25,0.001,0.016298273610964156,0.013311527939930878,16.737721441317255,0.011946981756828876,0.024000539133946102
152,0.25,0.001,0.016411052758988815,0.013501740458328821,16.303785640129103,0.011637248850912992,0.017215203235132828
153,0.25,0.001,0.016642588020082685,0.013682917795247503,16.58599138166937,0.011838680500834668,0.024295976488954492
154,0.25,0.001,0.01671741802615729,0.013899912654656416,15.789301796033833,0.011270022695241851,0.02148965471941564
155,0.25,0.001,0.01645763519403414,0.013551863375143466,16.283945481447216,0.01162308742430208,0.01736467880093389
156,0.25,0.001,0.01625839733386133,0.013403465573768519,15.999039079246,0.011419728107955746,0.018500283567441836
157,0.25,0.001,0.016196173508642477,0.013281785467272846,16.332231376603332,0.011657552731337138,0.022753427374280162
158,0.25,0.001,0.016413326514975603,0.013554941321819381,16.01839082096985,0.011433540914325373,0.026439138170745637
159,0.25,0.001,0.01646410928745019,0.013446689637824458,16.90961927373042,0.012069678282462828,0.016673519069121942
160,0.25,0.001,0.016346840040856285,0.013502851045975501,15.937712682385659,0.01137595480541446,0.019436218465367954
161,0.25,0.001,0.01640375931048312,0.013527565869932983,16.118188962137026,0.01150477441979802,0.019890079378253885
162,0.25,0.001,0.016355694721854105,0.013522667729533613,15.876283798069052,0.011332108349799466,0.014469980779621337
163,0.25,0.001,0.016300170693263324,0.013401211152256232,16.245768087881583,0.011595837321828397,0.015530609215299288
164,0.25,0.001,0.016140483096459803,0.01320335694695832,16.459655025549104,0.011748504657779518,0.015277936537232664
165,0.25,0.001,0.015853219845315868,0.01314772576180815,15.16159059104399,0.01082197758104496,0.016899516340345144
166,0.25,0.001,0.016123547819651824,0.013283068757162921,15.918045159204198,0.011361916601858814,0.02681554388254881
167,0.25,0.001,0.016085498906367006,0.013240556116442814,15.943059382150512,0.011379771150714141,0.02723467991583877
168,0.25,0.001,0.016049472232064193,0.013201741134969348,15.958686044109262,0.011390925085017318,0.01610082036091222
169,0.25,0.001,0.016040368346936753,0.013075564390676529,16.614760214822333,0.011859214999873186,0.016417026933696535
170,0.25,0.001,0.01597330535872754,0.013159123941035996,15.770672747963353,0.011256725730166561,0.017177982876698177
171,0.25,0.001,0.015998890892135933,0.01314891894033894,15.971241971437927,0.01139988720302493,0.01670541086544593
172,0.25,0.001,0.016033230291327305,0.013227808220243012,15.721586472806875,0.011221689131196913,0.0178105387215813
173,0.25,0.001,0.016035894095374828,0.013113880190511776,16.37496717724419,0.011688056514806703,0.019775204670925934
174,0.25,0.001,0.015959556630247982,0.013153177858502776,15.726946787992183,0.011225515194855235,0.014384448890470795
175,0.25,0.001,0.015924816504556533,0.013062356304936474,16.041229270355046,0.011449842448504673,0.015295612315336863
176,0.25,0.001,0.01598651331738654,0.013180087797968244,15.727209005671867,0.011225702359508828,0.011366944811824296
177,0.25,0.001,0.015909009712946114,0.013172288078517011,15.336588550961737,0.01094688690289917,0.02311130069817106
178,0.25,0.001,0.016124069814154512,0.013345796698395737,15.569442557544969,0.011113092475049942,0.028045451165073447
179,0.25,0.001,0.015932618718427292,0.013027407207161362,16.280805743925754,0.01162084635540739,0.018874715496268537
180,0.25,0.001,0.01584429643525366,0.013003933394135322,15.917394522802638,0.01136145219329239,0.017546026087883446
181,0.25,0.001,0.01599079052432936,0.012980813556305381,16.867911779392532,0.012039908479223791,0.010585896619078185
182,0.25,0.001,0.01609250414049068,0.012997832261824702,17.342541254054733,0.012378687547505164,0.013512538176857762
183,0.25,0.001,0.01599061026348647,0.013142818977174005,15.959022823132967,0.011391165469759434,0.010480235744681623
184,0.25,0.001,0.015879068018952076,0.012974823068021333,16.27538950959144,0.011616980378009595,0.015160801303055551
185,0.25,0.001,0.015960489528627657,0.01286390947348658,17.353235954894426,0.012386321166948199,0.012199677319990264
186,0.25,0.001,0.015947428308645185,0.012931122960156052,16.90337532816807,0.012065221504759508,0.019406572139511507
187,0.25,0.001,0.016110294215294006,0.013096244396645482,16.890735514679847,0.012056199510835008,0.028867821416093245
188,0.25,0.001,0.016159577881572424,0.013208822005920358,16.53603672562984,0.011803024072540929,0.029472766547567315
189,0.25,0.001,0.0161066081331313,0.013128334610971674,16.69024393851297,0.011913093460751586,0.026365900929603312
190,0.25,0.001,0.016196194742071002,0.01326669879678862,16.41689777560169,0.011717985564312413,0.02575739400668277
191,0.25,0.001,0.01616512822826006,0.013173210991956803,16.76670270031191,0.011967667880308288,0.01971593126654625
192,0.25,0.001,0.016132174455515357,0.013179592966132926,16.54626764516849,0.011810326656080294,0.01599047038083275
193,0.25,0.001,0.015996114261898613,0.013131516101474186,16.053207505283765,0.011458392223614394,0.0136344232596457
194,0.25,0.001,0.015947376891651117,0.013151112363853475,15.670267238951565,0.011185058700179561,0.01764497471352418
195,0.25,0.001,0.01588430959680508,0.012979465131929279,16.278749205680388,0.011619378448023118,0.014392848230070539
196,0.25,0.001,0.01596246902298974,0.013042223716034876,16.365055006149916,0.011680981446216928,0.019634261209931638
197,0.25,0.001,0.015697726890894985,0.012802027038808688,16.22750183388039,0.01158279931040713,0.024056617894934282
198,0.25,0.001,0.015763466683948017,0.013072771911616446,15.078653906288668,0.01076277937636593,0.026560336196174223
199,0.25,0.001,0.015664671326226773,0.012839530612801367,15.832088931494521,0.011300563120267323,0.018349821886254683
200,0.25,0.001,0.015569496391519003,0.01283092086873295,15.346975798727708,0.01095430106975568,0.013671603364249071
201,0.25,0.001,0.0154910574578199,0.012770173586469296,15.247833575421607,0.010883535742627843,0.01275334507226944
202,0.25,0.001,0.015492393651552368,0.012783177748874382,15.18244602062084,0.010836863683526652,0.011560069397091866
203,0.25,0.001,0.015569048951839262,0.012801571745519866,15.508943145038092,0.011069909453988645,0.015530782803479169
204,0.25,0.001,0.015688288448556357,0.012950606448085685,15.341969711273967,0.010950727845306187,0.014814153003195921
205,0.25,0.001,0.01569647113946911,0.013016571848132225,15.018156427156622,0.010719597735300944,0.025228833572732076
206,0.25,0.001,0.015862152699315755,0.012998320381964973,16.048916502538017,0.0114553294093776,0.033586062490940094
207,0.25,0.001,0.015880214123029923,0.012936282783136731,16.49779183869241,0.011775725794926774,0.0169536083833211
208,0.25,0.001,0.015867642217749625,0.012967532406221588,16.252215383577997,0.011600439245951461,0.026822207909491327
209,0.25,0.001,0.015846569786396526,0.012965575666629781,16.145089140180026,0.011523975117901517,0.03418896906077862
210,0.25,0.001,0.01633923453574757,0.013548570410956648,15.638882640741954,0.011162657131150574,0.027061835966176458
211,0.25,0.001,0.01580565760627418,0.012980919670800136,15.829833441542835,0.011298953205954915,0.023230383896993265
212,0.25,0.001,0.015669439768611106,0.013082087036770483,14.499522634881746,0.01034940944673929,0.021395895940562088
213,0.25,0.001,0.015689378030612686,0.012875652467182041,15.768119124176442,0.011254903015115234,0.0205754602017502
214,0.25,0.001,0.015418862422917321,0.012777511008650239,14.802134595651609,0.010565406563634267,0.016722738846308656
215,0.25,0.001,0.015570150241691467,0.012759697544579094,15.74977792587429,0.01124181151026002,0.019234938133094046
216,0.25,0.001,0.0156109894918129,0.01281840313538241,15.649654472083377,0.011170345804484923,0.016656165321667988
217,0.25,0.001,0.015539361182128245,0.01285209051799937,15.059464936135573,0.01074908275241654,0.01648800354450941
218,0.25,0.001,0.01569192320812806,0.012957240474822461,15.325161396643804,0.010938730475834263,0.025480577825672097
219,0.25,0.001,0.01578630807629803,0.012871540167875457,16.334359234071847,0.011659071544662275,0.03480089890460173
220,0.25,0.001,0.015636183579268974,0.012870670000334464,15.497938107793559,0.011062054323906894,0.024451332373751536
221,0.25,0.001,0.01583963267316363,0.012978856656954535,16.031788794385527,0.011443104064515009,0.017618801755209763
222,0.25,0.001,0.015769970953667837,0.012909969852304134,16.02744665015743,0.011440004746721934,0.020110699244671397
223,0.25,0.001,0.015718067431600934,0.01296867802557599,15.407578425565426,0.010997557762716222,0.014727207676817974
224,0.25,0.001,0.015596630523747403,0.012907553422419067,15.069588335866351,0.01075630859091103,0.01721360260206792
225,0.25,0.001,0.015746213512070346,0.012901138525172981,15.943801759046886,0.011380301041432467,0.012765680491510365
226,0.25,0.001,0.01574852018386532,0.012898691964370233,15.970437503465202,0.01139931299319429,0.022962404001090262
227,0.25,0.001,0.015771928713538958,0.012878368073097678,16.215514302021347,0.011574242899372839,0.0342494762606091
228,0.25,0.001,0.01595082411408192,0.013293510252068846,14.89158887844569,0.01062925687255224,0.041861242718166776
229,0.25,0.001,0.015713799218365788,0.012763695992877957,16.53237926193148,0.011800413463191635,0.02971865888684988
230,0.25,0.001,0.015780983979270937,0.012932343464744138,15.9637820186206,0.011394562468679943,0.017059123350514308
231,0.25,0.001,0.01571171866551942,0.012898714312481137,15.764076476441025,0.011252017470693093,0.016106287793566782
232,0.25,0.001,0.015717813420176623,0.012944856792920746,15.539650342617815,0.011091827510790731,0.01301010035806232
233,0.25,0.001,0.015464072280924687,0.01271385756515504,15.412201860959534,0.011000857859357269,0.014952992089092731
234,0.25,0.001,0.01559128917637508,0.01279130576225633,15.691107142041302,0.011199933720229338,0.01559311073894302
235,0.25,0.001,0.015657767700666805,0.012837807217623756,15.803059345565112,0.011279842502187803,0.019428963048590556
236,0.25,0.001,0.015556312142553617,0.012811259172319437,15.383277394850584,0.01098021227326951,0.017509517415116232
237,0.25,0.001,0.015687690419644174,0.012829651028556897,16.016453049568636,0.011432157779849133,0.03289081228690015
238,0.25,0.001,0.0159428061601537,0.013063438441858538,16.13597660176238,0.011517470807824682,0.028485878888103697
239,0.25,0.001,0.016016286745173657,0.012902696041452024,17.448563739337885,0.012454363839641602,0.018946267664432526
240,0.25,0.001,0.0160802868439963,0.012958249235144484,17.49590072111312,0.012488151835198516,0.017501736473706033
241,0.25,0.001,0.015945176134652097,0.012957003016613032,16.74572054173282,0.011952691321722213,0.020141710992902517
242,0.25,0.001,0.01621028279874757,0.013357816921223906,15.985217817577935,0.01140986282482365,0.025365566317405965
243,0.25,0.001,0.016210840299696487,0.01321239509487245,16.803288229260062,0.011993781748222743,0.017368104153623182
244,0.25,0.001,0.015765830039338992,0.01282931806984381,16.45621341013769,0.011746048115729971,0.015724478237744834
245,0.25,0.001,0.015744916862330705,0.012987666449293523,15.451631055240743,0.011029001466981258,0.020148706001540024
246,0.25,0.001,0.015898010979422873,0.013093986469511574,15.713754241229498,0.01121609867325446,0.025308135689960584
247,0.25,0.001,0.01571454005370363,0.012817505049949501,16.23498344607288,0.011588139504691564,0.018898459668788645
248,0.25,0.001,0.01547308177569224,0.012778667958188243,15.09949559217308,0.010777655668931534,0.014138544857915904
249,0.25,0.001,0.015400021349680819,0.01268671780868232,15.205352340757731,0.010853213662211085,0.011360238254484203
250,0.25,0.001,0.015242580763748747,0.012452215682461016,15.63720461081343,0.011161459393871113,0.018947901462929115
251,0.25,0.001,0.015270553846965176,0.01258240744732974,15.064371475234598,0.010752584921652104,0.01756419950268335
252,0.25,0.001,0.015296561080693733,0.01259211232961967,15.155731725413897,0.010817795664106993,0.014318215815971294
253,0.25,0.001,0.015241113812689893,0.012500745520271637,15.357024373134442,0.010961473499739072,0.014143234325779809
254,0.25,0.001,0.015338660586356651,0.01262941628287875,15.1826059386047,0.01083697782912541,0.015632838890370395
255,0.25,0.001,0.015411397572933581,0.012569427223364163,15.926402763084129,0.011367882057875894,0.0208410220220685
256,0.25,0.001,0.01541077466155121,0.012671725780904641,15.349630580775687,0.010956195989133253,0.021017678288949862
257,0.25,0.001,0.015496758667871965,0.012700813250583514,15.668477223862913,0.011183781030594513,0.022327894293185737
258,0.25,0.001,0.015459768648384607,0.012684839757678569,15.550702375742892,0.01109971618539821,0.01986724728097518
259,0.25,0.001,0.015345264914251327,0.012520919381468385,15.827632368656626,0.011297382133230997,0.020591111129356757
260,0.25,0.001,0.015285264884010974,0.012428813528625356,16.007553855345726,0.01142580574971144,0.020657268508027
261,0.25,0.001,0.015317583983114124,0.012729251230785488,14.505016005294829,0.010353330482009157,0.025507812802162435
262,0.25,0.001,0.01605181982214281,0.01301634916127977,17.01077783223946,0.012141882821013176,0.02111470212952958
263,0.25,0.001,0.015657817772417155,0.012665120276602505,16.771077291774937,0.011970790358154845,0.015525595388478704
264,0.25,0.001,0.015430040889897077,0.012670007380012416,15.46722737065068,0.011040133740650021,0.019908104971465137
265,0.25,0.001,0.015597436468155063,0.012745824137786094,15.980435332359626,0.011406449202255265,0.015384025095651547
266,0.25,0.001,0.015396558499911376,0.01266988180123894,15.280296080293711,0.010906706695427346,0.015260797200931443
267,0.25,0.001,0.015320378308480362,0.012595635675416704,15.269459246659604,0.010898971625024699,0.014586086022771068
268,0.25,0.001,0.015497875260098404,0.01279233459230752,15.161849938405652,0.010822162696934798,0.01788944223274787
269,0.25,0.001,0.015907093383313736,0.012950795432135143,16.56709510587577,0.01182519279505765,0.028404494954480067
270,0.25,0.001,0.015572227510400334,0.012836587756915747,15.330525151005498,0.010942558994293717,0.013975865569793515
271,0.25,0.001,0.01533588583328803,0.012648608304966844,15.059503012465687,0.01074910993038236,0.016190641404440004
272,0.25,0.001,0.015948007605810145,0.013223839869276124,15.266237699497513,0.010896672162382236,0.016074000236888725
273,0.25,0.001,0.01569879397778948,0.012785665768962971,16.32517054113496,0.01165251287732688,0.016114478413429525
274,0.25,0.001,0.01542618987468193,0.012707891972957009,15.233341518201327,0.010873191661813938,0.01854399296765526
275,0.25,0.001,0.01562630474480272,0.012724098353692082,16.26396463628401,0.011608825579074953,0.021070331386807892
276,0.25,0.001,0.015436181402810601,0.012689452130913909,15.392670079281455,0.010986916544811888,0.02100478754275375
277,0.25,0.001,0.015442827923430337,0.012673521859182833,15.519191927844785,0.011077224787897777,0.013707472632328669
278,0.25,0.001,0.015463108240425238,0.0127479734759756,15.215615627593698,0.010860539348746394,0.011071338421768613
279,0.25,0.001,0.015349993707347102,0.012616939430595258,15.316036031027751,0.01093221701001267,0.016102585682852402
280,0.25,0.001,0.015445640771767782,0.012737424448713458,15.176843200743082,0.010832864525869438,0.014586326407475604
281,0.25,0.001,0.015451300981841241,0.012726843304438316,15.267860940557707,0.010897830792689299,0.01854314494671093
282,0.25,0.001,0.015408708973557164,0.012664842393910095,15.376628987273278,0.010975466800337815,0.015143196874608597
283,0.25,0.001,0.015575657869175396,0.012755380518603743,15.804835763823451,0.011281110466683406,0.012565405728916327
284,0.25,0.001,0.015441002382317714,0.012670084172369618,15.528224707114534,0.011083672167819083,0.014426062400970194
285,0.25,0.001,0.015458224599974023,0.012652744085221147,15.721912900839168,0.011221922127651083,0.018910076779623825
286,0.25,0.001,0.015511831844163802,0.012713471776125028,15.68200965792115,0.011193440155546859,0.014604123309254646
287,0.25,0.001,0.01545587745014048,0.012583478141510696,16.096926177919027,0.01148959755740116,0.01916990563687351
288,0.25,0.001,0.015309828656705616,0.012365948374348658,16.497504959329525,0.01177552102735869,0.016814938332471583
289,0.25,0.001,0.015277538375954414,0.01245486095264467,15.818284705833152,0.011290709997025805,0.012742475813461674
290,0.25,0.001,0.015094292566151182,0.012379163774511037,15.21558186417667,0.010860515249233883,0.011680131157239279
291,0.25,0.001,0.015186524973568628,0.012566147399358234,14.684596487420809,0.010481510697659392,0.02275204596420129
292,0.25,0.001,0.015223796099976258,0.012627669965910051,14.548690093191047,0.01038450399228483,0.02502841471383969
293,0.25,0.001,0.01533759393153774,0.012583064628841236,15.436381854973806,0.0110181169557272,0.02551902923732996
294,0.25,0.001,0.015611638200649043,0.012667859183736944,16.49693791350426,0.011775116283728952,0.03232350614335802
295,0.25,0.001,0.015552965415819579,0.012768342303108518,15.60502900761238,0.011138493224562727,0.022457528445455763
296,0.25,0.001,0.015469942122087842,0.012619290339304806,15.975052690413031,0.011402607202293384,0.01604087899128596
297,0.25,0.001,0.015414623362075748,0.012650982620190923,15.487443576314528,0.011054563580524288,0.023039584048092365
298,0.25,0.001,0.015465700082103295,0.01265282527730595,15.763351875439024,0.011251500267979319,0.027645338274952438
299,0.25,0.001,0.01528057538619225,0.012633150643133513,14.83616864611531,0.010589699247762534,0.02163696972032388
300,0.25,0.001,0.01528493352379599,0.01256727741315932,15.22974494279709,0.010870624513060022,0.016090461725576058
301,0.25,0.001,0.015290632313861716,0.01245431994137011,15.894694579275031,0.011345249521252699,0.018149379330376785
302,0.25,0.001,0.015175030746480874,0.012458190064129309,15.225174678928903,0.01086736236897138,0.01939961381463541
303,0.25,0.001,0.015374983406714645,0.012676958827988097,15.119730583176047,0.010792098917327657,0.028093259678118758
304,0.25,0.001,0.015183100003030216,0.012340492258469263,15.929973118951214,0.011370430491756754,0.017547499854117632
305,0.25,0.001,0.015350574456866955,0.012620677837473839,15.298342095016272,0.010919587505364934,0.012113822261906333
306,0.25,0.001,0.015226031012731454,0.012406599357520861,15.800094429744847,0.011277726216805744,0.015319607737991545
307,0.25,0.001,0.015250661459408309,0.012469913290366966,15.5833114304273,0.01112299174191813,0.022411732623974483
308,0.25,0.001,0.015117062097796572,0.012371879374176322,15.384003496077094,0.010980730546807347,0.029331471046639815
309,0.25,0.001,0.015410177816308265,0.012570495981374505,15.913577910752325,0.011358727987689025,0.0364828867216905
310,0.25,0.001,0.01523089129296195,0.012471471521023073,15.463787071421365,0.011037678138059503,0.02215156450660692
311,0.25,0.001,0.015095492888452598,0.012392856273255502,15.145575958385802,0.010810546722616561,0.013160475219289461
312,0.25,0.001,0.015170747241764157,0.01245140537645007,15.239190984655309,0.010877366869846758,0.012992101876686016
313,0.25,0.001,0.015245654277111354,0.012496669607901434,15.40531053970664,0.010995939000504383,0.018825225428574614
314,0.25,0.001,0.015283266078775157,0.012488055400564888,15.664361161795275,0.011180843084793201,0.014876549908270439
315,0.25,0.001,0.01526784747258032,0.012569556176139597,15.121225520648919,0.010793165967629493,0.015231815270251699
316,0.25,0.001,0.015319308382232055,0.012516594573593977,15.706407744052582,0.01121085492080841,0.01812260163327058
317,0.25,0.001,0.015093703639873286,0.01229234237666832,15.698827782569573,0.011205444527173142,0.015857893870108657
318,0.25,0.001,0.01522016316492539,0.012508105787995034,15.198371225397954,0.010848230710491045,0.01725112067328559
319,0.25,0.001,0.01500917959152258,0.012239322407610468,15.522280620552642,0.011079429422236005,0.010289613778392473
320,0.25,0.001,0.015064242722550098,0.012283769007735899,15.581775137323152,0.01112189517296442,0.020321179284817643
321,0.25,0.001,0.015013096621713908,0.012314653027708303,15.122078893709833,0.010793775084732215,0.019574885670509603
322,0.25,0.001,0.01507366362588796,0.01249600091284653,14.445222884358486,0.010310651594831181,0.0219019323380457
323,0.25,0.001,0.015007740463952573,0.012284740655851818,15.259691156606692,0.010891999398006204,0.021204545059137873
324,0.25,0.001,0.015117857863011881,0.012526801159173309,14.52028244977806,0.01036422730176878,0.015565685979608033
325,0.25,0.001,0.015082486004697533,0.01248283186822142,14.568461182057044,0.010398616118527512,0.015889054578211572
326,0.25,0.001,0.015021917648017987,0.012361574852675722,14.908560886717678,0.010641371082596487,0.01483977037585444
327,0.25,0.001,0.015125746147064438,0.012520341108213623,14.600689934475845,0.01042162022446527,0.026307386708342366
328,0.25,0.001,0.015052802533049274,0.012417041585866005,14.770804109629134,0.010543043618578968,0.01701521697557635
329,0.25,0.001,0.01489052762500724,0.0122147578887685,14.995013817011962,0.01070307909850961,0.013080565362340875
330,0.25,0.001,0.014891268453083308,0.012320307259525936,14.407668111849482,0.010283845904246596,0.012714163607193364
331,0.25,0.001,0.015021284568335926,0.012373699863817086,14.837064930802432,0.010590338994148773,0.011349560899866952
332,0.25,0.001,0.01519001281473488,0.012275685685129425,16.331890972501817,0.01165730975910194,0.016177047716660634
333,0.25,0.001,0.015185496742613831,0.012295697875625906,16.194433046828003,0.011559195608014277,0.02016672460983197
334,0.25,0.001,0.015093450922860272,0.012416998607053859,14.998838573403757,0.010705809117347436,0.017932126350286934
335,0.25,0.001,0.014980728554650125,0.012316608630832409,14.929729301794696,0.010656480586577227,0.02222414692449901
336,0.25,0.001,0.015590559095725215,0.012559423194090757,16.98648566530462,0.012124543658318786,0.03168339075313674
337,0.25,0.001,0.01554257740025167,0.01265883034360223,16.160519497668766,0.011534988934809969,0.033289300484789744
338,0.25,0.001,0.015412756316291194,0.012631232133153354,15.587662470038639,0.011126097409021155,0.03686631677879228
339,0.25,0.001,0.015099944862705923,0.012509298291180799,14.517983351069816,0.010362586260578028,0.026939089513487287
340,0.25,0.001,0.015191592297881668,0.012344147156303128,15.957082413790518,0.01138978045238438,0.020886150602665212
341,0.25,0.001,0.015258931358786006,0.012322294752732587,16.456910997803448,0.01174654603697605,0.016164871864020824
342,0.25,0.001,0.015212142088434152,0.012415548281827633,15.672111868161208,0.011186375352006572,0.015965562779456377
343,0.25,0.001,0.015168710428400812,0.01257279848944955,14.547490145960282,0.010383647498900986,0.018710296963238053
344,0.25,0.001,0.01508289768739983,0.012350432758108798,15.312733739440205,0.010929859913947326,0.01566813053149316
345,0.25,0.001,0.015016231213861506,0.01221768834154334,15.68303378144203,0.011194171150208444,0.015828896417386003
346,0.25,0.001,0.01513624855373454,0.012381530350498986,15.437442558318319,0.011018874060184381,0.014779322884149022
347,0.25,0.001,0.015205910814232528,0.012458563555344271,15.396132485908375,0.010989387927129462,0.01566376816481352
348,0.25,0.001,0.015091178423160465,0.012347684779202613,15.37453791597898,0.010973974244096345,0.022571958187553618
349,0.25,0.001,0.015232164864782353,0.01259291166036624,14.790373779876887,0.010557011977071297,0.02354571647528145
350,0.25,0.001,0.015175101570567192,0.012370703135549907,15.71584929267333,0.011217594070430641,0.019125019407106772
351,0.25,0.001,0.01519077959639287,0.012279890510335303,16.312622211597585,0.01164355618243939,0.018885162348548572
352,0.25,0.001,0.015526614770961318,0.012639117162115509,16.181535672490824,0.01154998977336961,0.02178502817534738
353,0.25,0.001,0.015940811165534034,0.012914578124452345,16.959009144506027,0.012104931580660975,0.029940195174680814
354,0.25,0.001,0.015678218611267343,0.01281981366608459,16.018500188637894,0.011433618978328262,0.027383030702670414
355,0.25,0.001,0.0153718702240936,0.012543032221772053,15.852808281227395,0.011315352092239397,0.024795057045088872
356,0.25,0.001,0.015211714682174705,0.01241729638610057,15.659919556586134,0.011177672774151416,0.02068728032625384
357,0.25,0.001,0.015522743090551499,0.012770350564990127,15.424407687568293,0.011009570083917411,0.028298554424610402
358,0.25,0.001,0.015391347486867078,0.012660943033431474,15.301186299463462,0.01092161762988113,0.02250568920539485
359,0.25,0.001,0.015226756028293634,0.012361389179995418,16.05751608500936,0.011461467583875347,0.024499337499340374
360,0.25,0.001,0.015197035186646278,0.01254652289866123,14.853470666599089,0.010602049012561805,0.025127112451526854
361,0.25,0.001,0.015171432197747524,0.012370489038468917,15.696485924674288,0.011203772965506273,0.024804454400307603
362,0.25,0.001,0.015189759030241019,0.012420081578877702,15.521271753961813,0.011078709317603007,0.019724228315883212
363,0.25,0.001,0.015140756970129864,0.012388867108227565,15.421590842233996,0.011007559487675943,0.016109302536480956
364,0.25,0.001,0.01507211207152575,0.012333956986418825,15.344622011537906,0.010952620993246186,0.019358129964934453
365,0.25,0.001,0.015140539213114547,0.01233328195909659,15.731870154888309,0.011229029375366387,0.013866907451301813
366,0.25,0.001,0.015032152156935565,0.012310484348892526,15.252227671662268,0.01088667214251411,0.016368543004824057
367,0.25,0.001,0.01505318012807453,0.012415285702417178,14.782760668451559,0.010551577921806965,0.030139750904507108
368,0.25,0.001,0.01524857296218068,0.01246796782558773,15.582511238187378,0.011122420584002412,0.0232039379576842
369,0.25,0.001,0.015108049411479144,0.012455677466565057,14.863893428973519,0.010609488528889021,0.024537444218165345
370,0.25,0.001,0.015056496471544223,0.012367165600245575,15.071010686268352,0.010757323830312885,0.023137600988977484
371,0.25,0.001,0.014998820924416156,0.01232011262218506,15.011481454265512,0.01071483330068916,0.01354929396054811
372,0.25,0.001,0.014980218004703987,0.012183297900247005,15.673940922549361,0.011187680886901757,0.013103201571438048
373,0.25,0.001,0.01508540145646178,0.012429151818388618,14.885623651173612,0.010624999037240266,0.020072119413978524
374,0.25,0.001,0.015020036456296784,0.012340660680804336,15.015222486231991,0.0107175035590521,0.021738264192309644
375,0.25,0.001,0.015152174959478439,0.012278224429620347,16.10561958669919,0.011495802702854526,0.02175229736086395
376,0.25,0.001,0.015169097760557896,0.012409446261765083,15.465087407281292,0.011038606286424906,0.018670828650808997
377,0.25,0.001,0.01516443452494651,0.012329058915006312,15.889445016723394,0.011341502510152316,0.018770423924757376
378,0.25,0.001,0.015149103114508514,0.012425495754586093,15.263094866717303,0.010894428884166526,0.017726226709783077
379,0.25,0.001,0.015259225233721222,0.012555626792865888,15.15096558093095,0.010814393705161279,0.014118815410054393
380,0.25,0.001,0.015120002798750618,0.012308937600917287,15.753209270231904,0.01124426072107916,0.017251761578437354
381,0.25,0.001,0.015265853367528023,0.012495350818826906,15.525897377415708,0.011082010976028343,0.015475404759248098
382,0.25,0.001,0.015289188233761528,0.012356116548979376,16.43693461427447,0.011732287376355796,0.01749043373597993
383,0.25,0.001,0.015488112559560214,0.01266910824162221,15.797699844628049,0.011276017019720235,0.02362441938991348
384,0.25,0.001,0.016896872198459697,0.013569321167486452,18.64759632021363,0.013310204368460836,0.02762957424339321
385,0.25,0.001,0.016153339706869618,0.012709475236765126,19.29941635429278,0.013775457783221114,0.017056404819919005
386,0.25,0.001,0.015913856391873045,0.012744400388838952,17.761631748132537,0.012677824231357986,0.02609991768582
387,0.25,0.001,0.01556404201099631,0.012674294762516695,16.194144481339187,0.011558989636930183,0.016048503936164908
388,0.25,0.001,0.015242616894707578,0.012449931444102794,15.650209066231117,0.01117074166040765,0.02051340716166629
389,0.25,0.001,0.015159248192858162,0.012319965607561099,15.911340484842222,0.011357130967053692,0.015654589256478682
390,0.25,0.001,0.015192183754887963,0.012447691839333573,15.380132634272584,0.010977967619038248,0.023636922757658694
391,0.25,0.001,0.015178592566974446,0.01241194593155535,15.504288195634214,0.011066586863407718,0.02291334265222152
392,0.25,0.001,0.015231544932542954,0.012404940294403198,15.840291530765288,0.011306417937733968,0.01648150348208017
393,0.25,0.001,0.015258451575162814,0.012439839609083493,15.795501891167772,0.011274448173567288,0.011768035331947936
394,0.25,0.001,0.015224110545703077,0.012380221500978252,15.937153907314844,0.01137555596524971,0.01925139232642121
395,0.25,0.001,0.01518869520025237,0.012325261033287174,16.04668494925397,0.011453736580481063,0.022273346833470795
396,0.25,0.001,0.015283217602799742,0.012520511431318162,15.48220569766753,0.011050824909113155,0.028100113694866497
397,0.25,0.001,0.015253953701048567,0.012308864450339976,16.50428022418106,0.011780357047952219,0.027636480207244556
398,0.25,0.001,0.015179371764451324,0.012329649915428538,15.969840263530292,0.011398886697737538,0.017419958901074197
399,0.25,0.001,0.015130756967510397,0.012216621051319161,16.330819302832175,0.01165654482714645,0.016563265429188807
400,0.25,0.001,0.015293482189987138,0.012239647822247611,17.11368800046151,0.012215337616317995,0.01632996482981576
401,0.25,0.001,0.015212638477920091,0.012491009573926005,15.252009635315536,0.010886516513430075,0.0201029599023362
402,0.25,0.001,0.015171450112545119,0.012340417053717502,15.865108956602814,0.011324132017560894,0.015958254742953513
403,0.25,0.001,0.015029846688779706,0.012234377899873443,15.665807270399544,0.011181875282226654,0.022050107104910746
404,0.25,0.001,0.014828024548251495,0.01211797168794257,15.187136049623843,0.010840211313079117,0.011005971425523361
405,0.25,0.001,0.014797514752933272,0.012215723984350122,14.468355126780608,0.010327162831392296,0.015769377092106476
406,0.25,0.001,0.014996478584600471,0.01216542475346701,15.865226089373435,0.011324215624106663,0.018050857509175938
407,0.25,0.001,0.015038895113920142,0.012166532942004952,16.096718526025963,0.011489449340489625,0.027252832531101175
408,0.25,0.001,0.014993443798281063,0.01226822033499097,15.272152255617852,0.010900893829848574,0.019582231632537313
409,0.25,0.001,0.01499136869539643,0.01228323702466244,15.176370505468654,0.01083252712738662,0.01266556005511019
410,0.25,0.001,0.014943093137695776,0.012239502299918301,15.150922797576726,0.010814363167435209,0.012015628835393323
411,0.25,0.001,0.0149566694662033,0.012262604138532519,15.097542084216142,0.010776261302081471,0.0185116668128305
412,0.25,0.001,0.014811281848255886,0.012072390424664955,15.348747749774777,0.010955565845663652,0.022145988419651985
413,0.25,0.001,0.015412085370086205,0.012687674983174016,15.267595982691,0.010897641672156318,0.03392018046643999
414,0.25,0.001,0.015058360993862152,0.012210847942438157,15.957462385151587,0.011390051666774866,0.02661604392859671
415,0.25,0.001,0.014932212944471116,0.012370428173906274,14.35624228211639,0.010247139387663376,0.017547470310495958
416,0.25,0.001,0.014948041013080707,0.012263791022012574,15.042536841498482,0.010736999886865441,0.02224691677838564
417,0.25,0.001,0.014999032367318579,0.01225574992117826,15.373354880200957,0.010973129821699469,0.01789372952447997
418,0.25,0.001,0.015102418117791588,0.012274328424989248,15.848614590442203,0.011312358736932336,0.016350101886524096
419,0.25,0.001,0.015057319499276302,0.012369769255922959,15.061031490273875,0.010750200920966364,0.015623108276890384
420,0.25,0.001,0.015067696086626652,0.012405277415020772,14.920194361874467,0.010649674776498549,0.017961680837389495
421,0.25,0.001,0.014967708125870246,0.012283295965762574,15.043444932785183,0.010737648060517618,0.016830539899981685
422,0.25,0.001,0.01497261419703505,0.012230320742851228,15.367812995092677,0.010969174157810619,0.01933288263777892
423,0.25,0.001,0.014971611821628221,0.012365170523023222,14.606497439259906,0.010425765481270454,0.019552194099459384
424,0.25,0.001,0.014851744502753774,0.012131723577109461,15.242997245714214,0.01088008368716218,0.011953758644974895
425,0.25,0.001,0.014863821309328545,0.012232578608260053,14.745483944987694,0.010524970695922694,0.015901134659846623
426,0.25,0.001,0.01495406846379676,0.012239918381440477,15.210097470943458,0.010856600621658429,0.022293286191092596
427,0.25,0.001,0.015203349366711479,0.012435358982591311,15.511818826314766,0.011071962045906329,0.029199310681886144
428,0.25,0.001,0.015025351741160566,0.012127142190773469,16.241566254613925,0.011592838154613793,0.02724480866971943
429,0.25,0.001,0.014884743748730153,0.012279331628741518,14.60072935487327,0.010421648361793911,0.018212781908611458
430,0.25,0.001,0.014792255784945878,0.012148291918269376,14.816771747076023,0.010575854209190595,0.01968425615794129
431,0.25,0.001,0.014823595301536789,0.012214567170970388,14.62099285200093,0.01043611195717411,0.024861142142779298
432,0.25,0.001,0.015045595498751943,0.01229812418243196,15.396830025239762,0.010989885813875633,0.016281057718313403
433,0.25,0.001,0.014842597858482867,0.01215526396608376,15.05981824365508,0.0107493349348002,0.024381608184840944
434,0.25,0.001,0.015186884186319556,0.012539705987765543,14.834786338880512,0.01058871259020736,0.016859836876392365
435,0.25,0.001,0.014917711046529792,0.012057460724697476,16.02884256723564,0.011441001118654988,0.016429055689109698
436,0.25,0.001,0.014950083045844446,0.012193919851156006,15.445537410981474,0.011024651970721966,0.02315221695850293
437,0.25,0.001,0.015067267500328855,0.012372819281076072,15.099688074509768,0.010777793058179705,0.02026292805870374
438,0.25,0.001,0.01511658042611202,0.012326086687966165,15.637927800823606,0.011161975589452967,0.014877554857068591
439,0.25,0.001,0.01503266943491574,0.01213093945070317,16.26129477577135,0.01160691989705307,0.014396538078371022
440,0.25,0.001,0.014842604521160934,0.012142509597827467,15.131331572058604,0.010800379423310923,0.016753234279652435
441,0.25,0.001,0.014765355378374836,0.012142568632422948,14.698097768118043,0.010491147586094249,0.016185133148812585
442,0.25,0.001,0.015042299464649973,0.01218570092761958,16.00837961646781,0.01142639515807838,0.020852308202948835
443,0.25,0.001,0.014999969413986913,0.01218803573697515,15.758077628896018,0.011247735638041411,0.02022736447138919
444,0.25,0.001,0.014823263423920374,0.012184467403577608,14.787812108417237,0.010555183517785323,0.020833174905015364
445,0.25,0.001,0.014811179700505432,0.012006140180607463,15.719442586917394,0.011220158877171588,0.02446403530322843
446,0.25,0.001,0.014786660703912116,0.012104781068585537,15.029252699244092,0.010727517986612485,0.03779029075263275
447,0.25,0.001,0.016045309439824337,0.012598255757227918,19.317289289210507,0.01378821505296967,0.047323733361230955
448,0.25,0.001,0.015538841627581774,0.012429565387336831,17.424384356939303,0.012437105179828196,0.031224490764240425
449,0.25,0.001,0.015309679174893781,0.012536724670799214,15.539637225413182,0.011091818148046526,0.01941748843010929
450,0.25,0.001,0.015190761614423863,0.01251934448503989,14.970621551454183,0.010685668487833108,0.018033802561048005
451,0.25,0.001,0.015669494939942574,0.01274576560788394,16.38457940010532,0.011694917487584097,0.022910582936472364
452,0.25,0.001,0.015170691571185696,0.012507861937608635,14.922498509665447,0.010651319421602745,0.02686772019498878
453,0.25,0.001,0.01498837287575878,0.012237642403350703,15.415093330844336,0.011002921720802524,0.02519645510862271
454,0.25,0.001,0.01516715947676588,0.012606782021752576,14.348355023716858,0.010241509652902825,0.029181117398871317
455,0.25,0.001,0.014941453062302885,0.012189142223534703,15.4239513293112,0.011009244346403426,0.02342143665171332
456,0.25,0.001,0.01491861523366869,0.012238515991187467,15.01927721198307,0.010720397724470428,0.02722638338390324
457,0.25,0.001,0.015116396550720895,0.012220698405151595,16.227492278547082,0.011582792490040744,0.02708911606007152
458,0.25,0.001,0.014970086576674882,0.012188801708037567,15.586321077848735,0.011125139955637927,0.020550305127269693
459,0.25,0.001,0.015011923376754013,0.012433124582698936,14.451588093421147,0.010315194927495466,0.015417023820595609
460,0.25,0.001,0.014962271318841747,0.012199362709058074,15.483339973360474,0.011051634527737669,0.019356802468084626
461,0.25,0.001,0.015041578381338664,0.012355652868341052,15.05192746242352,0.010743702685527138,0.015878434913853805
462,0.25,0.001,0.01478073101846563,0.01210622593295737,14.987926168980886,0.010698020106338963,0.017665802190701168
463,0.25,0.001,0.014722905435815425,0.012105742894243775,14.666579601592721,0.010468650679223927,0.014521951942394177
464,0.25,0.001,0.014626167336983523,0.012005463503954704,14.686423392788477,0.0104828146986356,0.014783475651509233
465,0.25,0.001,0.014826702153705946,0.012070397078468088,15.446334046927111,0.011025220590240623,0.019638743355042405
466,0.25,0.001,0.014870217589200357,0.012069560896031574,15.69487982744362,0.01120262657205112,0.022219129889789555
467,0.25,0.001,0.01492999688328242,0.011985619518847784,16.50029150087234,0.011777509993484897,0.015206775783250729
468,0.25,0.001,0.014865394418452799,0.012064239853488364,15.697670657732333,0.01120461859938068,0.015273736789822578
469,0.25,0.001,0.014848145854171024,0.012172224990420814,14.995861782200388,0.010703684355603418,0.015487835846013494
470,0.25,0.001,0.014810222771098624,0.012152902313578896,14.8916239952251,0.01062928193806217,0.016219449333018728
471,0.25,0.001,0.014742849759583235,0.012061475927725463,15.026418362444604,0.010725494905385156,0.020585425922440156
472,0.25,0.001,0.014654537739112364,0.011998019531572538,14.887127755445812,0.010626072630582307,0.018143583916955523
473,0.25,0.001,0.01489597822214544,0.0120781687674699,15.791004017314949,0.01127123769972516,0.02066981564793322
474,0.25,0.001,0.014927988548783066,0.012088880024588945,15.910364727295399,0.011356434494857529,0.015683161612186167
475,0.25,0.001,0.01469599655293814,0.01203353477906995,14.920436438993637,0.01064984756530595,0.015745153702381585
476,0.25,0.001,0.014597911645474955,0.012022422866253128,14.433039587143568,0.010301955451208829,0.013774228075312244
477,0.25,0.001,0.014650220547023921,0.01201729106918326,14.754936277750176,0.010531717543005121,0.010610044571674533
478,0.25,0.001,0.014768462152479917,0.011915100057614826,15.990240606415806,0.011413447970318206,0.015182442342241606
479,0.25,0.001,0.014533535550125161,0.011860006203835005,14.982459598117405,0.010694118199941045,0.01739088839126958
480,0.25,0.001,0.014634717128749712,0.012005724314215356,14.732875641791212,0.010515971193284235,0.018492846335801814
481,0.25,0.001,0.014974026147414136,0.012217197366617983,15.449267556560434,0.011027314458644136,0.01309121348377731
482,0.25,0.001,0.014890280913481702,0.01225330178184729,14.77763109039842,0.01054791655274691,0.01805024314671755
483,0.25,0.001,0.014843272753277717,0.012212044085588371,14.745405571734928,0.010524914754985673,0.014340308287905322
484,0.25,0.001,0.01469642950356239,0.012017948948732825,15.010206493950262,0.010713923264775348,0.011971965742607912
485,0.25,0.001,0.014687715328823172,0.01200286047551309,15.045926674067626,0.010739419467571468,0.013545502132425705
486,0.25,0.001,0.014628263408241913,0.011940885102830203,15.060068297804447,0.010749513417419306,0.021323439458178148
487,0.25,0.001,0.015213125067641395,0.012182160003789742,16.985527324862414,0.012123859618031701,0.016987482292784586
488,0.25,0.001,0.015116087485968951,0.01202259334730126,17.33594221074214,0.012373977309594674,0.014259548495627113
489,0.25,0.001,0.015062775515513695,0.012293259469795878,15.520367486667448,0.011078063873424302,0.01849951631286078
490,0.25,0.001,0.014783162817896342,0.011991950591615824,15.64195338838514,0.011164848956734575,0.020085889225204785
491,0.25,0.001,0.014891810983884172,0.011930925770686326,16.592799136513158,0.011843539712000827,0.01438236753973696
492,0.25,0.001,0.01475124127189783,0.011952445168796106,15.684455053615755,0.01119518561999697,0.013798542268988159
493,0.25,0.001,0.014725694458270863,0.011985810732262002,15.35430877715291,0.010959535172842906,0.012652277687771453
494,0.25,0.001,0.01490580784719706,0.012206924487391876,15.124542595117877,0.01079553361535894,0.010480806748900149
495,0.25,0.001,0.014849502037753138,0.012161160387156884,15.065468306662279,0.010753367813463439,0.017674413561407063
496,0.25,0.001,0.014911919469140892,0.01205058827575071,16.034899702313815,0.011445324555541625,0.020486390528579552
497,0.25,0.001,0.014782498494429662,0.011981328903946147,15.697754162793968,0.011204678203279063,0.015726719258560076
498,0.25,0.001,0.014817302327668458,0.011983312464901927,15.881678822909647,0.01133595918837234,0.015301398622492949
499,0.25,0.001,0.014794932936134859,0.012062708396994696,15.3113867943747,0.01092889849705546,0.012669825564242072
500,0.25,0.001,0.014837364795060417,0.012128685788046314,15.179437871564899,0.010834716539303997,0.01616954006668594
