epoch,beta,learning_rate,train_loss,train_reconstruction_loss,train_kl_unnormalized,train_kl_normalized,mean_unclipped_gradient_norm
1,0.0,0.001,0.09386099114062939,0.09386099114062939,1.1247038841247559,0.0008027864983046081,0.132642462849617
2,0.02,0.001,0.08651366893281327,0.08627144057065883,16.96811566454299,0.012111431594962875,0.14853715151548386
3,0.04,0.001,0.07512037218251127,0.07325683565849954,65.27039661813289,0.04658843441693997,0.17281093448400497
4,0.06,0.001,0.06674050381208987,0.05977050222932024,162.74957567580202,0.11616672068222843,0.13824811205267906
5,0.08,0.001,0.06351936719519027,0.04979789130231167,240.29735743745843,0.171518456415031,0.12110549956560135
6,0.1,0.001,0.06136029562417497,0.045805602710931856,217.92125653206034,0.15554693542616727,0.11770858988165855
7,0.12,0.001,0.05725817160403475,0.0440839650307564,153.8088690575133,0.10978505999822506,0.10195377469062805
8,0.14,0.001,0.05257758403078039,0.04327258150628273,93.11648851759891,0.06646430301042035,0.06342466734349728
9,0.16,0.001,0.04922816149414854,0.043470124139430674,50.41881041831159,0.035987730491300204,0.05687056481838226
10,0.18,0.001,0.04940237564609406,0.04575721547007561,28.37150407344737,0.020250895127371427,0.08538961410522461
11,0.2,0.001,0.04843928435064377,0.04522856309058818,22.491098201021234,0.016053603284097953,0.09501957148313522
12,0.22,0.001,0.04661627296120562,0.042681971921565684,25.054342432225003,0.017883185176463243,0.048367612063884735
13,0.24,0.001,0.04636410647567282,0.041463393638742733,28.607909263448512,0.020419635448571387,0.07839156873524189
14,0.25,0.001,0.04558964961386742,0.04115793315020013,24.83533384444866,0.01772686213022745,0.06483294628560543
15,0.25,0.001,0.0447596236270793,0.04193669438679168,15.819686808484667,0.011291710784071854,0.08972308225929737
16,0.25,0.001,0.0434779610405577,0.041499081919802,11.089642504428296,0.007915519275109419,0.059817440807819366
17,0.25,0.001,0.04208186498664795,0.04019573576589848,10.56986260921397,0.007544512925920036,0.021920688450336456
18,0.25,0.001,0.04187742533518913,0.03997298781859114,10.672465872257314,0.0076177486597125725,0.03926214296370745
19,0.25,0.001,0.04107688731969671,0.039363857675740056,9.599811411918477,0.006852113784381496,0.05809285491704941
20,0.25,0.001,0.04136978715975234,0.040080629130627245,7.224447909821856,0.005156636623712959,0.05919238552451134
21,0.25,0.001,0.04043464830264132,0.03929101897681013,6.4089029291842845,0.00457452029206587,0.07299764826893806
22,0.25,0.001,0.04004899348984373,0.03870348061652894,7.540254694350223,0.005382051887473392,0.03832549601793289
23,0.25,0.001,0.03891537195824562,0.03721777904540934,9.513308058393763,0.006790369777582986,0.06473345123231411
24,0.25,0.001,0.03900579307624634,0.0373173270453798,9.462160739492862,0.006753862055312536,0.029081166721880436
25,0.25,0.001,0.039024379342160326,0.03747755479305349,8.668408048913834,0.006187300534556627,0.059396278113126755
26,0.0,0.001,0.036774205796896144,0.036774205796896144,9.610751760766862,0.006859922741446725,0.09089964255690575
27,0.02,0.001,0.03686116826026998,0.03667643499818254,12.940499488343583,0.009236616337147454,0.06717339903116226
28,0.04,0.001,0.03686915908722167,0.036442844157523295,14.931652474910655,0.010657853301149647,0.11494509130716324
29,0.06,0.001,0.03658239353210368,0.03599853544159139,13.633082491286258,0.009730965375650434,0.06944118812680244
30,0.08,0.001,0.03682938178486012,0.036049948727830926,13.649818136336956,0.009742910875329733,0.09662256389856339
31,0.1,0.001,0.03632644215162764,0.03516232634478427,16.30925486950164,0.011641152654890536,0.04635886941105127
32,0.12,0.001,0.036645843231297555,0.03504923231741215,18.640440311837704,0.01330509658232527,0.11126828193664551
33,0.14,0.001,0.036263408733809246,0.03449843657460618,17.66233570017713,0.01260694910790659,0.052285557612776756
34,0.16,0.001,0.036461408150956984,0.03447411700766137,17.40122547555477,0.012420574929018395,0.03552472312003374
35,0.18,0.001,0.03544543263442973,0.03310884337158913,18.186449862541036,0.012981049152420439,0.019990433007478714
36,0.2,0.001,0.03521818366456539,0.03258198872208595,18.466547458729845,0.013180976059050567,0.051962412893772125
37,0.22,0.001,0.03458131643685889,0.031912131750203195,16.997855531408433,0.012132659194438568,0.027766549959778786
38,0.24,0.001,0.03397157502935288,0.03129509844361467,15.623933792114258,0.011151987003650434,0.04411869216710329
39,0.25,0.001,0.03333714778753037,0.030518857405540792,15.79369753979622,0.01127316027108938,0.07368770241737366
40,0.25,0.001,0.0318610466065559,0.028964225163168097,16.233788023603722,0.011587286240973393,0.0433844830840826
41,0.25,0.001,0.030916248230223962,0.027936648260405723,16.697676902121685,0.011918398930850596,0.045939112082123756
42,0.25,0.001,0.029861389163960802,0.026469755878156805,19.006712730894698,0.013566532998497286,0.03350754827260971
43,0.25,0.001,0.02888886884171912,0.02513584427218488,21.031951904296875,0.015012099860311831,0.028422768227756023
44,0.25,0.001,0.028004336071775316,0.023947982315687424,22.731805192663316,0.016225414127525564,0.016305388417094946
45,0.25,0.001,0.027571361274161238,0.02322756015556924,24.34266346058947,0.017375205896209472,0.07967754080891609
46,0.25,0.001,0.02680170940274888,0.021981068906631877,27.01486664629997,0.019282560061598838,0.09947574138641357
47,0.25,0.001,0.026051880395475853,0.021389262711114073,26.12931068907393,0.018650471583921434,0.03875340335071087
48,0.25,0.001,0.026435579470497496,0.02217767653154566,23.861287543114194,0.017031611379810276,0.103935856372118
49,0.25,0.001,0.025254070085096867,0.020896786863499498,24.418215041464947,0.017429132791909312,0.029634842183440924
50,0.25,0.001,0.02498649369845999,0.020591369176164588,24.630275442245157,0.017580496389896616,0.08686625957489014
51,0.0,0.001,0.020185551625934054,0.020185551625934054,23.005234292212954,0.0164205812221363,0.09654606133699417
52,0.02,0.001,0.019983095136728694,0.019619763650475665,25.451350759952625,0.01816656014272136,0.041416541673243046
53,0.04,0.001,0.01998800332558916,0.019118882240133084,30.44099864553898,0.021728050425081354,0.0721038393676281
54,0.06,0.001,0.019770110144894174,0.01830012727766595,34.32408612839719,0.024499704588434826,0.04874929692596197
55,0.08,0.001,0.020134038073902436,0.018011976905325626,37.16259643879343,0.02652576476716162,0.07893690466880798
56,0.1,0.001,0.020299244989105996,0.01738700770000194,40.80044726107983,0.029122374918686533,0.03865823894739151
57,0.12,0.001,0.0209403515575414,0.017165688678939292,44.069189031073385,0.03145552393367122,0.08204101026058197
58,0.14,0.001,0.021085890881875728,0.016777171059808832,43.11796959410322,0.030776566448324928,0.024139086715877056
59,0.16,0.001,0.02153235935467355,0.016980947252917798,39.85330346290102,0.02844632652598217,0.05764158256351948
60,0.18,0.001,0.021426879543256252,0.016686990064509372,36.89214406114944,0.02633272238483186,0.02770021092146635
61,0.2,0.001,0.021570345545385745,0.016745864631647758,33.79548981849184,0.0241224052951405,0.047237575985491276
62,0.22,0.001,0.021782682138554593,0.01720723311634774,29.13729310542979,0.020797496863261808,0.01875816285610199
63,0.24,0.001,0.02190837965525211,0.017561757065197255,25.373410975679437,0.01811092860505313,0.03560697287321091
64,0.25,0.001,0.021991117679058238,0.017783426699486186,23.579899240047375,0.016830763197749732,0.030592837370932102
65,0.25,0.001,0.02193823940259345,0.017846367936185065,22.93084611283972,0.01636748473436097,0.049430400133132935
66,0.25,0.001,0.021564303084890893,0.017638418982003596,22.0006495130823,0.015703532843028053,0.03529801964759827
67,0.25,0.001,0.021297659051228077,0.01729196785612309,22.447896632742374,0.01602276704692532,0.016020888462662697
68,0.25,0.001,0.020918006751131504,0.01677627813942889,23.210244117899144,0.016566912289721018,0.0321907764300704
69,0.25,0.001,0.020937133303031007,0.016838464172596625,22.96893996380745,0.01639467520614379,0.04057150520384312
70,0.25,0.001,0.021015600321140696,0.016993338162911698,22.540758944572286,0.01608904992474824,0.056887367740273476
71,0.25,0.001,0.020683783324474982,0.01658793736962562,22.95312122588462,0.016383384172651404,0.03336680633947253
72,0.25,0.001,0.02062763103303757,0.016545403788381433,22.87680414889721,0.01632891088429494,0.05045210011303425
73,0.25,0.001,0.019966709486981656,0.016052874835564734,21.933125150964614,0.015655335582415855,0.07314619980752468
74,0.25,0.001,0.020040883226914608,0.01602777711888577,22.489450089474943,0.016052426901837932,0.03143058251589537
75,0.25,0.001,0.01974259301068935,0.015655822140422274,22.90226510230531,0.016347084298576238,0.027383025735616684
76,0.0,0.001,0.015440092045576014,0.015440092045576014,22.781959046708778,0.016261212738550163,0.04499935358762741
77,0.02,0.001,0.015284563632721597,0.014922535423427186,25.360076579641788,0.01810141083486209,0.040077757090330124
78,0.04,0.001,0.015114726241123169,0.01423635555708662,30.76492033613489,0.021959257913015624,0.03797606937587261
79,0.06,0.001,0.01531907488056954,0.013778877385119175,35.96359780494203,0.025669948468909375,0.04972889460623264
80,0.08,0.001,0.015312870092531468,0.01303089966878612,39.96301569837205,0.02852463647278519,0.0633978359401226
81,0.1,0.001,0.015600934862456423,0.01246534274058773,43.929645294838764,0.03135592098132674,0.027098290622234344
82,0.12,0.001,0.01606423942808141,0.012065616991133132,46.6839162136646,0.033321853114678515,0.07453473843634129
83,0.14,0.001,0.01624350329028799,0.01173332171078692,45.13403612502078,0.03221558609922968,0.020982256159186363
84,0.16,0.001,0.016527094541394963,0.011759542146737271,41.745890191260806,0.02979720927284854,0.05514896288514137
85,0.18,0.001,0.01668706603665301,0.011731436377034542,38.571313573959024,0.027531273072062115,0.03294740803539753
86,0.2,0.001,0.016723866871696837,0.011852978233327257,34.120575803391475,0.02435444382825944,0.0321199600584805
87,0.22,0.001,0.01709792675807121,0.012529541203316221,29.092309708290912,0.020765388799636627,0.03331035189330578
88,0.24,0.001,0.016929215097681007,0.012457789179492505,26.101948596061543,0.018630941182056777,0.02446992788463831
89,0.25,0.001,0.01728064222063156,0.012908639901495994,24.500702797098363,0.01748801056181182,0.04176671337336302
90,0.25,0.001,0.01684307338709527,0.012734021278137856,23.02712387734271,0.016436205479902006,0.020416302606463432
91,0.25,0.001,0.01691508063293518,0.013024587778651968,21.80232685170275,0.015561974911993398,0.03899758122861385
92,0.25,0.001,0.016759246746276286,0.012870111363999386,21.794716003093313,0.015556542471872457,0.038016071543097496
93,0.25,0.001,0.016756398008858905,0.012832164704958175,21.99140633928015,0.015696935288565417,0.04396003857254982
94,0.25,0.001,0.016789748630625136,0.012837073309941495,22.15079116821289,0.015810700334199065,0.0217283652164042
95,0.25,0.001,0.016616110789014937,0.012585522171030653,22.587416385082488,0.01612235288014453,0.031589201651513577
96,0.25,0.001,0.01648572844235187,0.012215440617279803,23.930692753893265,0.017081151144820318,0.029922939371317625
97,0.25,0.001,0.01625756435888879,0.011917873384787682,24.31963186061129,0.01735876649579678,0.04991057701408863
98,0.25,0.001,0.01652229002657089,0.012348244363006125,23.391356245000313,0.01669618575660265,0.04662678297609091
99,0.25,0.001,0.01625170812327811,0.012138252859895534,23.05180472515999,0.016453822073633113,0.049435416236519814
100,0.25,0.001,0.01664289154429385,0.012522167347847148,23.092541917841483,0.016482899298958947,0.027802968863397837
101,0.25,0.001,0.01621994193881116,0.012202412365598882,22.514237383578685,0.016070119474360232,0.027690001763403416
102,0.25,0.001,0.016118093770235143,0.012090367165968773,22.571377977411796,0.016110905051685793,0.05552314966917038
103,0.25,0.001,0.015892116630331,0.01185719221037753,22.61171357175137,0.016139695625803977,0.014806431718170643
104,0.25,0.001,0.015745829037846402,0.011800576556236186,22.109191164057304,0.01578100725485889,0.019392082002013922
105,0.25,0.001,0.016232321831457158,0.01239005953786855,21.532037491494037,0.015369048887576044,0.028788825497031212
106,0.25,0.001,0.01590457998533198,0.011990024272273195,21.937169217048808,0.015658222139221134,0.030746448785066605
107,0.25,0.001,0.015628875887140313,0.011518364435339228,23.035307092869534,0.016442046461719866,0.05572598986327648
108,0.25,0.001,0.01614952856238852,0.012064294414000308,22.893651556461414,0.01634093615736004,0.02155514480546117
109,0.25,0.001,0.016017585556874884,0.01202879645960762,22.353176969162963,0.01595515843623338,0.046672845259308815
110,0.25,0.001,0.01598388901812599,0.01191934445833272,22.777705943330805,0.01625817697596774,0.050805218517780304
111,0.25,0.001,0.01572369284769322,0.011603946817365098,23.087057235393118,0.016478984464948693,0.04570637084543705
112,0.25,0.001,0.0153700968924355,0.011384105389105512,22.33749596616055,0.015943965714604248,0.012633820530027151
113,0.25,0.001,0.015604214544625992,0.011701570209512051,21.870422809681994,0.015610580163941465,0.039519425481557846
114,0.25,0.001,0.015336466794635387,0.011437098515477586,21.852060317993164,0.015597473460380559,0.028985788114368916
115,0.25,0.001,0.01567644344523866,0.011746104350908006,22.025622022912856,0.015721357618067706,0.04403365030884743
116,0.25,0.001,0.015451639276394185,0.011568448070357455,21.76140825799171,0.015532768206989086,0.022871590219438076
117,0.25,0.001,0.015985293789429866,0.012055459650273019,22.02279098997725,0.015719336895058708,0.037167344242334366
118,0.25,0.001,0.015360124468644883,0.01131349419580495,22.677315285865298,0.01618652054665617,0.030178430024534464
119,0.25,0.001,0.015270837325047939,0.011264895049339913,22.449300279008582,0.0160237689357663,0.01871474366635084
120,0.25,0.001,0.015744147604291745,0.011864625076030163,21.740840749537693,0.015518087615658595,0.02473912201821804
121,0.25,0.001,0.015348224127863316,0.011426249261390655,21.978748970843377,0.015687900764342167,0.02801767084747553
122,0.25,0.001,0.015162498313695826,0.011101193468462913,22.75955204253501,0.016245219159553896,0.03217373741790652
123,0.25,0.001,0.015264622867107391,0.011200439383057838,22.775683626215507,0.016256733494800505,0.02116851881146431
124,0.25,0.001,0.015127193896060294,0.011172752767959808,22.160688806087414,0.015817765029327205,0.029144693166017532
125,0.25,0.001,0.014795071009467257,0.010826261813177708,22.241208177931764,0.01587523781436957,0.022785192355513573
126,0.25,0.001,0.015095240079817619,0.011165886681447638,22.020095094721366,0.015717412630065215,0.03710615821182728
127,0.25,0.001,0.014626899179308973,0.010857923649885554,21.12133922982723,0.015075902376750343,0.03066519950516522
128,0.25,0.001,0.01509549100189767,0.0113838006286545,20.800311271180497,0.014846760364868306,0.02890358492732048
129,0.25,0.001,0.014973913259962772,0.01114697784106148,21.446147391136655,0.015307742606093258,0.034323327941820025
130,0.25,0.001,0.015024964757105137,0.011126489735188637,21.847052635030543,0.01559389909709532,0.04539807979017496
131,0.25,0.001,0.01528538315695651,0.011469121903498122,21.386328392840447,0.01526504524828012,0.03516659326851368
132,0.25,0.001,0.015038651097169582,0.011221834398964618,21.389441023481652,0.015267266968937652,0.06446435861289501
133,0.25,0.001,0.01449835988039032,0.010543726880024088,22.1617631709322,0.01581853188503369,0.049455082044005394
134,0.25,0.001,0.014975797622761827,0.011033523847606587,22.092503446213744,0.015769095964463773,0.043697405606508255
135,0.25,0.001,0.015013374229694934,0.011268844570409744,20.98434598395165,0.01497811990289197,0.04426409490406513
136,0.25,0.001,0.01508982221972435,0.011420604594527407,20.562296157187603,0.014676870918763458,0.05679464526474476
137,0.25,0.001,0.014899421522909023,0.011050993655907346,21.566589801869494,0.015393711493125977,0.037711549550294876
138,0.25,0.001,0.014799064540482581,0.010815065017247454,22.32633456778019,0.015935998977716054,0.06375618651509285
139,0.25,0.001,0.015014894782228673,0.011100407154794703,21.936786976266415,0.015657949304972458,0.035682347137480974
140,0.25,0.001,0.014732121668280439,0.010801521684736647,22.027084959314223,0.015722401826776748,0.0525108901783824
141,0.25,0.001,0.014453095562280492,0.010504987051195286,22.125198364257812,0.01579243280817831,0.03721338137984276
142,0.25,0.001,0.014453995814348789,0.010547914225211803,21.889681349409386,0.01562432644497458,0.028162949718534946
143,0.25,0.001,0.014461869809855806,0.01064501268828803,21.38966836320593,0.015267429238548132,0.018730529583990574
144,0.25,0.001,0.014624831920608561,0.01086303423297532,21.081112476105385,0.015047189490439247,0.032764941453933716
145,0.25,0.001,0.014747357729109043,0.010953623880731298,21.260084192803564,0.015174935184013964,0.02567265834659338
146,0.25,0.001,0.01427260306762888,0.010463124596850669,21.348318871031417,0.015237914968616286,0.015786811243742704
147,0.25,0.001,0.014424044440718407,0.010643008482107457,21.188924911174368,0.015124143405549156,0.016505510080605745
148,0.25,0.001,0.014566907064711794,0.010815845227780495,21.020946989668175,0.015004244817750303,0.019732340704649687
149,0.25,0.001,0.014670229338585063,0.010848249923041526,21.418374163039186,0.015287918745923758,0.022271927446126938
150,0.25,0.001,0.014545884181527382,0.010602102119554865,22.100953934040476,0.015775127718801196,0.014791831839829683
151,0.25,0.001,0.014421247025119497,0.010430318204329369,22.3651626262259,0.01596371350908344,0.012398310005664825
152,0.25,0.001,0.014338450545960285,0.010343489276760437,22.387764017632666,0.015979845836996905,0.010825470089912415
153,0.25,0.001,0.014028617398852998,0.010072118186570228,22.17222469410998,0.015825999067887207,0.018731326796114445
154,0.25,0.001,0.014091593114302513,0.010286774407041835,21.322206862429354,0.01521927684684465,0.016833622008562088
155,0.25,0.001,0.014047791824695911,0.010382736280084924,20.538972854614258,0.014660223308075844,0.011120963376015425
156,0.25,0.001,0.014155739779643555,0.010603091838036446,19.909040856868664,0.01421059304558791,0.01609200332313776
157,0.25,0.001,0.014116700817929937,0.010569178836142763,19.8803119253605,0.014190087027380798,0.016581119503825903
158,0.25,0.001,0.014143161079350939,0.010494977850070659,20.44441957676664,0.014592733459505097,0.02767577674239874
159,0.25,0.001,0.014017481317228459,0.010283588709190805,20.924732451743267,0.014935569201815322,0.010311036370694637
160,0.25,0.001,0.013839167483309482,0.01009166827227207,21.000985896333734,0.014989997070902024,0.03251071274280548
161,0.25,0.001,0.014176140499717377,0.010395693652173306,21.18562446756566,0.015121787628526524,0.02108631655573845
162,0.25,0.001,0.014091869043384461,0.01028711691578018,21.321830871257376,0.015219008473417114,0.033540381118655205
163,0.25,0.001,0.013887049768991928,0.01013552086388177,21.023570040439036,0.015006117088107807,0.01401421194896102
164,0.25,0.001,0.014103189051309799,0.010419122716213794,20.645509314029773,0.014736266462548019,0.01329555781558156
165,0.25,0.001,0.014197241455475067,0.010553641482553583,20.418733028655357,0.014574399021167278,0.03472215123474598
166,0.25,0.001,0.013865969797715228,0.010119719133573644,20.99398750954486,0.014985001791252575,0.02812173403799534
167,0.25,0.001,0.013977862775642821,0.010162372657276214,21.382007680040726,0.015261961227723574,0.040048873052001
168,0.25,0.001,0.01402391885664869,0.010238988443892053,21.21075013343324,0.015139721722650422,0.0410132366232574
169,0.25,0.001,0.014017559905001458,0.010189118696020004,21.454583472393928,0.015313764077368971,0.03713126201182604
170,0.25,0.001,0.013983361125784986,0.010076474755051289,21.894192553581075,0.01562754643367671,0.015292690601199865
171,0.25,0.001,0.014072822505964878,0.010169575743852778,21.87379508322858,0.015612987211440813,0.060860756784677505
172,0.25,0.001,0.013754703203572872,0.010015843019999087,20.95257365449946,0.014955441580656289,0.018104857532307506
173,0.25,0.001,0.013822378907748994,0.01015348409480871,20.560486854390895,0.014675579482077726,0.03816678002476692
174,0.25,0.001,0.013926632325858512,0.01021936862788936,20.77550401078894,0.014829053540891462,0.02444773120805621
175,0.25,0.001,0.014065854390092353,0.010252246950218018,21.37145456354669,0.015254428667770655,0.05990460515022278
176,0.25,0.001,0.013753483864538212,0.009941545295271468,21.36210340134641,0.015247754033794724,0.016572671942412853
177,0.25,0.001,0.013663570773094259,0.009908580459020239,21.042966639741937,0.015019961912735144,0.025809348560869694
178,0.25,0.001,0.014221040512177539,0.010528617756480866,20.692336508568296,0.014769690584274301,0.057456210255622864
179,0.25,0.001,0.013872374582322353,0.010118868974770637,21.034644228346803,0.01501402157626467,0.011824873741716146
180,0.25,0.001,0.013881406766620088,0.010050564429702912,21.468037706740358,0.015323367385253646,0.04136693850159645
181,0.25,0.001,0.013794236360712255,0.00995122046863779,21.536261822314973,0.015372064113001408,0.02700180560350418
182,0.25,0.001,0.013395217029338187,0.009677575009458877,20.833663981011572,0.014870566724490773,0.03624372836202383
183,0.25,0.001,0.013589501361105037,0.009941159410679594,20.445310998470227,0.01459336973481101,0.015896856784820557
184,0.25,0.001,0.013170561654136536,0.009548116118666973,20.30018368173153,0.014489781357410084,0.009205411188304424
185,0.25,0.001,0.013220152143943818,0.009574033121796364,20.432851344981092,0.014584476334747389,0.02126674074679613
186,0.25,0.001,0.013594386088562773,0.009988990176389826,20.204638460849193,0.0144215834838324,0.019072864670306444
187,0.25,0.001,0.013359570955025388,0.00980100376491851,19.942209081446872,0.014234267724087703,0.010190791450440884
188,0.25,0.001,0.013573754380675072,0.010019743933956674,19.916675973445813,0.014216042807598724,0.03002528613433242
189,0.25,0.001,0.013324134230138139,0.009686346165835857,20.386165334823282,0.014551152987025898,0.01779760606586933
190,0.25,0.001,0.013494641084144724,0.009804579786005173,20.67910198455161,0.01476024410032235,0.017197946086525917
191,0.25,0.001,0.013238870439694283,0.009513611469338549,20.87635137679729,0.014901035957742535,0.00897686230018735
192,0.25,0.001,0.013342197033319068,0.009563517637867877,21.175720742408267,0.015114718588442731,0.018938777968287468
193,0.25,0.001,0.013673136387258134,0.009936259643353046,20.941458519468917,0.01494750786543106,0.03501350525766611
194,0.25,0.001,0.013370017124775877,0.009669455124976788,20.73795034530315,0.014802248640473342,0.025926430243998766
195,0.25,0.001,0.013491033754767255,0.009766697190067869,20.871182705493684,0.014897346684863443,0.03876976948231459
196,0.25,0.001,0.013316313280387128,0.00960038939213499,20.824038404099486,0.01486369621991398,0.019439025782048702
197,0.25,0.001,0.013549708107367475,0.009910646132490736,20.393303363881213,0.01455624793995804,0.013578711077570915
198,0.25,0.001,0.013702432902410943,0.01006204900430872,20.40071041026014,0.014561534910963696,0.05124372523277998
199,0.25,0.001,0.012952841996671037,0.009215822800042782,20.942256927490234,0.014948077749814586,0.011160768568515778
200,0.25,0.001,0.013375444773663866,0.009577517833639967,21.283582768541702,0.015191707900458032,0.04759581387042999
201,0.25,0.001,0.01312237189329685,0.009399805693550313,20.861262788163856,0.014890266087197613,0.018384525552392006
202,0.25,0.001,0.013023744357076096,0.009461036169941121,19.965418024266018,0.01425083370754177,0.020605773199349642
203,0.25,0.001,0.012792067285230819,0.009334337996675613,19.377116426508476,0.013830918220205907,0.02210688591003418
204,0.25,0.001,0.01297284575535896,0.009570299489225479,19.067869713965884,0.013610185377563085,0.026027909480035305
205,0.25,0.001,0.012902523826886999,0.009454731076480226,19.32142988164374,0.013791170507954134,0.03423318266868591
206,0.25,0.001,0.013086125215000294,0.009589586941961279,19.594601042727206,0.01398615349231064,0.02303983410820365
207,0.25,0.001,0.012948770234559445,0.009361062416846448,20.105514323457758,0.014350831065994116,0.017141489312052727
208,0.25,0.001,0.012986258088432729,0.009367144785504392,20.281511185017038,0.014476453379740926,0.038729049265384674
209,0.25,0.001,0.013041737509217667,0.009455908228583793,20.094987382280067,0.014343317189350512,0.014320170506834984
210,0.25,0.001,0.013270866918437024,0.00969477520978197,20.04041878720547,0.014304367442687703,0.05371252819895744
211,0.25,0.001,0.013130240617914403,0.009611972449149223,19.7163740523318,0.01407307212871649,0.012427874840795994
212,0.25,0.001,0.012924808790867633,0.009389883798963211,19.809719572675988,0.014139699909119192,0.04277759976685047
213,0.25,0.001,0.013535829795960417,0.009948638565045721,20.102622214784013,0.014348766748596725,0.03241690993309021
214,0.25,0.001,0.013225480359285436,0.009518751716043087,20.7725055369925,0.014826913302635619,0.03409142140299082
215,0.25,0.001,0.01282664455790469,0.009070684499246008,21.04839953970402,0.015023839785655973,0.028876591473817825
216,0.25,0.001,0.013181379500855791,0.009399405066320237,21.19418639325081,0.01512789892451878,0.020194563549011946
217,0.25,0.001,0.013104519648279281,0.009322429769375223,21.19483156407133,0.015128359431885317,0.027904829010367393
218,0.25,0.001,0.013046956561664318,0.009318591353107007,20.893761452208174,0.01491346284954188,0.016110979253426194
219,0.25,0.001,0.012859378663941901,0.009198305197060108,20.516656632119037,0.014644294526851561,0.027461113408207893
220,0.25,0.001,0.012687817453703981,0.009122557145483951,19.97971968955182,0.014261041891186169,0.013174404390156269
221,0.25,0.001,0.012958851286229934,0.009447445240902139,19.677921416911673,0.014045625565247447,0.0252212667837739
222,0.25,0.001,0.012795081401759006,0.009272379166585333,19.741224532431744,0.014090809801878476,0.020909585058689117
223,0.25,0.001,0.012915940717496771,0.009378488829478305,19.82387952601656,0.014149806942195975,0.022625035606324673
224,0.25,0.001,0.012945896391063295,0.009383501306651755,19.963663628760806,0.014249581462356036,0.023731145076453686
225,0.25,0.001,0.012806087474715202,0.00926832525812565,19.825618459823282,0.014151048151194348,0.007592260139063001
226,0.25,0.001,0.01249758346362951,0.008975386124183523,19.73839305309539,0.014088788760239394,0.00826657866127789
227,0.25,0.001,0.012979735917550451,0.009470926756237416,19.663366398912796,0.014035236544548748,0.02748311311006546
228,0.25,0.001,0.01288513024832974,0.009336900996400955,19.884277384331885,0.014192917476325399,0.029879258014261723
229,0.25,0.001,0.012708181416259167,0.009067123537843532,20.40448850266477,0.014564231622173282,0.01678227074444294
230,0.25,0.001,0.012660538321955407,0.008988692544083646,20.577022755399664,0.014687382409278846,0.016996876103803515
231,0.25,0.001,0.012688584724797848,0.00904315028418886,20.429015869789936,0.014581738665089177,0.01687105279415846
232,0.25,0.001,0.012603274051179277,0.009034137776557436,20.00144223963961,0.014276546923368742,0.019196360372006893
233,0.25,0.001,0.012606429490954318,0.00909302488682752,19.68911942015303,0.014053618429802305,0.01781069440767169
234,0.25,0.001,0.012484418089561005,0.00900157037726108,19.517877375825922,0.013931389989882885,0.027996066957712173
235,0.25,0.001,0.012502877398374234,0.00908825203697098,19.135561638690056,0.01365850224032124,0.01399204134941101
236,0.25,0.001,0.012476752115849485,0.009104098668916429,18.90035219395414,0.0134906154132435,0.014948701951652765
237,0.25,0.001,0.012694707318664865,0.009310625810572442,18.96439239826608,0.013536325766071436,0.020471080671995878
238,0.25,0.001,0.01266815608486216,0.009205901440470777,19.4024732467976,0.01384901730677916,0.019499742425978184
239,0.25,0.001,0.012222496634151073,0.008659180570790109,19.96882479241554,0.014253265376456487,0.014457309618592262
240,0.25,0.001,0.012480480021777306,0.008866678626137846,20.25174315432285,0.014455205677603746,0.01566985435783863
241,0.25,0.001,0.012078407081834813,0.008512027759818321,19.98598967207239,0.014265517253442104,0.018843737430870533
242,0.25,0.001,0.01231025516035709,0.00882784172179217,19.515444248280627,0.013929653282141775,0.020088496385142207
243,0.25,0.001,0.012123681921908196,0.008663489146435515,19.39091982740037,0.013840770754746875,0.014128273585811257
244,0.25,0.001,0.012315747625333197,0.008899429575242895,19.145045300747487,0.013665271449498563,0.009442755952477455
245,0.25,0.001,0.012379342095648989,0.009012979058984747,18.865097005316553,0.013465451110147433,0.032581218518316746
246,0.25,0.001,0.012373130174076303,0.009007369623856341,18.861723027330765,0.013463042846060503,0.01955889305099845
247,0.25,0.001,0.012531141492914646,0.009101696134089156,19.218613726027467,0.013717782816579205,0.021873365622013807
248,0.25,0.001,0.01236211690813937,0.00886270562384991,19.61070275813975,0.013997646508308174,0.015668116509914398
249,0.25,0.001,0.012187149910692205,0.008639753023360638,19.879614079252203,0.014189588921664671,0.013651962857693434
250,0.25,0.001,0.012336684153118033,0.008837212352676595,19.61104169804999,0.013997888435438966,0.016320361755788326
251,0.25,0.001,0.012088917750627436,0.008640009275776274,19.327683915483192,0.013795634486426261,0.013358990894630551
252,0.25,0.001,0.012521605324396428,0.009075053293812783,19.314476946566966,0.013786207670640233,0.020484616979956627
253,0.25,0.001,0.011953730671171179,0.008438931639365693,19.69693500437635,0.01405919700526506,0.02053079754114151
254,0.25,0.001,0.012637559225426075,0.009152042560596416,19.532836832898727,0.01394206768943521,0.01787455566227436
255,0.25,0.001,0.01227948858224331,0.008837638640815907,19.28812530192923,0.013767398502447702,0.023355433717370033
256,0.25,0.001,0.012239253624005521,0.008841370371110897,19.041737373839034,0.013591532743639567,0.014886885415762663
257,0.25,0.001,0.01204768774357248,0.008654395901063022,19.016008295911423,0.013573167948544913,0.028018465731292963
258,0.25,0.001,0.012268948051682178,0.008850688451623663,19.155925628986765,0.013673037565301046,0.01985178329050541
259,0.25,0.001,0.012460301967060312,0.009033224604865338,19.205343530533163,0.013708310871187126,0.028283700812608004
260,0.25,0.001,0.011998224626988806,0.00850446444955912,19.579032816785446,0.013975041268226586,0.02643861062824726
261,0.25,0.001,0.01217490700172617,0.008612905331748598,19.96145857141373,0.014248007545620079,0.030215621925890446
262,0.25,0.001,0.012148815742198458,0.008573494911035325,20.036096938112948,0.014301282611072767,0.027420911006629467
263,0.25,0.001,0.011986919797639897,0.008454059092129798,19.7981523148557,0.01413144347955439,0.02005942352116108
264,0.25,0.001,0.012083064308984483,0.00862510389390778,19.378410095864155,0.01383184161018141,0.02554686088114977
265,0.25,0.001,0.011906101150398559,0.00852170539029101,18.966156005859375,0.013537584586623394,0.012321665650233626
266,0.25,0.001,0.012161609102436837,0.008789840867703265,18.895389151065906,0.013487072912966386,0.018436419777572155
267,0.25,0.001,0.011921782066371846,0.008516516477028106,19.08310813092171,0.013621062191949827,0.009343088371679187
268,0.25,0.001,0.012096384104262007,0.00868434421321813,19.12107033425189,0.013648158696825046,0.01971781626343727
269,0.25,0.001,0.011864796657353006,0.008497327447254607,18.871297998631253,0.013469877229572628,0.01796653401106596
270,0.25,0.001,0.011739467449010686,0.00839172059947506,18.760773679043385,0.013390987636719047,0.014783651567995548
271,0.25,0.001,0.011864838467791993,0.008512756747609757,18.785065833558427,0.013408326790548484,0.010278340894728899
272,0.25,0.001,0.01200035721697706,0.008619200993091502,18.947998168620657,0.013524623960471561,0.00944945216178894
273,0.25,0.001,0.012056421528154232,0.008653823940202277,19.06815825117395,0.013610391328461065,0.008763927267864347
274,0.25,0.001,0.012040609810897645,0.00862877116479138,19.11994211724464,0.013647353402744212,0.009926767088472843
275,0.25,0.001,0.011888010982186236,0.008469232476930669,19.158835877763465,0.013675114830666284,0.016885419841855764
276,0.25,0.001,0.011863939345200011,0.008431785284204686,19.23379212237419,0.013728616789703205,0.016075494699180126
277,0.25,0.001,0.011915693257717377,0.008424287820433049,19.56583729196102,0.013965622620957189,0.020893443375825882
278,0.25,0.001,0.011892487374233438,0.008387201366589424,19.643622824486265,0.014021144057449154,0.014913887716829777
279,0.25,0.001,0.01192764085816576,0.008511535506299201,19.143854790545525,0.013664421692038206,0.007989775156602263
280,0.25,0.001,0.012099693747276955,0.008763465594421042,18.696223887991398,0.013344913553170162,0.011760888155549765
281,0.25,0.001,0.011649786791902907,0.008325012460192467,18.632037548308677,0.01329909889244017,0.014449826441705227
282,0.25,0.001,0.011884750897421482,0.008566894489241408,18.5932685770887,0.013271426536108993,0.009620418073609471
283,0.25,0.001,0.011895183731425316,0.008570905774831772,18.629254158507003,0.013297112175950752,0.014162548817694187
284,0.25,0.001,0.011796589861524867,0.00842080081000607,18.917919645918175,0.013503154636629676,0.01292110700160265
285,0.25,0.001,0.011842335059129178,0.00838894634804827,19.352791562993477,0.013813555719481426,0.019063618034124374
286,0.25,0.001,0.011906607274679428,0.008468191476261362,19.26888336019313,0.013753664068660335,0.022006156854331493
287,0.25,0.001,0.01160875196628114,0.008279268808187322,18.658425270242894,0.013317933811736541,0.006658982019871473
288,0.25,0.001,0.011587205957225028,0.008327751559145908,18.265983500379196,0.013037818344310632,0.020620168652385473
289,0.25,0.001,0.011770513641865963,0.008533127467207451,18.142311420846493,0.012949544197606348,0.014651878736913204
290,0.25,0.001,0.01192673563243861,0.00863007711682548,18.47447569826816,0.013186635045159288,0.01251966506242752
291,0.25,0.001,0.011684086173772812,0.008295735185767742,18.98832158839449,0.013553405844678438,0.015514815226197243
292,0.25,0.001,0.011590447336276795,0.008168446752143668,19.17689079933978,0.013688001998101199,0.011602910235524178
293,0.25,0.001,0.011884699853018243,0.008505595808333538,18.93649778974817,0.013516415267486202,0.01508070807904005
294,0.25,0.001,0.011584109131326067,0.008226806852728762,18.814321152707365,0.013429208531554151,0.011987365782260895
295,0.25,0.001,0.011415304933139619,0.008091005179634753,18.629375457763672,0.013297198756433742,0.01659525278955698
296,0.25,0.001,0.01150927466756486,0.008205374504657501,18.51505807105531,0.013215601763779665,0.014777929987758398
297,0.25,0.001,0.011591568668472005,0.008272614013007346,18.59942249541587,0.013275819054543803,0.020157729275524616
298,0.25,0.001,0.011453744935545516,0.008096098840395187,18.816247899481592,0.013430583796917625,0.01574345538392663
299,0.25,0.001,0.011379327090021143,0.008036709638272828,18.732026282777177,0.013370468438813118,0.01364995026960969
300,0.25,0.001,0.011338088443463153,0.008051849980937673,18.416081367655003,0.013144954580767311,0.015391276683658361
301,0.25,0.001,0.011506765149533749,0.008242829940579038,18.29109378571206,0.013055741460179914,0.010126418434083462
302,0.25,0.001,0.011475012380074947,0.008204571645152061,18.327549021294775,0.01308176232783353,0.01346783060580492
303,0.25,0.001,0.011561921302308428,0.00826326274174325,18.48568303534325,0.01319463457197948,0.00859625032171607
304,0.25,0.001,0.011392197670771721,0.008066368269476485,18.637949923251536,0.013303319003034645,0.011619389988481998
305,0.25,0.001,0.011201476797144463,0.007857835861517394,18.73776200477113,0.013374562458794526,0.019913132302463055
306,0.25,0.001,0.011519933733692828,0.008187753108746193,18.673539993610788,0.013328722336624403,0.021104751620441675
307,0.25,0.001,0.011461220265544475,0.008164420109638509,18.475268343661693,0.013187200816318124,0.03204142116010189
308,0.25,0.001,0.011282176611588356,0.007980154648898764,18.50453121104139,0.0132080879450688,0.015746079850941896
309,0.25,0.001,0.012323457391021099,0.008955325554818549,18.875013189112888,0.01347252904290713,0.05217523314058781
310,0.25,0.001,0.01148169616514698,0.008033311143121186,19.324751387251183,0.013793541318523329,0.014499385841190815
311,0.25,0.001,0.011851177966975152,0.008372467169736294,19.494695298215177,0.013914843182166436,0.040166134014725685
312,0.25,0.001,0.01149497244586336,0.008034472551910168,19.392642284961457,0.013842000203398614,0.022238810546696186
313,0.25,0.001,0.01143695001906537,0.008015901088080507,19.17155793372621,0.013684195527284946,0.03426532633602619
314,0.25,0.001,0.011688634911750225,0.00829891785186656,18.995974236346306,0.013558868120161532,0.0321595948189497
315,0.25,0.001,0.011567630725813674,0.00823759045848187,18.66154711297218,0.013320162107760299,0.02394283562898636
316,0.25,0.001,0.01139453612267971,0.008067378734654568,18.645389922121737,0.013308629494733574,0.02499145921319723
317,0.25,0.001,0.011229206589942283,0.007916417319644639,18.56487030678607,0.013251156535892983,0.01691623032093048
318,0.25,0.001,0.011422362376717812,0.008093976455324508,18.652276505815223,0.013313544972030852,0.02951055159792304
319,0.25,0.001,0.011207721850022357,0.007879853882688158,18.64937218199385,0.013311471935755782,0.014503447338938713
320,0.25,0.001,0.011125319736435059,0.007825029815765137,18.494825890723696,0.013201160521572945,0.022233257070183754
321,0.25,0.001,0.0114002765968759,0.008141684524239377,18.261150360107422,0.013034368565387167,0.018070108722895384
322,0.25,0.001,0.0112736355711488,0.008025923615044101,18.200177862289102,0.012990847867444042,0.013896589633077383
323,0.25,0.001,0.011526491215571444,0.008239986404697312,18.41757287370398,0.013146019181801555,0.03153017535805702
324,0.25,0.001,0.011412246430173833,0.008064491456334895,18.760817750971366,0.013391019094197978,0.018154839053750038
325,0.25,0.001,0.011296036950451262,0.007934029887806861,18.84068732566022,0.013448028069707508,0.030007180757820606
326,0.25,0.001,0.011259884395180865,0.007954349860231927,18.52421557649653,0.01322213817023307,0.014589352067559958
327,0.25,0.001,0.011388839063967796,0.00814130834918073,18.199160636739528,0.012990121796387958,0.023815246298909187
328,0.25,0.001,0.011314638969587518,0.008078961970007166,18.132735921981485,0.012942709437531395,0.01683712564408779
329,0.25,0.001,0.011216947095508271,0.007951497179555131,18.299583435058594,0.013061801167065377,0.01209706999361515
330,0.25,0.001,0.011029691811888776,0.0077327953928962665,18.475806946450092,0.013187585257994355,0.016734971199184656
331,0.25,0.001,0.010939402961509024,0.007673634929542846,18.301361976785863,0.013063070647241872,0.010006258264183998
332,0.25,0.001,0.011092078951286508,0.007906849139389839,17.850027855406417,0.012740919240118784,0.012191893067210913
333,0.25,0.001,0.01129299707393697,0.0081874858786134,17.403283667057117,0.012422044016457613,0.016192303970456123
334,0.25,0.001,0.011122618108353716,0.008017090446454413,17.403378019941613,0.012422111363270245,0.010946876835078001
335,0.25,0.001,0.010922906682529349,0.0077535874566974795,17.760863446174785,0.012677275835956306,0.012118697166442871
336,0.25,0.001,0.01127650739347681,0.008035974477992413,18.159947050378676,0.012962132084495844,0.008838573470711708
337,0.25,0.001,0.01091563224079127,0.007614512690045732,18.499474992143348,0.013204478938003817,0.0086071970872581
338,0.25,0.001,0.010949363852752017,0.00761922719353374,18.662084782377203,0.013320545883209994,0.014654878992587328
339,0.25,0.001,0.011016353925174855,0.007699591939912197,18.587133691665976,0.013267047602902196,0.009779071900993586
340,0.25,0.001,0.01090594139346417,0.007629439670671808,18.361516222040702,0.013106007296246041,0.01213294779881835
341,0.25,0.001,0.011078501060763572,0.007809657078394865,18.318603556206885,0.013075377270668726,0.013218032196164131
342,0.25,0.001,0.011155871000695736,0.007885249648639497,18.328560403052798,0.01308248422773219,0.02310137404128909
343,0.25,0.001,0.01085830697829419,0.007565804519393342,18.451183643746884,0.013170009738577362,0.008963510859757662
344,0.25,0.001,0.011052604051346475,0.007744576385680666,18.5381885690892,0.013232111755238545,0.012326863128691912
345,0.25,0.001,0.010795948373034913,0.007486230049757881,18.547663303131753,0.013238874591814241,0.008242081385105848
346,0.25,0.001,0.010792092023853292,0.007507875522083425,18.40474985000935,0.013136866416851785,0.013119942508637905
347,0.25,0.001,0.010886011724459363,0.007668309062323037,18.03200750148043,0.012870811921113796,0.02149874670431018
348,0.25,0.001,0.011024409627660792,0.007848046858735542,17.80033610729461,0.012705450469161033,0.012527400627732277
349,0.25,0.001,0.01103706762907987,0.007828386421216296,17.98144937068858,0.012834724747101057,0.010605262126773596
350,0.25,0.001,0.010933080925903421,0.0076405091330092,18.45157225588535,0.013170287120546288,0.012259318493306637
351,0.25,0.001,0.010918337475270667,0.007556341955081579,18.840621583005216,0.01344798114418645,0.011538168881088495
352,0.25,0.001,0.010963500754788835,0.007580526192930151,18.958192338334754,0.013531900312872772,0.02327653579413891
353,0.25,0.001,0.010783693297429288,0.0074308273541007904,18.7894612981918,0.013411464167160457,0.01770849758759141
354,0.25,0.001,0.010731917152062375,0.007435563971546102,18.47276070777406,0.013185410926319814,0.015589158050715923
355,0.25,0.001,0.011024862012647569,0.00781946333045972,17.96305518454694,0.01282159542080438,0.014126549474895
356,0.25,0.001,0.010850846727794789,0.007681248273621214,17.76242929823855,0.012678393503382264,0.017488020472228527
357,0.25,0.001,0.01102184480492105,0.007847181818586714,17.790809387856342,0.012698650526664055,0.019403335172683
358,0.25,0.001,0.01087892204126779,0.007662360328546864,18.02561272966101,0.012866247487266958,0.010328746866434813
359,0.25,0.001,0.010684473776912435,0.0074669029959972865,18.031268140102956,0.012870284182800111,0.007869843859225512
360,0.25,0.001,0.01082874632420692,0.007645159811177787,17.840819216789082,0.012734346336037889,0.00938790524378419
361,0.25,0.001,0.010886257256757705,0.0077391498662689896,17.63638849461332,0.01258842861856768,0.009948794264346361
362,0.25,0.001,0.010694963897162296,0.007534016775799558,17.71394758021578,0.012643788422709336,0.013334549032151699
363,0.25,0.001,0.010577919120167164,0.007365019229102008,18.00509205270321,0.012851600323128628,0.01412436505779624
364,0.25,0.001,0.01080481117551631,0.007604145088252869,17.936533258316366,0.012802664709719034,0.015399872791022062
365,0.25,0.001,0.010924566378618808,0.007735612584238357,17.870895507487845,0.012755814066729368,0.021270395256578922
366,0.25,0.001,0.010956165202437564,0.007729378717139046,18.08291098412047,0.012907145598943948,0.01542180310934782
367,0.25,0.001,0.010786106909050587,0.007536181427062826,18.21258195917657,0.012999701612545732,0.02393778646364808
368,0.25,0.001,0.010588667514000802,0.007345010140078499,18.17745703839241,0.012974630291500651,0.015219708438962698
369,0.25,0.001,0.01071942260766283,0.007520645084057717,17.92594986773552,0.012795110540853333,0.011657976545393467
370,0.25,0.001,0.010582319718409092,0.007394741408209851,17.86318827689962,0.012750312831477244,0.013950425665825605
371,0.25,0.001,0.010554214127044728,0.007382173665819016,17.77611557980801,0.012688162440976453,0.01810233388096094
372,0.25,0.001,0.010682049663142954,0.0075653670355677605,17.465890681489984,0.012466731392926469,0.01297109853476286
373,0.25,0.001,0.01071554366895493,0.007627189595331537,17.307138037174305,0.01235341758542063,0.02417096681892872
374,0.25,0.001,0.010802723150304023,0.007721271920711436,17.268452299402114,0.012325804639116427,0.014856745954602957
375,0.25,0.001,0.010709821781579485,0.007568371947854757,17.60468620949603,0.012565800292288386,0.030962063930928707
376,0.25,0.001,0.0106831652686951,0.007457673034452377,18.07565969101926,0.012901969800870279,0.01483224518597126
377,0.25,0.001,0.010599651710784181,0.0073102013643910274,18.43407951517308,0.013157801224249166,0.01731581101194024
378,0.25,0.001,0.010434015852181202,0.007151742485609461,18.39386091841028,0.013129094160178644,0.020172322634607553
379,0.25,0.001,0.010583008064868603,0.0073519505342428985,18.106846951423808,0.012924230514934909,0.009747207397595048
380,0.25,0.001,0.010618188953463068,0.007417202946987558,17.938323852863718,0.01280394279290772,0.01872047735378146
381,0.25,0.001,0.010657070402769333,0.007473741241909088,17.83937831635171,0.012733317856068314,0.011404638644307852
382,0.25,0.001,0.010683462162442665,0.007517073234107266,17.74444600369068,0.012665557461592205,0.013347458560019732
383,0.25,0.001,0.01076277087819069,0.007633315359658384,17.537469255163316,0.0125178224519367,0.024960715789347887
384,0.25,0.001,0.0105206383828153,0.0074005407836050426,17.485026826249793,0.012480390311384577,0.012486540013924241
385,0.25,0.001,0.010450396310300269,0.007284867924023816,17.739620573977206,0.012662113186279233,0.02226964198052883
386,0.25,0.001,0.010522776917415731,0.007315522297582728,17.973455185585834,0.012829018690639425,0.010756242088973522
387,0.25,0.001,0.01072954083297481,0.00748328774414481,18.192002803721326,0.012985012707866757,0.01733607752248645
388,0.25,0.001,0.010665726451639166,0.007390214922897359,18.355968759415,0.013102047651259814,0.01824560994282365
389,0.25,0.001,0.010727463448618321,0.007455506847497631,18.336046543527157,0.013087827654194972,0.016554197296500206
390,0.25,0.001,0.010687903956846987,0.00742138220750271,18.305587809136572,0.013066086944422963,0.017505382653325796
391,0.25,0.001,0.010443005512686485,0.007185373009440113,18.255771515217234,0.013030529275672543,0.01479319017380476
392,0.25,0.001,0.010671652219396956,0.007443406272362521,18.091088599347053,0.012912982583402607,0.020452529191970825
393,0.25,0.001,0.01057784998432753,0.007391621576661759,17.855622474183427,0.012744912544028143,0.012552328407764435
394,0.25,0.001,0.010484730626674408,0.007359256631040827,17.515157983658163,0.012501897204609681,0.018812081776559353
395,0.25,0.001,0.010519653796515566,0.007384154301612301,17.571337354944106,0.012541996684471167,0.013279006816446781
396,0.25,0.001,0.010531694331067674,0.007377928003985831,17.67370739388973,0.01261506594852943,0.02378258667886257
397,0.25,0.001,0.010447581873295154,0.007324230460885992,17.50326233721794,0.01249340637917055,0.010760803008452058
398,0.25,0.001,0.010375381982389917,0.007316892065028561,17.13977756906063,0.01223395972095691,0.02445140853524208
399,0.25,0.001,0.010537812446660183,0.007547990161370724,16.75496580245647,0.011959290365779066,0.014761294703930616
400,0.25,0.001,0.010653217065524547,0.0076819196184898944,16.651148593172113,0.011885188146446905,0.022196508944034576
401,0.25,0.001,0.01047151331651084,0.007473314507923862,16.80190471892661,0.011992794231924776,0.01507464051246643
402,0.25,0.001,0.01038414275551096,0.007313369416651574,17.208612482598486,0.012283092421554951,0.013495430815964937
403,0.25,0.001,0.010267218277650945,0.007139133061579568,17.529790066658183,0.012512341232446954,0.01745896367356181
404,0.25,0.001,0.010471230531309514,0.007305914655010751,17.738429698538273,0.012661263168121537,0.012527422048151493
405,0.25,0.001,0.010294365399378412,0.00712110938385446,17.78292562606487,0.01269302328769798,0.0100471549667418
406,0.25,0.001,0.010628603042123165,0.007498908401565983,17.538808660304294,0.012518778487012345,0.011066595558077097
407,0.25,0.001,0.01019547903474341,0.0070970439193572135,17.363631755747694,0.012393741438792072,0.011056126095354557
408,0.25,0.001,0.010125288482200592,0.007043946960425758,17.26783918827138,0.012325367015183,0.0120742111466825
409,0.25,0.001,0.010260081334792554,0.007181016341882183,17.25508052744764,0.012316260190897672,0.009019911289215088
410,0.25,0.001,0.01025272842417372,0.007174187627165241,17.252144022190823,0.01231416418429038,0.009585443884134293
411,0.25,0.001,0.010332804490277108,0.007264296762011153,17.19591733242603,0.01227403092964028,0.008998776320368052
412,0.25,0.001,0.010347158132873952,0.0072794942026759716,17.1911875542174,0.012270654928063812,0.020373297855257988
413,0.25,0.001,0.010343358475477137,0.007271687391194257,17.213643418981675,0.012286683382570789,0.012457442469894886
414,0.25,0.001,0.010032854815746875,0.006964829572020693,17.193215309305394,0.012272102290724764,0.016564722172915936
415,0.25,0.001,0.010687409801051971,0.0076670251648001215,16.926234955483295,0.01208153815523433,0.022742065135389566
416,0.25,0.001,0.010635798479965392,0.007585701770446402,17.092741945956615,0.012200386827949047,0.023545440286397934
417,0.25,0.001,0.010340748394423343,0.007198603635534961,17.6085791080556,0.0125685789493616,0.014286524150520563
418,0.25,0.001,0.010245044418471926,0.007044447863355596,17.936143185230012,0.012802386284960752,0.013381291646510363
419,0.25,0.001,0.010316137065912815,0.007140519781077796,17.79615998775401,0.012702469655784447,0.00973049458116293
420,0.25,0.001,0.010446393584951441,0.007338547425225694,17.416370391845703,0.012431385004886298,0.011896502692252398
421,0.25,0.001,0.01016265427337048,0.007073158081224624,17.31353633961779,0.012357984539341749,0.011915102135390043
422,0.25,0.001,0.010357343413411303,0.007270773139564281,17.29713809236567,0.012346279866071144,0.016850112471729517
423,0.25,0.001,0.010219911707842604,0.007122437083261444,17.358249217905897,0.012389899513137684,0.014219516888260841
424,0.25,0.001,0.010215333286435046,0.007104165852069855,17.43498120409377,0.012444668953671498,0.009230765514075756
425,0.25,0.001,0.010156170365975258,0.00699323019448747,17.725117176137072,0.012651761010804476,0.013297735713422298
426,0.25,0.001,0.010351284803386698,0.007180017954174509,17.77178143440409,0.0126850688325511,0.013069157488644123
427,0.25,0.001,0.010225368029576666,0.007055076592146082,17.766313431110788,0.012681165903719335,0.01958511769771576
428,0.25,0.001,0.010166418718847823,0.00704324695261869,17.50225481073907,0.012492687231077139,0.01829453557729721
429,0.25,0.001,0.010186158536755025,0.007115887032148052,17.20579963034772,0.012281084675480171,0.018682599999010563
430,0.25,0.001,0.010323168987289388,0.0072825003831468995,17.03990741486245,0.012162674814320094,0.014603598974645138
431,0.25,0.001,0.01023412214473207,0.007192774160586773,17.043711398510222,0.012165390006074391,0.0083174635656178
432,0.25,0.001,0.010159553642919723,0.007128587567267266,16.985534018658576,0.01212386439590191,0.013329047244042158
433,0.25,0.001,0.010286978624285535,0.007239320493758993,17.07907463641877,0.012190631432133312,0.011876925826072693
434,0.25,0.001,0.010160405426583391,0.007027188613218196,17.55854712141321,0.012532867324349186,0.009050717344507575
435,0.25,0.001,0.01031204889667161,0.007124075309393254,17.865404737756606,0.01275189488776346,0.01237925374880433
436,0.25,0.001,0.010156494367154354,0.006968748210830257,17.8641297360684,0.01275098482231863,0.01340258028358221
437,0.25,0.001,0.010283022663219179,0.007127245858390915,17.684972925389065,0.01262310701312567,0.011616334319114685
438,0.25,0.001,0.01002468733473661,0.006903172401275406,17.492971095633,0.01248606073920985,0.009639732539653778
439,0.25,0.001,0.010014086763592476,0.006929969851006853,17.283391871350876,0.01233646814514695,0.014241473283618689
440,0.25,0.001,0.010189876594442003,0.007144896244194279,17.06407035665309,0.01217992173922419,0.014703371562063694
441,0.25,0.001,0.010088875136793928,0.00704210277329734,17.07411023403736,0.01218708796148277,0.02200737316161394
442,0.25,0.001,0.010205915316622308,0.007143701634746283,17.160648508274807,0.012248856893843545,0.01786282053217292
443,0.25,0.001,0.010062452484952642,0.006966613104289516,17.349084610634662,0.012383358037569353,0.016403735615313053
444,0.25,0.001,0.010237430242147851,0.007125667950257342,17.438314884266955,0.012447048454152001,0.013993797823786736
445,0.25,0.001,0.009978080604304659,0.0068990030187241575,17.25515203273043,0.012316311229643419,0.012740443460643291
446,0.25,0.001,0.009922339045938025,0.006873994223535695,17.08292259053981,0.012193378008950612,0.009719539899379015
447,0.25,0.001,0.010140232821094228,0.007119845430505403,16.926250701254986,0.012081549394186285,0.011756073217839003
448,0.25,0.001,0.009962370183239592,0.0069135408551293485,17.085641333397398,0.01219531858201099,0.008887132164090872
449,0.25,0.001,0.010177589160330753,0.007093528860268441,17.28307399343937,0.01233624125156272,0.010152752976864576
450,0.25,0.001,0.00998891321347749,0.0068882186996175885,17.37629062571424,0.01240277703477105,0.008575488813221455
451,0.25,0.001,0.009914322736415458,0.006823872325030413,17.318884382856652,0.012361801843580765,0.011546303983777761
452,0.25,0.001,0.010042993272555636,0.006985536459437076,17.13398957759776,0.01222982839228962,0.0138918268494308
453,0.25,0.001,0.01009460457382684,0.007054523049675404,17.03661626450559,0.012160325670596423,0.01548434142023325
454,0.25,0.001,0.010265247282037076,0.007236478850245476,16.97321725398936,0.012115072986430664,0.012383312452584505
455,0.25,0.001,0.010041038525548386,0.0069814580492675304,17.145887212550388,0.012238320637080934,0.011176426894962788
456,0.25,0.001,0.010164801110612584,0.007054346861278123,17.430985349289916,0.012441816808915,0.009520838037133217
457,0.25,0.001,0.00999065211161654,0.0068523250123921865,17.58718734091901,0.012553310022069242,0.012618714477866888
458,0.25,0.001,0.010175686072003334,0.007057426933278429,17.474722679625167,0.012473035460117892,0.01191783556714654
459,0.25,0.001,0.009784256365705044,0.006678877467725506,17.40254544197245,0.012421517089202319,0.008701574988663197
460,0.25,0.001,0.00993830310378937,0.006851006140734287,17.301213568829475,0.01234918884284759,0.007737225387245417
461,0.25,0.001,0.009771207446589115,0.00671982637388592,17.09993958980479,0.012205524332480221,0.009488703217357397
462,0.25,0.001,0.009828472866656933,0.006833912448046055,16.781517515791222,0.011978242338180744,0.009403511183336377
463,0.25,0.001,0.010030229675008896,0.007082830936192198,16.517222647971295,0.011789595037809632,0.01912986533716321
464,0.25,0.001,0.010050542216668738,0.007089047980039043,16.596213320468333,0.011845976674138711,0.016882869880646467
465,0.25,0.001,0.00992253379143299,0.006909024871965038,16.887705742044652,0.012054036932223164,0.013781227637082338
466,0.25,0.001,0.009717178253575843,0.006667324143679852,17.09138123532559,0.012199415585528613,0.015887209679931402
467,0.25,0.001,0.009986243349440555,0.006940433626717075,17.068717347814683,0.012183238649403771,0.0158962095156312
468,0.25,0.001,0.009780668772440007,0.006771552505249039,16.86308759324094,0.01203646509153529,0.020991516299545765
469,0.25,0.001,0.010173840606783299,0.0072129911426058475,16.592600518084588,0.011843397942958307,0.02189784636721015
470,0.25,0.001,0.009887874185880448,0.006863260037325164,16.949938753817943,0.01209845735461666,0.01293625682592392
471,0.25,0.001,0.01008634162234499,0.0069959947859194686,17.31830373723456,0.012361387392744155,0.011305161751806736
472,0.25,0.001,0.010033496239400924,0.006917835817612866,17.460160519214387,0.012462641341337892,0.014479443896561861
473,0.25,0.001,0.010061501228111856,0.006923528259342655,17.585199802479845,0.012551891365081974,0.011487438809126616
474,0.25,0.001,0.00990307442051299,0.0067878225818276405,17.457870402234665,0.012461006711088268,0.011785066220909357
475,0.25,0.001,0.00998893520854255,0.006923613406004424,17.17806365642142,0.01226128740643927,0.008526274934411049
476,0.25,0.001,0.0098236471890135,0.0067851515189605825,17.02773037362606,0.012153983136064283,0.00888477056287229
477,0.25,0.001,0.00984733791506671,0.006837516369179208,16.867038077496467,0.012039284851888984,0.015788106713443995
478,0.25,0.001,0.00993801934763472,0.006948453443560829,16.753529731263505,0.011958265332807642,0.011135343927890062
479,0.25,0.001,0.010029163786229934,0.00702863604702214,16.814957598422435,0.012002111062400025,0.011909008491784334
480,0.25,0.001,0.009728301712807188,0.006689865528506801,17.027398170308864,0.01215374601735108,0.012344780378043652
481,0.25,0.001,0.009788934953827808,0.006742167009159606,17.074086696543592,0.012187071160987575,0.00931784464046359
482,0.25,0.001,0.009754357938753797,0.0066988845851193085,17.12287237289104,0.012221893199779474,0.008496497292071581
483,0.25,0.001,0.009786859749162451,0.006705598152698355,17.267391488907187,0.012325047458177864,0.013688617385923862
484,0.25,0.001,0.009905169856675129,0.006808903167380932,17.351479144806557,0.012385067198291619,0.009851789101958275
485,0.25,0.001,0.009869674280127312,0.006805115082162492,17.173789653372257,0.012258236726175773,0.01369827939197421
486,0.25,0.001,0.009811238286660072,0.006790793966501951,16.9265708517521,0.012081777909887294,0.012403320521116257
487,0.25,0.001,0.009849835306088975,0.006890144496363528,16.586108471484895,0.011838764076720125,0.011516205966472626
488,0.25,0.001,0.009878997492821926,0.0069295508648328326,16.528699428477186,0.01179778688685024,0.014749962836503983
489,0.25,0.001,0.009778512384187667,0.006762963481881517,16.89913822742219,0.012062197164469799,0.010433575604110956
490,0.25,0.001,0.00976365051688032,0.006702710151117533,17.153510722708194,0.012243762114709632,0.009302458725869656
491,0.25,0.001,0.009824715614160325,0.0067696132934949495,17.120794336846533,0.012220409947784821,0.008517805254086852
492,0.25,0.001,0.009693839884501822,0.0066409552311326595,17.108364024060837,0.012211537490407449,0.008170362561941147
493,0.25,0.001,0.009693274908560388,0.006627973773457268,17.177947916883102,0.01226120479434911,0.015958997886627913
494,0.25,0.001,0.009696736337339624,0.006661781743961446,17.00788506041182,0.012139818030272533,0.011011534836143255
495,0.25,0.001,0.009715181755575729,0.006715003440671778,16.81299954272331,0.012000713449481308,0.017363702412694693
496,0.25,0.001,0.009670604357218488,0.006664343217902995,16.847087373124793,0.012025044520431688,0.012700167018920183
497,0.25,0.001,0.00962587648091164,0.00660353315439313,16.937210448244784,0.012089372197176863,0.011461823713034391
498,0.25,0.001,0.009747486898398145,0.006743909414619841,16.832046752280377,0.012014308888137313,0.017968606669455767
499,0.25,0.001,0.009813184869733262,0.006824018512951567,16.75129005756784,0.011956666707757201,0.013633621390908957
500,0.25,0.001,0.009660658604921178,0.006647891355083978,16.883549142391125,0.012051070051671038,0.018203007988631725
