epoch,beta,learning_rate,train_loss,train_reconstruction_loss,train_kl_unnormalized,train_kl_normalized,mean_unclipped_gradient_norm
1,0.0,0.001,0.08777777091378257,0.08777777091378257,55.33613398112948,0.03949759741693753,0.15285711139440536
2,0.02,0.001,0.06782691241020249,0.06051940689720805,511.8907722594246,0.36537528355419313,0.16381601244211197
3,0.04,0.001,0.0548492639783829,0.044788400355785615,352.38179573180184,0.25152162436245673,0.0926082268357277
4,0.06,0.001,0.044905200955413636,0.04080646869445604,95.70541301908948,0.0683122148601638,0.10424632579088211
5,0.08,0.001,0.03869520398595976,0.03457884557899975,72.08771858820839,0.051454474367029546,0.07143136262893676
6,0.1,0.001,0.037594152348382134,0.03379043774708869,53.290051330082,0.03803715298364169,0.07136109098792076
7,0.12,0.001,0.0362221324845912,0.03298206902922146,37.82774255540636,0.027000530018134447,0.05482800155878067
8,0.14,0.001,0.03505053536759482,0.03299415016931201,20.57853518289233,0.014688461943534854,0.057009429484605786
9,0.16,0.001,0.03346188197296763,0.031395223387886605,18.096176295810274,0.012916614058394199,0.04447426944971085
10,0.18,0.001,0.031852742556541684,0.029216743846024785,20.516853774540007,0.014644435242355465,0.045613239705562594
11,0.2,0.001,0.02987924845563987,0.026876341238144846,21.03536711798774,0.015014537557450207,0.02739693522453308
12,0.22,0.001,0.027758323897918064,0.0243113732349778,21.950809393988717,0.015667958168443054,0.039469494670629504
13,0.24,0.001,0.026769181884943493,0.022579604665201806,24.45665602305579,0.017456571037156168,0.04061798825860023
14,0.25,0.001,0.025647059343163928,0.021304185629364043,24.33746449909513,0.017371495002923006,0.030497838370501996
15,0.25,0.001,0.02419549162307429,0.02006938790399877,23.122686228676447,0.016504415580782618,0.01855088397860527
16,0.25,0.001,0.023629457207899246,0.019633974099443074,22.390687112959604,0.015981932271919776,0.03538804817944765
17,0.25,0.001,0.023154905745907436,0.01936789257895379,21.222422814747645,0.015148053400961916,0.06149275377392769
18,0.25,0.001,0.023035790339585336,0.019219190922994463,21.388224725874643,0.01526639880504971,0.08721544221043587
19,0.25,0.001,0.022771339177612274,0.018924509373212616,21.55763736300998,0.015387321458251236,0.07865292057394982
20,0.25,0.001,0.02219076421525743,0.01858105038603147,20.228838027469696,0.014438856550656456,0.0501211715862155
21,0.25,0.001,0.022552868783000914,0.018941720344481015,20.23687541901119,0.014444593446831685,0.08688631132245064
22,0.25,0.001,0.021868603481423287,0.018232631056554732,20.375988945128427,0.014543889325573467,0.06390269268304109
23,0.25,0.001,0.021621159653341958,0.018207741783015312,19.128793129088386,0.013653671041462088,0.071422503516078
24,0.25,0.001,0.021546497639446032,0.0182109525752446,18.692394159710595,0.013342179985517913,0.06320003569126129
25,0.25,0.001,0.02130538065518652,0.017738618713522714,19.988130963037886,0.014267045655273295,0.0646436095237732
26,0.0,0.001,0.0173535289627219,0.0173535289627219,22.20571481613886,0.015849903509021313,0.05788539871573448
27,0.02,0.001,0.01684323876268334,0.016366360088189442,33.40536116342696,0.023843940873252648,0.03010149747133255
28,0.04,0.001,0.016595914291720543,0.015224576738500405,48.03110059707884,0.03428344082589496,0.024596176482737063
29,0.06,0.001,0.017093187889882497,0.014666115075704598,56.67215547107515,0.04045121732410789,0.02096931580454111
30,0.08,0.001,0.017487760822451303,0.014360839101885046,54.7602164737762,0.039086521394558316,0.02792232222855091
31,0.1,0.001,0.01745225876451485,0.01426439176180533,44.662020450168185,0.031878672698192854,0.03289460446685553
32,0.12,0.001,0.01735681649593134,0.01449397626140761,33.423663445124554,0.023857004600374414,0.021827391907572748
33,0.14,0.001,0.017357770566429412,0.014531058200176746,28.287315768287296,0.02019080354624361,0.024385112710297106
34,0.16,0.001,0.017506541826185724,0.01431762430343836,27.92296036614312,0.019930735450494733,0.03690179325640201
35,0.18,0.001,0.017412615035261425,0.013878095983749344,27.51033830794077,0.019636215780114753,0.022889166511595248
36,0.2,0.001,0.017563278949449933,0.01384344928203121,26.05740558079311,0.01859914745238623,0.036864621192216875
37,0.22,0.001,0.01770697981710472,0.013777126200378888,25.026023501441593,0.017862971806881935,0.04547000378370285
38,0.24,0.001,0.017591938837653115,0.013686944189525785,22.795404482644702,0.016270809766341685,0.04191266465932131
39,0.25,0.001,0.017357349236096654,0.013630663136404658,20.88434841822064,0.014906744052976902,0.01169438762590289
40,0.25,0.001,0.01736135593955479,0.01366177172592235,20.7324703640408,0.014798337162056245,0.031910539418458936
41,0.25,0.001,0.017309007503920133,0.013517941945483761,21.245130193801153,0.015164261380300609,0.03736195750534534
42,0.25,0.001,0.017173002305484953,0.01344816167617128,20.874007240174308,0.01489936276957481,0.03555031344294548
43,0.25,0.001,0.017073517115343186,0.013420901169616079,20.46925834171356,0.01461046277067349,0.031628002598881724
44,0.25,0.001,0.016816538182042894,0.01326849733198446,19.8832218896775,0.014192164089705568,0.019896441884338856
45,0.25,0.001,0.01661576535848398,0.012947629575455,20.55623216780405,0.014672542589439008,0.02281297752633691
46,0.25,0.001,0.01652720535085315,0.012824930818307968,20.74755030435229,0.01480910085963761,0.03196557201445103
47,0.25,0.001,0.016553560159509144,0.013092900658883746,19.393535977318173,0.01384263809944195,0.033871150389313695
48,0.25,0.001,0.01629739118710397,0.012687310487741516,20.230893047272215,0.014440323374212858,0.01628946643322706
49,0.25,0.001,0.016296692860741462,0.012873917995464234,19.181231580461773,0.013691100342942021,0.024925329349935056
50,0.25,0.001,0.016211975200308693,0.012822543424628083,18.99437610081264,0.01355772740957362,0.022556994296610355
51,0.0,0.001,0.01212149556903612,0.01212149556903612,23.678229207841177,0.01690094875648906,0.02658313326537609
52,0.02,0.001,0.011742751477729706,0.011200281528253404,38.0000249226888,0.027123501015480944,0.01840209700167179
53,0.04,0.001,0.012058916826924634,0.010560012076582227,52.499139452737474,0.03747261916683617,0.03394692651927471
54,0.06,0.001,0.01276076181185624,0.010235764024158319,58.95870638650561,0.04208330220307324,0.02710391879081726
55,0.08,0.001,0.013182280112117056,0.010111504917343457,53.77695502629356,0.038384693095141725,0.030119628831744193
56,0.1,0.001,0.013370671543100524,0.010460570490076428,40.77051493326823,0.029101009945230714,0.021361667197197676
57,0.12,0.001,0.01349420262471078,0.010944907550537397,29.763021771869962,0.021244126889271922,0.030759814381599426
58,0.14,0.001,0.013992372090144763,0.011450487922226625,25.436998403640022,0.018156315777044983,0.018938757292926312
59,0.16,0.001,0.014163251901193271,0.011228108009885229,25.7008547828311,0.018344650094811635,0.0197238271124661
60,0.18,0.001,0.014495842685065572,0.01119517565128349,25.690192819020105,0.01833703984226988,0.023389060609042646
61,0.2,0.001,0.014768537210803184,0.011306446976959705,24.25194228036063,0.01731045130646726,0.026766194589436056
62,0.22,0.001,0.01510256439565666,0.011499423808639957,22.94545675610739,0.01637791345903454,0.03593972846865654
63,0.24,0.001,0.015371455219648188,0.011800650427384035,20.844573496258448,0.014878353673275124,0.04093812108039856
64,0.25,0.001,0.015343393778635396,0.011586337323699679,21.05454524812244,0.015028226444055989,0.02007088642567396
65,0.25,0.001,0.015265500474543798,0.011669162190741017,20.153880128406342,0.014385353410711165,0.01978181041777134
66,0.25,0.001,0.015209188838563268,0.011788865643006468,19.167489739069865,0.013681291748086985,0.02315787523984909
67,0.25,0.001,0.015191825452659811,0.011684137851827675,19.657081071157304,0.014030750229234336,0.021485482528805732
68,0.25,0.001,0.014947771490921104,0.011417522373062278,19.783516559903585,0.0141209968307663,0.024627333506941795
69,0.25,0.001,0.014986602565835392,0.011603790740408595,18.957277503846182,0.013531247326085783,0.010988510493189097
70,0.25,0.001,0.01489030500903489,0.011549923631052176,18.719497190202986,0.013361525474805843,0.018228454701602458
71,0.25,0.001,0.014917682276831733,0.01142334777507044,19.58225270225888,0.013977339544795775,0.02157376818358898
72,0.25,0.001,0.014830721358931254,0.0113088240492202,19.736711792718797,0.014087588717144038,0.018703889288008212
73,0.25,0.001,0.014772976367246537,0.011375580535876373,19.039005872938368,0.013589583064195837,0.022056926786899567
74,0.25,0.001,0.01469789572828819,0.011316311217489697,18.950399701557462,0.01352633811674337,0.01667719576507807
75,0.25,0.001,0.014742228039909922,0.011380528726629795,18.838963632734995,0.01344679773928265,0.01542797228321433
76,0.0,0.001,0.010937273732963063,0.010937273732963063,20.960379391624812,0.014961013127498082,0.018544008024036884
77,0.02,0.001,0.010568339371728519,0.010077838584898956,34.35958215622675,0.024525040796735724,0.012977994419634343
78,0.04,0.001,0.010798777412209247,0.00938764733691064,49.424827938988095,0.035278249778007205,0.021290439926087857
79,0.06,0.001,0.011494873257146942,0.009148104964858956,54.79704086061508,0.039112805753472576,0.013419265858829021
80,0.08,0.001,0.011913485479141984,0.009144945359892315,48.48405999077691,0.034606752313188376,0.015121644735336304
81,0.1,0.001,0.012017871551806964,0.00940417093298738,36.617947290814115,0.026137007345334844,0.018334135133773088
82,0.12,0.001,0.012360164082594334,0.00998575034891329,27.721281390719945,0.01978678186346891,0.033883842453360555
83,0.14,0.001,0.012559309734829835,0.010170802240452123,23.902137114509703,0.017060768818350967,0.03236705474555492
84,0.16,0.001,0.012999195230030824,0.010229913683401214,24.248523578946553,0.017308011119876197,0.024856119602918624
85,0.18,0.001,0.013159638329867333,0.009968984059043347,24.83392482333713,0.017725856404951557,0.01865346683189273
86,0.2,0.001,0.013475527283218172,0.010189262431647096,23.020284083532907,0.016431323400094865,0.014909543469548226
87,0.22,0.001,0.01375905955062499,0.010410116627694123,21.326677697802346,0.015222468021272195,0.023503457196056843
88,0.24,0.001,0.0139710560027096,0.010602663767834504,19.662990200708784,0.014034968023346741,0.012737096287310123
89,0.25,0.001,0.013996336431730361,0.01045582808613304,19.84100805615622,0.014162032873773177,0.016483143717050553
90,0.25,0.001,0.013801524770401773,0.010494602746551946,18.53199157109336,0.013227688487575561,0.014653532207012177
91,0.25,0.001,0.01385898098113045,0.01050031916016624,18.821942078121126,0.013434648164254907,0.021993369981646537
92,0.25,0.001,0.013876184880260437,0.010640375076660089,18.133478485591827,0.012943239461521646,0.033183449134230616
93,0.25,0.001,0.01363847301829429,0.010344504121513593,18.459402823069738,0.01317587639048518,0.016107446514070034
94,0.25,0.001,0.013754046400861135,0.010488715256372141,18.29891586303711,0.013061324670262034,0.012976017035543918
95,0.25,0.001,0.013636772624320455,0.010401700596724238,18.1293456789047,0.012940289563814917,0.01800669115036726
96,0.25,0.001,0.013643782999780443,0.010313416106833352,18.66337626623729,0.01332146771323147,0.01338519025593996
97,0.25,0.001,0.013666804052061506,0.010461956661726748,17.959965091281468,0.012819389786781918,0.01397310672327876
98,0.25,0.001,0.013536141345661784,0.010313486343338375,18.05975860111297,0.012890619986518895,0.01035846509039402
99,0.25,0.001,0.013450164155709364,0.010296297227106397,17.674269824557832,0.01261546739797133,0.015328896418213844
100,0.25,0.001,0.01354004687792252,0.010387650664363588,17.666027505057198,0.012609584229162881,0.013313358649611473
101,0.25,0.001,0.013455885075150975,0.010308014793646713,17.64066365559896,0.012591480125338301,0.02347589349374175
102,0.25,0.001,0.013492954149842262,0.010328300383001093,17.734719545879063,0.012658614950663142,0.024859248474240304
103,0.25,0.001,0.013447042040172077,0.010221281845773023,18.077159814985972,0.01290304055316629,0.035099858045578004
104,0.25,0.001,0.01338612006178924,0.010258748009800912,17.525793941437254,0.012509488894673272,0.03243330493569374
105,0.25,0.001,0.01330122889743911,0.010186219162174633,17.45651546054416,0.012460039586398401,0.029345197044312953
106,0.25,0.001,0.013450675469542307,0.01023092410926308,18.04348616827102,0.012879005116538915,0.017933587171137334
107,0.25,0.001,0.013111444896767063,0.009949852029482524,17.717565657600524,0.01264637091905819,0.013855099491775037
108,0.25,0.001,0.01322646832300557,0.010216398454374737,16.868432320488825,0.012040280028899947,0.021042877249419688
109,0.25,0.001,0.013251671248248645,0.010056789098159661,17.90412066020663,0.012779529379162477,0.02909858077764511
110,0.25,0.001,0.0132027532934906,0.010256264515457645,16.512123023139107,0.01178595504863605,0.0209756787866354
111,0.25,0.001,0.013154545166189708,0.010009045103594424,17.627383725605313,0.012582001231695441,0.021613054163753986
112,0.25,0.001,0.013153482725222905,0.009868198130575438,18.41073418874589,0.013141137893466019,0.024265313521027565
113,0.25,0.001,0.013184044113944447,0.010191886603004402,16.768051783243816,0.011968630823157614,0.033856263384222984
114,0.25,0.001,0.01303608842075817,0.010006963103891365,16.975217934260293,0.012116501023740395,0.022517082933336496
115,0.25,0.001,0.012991512336191677,0.00999343910269321,16.80120291936965,0.01199229330433237,0.0216013902798295
116,0.25,0.001,0.0131001813751128,0.010128034541886004,16.65591129121326,0.011888587645405612,0.015809417888522147
117,0.25,0.001,0.012963005249935483,0.009918262345332001,17.062739617483956,0.012178971889710176,0.0218399990350008
118,0.25,0.001,0.013086853318271183,0.010015543837041136,17.21161803593711,0.01228523771301721,0.017490319348871707
119,0.25,0.001,0.012981805571961024,0.009944385591716993,17.021702254764616,0.012149680410253116,0.030844248831272125
120,0.25,0.001,0.012931439310075744,0.009925343208606281,16.84616120959085,0.012024383447245431,0.02602788247168064
121,0.25,0.001,0.012952161402929397,0.010094570072870407,16.013943015204536,0.011430366177876185,0.03334925323724747
122,0.25,0.001,0.012906625358358263,0.009838073721362485,17.196163129049634,0.012274206373340209,0.021263529546558857
123,0.25,0.001,0.012940448339259813,0.00991739420486348,16.941195061093286,0.012092216317696849,0.024807778559625147
124,0.25,0.001,0.01287116048532346,0.009929255647436967,16.486434688265362,0.011767619334950295,0.02375206621363759
125,0.25,0.001,0.01289700037903256,0.009870097005651111,16.962765944950164,0.012107613094182844,0.014297113008797168
126,0.25,0.001,0.012718047358332173,0.009672020216073308,17.069937085348464,0.012184109268628453,0.009569828491657972
127,0.25,0.001,0.012731762345702875,0.009785691492022975,16.50978305150592,0.01178428483333756,0.01266394779086113
128,0.25,0.001,0.012627839326621993,0.009686360957603606,16.484044683547246,0.01176591340724286,0.013042577169835567
129,0.25,0.001,0.012577613543659922,0.009631902298757008,16.50776531280033,0.011782844620128716,0.012505392264574765
130,0.25,0.001,0.012623195305821441,0.00967249899866089,16.53570286584279,0.011802785771479507,0.011861125379800797
131,0.25,0.001,0.012472295152053,0.009532255705978189,16.475980416555252,0.011760157328019452,0.01243824465200305
132,0.25,0.001,0.012557054813655596,0.009644789937587958,16.320332515050495,0.011649059611028191,0.024227497912943364
133,0.25,0.001,0.012500464174127769,0.00962084581454595,16.13738196842254,0.011518473924641358,0.015355459973216056
134,0.25,0.001,0.012557183631828853,0.009660199083506115,16.234700993129184,0.011587937896594708,0.014621453918516636
135,0.25,0.001,0.012564215708583121,0.009577910123126848,16.735256552317786,0.01194522237852804,0.012948187254369258
136,0.25,0.001,0.012406364251815138,0.009479606098362377,16.40155406528049,0.011707033594061734,0.00867275232449174
137,0.25,0.001,0.01245982607323972,0.009655101493828826,15.71767622024294,0.011218898087254061,0.018181429989635945
138,0.25,0.001,0.012409824614841787,0.00953380282199572,16.117225235227554,0.011504086534780553,0.013891554623842239
139,0.25,0.001,0.012442086477364812,0.009513925412108028,16.40941441853841,0.011712644124581307,0.011898689344525338
140,0.25,0.001,0.012390422945221266,0.009452773533051921,16.462586212158204,0.011750596868064385,0.015480728819966316
141,0.25,0.001,0.012382919974033796,0.00951356619951271,16.0798588586232,0.011477415316647538,0.02392762489616871
142,0.25,0.001,0.012268513698308241,0.009419753514821567,15.964452501327273,0.011395041043060153,0.013344875164330005
143,0.25,0.001,0.012369975128344127,0.00948004832579976,16.195151053534612,0.011559708103879095,0.016376995667815208
144,0.25,0.001,0.0124021604243252,0.009494842822471308,16.29260728624132,0.011629270011592663,0.014272124134004116
145,0.25,0.001,0.012346138296619295,0.009387377954073368,16.580893652779714,0.011835041864939125,0.012103093974292278
146,0.25,0.001,0.012288581668621018,0.009410147232905267,16.13074725923084,0.011513738229286825,0.01890013236552477
147,0.25,0.001,0.012401694556077321,0.009551756261360077,15.971053180997334,0.011399752448963123,0.017665666062384844
148,0.25,0.001,0.012267794448231895,0.00928721668287402,16.703157648964535,0.011922310955720581,0.018259188905358315
149,0.25,0.001,0.012262029005658058,0.009357177149800082,16.27879015604655,0.011619407677406532,0.015941444784402847
150,0.25,0.001,0.01221776460962636,0.009409029589640716,15.740151232764834,0.011234940208968475,0.009912303183227777
151,0.25,0.001,0.012119419651017302,0.009250976973109774,16.074752553304037,0.011473770559103523,0.01264402475208044
152,0.25,0.001,0.012224372287118245,0.009395152052480076,15.854951440720331,0.011316881827780394,0.01427629142999649
153,0.25,0.001,0.012206208501898108,0.009340356964440574,16.06023254394531,0.01146340652672756,0.014424423314630985
154,0.25,0.001,0.012155184137915808,0.009265322353513468,16.19478606572227,0.011559447584384203,0.012177767790853977
155,0.25,0.001,0.012141081817921192,0.009271909222598114,16.078843598138718,0.011476690648207508,0.017237171065062284
156,0.25,0.001,0.01221278231472723,0.009390197629256854,15.817764124794612,0.011290338418839838,0.02865085154771805
157,0.25,0.001,0.012136291789393577,0.009377928181654878,15.45786940862262,0.01103345425312107,0.027249982021749018
158,0.25,0.001,0.012174906895037682,0.009365964201944216,15.741315526810903,0.011235771253969238,0.018634952418506146
159,0.25,0.001,0.01206783510981098,0.009157074458660588,16.311902124919587,0.011643042201941177,0.016301003657281397
160,0.25,0.001,0.012144972085361442,0.00929448785230754,15.974112332056439,0.011401935997185182,0.02307875920087099
161,0.25,0.001,0.012022469695361833,0.009211320447779838,15.753680395701576,0.011244596999073216,0.019259544648230077
162,0.25,0.001,0.011995080953079556,0.009164388797112873,15.86319906143915,0.011322768780470486,0.02262907139956951
163,0.25,0.001,0.01206269987991878,0.009241315822989222,15.811036539834642,0.0112855364310026,0.01574978493154049
164,0.25,0.001,0.012098675643995641,0.009289114354621797,15.74478287469773,0.011238246163238923,0.014287511445581913
165,0.25,0.001,0.012006466741126681,0.009184906170481727,15.812024646335178,0.011286241717583996,0.01385968942195177
166,0.25,0.001,0.012087241486306228,0.009217561884886689,16.081684808882457,0.011478718635890405,0.012756767682731152
167,0.25,0.001,0.012018004325883729,0.009153659795484846,16.051787019154382,0.011457378314885355,0.01498089600354433
168,0.25,0.001,0.012060686975481018,0.009143027757841444,16.350561281234498,0.011670636175042468,0.013578186184167862
169,0.25,0.001,0.01203835028268042,0.009251044099293058,15.620064266144283,0.011149225029367797,0.012491876818239689
170,0.25,0.001,0.011939316302064865,0.009073719781424319,16.058802955869645,0.011462386121248854,0.018620089255273344
171,0.25,0.001,0.012033749034716969,0.009205216281707325,15.851098021249923,0.011314131349928567,0.015605619177222252
172,0.25,0.001,0.012055932721566586,0.009243169542224634,15.762725321451823,0.011251053048859259,0.012235267274081706
173,0.25,0.001,0.01193894577168283,0.009044779538516961,16.218909000215078,0.01157666595304431,0.014184815622866154
174,0.25,0.001,0.01189628741334355,0.009123888047086814,15.53652582319956,0.011089597304210963,0.015142198838293552
175,0.25,0.001,0.01193587150247324,0.009094659171052396,15.922152740236312,0.01136484849410158,0.011069416254758834
176,0.25,0.001,0.011961281361679236,0.009064067155122757,16.235988489786784,0.01158885688064724,0.012411076761782169
177,0.25,0.001,0.011990617493551875,0.009130954112680185,16.02555376991393,0.011438653654471042,0.012918534502387048
178,0.25,0.001,0.011899750100241767,0.009062093756501638,15.90222639053587,0.011350625546421035,0.013776463642716407
179,0.25,0.001,0.011754586115952523,0.009026106251847176,15.29040165855771,0.010913919813388802,0.010893993079662323
180,0.25,0.001,0.011804957194105974,0.009032496768567298,15.536868588886565,0.011089841962088912,0.010263059753924608
181,0.25,0.001,0.011817738999213491,0.00902167068173488,15.669166988796658,0.01118427336816321,0.008504012133926153
182,0.25,0.001,0.011921051351560488,0.009205963433025375,15.215352043272956,0.010860351208617385,0.011696863267570735
183,0.25,0.001,0.01191068250863325,0.009016366619321089,16.219745984153143,0.01157726337198654,0.012953153811395168
184,0.25,0.001,0.011856588372398936,0.009029149323228805,15.844969104585193,0.011309756677077225,0.016412793099880217
185,0.25,0.001,0.01188950947234555,0.009086543422133204,15.707821873256139,0.011211864292117159,0.027125094085931778
186,0.25,0.001,0.01186941439906756,0.009085569273503053,15.600668068537637,0.011135380491461554,0.021335930004715918
187,0.25,0.001,0.011885091133179173,0.009086700969390453,15.682178491259378,0.011193560664710478,0.02377675175666809
188,0.25,0.001,0.011932140701110401,0.009109256044030189,15.819445104447622,0.011291538261561472,0.025657908990979195
189,0.25,0.001,0.011921774933025951,0.009109245506780488,15.761415121290419,0.011250117859593447,0.025178100913763046
190,0.25,0.001,0.011862916298328884,0.009025537376365965,15.900672204153878,0.011349516205677286,0.012594773434102535
191,0.25,0.001,0.011729463337669296,0.008847498887824634,16.15052876245408,0.011527857789046452,0.015629931539297103
192,0.25,0.001,0.011714272387325763,0.00897257456940318,15.364473660786947,0.010966790621546714,0.013019542954862118
193,0.25,0.001,0.011680793667596483,0.008984246255741233,15.111453122941274,0.010786190665910973,0.011552153155207634
194,0.25,0.001,0.011744795390774334,0.008950200070819212,15.660913346305726,0.011178382117277463,0.013726330362260342
195,0.25,0.001,0.011781231979174273,0.009020110799206628,15.473323049999419,0.01104448468950708,0.013635964132845402
196,0.25,0.001,0.011843804509512015,0.009036611331005891,15.731510471162341,0.011228772641800387,0.013090310245752334
197,0.25,0.001,0.01173621615365384,0.008914417146690308,15.813363756452288,0.011287197542078721,0.011842167470604181
198,0.25,0.001,0.011709565450511281,0.009006489541322465,15.148036611647832,0.010812303077550201,0.011797989159822464
199,0.25,0.001,0.011815530851128556,0.00897840176605516,15.899271429152716,0.011348516366276028,0.012955996207892895
200,0.25,0.001,0.011781219035268777,0.008880845025654824,16.25369630843874,0.011601496294388823,0.019165914878249167
201,0.25,0.001,0.011796746876031633,0.009062872637831976,15.32063101511153,0.010935496798794811,0.021142256818711756
202,0.25,0.001,0.011847565006760378,0.009050359946512987,15.67553757258824,0.01118882053717933,0.015698609314858912
203,0.25,0.001,0.011704977856032433,0.008909678955872854,15.664857034834604,0.011181197027005428,0.013581858761608601
204,0.25,0.001,0.011732987503683756,0.009033876276087193,15.125820141746884,0.010796445497321117,0.01604130081832409
205,0.25,0.001,0.01181820442397443,0.009077592395127766,15.358390105716765,0.010962448326707184,0.016264728643000124
206,0.25,0.001,0.01166573003644035,0.008801894998621372,16.04893153962635,0.011455340142488472,0.012055111676454544
207,0.25,0.001,0.011725721611744828,0.008966262277866167,15.464009094238282,0.01103783661258978,0.01434592567384243
208,0.25,0.001,0.011620398285606551,0.008836169041220157,15.60282073550754,0.011136917013210236,0.013368040323257446
209,0.25,0.001,0.011631432870432497,0.008883837069429102,15.397525926620242,0.010990382531491965,0.012606175988912583
210,0.25,0.001,0.01161289458414392,0.008841687210258983,15.529845649477036,0.011084829157371188,0.01719912961125374
211,0.25,0.001,0.011708194862992044,0.008916981604009394,15.641958654494513,0.011164852715556397,0.018276792764663697
212,0.25,0.001,0.011689285472744988,0.008920322867139938,15.517265301658993,0.011075849608607418,0.015307381004095077
213,0.25,0.001,0.01158555205024424,0.008748808106969274,15.89711244673956,0.011346975336716317,0.012336067482829094
214,0.25,0.001,0.011532869042148666,0.00879698351380371,15.331903185163226,0.01094354260182957,0.01632626000791788
215,0.25,0.001,0.011638333060083881,0.00890314822632169,15.327976002768864,0.0109407394737822,0.014131700433790684
216,0.25,0.001,0.011568087717843433,0.008754765342861888,15.765859016539558,0.011253289804810534,0.012224873341619969
217,0.25,0.001,0.011632844223271287,0.00891212426894714,15.246913915967184,0.010882879311896633,0.011235837172716857
218,0.25,0.001,0.011578234947390027,0.008816899400618342,15.474524283030677,0.011045342100664294,0.017461859807372093
219,0.25,0.001,0.01160054359407652,0.008787077742200049,15.766664038764105,0.011253864410252752,0.013579419068992137
220,0.25,0.001,0.011568967536801384,0.008848392437138254,15.246104164729042,0.010882301330998602,0.019600170105695723
221,0.25,0.001,0.011610460976168276,0.008814956620335579,15.666007556612529,0.011182018241693454,0.01976705137640238
222,0.25,0.001,0.011605287618225529,0.008828562128520201,15.560770488920665,0.011106902561684987,0.015452472679316997
223,0.25,0.001,0.011524985692212506,0.008764145753922916,15.471746066259959,0.01104335907655957,0.011374785378575326
224,0.25,0.001,0.011530765707767199,0.008808649097761464,15.254742934211851,0.010888467476239722,0.012923140823841096
225,0.25,0.001,0.011559251453431826,0.008790858648717403,15.51407290564643,0.011073570953352199,0.014703638851642609
226,0.25,0.001,0.01154206335130665,0.008727570433938315,15.772418330964587,0.011257971685199562,0.018210047110915183
227,0.25,0.001,0.011546021395377696,0.008759081150804248,15.618012001400903,0.011147760172306141,0.013190524373203515
228,0.25,0.001,0.011433812978840064,0.00870443583126106,15.295430525522383,0.010917509297303628,0.016874642670154573
229,0.25,0.001,0.011460540121391652,0.008776490952050875,15.041410939655607,0.010736196245293081,0.013234600983560085
230,0.25,0.001,0.011578126639009468,0.00879272979403299,15.60936460646372,0.011141587870423783,0.01880206260830164
231,0.25,0.001,0.01148610861587619,0.008733538174558254,15.425405550759937,0.011010282334589535,0.019341595843434332
232,0.25,0.001,0.011549098777865606,0.008813265622371719,15.33160921429831,0.010943332772518423,0.012321129161864518
233,0.25,0.001,0.011491050343546602,0.008627290352587661,16.048512098524306,0.011455040755549113,0.01117828767746687
234,0.25,0.001,0.011458594482096414,0.008657136710271948,15.699369678800068,0.011205831319628885,0.012286533042788506
235,0.25,0.001,0.011460645573716314,0.008710233068891933,15.41331234583779,0.011001650496672228,0.010444608051329851
236,0.25,0.001,0.011487634343996881,0.008731165804737618,15.447249382261246,0.01102587393451909,0.01128190364688635
237,0.25,0.001,0.011485751972548546,0.008708243252384285,15.565160418313647,0.011110035987375907,0.012196871265769006
238,0.25,0.001,0.011387747372426683,0.008631913585677033,15.443692122565375,0.01102333484836929,0.015192636288702488
239,0.25,0.001,0.011523898155798042,0.008808192782222278,15.218814940679641,0.010862822941241714,0.012885810621082783
240,0.25,0.001,0.011374516740796111,0.008558986025551956,15.778233685569157,0.011262122545017243,0.012721734493970871
241,0.25,0.001,0.011446008659780972,0.008761561484563918,15.043642137921045,0.0107377888207859,0.018564102053642274
242,0.25,0.001,0.011414673194170945,0.008648702806778371,15.500498132857066,0.011063881608035023,0.012377378158271312
243,0.25,0.001,0.011421576284226917,0.008603285773405953,15.793699434068468,0.01127316162317521,0.011518111638724803
244,0.25,0.001,0.011398408757079216,0.008694869735174708,15.150632264879015,0.010814155792204865,0.011169353127479553
245,0.25,0.001,0.011427005628744762,0.008751152559287018,14.995480912829203,0.010703412500234977,0.012873231805860997
246,0.25,0.001,0.011448387532598442,0.008655229751907644,15.652855231269957,0.011172630429171989,0.018506975658237935
247,0.25,0.001,0.011435726373678162,0.008709039482923727,15.280353806510805,0.010906747899008426,0.013241452537477017
248,0.25,0.001,0.011479073354885691,0.008711337466679868,15.510392010401166,0.011070943619130025,0.016614224947988986
249,0.25,0.001,0.011392996262108523,0.008597196490755157,15.667661812191918,0.011183199009416073,0.020188883319497107
250,0.25,0.001,0.011494050103993642,0.008848669344470615,14.824713204398988,0.010581522629835109,0.017939089238643645
251,0.25,0.001,0.011427974541272435,0.008709399375532355,15.234895182412767,0.010874300629844945,0.015352572407573461
252,0.25,0.001,0.011364046292054274,0.008608736378687715,15.440755677601647,0.01102123888479775,0.018907578475773335
253,0.25,0.001,0.0114249199333172,0.00871103952328364,15.208587143913148,0.010855522586661776,0.0185360599309206
254,0.25,0.001,0.011419920945569637,0.008600569936254668,15.799643231952,0.011277404162706638,0.01452945712953806
255,0.25,0.001,0.011365399352969631,0.00864334563828177,15.254388364156087,0.010888214392688143,0.016675256192684174
256,0.25,0.001,0.011335992351883933,0.008673649520746299,14.91976796710302,0.01064937042619773,0.016963981837034226
257,0.25,0.001,0.011376147548712435,0.008635832641332868,15.356724708799332,0.010961259606566262,0.015090394578874112
258,0.25,0.001,0.011391594790158764,0.00852356937433046,16.072415227738638,0.011472102232504382,0.015384816005825997
259,0.25,0.001,0.011482981621982559,0.008747143632481023,15.33163632892427,0.010943352126284276,0.019100002013146877
260,0.25,0.001,0.011400643700645084,0.008664258424606589,15.334702730935717,0.010945540850061183,0.022580753639340402
261,0.25,0.001,0.011325812023428698,0.008547133228017225,15.571714749411932,0.011114714310786531,0.013117056246846915
262,0.25,0.001,0.011408909324497457,0.008768339676871186,14.797753594413637,0.010562279510644994,0.012800166197121144
263,0.25,0.001,0.011414219734687654,0.008602239939546775,15.758334783523802,0.011247919188810709,0.013871932961046695
264,0.25,0.001,0.01137089358554,0.008597619130852677,15.54143074883355,0.011093098321794111,0.02171461284160614
265,0.25,0.001,0.01129033166087336,0.008562226540275983,15.288300907801068,0.010912420348180634,0.016371690109372138
266,0.25,0.001,0.01135364142024801,0.008601813243022042,15.421245023939345,0.011007312650920304,0.019162477925419807
267,0.25,0.001,0.011385710989790304,0.008641502184290734,15.37854714469304,0.010976835934827296,0.020133015140891074
268,0.25,0.001,0.011265662897910391,0.008468398431109057,15.675870532081241,0.011189058195632578,0.011760090105235576
269,0.25,0.001,0.011186287957169708,0.008543564373302082,14.809822485182021,0.01057089399370594,0.009059308469295502
270,0.25,0.001,0.011269808060947864,0.008611583440668053,14.896690686543783,0.010632898420088353,0.012287786230444908
271,0.25,0.001,0.011402198388462974,0.008672025403569615,15.29988912552122,0.010920691738416288,0.012419422157108784
272,0.25,0.001,0.011299090241155926,0.008540827579914577,15.45730321369474,0.011033050116841355,0.013429790921509265
273,0.25,0.001,0.011388208388927437,0.008603636423746746,15.604741626315647,0.011138288098726372,0.009200559742748738
274,0.25,0.001,0.011364867331253158,0.00858965293755607,15.552302887326196,0.01110085859195303,0.013235517870634794
275,0.25,0.001,0.011308687165497787,0.008544479839740292,15.490618496849423,0.011056829762205156,0.011117000877857209
276,0.25,0.001,0.011308562619582055,0.008576971558587892,15.307834921942817,0.010926363256204724,0.01122352434322238
277,0.25,0.001,0.011208245371069228,0.00845586018311599,15.424365630982415,0.011009540064941052,0.011219893395900727
278,0.25,0.001,0.011297362865436644,0.008572284738341021,15.27133878072103,0.010900313191092812,0.010840277560055256
279,0.25,0.001,0.011257330115352357,0.008558681249500268,15.123229014684284,0.010794596013336391,0.01024027932435274
280,0.25,0.001,0.011236865868762371,0.00854088052338551,15.108301610795278,0.01078394119257336,0.009278520941734314
281,0.25,0.001,0.011258464942257556,0.008425265388001524,15.877250607808431,0.011332798435266547,0.013950412161648273
282,0.25,0.001,0.01124089750505629,0.008504767497144048,15.333272549462697,0.010944520021029762,0.013155654817819596
283,0.25,0.001,0.011256775830591481,0.008620299827603121,14.774810830373612,0.010545903519181736,0.012809976004064083
284,0.25,0.001,0.011228503295708271,0.008449649388000132,15.572697188362243,0.011115415552007311,0.01155448742210865
285,0.25,0.001,0.011316212458861252,0.008647031073887196,14.958092477586534,0.010676725537178113,0.013406876660883426
286,0.25,0.001,0.011226671079676303,0.008468356406286596,15.457594992622496,0.01103325838160064,0.009997569862753153
287,0.25,0.001,0.01120477228292397,0.008441074715838546,15.487761343093146,0.011054790394784544,0.011047407798469067
288,0.25,0.001,0.011135578675875588,0.008501153326933346,14.763319536239381,0.01053770131066337,0.010668783821165562
289,0.25,0.001,0.011175256731018187,0.00849120437744118,15.041431039477152,0.010736210592060778,0.012873220071196557
290,0.25,0.001,0.01117987988132333,0.008442208952906113,15.341908936273484,0.010950684465577076,0.012266714498400689
291,0.25,0.001,0.0112489697538198,0.008522440637979243,15.279469780694871,0.010906116902708688,0.011681717820465565
292,0.25,0.001,0.011125651433590858,0.008363783031347253,15.477509250338116,0.011047472698314144,0.011174084059894085
293,0.25,0.001,0.011140792465044392,0.008407333552364319,15.318304591708714,0.010933836253896299,0.009843842498958111
294,0.25,0.001,0.011145541683903762,0.008451452907470484,15.097674415225075,0.01077635575676308,0.010308289062231779
295,0.25,0.001,0.011131933284184289,0.008480926124112947,14.856242830791171,0.010604027716481921,0.00916005317121744
296,0.25,0.001,0.01112952729066213,0.008489684340736223,14.793679936726887,0.010559371832067729,0.011232344061136245
297,0.25,0.001,0.011070955071657423,0.008369244543451166,15.140386853899274,0.010806842865024464,0.016702271811664105
298,0.25,0.001,0.0112852429231954,0.008627184332599716,14.895761232527475,0.01063223499823517,0.020251957885921
299,0.25,0.001,0.011174071148510963,0.008508035179878038,14.940466117858886,0.010664144266851453,0.014384463056921959
300,0.25,0.001,0.011370210133729472,0.008649072373315456,15.249256400456504,0.01088455132081121,0.017767130210995675
301,0.25,0.001,0.011275016019741695,0.008491704991412542,15.597674418252613,0.011133243696111786,0.014518526941537857
302,0.25,0.001,0.011255615594841185,0.008537192447554498,15.234044299049984,0.010873693289828682,0.012154966592788696
303,0.25,0.001,0.011209590183127494,0.00848290195008592,15.280361962696862,0.01090675372069726,0.018049433827400208
304,0.25,0.001,0.011255823418734566,0.00859136095359212,14.931648354303269,0.010657850359959507,0.019736253656446934
305,0.25,0.001,0.011256549055022852,0.008492101622479303,15.491964016263447,0.01105779016150139,0.023910383135080336
306,0.25,0.001,0.01125365671302591,0.00843375792933835,15.80271247984871,0.011279594917807787,0.0151841651648283
307,0.25,0.001,0.011234165816789581,0.008536155409519635,15.119651464432005,0.010792042444276949,0.0174271235242486
308,0.25,0.001,0.011127838693440906,0.008444369865197037,15.038160411895268,0.010733876096998763,0.01148572824895382
309,0.25,0.001,0.011232354486035922,0.008502580946873105,15.297650334191701,0.010919093743177517,0.013575982861220836
310,0.25,0.001,0.011070652959483956,0.008393980284768437,15.000072733561199,0.010706690031092933,0.010185051057487727
311,0.25,0.001,0.01116207360866524,0.008469212747045925,15.090792437962124,0.010771443567424785,0.013206441700458527
312,0.25,0.001,0.01114090329538735,0.008428186583258803,15.202065198383634,0.010850867379288818,0.017665288969874383
313,0.25,0.001,0.011209570356304684,0.008521687733157287,15.062894270155166,0.0107515305283049,0.018778472766280176
314,0.25,0.001,0.011146826297044754,0.008436015200993371,15.19138525402735,0.01084324429266763,0.014882727339863778
315,0.25,0.001,0.011165014663267704,0.008489045015876256,14.996133401658799,0.010703878231019842,0.015156311355531216
316,0.25,0.001,0.011105835360903588,0.008346992479785095,15.460556139264789,0.011035371976634395,0.016242743656039237
317,0.25,0.001,0.011136381863246834,0.008420766916658197,15.218306880527072,0.010862460300162078,0.012534400634467601
318,0.25,0.001,0.011038918361540825,0.008317487521304024,15.250898076617528,0.010885723109648485,0.011513866670429706
319,0.25,0.001,0.011039651179360965,0.008393170566312851,14.830876295907157,0.010585921695865207,0.015419170446693897
320,0.25,0.001,0.011127422176419743,0.008461365564948036,14.940580428592742,0.010664225859095463,0.011082351207733154
321,0.25,0.001,0.011144673481347069,0.008406265700856844,15.34603775266617,0.010953631515107901,0.018711345829069616
322,0.25,0.001,0.011128421645197603,0.008436960348534205,15.082949299282499,0.010765845324255887,0.019845101051032543
323,0.25,0.001,0.01113671896358331,0.00847425391631467,14.92045489417182,0.010649860738166896,0.013084491342306137
324,0.25,0.001,0.011064414289735612,0.008365626754387031,15.124006565033444,0.010795151010016733,0.011615030467510223
325,0.25,0.001,0.01103674377950411,0.008316492221303403,15.24429013994005,0.0108810065238687,0.009895389713346959
326,0.25,0.001,0.011089878564789182,0.008347448141920188,15.368580703129844,0.010969722129286113,0.014630325697362423
327,0.25,0.001,0.011084844538616755,0.00845246956875873,14.751830609639486,0.010529500792033894,0.015764523297548294
328,0.25,0.001,0.011048124709890948,0.008377434804089486,14.966546891227601,0.010682760093667096,0.012596654146909714
329,0.25,0.001,0.011070373896805067,0.008400745311426738,14.960598476349361,0.010678514258636232,0.013376009836792945
330,0.25,0.001,0.011111421921541766,0.008392888550010939,15.234661005413722,0.010874133479952692,0.016899440623819827
331,0.25,0.001,0.011035296693444252,0.008293483444740847,15.365122256203303,0.01096725357330714,0.016065092477947473
332,0.25,0.001,0.011168752282503105,0.008524919230313528,14.81604068392799,0.010575332393952884,0.014654629305005074
333,0.25,0.001,0.0110498490462464,0.008236690078462873,15.76494376772926,0.011252636522290693,0.010762210004031658
334,0.25,0.001,0.011109179964969082,0.008308634271342603,15.69425824180482,0.011202182899218286,0.010308821871876716
335,0.25,0.001,0.011050458814180087,0.008410102930215616,14.796555773417156,0.010561424534915886,0.01207808218896389
336,0.25,0.001,0.011009323505300378,0.008343401190543932,14.939829850575281,0.010663690114614762,0.009173547104001045
337,0.25,0.001,0.010999663741815657,0.008289389607925263,15.188377552940732,0.01084109746819467,0.01218379782512784
338,0.25,0.001,0.011070259737353476,0.008364886836340976,15.160910306658064,0.010821492010462572,0.010926173813641072
339,0.25,0.001,0.011021709113958337,0.008273461987338368,15.401177427503798,0.010992988884727908,0.012302838824689388
340,0.25,0.001,0.011130868418822213,0.008382726589306479,15.400587548149957,0.010992567843076343,0.011297663487493993
341,0.25,0.001,0.011051581229364116,0.008254332855225555,15.675779639350043,0.011188993318593892,0.01323675150051713
342,0.25,0.001,0.010985510873179586,0.008262575713414995,15.259329356844463,0.01089174115406457,0.012891031987965106
343,0.25,0.001,0.011057089854563986,0.00845022001377647,14.608900133768717,0.010427480466644337,0.014744675066322089
344,0.25,0.001,0.0110606318842324,0.008375096986336367,15.049738420758928,0.01074214020039895,0.012430789973586797
345,0.25,0.001,0.011056823011428591,0.008277731495244162,15.574028735690646,0.011116365978365914,0.010191408079117536
346,0.25,0.001,0.011044750176370143,0.008314162761800819,15.302212427532861,0.010922350055341087,0.013490614481270313
347,0.25,0.001,0.011038827789681299,0.00836008811399104,15.011656697591146,0.010714958385147142,0.014938601851463318
348,0.25,0.001,0.011028879401939256,0.008419762341867363,14.62149273705861,0.010436468763068243,0.013658699765801429
349,0.25,0.001,0.011038315887489016,0.008272395093762685,15.500220180693127,0.011063683212486172,0.012255471013486386
350,0.25,0.001,0.010957255521937022,0.008220765529762185,15.33529130542089,0.010945960960328972,0.012043317407369613
351,0.25,0.001,0.01102119814013205,0.008400650511658381,14.685549481709797,0.01048219092199129,0.011273275688290596
352,0.25,0.001,0.011068744247867947,0.008351573167693993,15.227025231860933,0.010868683249008517,0.016709989588707685
353,0.25,0.001,0.011036715278076746,0.008396211816441445,14.797381455557687,0.0105620138869077,0.015557884052395821
354,0.25,0.001,0.011147653500712108,0.008362480903428698,15.608107703072685,0.011140690723106842,0.015623261593282223
355,0.25,0.001,0.01099290804612258,0.00825539996463155,15.340995255727616,0.01095003230244655,0.010937497206032275
356,0.25,0.001,0.011013114115311987,0.008337217312128772,14.995726146395244,0.010703587542038004,0.011090316623449326
357,0.25,0.001,0.011051648524072435,0.008361376960954023,15.076281735253712,0.010761086177911286,0.01570317819714546
358,0.25,0.001,0.01098105160903836,0.008285883388348987,15.103722835722424,0.010780672973392165,0.013350259233266114
359,0.25,0.001,0.010935114782362703,0.008235137903737644,15.130670480879527,0.010799907552376536,0.01506186816841364
360,0.25,0.001,0.0109192466481574,0.00822047463189515,15.123918845161558,0.010795088397688479,0.0118470111861825
361,0.25,0.001,0.010952122024600467,0.008302496480090278,14.848500076172844,0.01059850112503415,0.013612526468932629
362,0.25,0.001,0.010998782157779686,0.008285768040352397,15.203730437869117,0.010852055987058613,0.011700354423373938
363,0.25,0.001,0.011011608169665413,0.008321169527277114,15.077219060867552,0.01076175521832088,0.00980177167803049
364,0.25,0.001,0.010955052414820308,0.008216740808907955,15.345497534010146,0.010953245920064344,0.00842402121052146
365,0.25,0.001,0.010921072445455052,0.008229614282766032,15.082932662963866,0.01076583344965301,0.01026927437633276
366,0.25,0.001,0.010924955936414855,0.008273890762338563,14.85656861199273,0.010604260251243919,0.012330826930701732
367,0.25,0.001,0.010895287378558091,0.008181081233280046,15.210411886184934,0.01085682504367233,0.013012642785906792
368,0.25,0.001,0.010975015787259927,0.008286030138177532,15.069076056707473,0.010755942938406477,0.015223929472267628
369,0.25,0.001,0.011036635908697332,0.00836293731653501,14.983408001491002,0.010694795147388296,0.012039338983595372
370,0.25,0.001,0.010959733703306744,0.008228888797263304,15.303654425484794,0.010923379318690075,0.015308528579771519
371,0.25,0.001,0.010950604908996159,0.008279323784841431,14.969858899192204,0.01068512412504797,0.01977553479373455
372,0.25,0.001,0.010946056069362732,0.008246721358348925,15.127071837773398,0.010797338927746893,0.018146074377000332
373,0.25,0.001,0.010844708157200662,0.008124491859168288,15.244093353029282,0.010880866062119401,0.010245335288345814
374,0.25,0.001,0.01095057762863617,0.008283427106364379,14.946711740039644,0.010668602241284542,0.01118659097701311
375,0.25,0.001,0.010885225798165988,0.008157166708556433,15.288044478401305,0.010912237315061604,0.009389250352978707
376,0.25,0.001,0.010943272698020179,0.00829998611930817,14.812977488078769,0.010573145958657222,0.011289568617939949
377,0.25,0.001,0.010940594261600857,0.008253837489182987,15.056585387578087,0.010747027400127115,0.013647532649338245
378,0.25,0.001,0.010863754635174123,0.008195739072407521,14.951559033469549,0.010672062122390826,0.010989474505186081
379,0.25,0.001,0.010933252497916183,0.00830179818477186,14.746670008462573,0.01052581727941654,0.013173275534063578
380,0.25,0.001,0.010968086277208631,0.008269433686066242,15.1232482244098,0.010794609724775018,0.014871475473046302
381,0.25,0.001,0.011020066491549923,0.008206042002827402,15.7697933802529,0.011256098058710135,0.01975762229412794
382,0.25,0.001,0.011019013156848294,0.008288562463389503,15.301445615859258,0.010921802723668278,0.014800007827579975
383,0.25,0.001,0.01084756079529013,0.008121145599418216,15.27883046468099,0.010905660574361877,0.014004220813512802
384,0.25,0.001,0.011023656494678959,0.00831593359924025,15.174080667041597,0.010830892695961169,0.01240837648510933
385,0.25,0.001,0.010932213600192751,0.008186950020137288,15.384455387176029,0.010981053095771612,0.015345162153244019
386,0.25,0.001,0.010878624367926802,0.008247909233683631,14.742529136415511,0.010522861624850471,0.010261507704854012
387,0.25,0.001,0.010999489764845561,0.008354186053786959,14.824282010396322,0.010581214853958831,0.014931243658065797
388,0.25,0.001,0.010893637009911122,0.008164318993924157,15.295097257220556,0.01091727141843009,0.014344141446053981
389,0.25,0.001,0.010873511670127747,0.00820433044776557,14.958092562357585,0.010676725597685642,0.010922975931316614
390,0.25,0.001,0.01089740562592707,0.008222256577204145,14.991536004202706,0.010700596719630768,0.01251185405999422
391,0.25,0.001,0.01091307680758219,0.00823341833634509,15.016806142292326,0.010718633934541274,0.011354431882500649
392,0.25,0.001,0.010946731455624104,0.008186638207426147,15.467561933729383,0.011040372543704057,0.009670893661677837
393,0.25,0.001,0.010878529180846516,0.008155344198975298,15.260728127615792,0.010892739562894927,0.01003858745098114
394,0.25,0.001,0.010879816667782882,0.00819692180920688,15.034943880353655,0.010731580214385193,0.011017450783401727
395,0.25,0.001,0.010844476343620391,0.008143303578808193,15.137372910030304,0.010804691584604072,0.01164866266772151
396,0.25,0.001,0.010853810153073734,0.008209774686053158,14.817174693516323,0.010576141822638347,0.011231095343828202
397,0.25,0.001,0.010866446411680608,0.00821169548860145,14.87722371116517,0.010619003362716038,0.01643401775509119
398,0.25,0.001,0.011028206037978331,0.008333541279924767,15.10090107993474,0.010778658872187537,0.0153218075633049
399,0.25,0.001,0.010936508862863457,0.008174063022884112,15.480747543819367,0.01104978411407521,0.012825217470526696
400,0.25,0.001,0.01096393492013689,0.008282406347256804,15.02728646293519,0.010726114534571871,0.01171461008489132
401,0.25,0.001,0.010878854055726339,0.008235037533773316,14.815948156326536,0.010575266349983252,0.012456809543073178
402,0.25,0.001,0.010843939316414652,0.008174433851880686,14.959908406696622,0.010678021703566468,0.010293567180633545
403,0.25,0.001,0.010834414804620402,0.008132830303576257,15.139680483984568,0.010806338675220963,0.00983390472829342
404,0.25,0.001,0.01092403671216397,0.008244239630561973,15.017583383832658,0.010719188710801327,0.01309776920825243
405,0.25,0.001,0.010919767913837282,0.008179959696200159,15.35388628944518,0.010959233611309908,0.015666960552334786
406,0.25,0.001,0.010911011639686804,0.0081931809111247,15.230723390125092,0.010871322905157096,0.013800308108329773
407,0.25,0.001,0.010879652823011081,0.008201256086902012,15.009734713841999,0.01071358651951606,0.009781444072723388
408,0.25,0.001,0.010793728665226982,0.008003927578055669,15.634045001438686,0.01115920414092697,0.010777081549167632
409,0.25,0.001,0.010877898492155567,0.008212624265561028,14.936196675376287,0.01066109684181034,0.016728512942790985
410,0.25,0.001,0.010838748446650922,0.008162301271739933,14.998810092986576,0.010705788788712759,0.012154061160981656
411,0.25,0.001,0.010805759221197121,0.008101252235826991,15.156057445586674,0.01081802815530812,0.011254663951694966
412,0.25,0.001,0.01089838527675186,0.008177680587248196,15.24683009253608,0.010882819480753803,0.009914600290358067
413,0.25,0.001,0.010823408171298012,0.008100736354078566,15.257852799551827,0.010890687223091954,0.011603918857872486
414,0.25,0.001,0.010838712982478595,0.008133070094008295,15.162421983385842,0.010822571008840716,0.011947469040751457
415,0.25,0.001,0.010733315638369984,0.007992526953892102,15.359380897643074,0.010963155530080709,0.01095735765993595
416,0.25,0.001,0.010760888344948254,0.008101033744594408,14.905825466579861,0.010639418605695831,0.011975223198533058
417,0.25,0.001,0.010914197368990807,0.008262687541603569,14.859060902065702,0.010606039187769952,0.011677314341068269
418,0.25,0.001,0.01079719468714699,0.008020037856130372,15.563188092670744,0.011108628188915592,0.00975945284590125
419,0.25,0.001,0.010799716141015764,0.008116931255374635,15.034325369577559,0.010731138736315173,0.012228098139166832
420,0.25,0.001,0.010701469645377189,0.008037607886251949,14.928281293596541,0.010655447033259487,0.017798084951937198
421,0.25,0.001,0.0107776598236154,0.008104937210206001,14.97793995993478,0.010690892191245381,0.012259215023368597
422,0.25,0.001,0.010779245688565194,0.008000120393458814,15.574218519907149,0.011116501441760991,0.016042878665030003
423,0.25,0.001,0.010824906698886364,0.008182416596109904,14.808515194484166,0.010569960881145014,0.019624129869043827
424,0.25,0.001,0.0108392700316414,0.008198084719183426,14.801204112219432,0.010564742407008873,0.013281116262078285
425,0.25,0.001,0.010823814310724773,0.008076839706313515,15.39404581463526,0.01098789851151696,0.011919928155839444
426,0.25,0.001,0.010755508283655795,0.00801953034741538,15.332421148390997,0.010943912311485365,0.011259337328374386
427,0.25,0.001,0.010858354954019425,0.008240239569059914,14.671919250488282,0.010472461991783213,0.012786773685365915
428,0.25,0.001,0.010883307684626845,0.008175088326254534,15.176862274654328,0.010832878140367114,0.011785510182380676
429,0.25,0.001,0.010833625155427153,0.008087184011108346,15.391055721706815,0.010985764255322494,0.014751667529344559
430,0.25,0.001,0.010776215688221985,0.008102840947962943,14.9815920632983,0.010693498974516989,0.013894539512693881
431,0.25,0.001,0.010840286710669124,0.008132266460193528,15.175744498722137,0.01083208029887376,0.012161399237811565
432,0.25,0.001,0.010769450265382017,0.008059962448619661,15.183969845847479,0.010837951353210192,0.01323500443249941
433,0.25,0.001,0.010893600561197788,0.008263185717875049,14.740845489501954,0.010521659878302609,0.013805543817579747
434,0.25,0.001,0.010804258893051791,0.00796335945201535,15.92039972638327,0.011363597235105832,0.011439084075391293
435,0.25,0.001,0.010794955160882738,0.008075084608225595,15.242154327271477,0.010879482032313688,0.012939814850687981
436,0.25,0.001,0.010801091692632154,0.008167713413399363,14.757452068631611,0.010533513253841264,0.014062915369868279
437,0.25,0.001,0.010857253876470385,0.008133115028105084,15.266073911152189,0.01089655525421284,0.01307196356356144
438,0.25,0.001,0.010868392003670572,0.008099575692580806,15.516445765419611,0.011075264643411572,0.011879192478954793
439,0.25,0.001,0.010733391314981475,0.008002053585553927,15.30641565171499,0.010925350215356882,0.011969418451189994
440,0.25,0.001,0.010740323899875557,0.008063143586355542,15.002919530111646,0.010708722005789897,0.01207523625344038
441,0.25,0.001,0.010852363058144137,0.008155307185555261,15.114301145644415,0.010788223515806149,0.010968552343547345
442,0.25,0.001,0.010818949862131997,0.008045037350957357,15.545005577329606,0.011095649948129626,0.011806977726519109
443,0.25,0.001,0.010879462694246618,0.008145790774789122,15.319497762407575,0.010934687910355158,0.01768558006733656
444,0.25,0.001,0.010856443862356837,0.008135297965435755,15.249301329113187,0.010884583389802418,0.024881672486662863
445,0.25,0.001,0.0108551035827351,0.008202811040812068,14.863448503282335,0.010609170951664764,0.019563895463943482
446,0.25,0.001,0.01087177794367548,0.00821866299070063,14.868055861336844,0.010612459572688682,0.016979708150029183
447,0.25,0.001,0.010854968002864293,0.008071372226353676,15.59927092658149,0.011134383245240178,0.012300042062997818
448,0.25,0.001,0.010781036074908953,0.008064850508457138,15.221504132709805,0.010864742421634408,0.014284597709774971
449,0.25,0.001,0.010801293091878059,0.008138062546236648,14.924744366842603,0.010652922460273093,0.012807076051831245
450,0.25,0.001,0.010762091797022592,0.008073859924953136,15.06485079810733,0.010752927050754696,0.01024781223386526
451,0.25,0.001,0.010786655421058337,0.00804807021474791,15.347032922411723,0.010954341843263186,0.010114544816315175
452,0.25,0.001,0.01084895029900566,0.008146042725633061,15.147094060504248,0.010811630307283547,0.00897878324612975
453,0.25,0.001,0.010809265015025934,0.008094650459667993,15.212699248298765,0.010858457707565144,0.010408728756010533
454,0.25,0.001,0.010759123737022045,0.007981424077990509,15.56622868189736,0.011110798488149436,0.011011341214179992
455,0.25,0.001,0.010769112724515181,0.008024744742683002,15.379437994578527,0.010977471801983246,0.011977899633347989
456,0.25,0.001,0.010751196937192054,0.008014692039421154,15.335374035910954,0.010946020011356855,0.011881073005497456
457,0.25,0.001,0.010769697527090708,0.008057158286609347,15.20107072497171,0.01085015754815968,0.012974860705435276
458,0.25,0.001,0.01084279715719204,0.00813923573032731,15.150759145948623,0.010814246356851265,0.011155971512198447
459,0.25,0.001,0.010708796708948082,0.008013016023924426,15.107153822883728,0.010783121929253197,0.009953687898814678
460,0.25,0.001,0.010827507977447812,0.008140802381944562,15.0562985132611,0.01074682263616067,0.01194116435945034
461,0.25,0.001,0.010778022791066813,0.008079705347440073,15.12137103005061,0.010793269828729916,0.01616322062909603
462,0.25,0.001,0.010735452589061525,0.00810542998332826,14.7386471218533,0.010520090736511991,0.012058883905410767
463,0.25,0.001,0.01081821464356922,0.008210709880268762,14.61245776887924,0.01043001982075606,0.010582852829247712
464,0.25,0.001,0.010771910257874027,0.00800858699376621,15.485664652264308,0.011053293827454895,0.011944451648741961
465,0.25,0.001,0.01074278668929187,0.008023545021812122,15.238631184895834,0.010876967298283965,0.012296688929200172
466,0.25,0.001,0.010684472629948268,0.008071822859346867,14.641290174211775,0.010450599696082637,0.01197942066937685
467,0.25,0.001,0.01072404510858986,0.008025932359316992,15.120222636631556,0.010792450133213102,0.009439081139862537
468,0.25,0.001,0.010799303047713779,0.00810399100716625,15.104528932722788,0.010781248345983431,0.012181414477527141
469,0.25,0.001,0.010802642974470342,0.008093978612432403,15.179355412437802,0.010834657681968453,0.013481908943504095
470,0.25,0.001,0.010728708110631459,0.008045896521163364,15.034476909940205,0.010731246902170024,0.014291248843073845
471,0.25,0.001,0.010789642213947244,0.008073911999189665,15.218952739049518,0.01086292129839366,0.016328165493905544
472,0.25,0.001,0.010799738442495701,0.008042357009022482,15.452366014510867,0.011029526063176922,0.01915462566539645
473,0.25,0.001,0.010729955157472028,0.008026786136721809,15.148559612698024,0.010812676383082101,0.01280903397127986
474,0.25,0.001,0.01071283176009144,0.00806816267293124,14.820726364377945,0.010578676919613094,0.016934592649340628
475,0.25,0.001,0.010793517308220977,0.008063107919657515,15.301214318048386,0.010921637628871082,0.012483946792781354
476,0.25,0.001,0.010696437449327537,0.007970867447909855,15.274094875275143,0.010902280424893036,0.011734453029930592
477,0.25,0.001,0.010727923186052413,0.008060007675417832,14.950997858198862,0.010671661569021315,0.009419347532093525
478,0.25,0.001,0.010743347691401603,0.008042095234942814,15.137817667401027,0.010805009041685245,0.01192814651876688
479,0.25,0.001,0.010748362009014403,0.008016504276366462,15.309331324743846,0.010927431352422445,0.014418897032737733
480,0.25,0.001,0.010805043294316247,0.008118076526397277,15.05776316022116,0.01074786806582524,0.016358520556241273
481,0.25,0.001,0.010797820600961882,0.00808986643299697,15.175375623551625,0.010831817004676392,0.021074695885181426
482,0.25,0.001,0.010879494578001045,0.008133548057623325,15.388284126160636,0.010983785957288106,0.018701195903122424
483,0.25,0.001,0.010875538777973917,0.008173343604282728,15.143103826613654,0.010808782174599324,0.02186562605202198
484,0.25,0.001,0.010724336928909733,0.007989783635333416,15.32443698095897,0.01093821340539541,0.013694115914404392
485,0.25,0.001,0.010858461417494311,0.008245200403626004,14.644715660337418,0.010453044725437129,0.017860508151352407
486,0.25,0.001,0.010850813701039269,0.008129718003883249,15.249019156561957,0.010884381981842939,0.016868112795054912
487,0.25,0.001,0.010720148043973105,0.008031318789081913,15.068198246426052,0.010755316378605318,0.0120547441765666
488,0.25,0.001,0.010720452453408922,0.008095307433829893,14.711313156854539,0.010500580411744852,0.01061452440917492
489,0.25,0.001,0.010640623940834924,0.007927758929630121,15.202896563212077,0.010851460787446164,0.00908756786957383
490,0.25,0.001,0.010637133391130538,0.007991520336104764,14.826017195080954,0.010582453386924307,0.008596126269549132
491,0.25,0.001,0.010705372566978138,0.008030938420681253,14.98752934289357,0.010697736861451514,0.013661364652216434
492,0.25,0.001,0.010743912161579208,0.00798506819391771,15.460561055985709,0.01103537548607117,0.017604340240359305
493,0.25,0.001,0.010714553890838509,0.007947564790291446,15.506206512451172,0.011067956111671072,0.015660811588168143
494,0.25,0.001,0.010702846122402994,0.008036396203059999,14.942786810133192,0.010665800721008702,0.012593214213848115
495,0.25,0.001,0.010666254316530531,0.008063222787209919,14.58738878643702,0.01041212618589366,0.011867312341928482
496,0.25,0.001,0.010667433500999496,0.00795334085733408,15.20977556743319,0.010856370854698923,0.009230354242026806
497,0.25,0.001,0.010685524935760195,0.007980074418619984,15.161345330495683,0.010821802519982644,0.009150789212435484
498,0.25,0.001,0.010729080355829663,0.008027908436599233,15.137368395971874,0.010804688362578068,0.012814324535429477
499,0.25,0.001,0.01071253956428596,0.008031959076308541,15.02197419121152,0.010722322763177387,0.012015562504529953
500,0.25,0.001,0.01069185324900207,0.007938914831786876,15.427466604444716,0.011011753464985521,0.011751560494303703
