epoch,beta,learning_rate,train_loss,train_reconstruction_loss,train_kl_unnormalized,train_kl_normalized,mean_unclipped_gradient_norm
1,0.0,0.001,0.07752828623610314,0.07752828623610314,117.6256662884144,0.08395836280400742,0.16385383478232793
2,0.02,0.001,0.05751655755018947,0.04955724412293145,557.5499076457938,0.39796567283782575,0.13608498764889582
3,0.04,0.001,0.040755842821766634,0.03746997158635746,115.0876561945135,0.0821467924300596,0.1244906559586525
4,0.06,0.001,0.03615427709589101,0.03070502340643093,127.24010197803227,0.09082091504499092,0.07563630597931999
5,0.08,0.001,0.034260133394237724,0.029805846154840304,78.00570539994673,0.05567859057812044,0.06608026953680175
6,0.1,0.001,0.03199405170450307,0.0282836863677008,51.98221796209162,0.03710365307786696,0.05298749437289579
7,0.12,0.001,0.030226038336151777,0.027281446815139117,34.3781079378995,0.024538264052747682,0.043827133519308906
8,0.14,0.001,0.02858931872278753,0.025835845657069274,27.554396427038945,0.01966766340259739,0.035815799342734475
9,0.16,0.001,0.02699519560267829,0.02415894636075304,24.834905547325057,0.01772655642207356,0.035428263513105254
10,0.18,0.001,0.02542398196428713,0.022256195394679754,24.65593964162499,0.017598814876249102,0.034045388123818805
11,0.2,0.001,0.024917736724771634,0.021485636368243383,24.041865127255218,0.01716050330282314,0.031168615445494652
12,0.22,0.001,0.02412681599533317,0.02067449835665298,21.98498693138662,0.01569235327008324,0.02571269470666136
13,0.24,0.001,0.023410724852271754,0.019762990187213877,21.29365225512572,0.015198895257049051,0.048439442313143184
14,0.25,0.001,0.022488212626841333,0.018920236878623865,19.994937260945637,0.014271903826513659,0.043667668742792945
15,0.25,0.001,0.021468786974296425,0.01778914410658557,20.620719408748126,0.014718572026229925,0.04883226805499622
16,0.25,0.001,0.02093781412325122,0.01746223716422765,19.477133394491794,0.013902307918980582,0.04167277738451958
17,0.25,0.001,0.020230825162596174,0.01676045640399962,19.447944718177872,0.01388147374602275,0.037725887128285
18,0.25,0.001,0.020310961406188783,0.016824973624839326,19.535474468963315,0.013943950370423494,0.042620443872043064
19,0.25,0.001,0.019691070616997854,0.015988375577661727,20.749903861922448,0.014810780772250141,0.0281554696017078
20,0.25,0.001,0.019484621181030466,0.01595603454519402,19.77419951467803,0.014114346548663833,0.04759735826935087
21,0.25,0.001,0.019206364178145776,0.015839519016820975,18.867802475437973,0.013467382209448946,0.024944701764200414
22,0.25,0.001,0.019001531932089064,0.015530991546734416,19.448909566860006,0.01388216243173448,0.02803501353732177
23,0.25,0.001,0.018708642252316377,0.01518835084080094,19.727713112879282,0.014081165676573363,0.02961255716426032
24,0.25,0.001,0.018868120255494357,0.015429243012660682,19.271466842805495,0.01375550809622091,0.054947550408542156
25,0.25,0.001,0.018746669658205727,0.015161420585531177,20.091736340763592,0.01434099667434946,0.030999864983771528
26,0.0,0.001,0.014710532764744277,0.014710532764744277,22.762476795851583,0.016247306777909767,0.060090254726154466
27,0.02,0.001,0.013738904167154823,0.013154364266254083,40.947018478855945,0.02922699391781295,0.028171464933880737
28,0.04,0.001,0.013877821691108473,0.01228546422689852,55.77233058274394,0.03980894402765449,0.019503192643501928
29,0.06,0.001,0.014504454691301693,0.011902431091952204,60.75725339639067,0.04336706166765929,0.019566722746406282
30,0.08,0.001,0.014890250759293336,0.011950139765336055,51.48869747585721,0.03675139006128281,0.026511965452560356
31,0.1,0.001,0.01519745367231092,0.01242161477266839,38.88949769915956,0.027758385224239516,0.04458019935659
32,0.12,0.001,0.01534937559203668,0.01276271612468091,30.199249826296413,0.02155549595024726,0.03144045067684991
33,0.14,0.001,0.01577738422260742,0.012969570601302566,28.098193929652975,0.020055812940508906,0.029489103438598768
34,0.16,0.001,0.016077336977527598,0.012781950052488934,28.85523354886758,0.020596169556650664,0.020814247828509127
35,0.18,0.001,0.01628558486323766,0.012880067999540555,26.50627292286266,0.018919538131950506,0.027377088288111345
36,0.2,0.001,0.016489597150322163,0.01303292934152514,24.21395885583126,0.017283339654412037,0.02351924537547997
37,0.22,0.001,0.016764096821648904,0.013178319717296447,22.834884643554688,0.016298989752715695,0.044993301055261066
38,0.24,0.001,0.01703321382478632,0.013424634792362198,21.065081683072176,0.015035747097125036,0.0333095836852278
39,0.25,0.001,0.01718304358949565,0.013624160654015012,19.94398070826675,0.014235532268570128,0.03691552739058222
40,0.25,0.001,0.017211527610668027,0.013482037291984366,20.90006419865772,0.014917961597899872,0.04536173984940563
41,0.25,0.001,0.016872320728696356,0.013462792489339005,19.10699699864243,0.013638113489395025,0.023789957963994572
42,0.25,0.001,0.016571721767611576,0.01321636957840787,18.803392891932017,0.013421408202663824,0.021413719015462056
43,0.25,0.001,0.016483597184597243,0.013196868088209269,18.41882875230577,0.013146915597648658,0.016809797579688684
44,0.25,0.001,0.01646041013112273,0.013095404313068198,18.85749238910097,0.013460023118558864,0.015172005032322236
45,0.25,0.001,0.016374567053233733,0.012932937253605236,19.286892072118896,0.013766518252761524,0.02537298229123865
46,0.25,0.001,0.016266477077898352,0.012980091526652828,18.416906260480783,0.013145543369365298,0.016378599551639388
47,0.25,0.001,0.016467458201628742,0.013142261456585291,18.634405348036026,0.013300788970760903,0.025950879390750612
48,0.25,0.001,0.016198860086274868,0.012793867378448598,19.081579921221493,0.013619971392734827,0.01334418190111007
49,0.25,0.001,0.016075217513122943,0.012821586473346358,18.23334668862699,0.013014522975465376,0.0194192999707801
50,0.25,0.001,0.01593324611659604,0.012585982510989363,18.758065059931592,0.013389054289744177,0.017544686794281006
51,0.0,0.001,0.012524657788677047,0.012524657788677047,21.159869762382122,0.015103404541314862,0.03574446429099355
52,0.02,0.001,0.01199167924509807,0.011463919607452069,36.96955640388258,0.02638797744745366,0.029814822732337883
53,0.04,0.001,0.012112780408275247,0.010670488389829794,50.516280357283776,0.0360573021822154,0.021257191829915558
54,0.06,0.001,0.012660465551295666,0.010399238864957082,52.799640424323805,0.03768710951058087,0.01737569591828755
55,0.08,0.001,0.013058138672601093,0.010472129748174639,45.287486220851086,0.032325115075553953,0.020341825006263598
56,0.1,0.001,0.013035523808664747,0.010590797515981125,34.25061582314848,0.024447263257065296,0.012412003640617644
57,0.12,0.001,0.013249289724185612,0.010947948622733655,26.868158995503126,0.01917784367987375,0.01160557521507144
58,0.14,0.001,0.013745311911057944,0.011252855599829645,24.942367746372415,0.017803260347160895,0.01845067087560892
59,0.16,0.001,0.014060864253251842,0.011146047557092677,25.52286321466619,0.01821760400761327,0.012588076093899352
60,0.18,0.001,0.014275019687384066,0.011122052012143111,24.54059731839883,0.017516486308635854,0.014413690593625818
61,0.2,0.001,0.014548560002385968,0.01146269797563854,21.61646151301837,0.015429308717357865,0.016364282994930233
62,0.22,0.001,0.014960479273489027,0.011663895137984343,20.993247003266305,0.01498447323573612,0.02684435128633465
63,0.24,0.001,0.015044159001924774,0.011495464265045493,20.71550639952072,0.014786228693448051,0.0173197476459401
64,0.25,0.001,0.015060825066434013,0.011699207531608115,18.83850334629868,0.013446469197929108,0.02387967293283769
65,0.25,0.001,0.01502708527212492,0.011750687224169573,18.360934671729503,0.01310559219966417,0.018445320427417755
66,0.25,0.001,0.014916209344084214,0.011580090170180557,18.695611549146246,0.013344476480475551,0.020159887615591288
67,0.25,0.001,0.014953411043141827,0.011718025468666144,18.131101589010218,0.01294154289008581,0.028422129207423756
68,0.25,0.001,0.014973163774067705,0.011821057882649129,17.664401468604503,0.012608423603572094,0.03318849112838507
69,0.25,0.001,0.014771013483028821,0.011635779459593874,17.569852000535136,0.012540936474329148,0.028298042714595795
70,0.25,0.001,0.014891432532382131,0.011838772230678134,17.107108472573636,0.01221064130804685,0.024910583160817623
71,0.25,0.001,0.014715186988163476,0.011459177040090465,18.246678920707318,0.013024039201075886,0.01391249309693064
72,0.25,0.001,0.014745773183125439,0.011632094272609913,17.4490571840845,0.012454716048597072,0.013788110044385706
73,0.25,0.001,0.01457027904689312,0.011441089335189324,17.535979338366577,0.01251675898527236,0.014381124638020992
74,0.25,0.001,0.014462290613940268,0.011423736189802488,17.028059082801896,0.01215421776074368,0.014157447298722608
75,0.25,0.001,0.014491313108892151,0.011453498230137006,17.02391416376287,0.012151259217532386,0.013699147384613752
76,0.0,0.001,0.011118363447938904,0.011118363447938904,20.2415604639535,0.01444793751888187,0.02449697016605309
77,0.02,0.001,0.010671462666130426,0.010173883326727935,34.855432606706714,0.02487896688558652,0.014911499473133258
78,0.04,0.001,0.011007191011249418,0.009642327646489698,47.804339476306026,0.03412158420864099,0.014252656405525548
79,0.06,0.001,0.011474655781204652,0.009346605598399735,49.68997269447404,0.035467503707690244,0.012231189358447279
80,0.08,0.001,0.011851899683324977,0.009596026389662064,39.50598217742612,0.02819841697175312,0.016292177739420106
81,0.1,0.001,0.011938654046242286,0.009884979312468057,28.771982828776043,0.02053674720112494,0.013696189969778061
82,0.12,0.001,0.01212406446310607,0.010078500500042933,23.881959568370473,0.017046366572712687,0.009816232802612441
83,0.14,0.001,0.012511683289300312,0.01026504123677509,22.482469366054342,0.01604744422987462,0.012528246534722192
84,0.16,0.001,0.012867514251006974,0.010340095873959738,22.1307096192331,0.015796366609017204,0.01115226945174592
85,0.18,0.001,0.013052305573541107,0.010285646711109262,21.533827579382695,0.015370326609123979,0.011579543086034911
86,0.2,0.001,0.013392959175763107,0.010533692776178471,20.029161318384034,0.014296332133036427,0.012841096347463983
87,0.22,0.001,0.013646375547831107,0.010645075494216548,19.112824989087652,0.013642273368370915,0.016264966689050198
88,0.24,0.001,0.013896963728422468,0.010689210814583783,18.725259029504024,0.013365638136690951,0.01464214242462601
89,0.25,0.001,0.013899343521004975,0.010700236131070238,17.927797413835624,0.012796429274686385,0.01353247304047857
90,0.25,0.001,0.01409205339021153,0.010947299293345876,17.6232005417949,0.012579015376013492,0.01837235702467816
91,0.25,0.001,0.013947935379815824,0.010905271715889073,17.051087774411595,0.012170655085233116,0.024925028639180318
92,0.25,0.001,0.014007856354418428,0.01098753075407009,16.925905593717943,0.012081303064752278,0.01691329000251634
93,0.25,0.001,0.013888102363456379,0.010843187833976264,17.06370155257408,0.012179658495770221,0.017203468696347306
94,0.25,0.001,0.01395865207105273,0.010981913533701438,16.681642551614782,0.01190695399829749,0.01705205507044281
95,0.25,0.001,0.013859480769947322,0.010835328600322358,16.9473494905414,0.012096609200957458,0.017743182634668692
96,0.25,0.001,0.01392433386898101,0.01076496158717106,17.705122244478478,0.012637489110976787,0.015804160253277848
97,0.25,0.001,0.013794690125969926,0.010787964450440021,16.849690716676037,0.012026902724251276,0.012986809414412295
98,0.25,0.001,0.013588812032883818,0.010675081851506474,16.328542844213622,0.011654919945905512,0.0126834463195077
99,0.25,0.001,0.01365347413553132,0.010736024035423092,16.349390636790883,0.011669800597281144,0.017416990495153835
100,0.25,0.001,0.013696004109776984,0.010847922649723713,15.960648372919872,0.011392325747979923,0.011373486170279128
101,0.25,0.001,0.013674391113748454,0.010645768219473386,16.972401705655184,0.012114490867705342,0.016277237396155084
102,0.25,0.001,0.013597430172141153,0.01080250930078704,15.662736738571013,0.011179683610685947,0.016732712542372092
103,0.25,0.001,0.013559136248071386,0.010649084734419981,16.30792868257773,0.011640206054659338,0.013380464166402817
104,0.25,0.001,0.013596161353317175,0.010589197804831495,16.851023587313566,0.012027854095156007,0.01260553180639233
105,0.25,0.001,0.013532385625170939,0.010749497234520285,15.595307022634179,0.011131553906234246,0.013209210841783456
106,0.25,0.001,0.013514093386780734,0.010638060405699893,16.117289225260418,0.01150413220932221,0.012472125967698438
107,0.25,0.001,0.013408905102146996,0.010413307085106469,16.787330723772147,0.011982391665790255,0.014501913184566157
108,0.25,0.001,0.013427266267815022,0.010592092167247425,15.888315537963251,0.011340696315462705,0.014352378901094198
109,0.25,0.001,0.01338278345123987,0.01051006034355272,16.098740866689973,0.011490892838465362,0.016894789213048562
110,0.25,0.001,0.013463746154248113,0.010485166622645627,16.691959804958767,0.011914318204824245,0.019640747723834857
111,0.25,0.001,0.013476251596302696,0.010637528253625137,15.908205860792988,0.01135489354803211,0.013334836411689008
112,0.25,0.001,0.01337448191462141,0.010504616574958117,16.082724147372776,0.011479460490630105,0.011052687985024281
113,0.25,0.001,0.013359990083810055,0.010484115267642822,16.11640298246133,0.011503499630593383,0.010515297763049603
114,0.25,0.001,0.013330691117755693,0.010416533054802755,16.33094199016841,0.011656632398407144,0.01512556163860219
115,0.25,0.001,0.013374520456324321,0.01053963073839744,15.886722622495709,0.011339559330832055,0.012416677549481392
116,0.25,0.001,0.013328245135419296,0.010501573069228066,15.840669901684077,0.011306688009767365,0.013588562341673034
117,0.25,0.001,0.013190300711853937,0.010288779953061933,16.260122434057372,0.011606083107821108,0.011541887851698058
118,0.25,0.001,0.01321453523982053,0.010373487353625924,15.921233629939533,0.011364192455345848,0.018320863268205097
119,0.25,0.001,0.013171983751082661,0.010426552966237068,15.385394086741437,0.010981723116874688,0.014524194544979505
120,0.25,0.001,0.013271265597355485,0.010385868694595617,16.16976443204013,0.011541587745924432,0.017004278155841997
121,0.25,0.001,0.013302355882420082,0.010411483103955033,16.200452631170098,0.011563492242091434,0.01682240023676838
122,0.25,0.001,0.013151751031553504,0.010368886384924855,15.595172631620157,0.011131457981170705,0.0209054509177804
123,0.25,0.001,0.013187825077711934,0.010438159362158993,15.409127861562402,0.010998663712749752,0.017694621612983092
124,0.25,0.001,0.013194985189145863,0.010347413463574467,15.957791578890097,0.01139028663732341,0.016045583678143367
125,0.25,0.001,0.01320393109750567,0.010311083689407266,16.211517305085152,0.011571389939389831,0.009878583984183413
126,0.25,0.001,0.013140199630699977,0.010327047621360932,15.764904812128856,0.011252608716722953,0.012719289266637393
127,0.25,0.001,0.013096910948404159,0.01027677349294677,15.80405027216131,0.011280549801685446,0.01691239353801523
128,0.25,0.001,0.013331961225379597,0.010476437801815043,16.00235297463157,0.01142209348653217,0.033768716135195324
129,0.25,0.001,0.013306412272004768,0.010441326997195832,16.055938730336198,0.01146034170616431,0.029199838638305664
130,0.25,0.001,0.013048367744142359,0.01025690096947882,15.643381215105153,0.01116586810500011,0.015551164014531034
131,0.25,0.001,0.012853449483336223,0.010052694967298798,15.695429195057262,0.011203018697399902,0.009177388822925943
132,0.25,0.001,0.012861988845873962,0.010125788709506242,15.333665953742134,0.0109448008235133,0.009852879148508822
133,0.25,0.001,0.012922691435299137,0.010200904992719492,15.252890981809058,0.010887145597294118,0.011647133422749383
134,0.25,0.001,0.012985600628937133,0.010185103223781394,15.693987567015368,0.011201989698083774,0.013196974194475583
135,0.25,0.001,0.012920711923277739,0.010121081960434564,15.689125870213363,0.011198519536197975,0.01321349392778107
136,0.25,0.001,0.012876381815382929,0.009958349271780916,16.352654389660767,0.01167213018533959,0.009272843000612088
137,0.25,0.001,0.012882897423373329,0.010074868393742074,15.736193897748235,0.011232115558706806,0.011481138278863259
138,0.25,0.001,0.01285860902921419,0.010018931494818794,15.913552640664458,0.011358709950509962,0.014665072783827782
139,0.25,0.001,0.012875847659553543,0.010096297853372314,15.576598215584804,0.011118200011124056,0.014812095223792962
140,0.25,0.001,0.012964863386569601,0.010133633314810618,15.866212941179372,0.011324920015117325,0.015021079619015967
141,0.25,0.001,0.012906693985140083,0.010018107688261403,16.18763813827977,0.01155434556622396,0.012159305491617747
142,0.25,0.001,0.012804350382977664,0.009918081978655825,16.1746479188553,0.011545073460995932,0.010767135037375348
143,0.25,0.001,0.012780582024292513,0.010050310809729677,15.300438861654262,0.010921084126805326,0.013793586221124445
144,0.25,0.001,0.012852045491036742,0.01001754728606855,15.88452728348549,0.011337992350810485,0.01130789757839271
145,0.25,0.001,0.012750705421874018,0.009989694221829526,15.47270684290414,0.011044044855748851,0.014536691829562187
146,0.25,0.001,0.012828788146226093,0.010005849074910988,15.819750583533084,0.011291756305162801,0.013887455553880759
147,0.25,0.001,0.01288880134057818,0.010048964898092578,15.914442987153024,0.011359345458353336,0.014050264709762164
148,0.25,0.001,0.01281937083812675,0.010060439507166544,15.46105179642186,0.011035725764755075,0.011211549996265344
149,0.25,0.001,0.012723506117860476,0.00988557981797541,15.903739081488716,0.011351705268728562,0.013172515401882785
150,0.25,0.001,0.012763680598576261,0.009944656826179437,15.797808955414126,0.01127609490036697,0.012207808970872844
151,0.25,0.001,0.012718311068837088,0.009882289572910529,15.893064961288914,0.01134408633924976,0.01540113307003464
152,0.25,0.001,0.012674420253571236,0.009874406534087176,15.691276396163786,0.011200054529738606,0.009240653898034776
153,0.25,0.001,0.012803702963271527,0.009996953853076756,15.729021920098198,0.01122699637408865,0.01297217926808766
154,0.25,0.001,0.012709057193738644,0.009819232251946673,16.194577650590375,0.011559298822691202,0.013741264252790384
155,0.25,0.001,0.012779909026141118,0.010019034161373522,15.471943479595762,0.011043499985435946,0.01625626959971019
156,0.25,0.001,0.012672807231093899,0.009920233813575421,15.42542135835898,0.011010293617672362,0.015452534758618899
157,0.25,0.001,0.012753176559327227,0.00994969006025731,15.710738018305614,0.011213945766099654,0.014412341506353446
158,0.25,0.001,0.012811113713365612,0.009974267390189749,15.897686043170967,0.011347384756010683,0.014492046620164598
159,0.25,0.001,0.012762326521403862,0.009988078085536306,15.546889892732255,0.01109699492700375,0.013743937015533447
160,0.25,0.001,0.012692985501177985,0.009853928434577856,15.91007581383291,0.011356228275398223,0.016165119196687425
161,0.25,0.001,0.012619230237723602,0.009817527080274592,15.700744860100023,0.011206812890863685,0.01127570095871176
162,0.25,0.001,0.012560973188491783,0.009793517857112667,15.50881979200575,0.01106982140757013,0.012324331793934107
163,0.25,0.001,0.012527307006295282,0.009779379430292832,15.39938617475105,0.010991710331728088,0.01219041645526886
164,0.25,0.001,0.012615336594407004,0.009889675784065868,15.274603275337604,0.010902643308592152,0.012024070601910353
165,0.25,0.001,0.012663130102810836,0.009865375894187676,15.678615165479256,0.011191017248736085,0.010924221615173988
166,0.25,0.001,0.012484781707477088,0.00970453027673442,15.580529126253994,0.01112100580032405,0.013057675545236893
167,0.25,0.001,0.012593117749525441,0.009843577470893811,15.408424242578372,0.010998161486494198,0.01544184550376875
168,0.25,0.001,0.01256086654735334,0.009740274719367123,15.806596861945259,0.01128236749603516,0.013190802186727524
169,0.25,0.001,0.012579556836774855,0.009843995267845164,15.330088239727598,0.01094224713756431,0.015067182880427157
170,0.25,0.001,0.012426614196914616,0.009656590127357931,15.523214128282335,0.011080095737532002,0.012170793488621712
171,0.25,0.001,0.012633333189619912,0.00994606050803806,15.059477314804539,0.010749091588011805,0.020259871812803403
172,0.25,0.001,0.012562774610940856,0.009721746517702787,15.921121539491596,0.011364112447888363,0.01837443241051265
173,0.25,0.001,0.012582343438583794,0.009752338582819159,15.859347121884124,0.011320019358946555,0.012771440536848136
174,0.25,0.001,0.012519366531209513,0.00970400097507118,15.777308704877141,0.01126146231611502,0.012372974239821945
175,0.25,0.001,0.01240276988369949,0.009628474702964527,15.547149581138534,0.011097180286323009,0.012214244942047767
176,0.25,0.001,0.012614815778127222,0.009803046773404184,15.757153617011177,0.011247076100650377,0.01667903210701687
177,0.25,0.001,0.012472047028366965,0.009633226367184009,15.908751304703529,0.01135528287273628,0.011690180149993725
178,0.25,0.001,0.012423165500013515,0.009652237473714232,15.528281327449914,0.011083712582048476,0.009252686984837055
179,0.25,0.001,0.012457028097200274,0.00970749133689837,15.408404899365975,0.010998147679775857,0.01297443439917905
180,0.25,0.001,0.012419196278458893,0.009621710384810212,15.677110883924696,0.011189943528854173,0.015875157367970263
181,0.25,0.001,0.012394672720646016,0.009671506255564063,15.260624432804608,0.010892665548040406,0.011483814700373582
182,0.25,0.001,0.01242289234968749,0.009644724278136937,15.568854476466324,0.011112672716963829,0.011249593592115812
183,0.25,0.001,0.012451393717918733,0.009613243910023059,15.904991226966935,0.011352599019962124,0.013267766019063336
184,0.25,0.001,0.012463793139716592,0.009722843672139476,15.360279680502535,0.010963797059602095,0.01350491281066622
185,0.25,0.001,0.012493605621986918,0.009664929735314364,15.85189946492513,0.011314703401088602,0.012564434802957944
186,0.25,0.001,0.012417965813191852,0.00958502096020513,15.87582344479031,0.01133177976073541,0.013969861170543092
187,0.25,0.001,0.012455272685849306,0.00970756561692917,15.398149586687184,0.010990827685001559,0.019567176034407958
188,0.25,0.001,0.012376041236248884,0.00963173991050383,15.37906415534742,0.010977204964559187,0.008901864290237427
189,0.25,0.001,0.012336787748893704,0.00963670750985844,15.131249495226928,0.010800320838848628,0.009717163563306843
190,0.25,0.001,0.012260124115555576,0.009571667459577021,15.066111940326113,0.01075382722364462,0.010298489792538541
191,0.25,0.001,0.012345298560279789,0.00957882029916903,15.503344622525303,0.011065913363686869,0.016284945221351727
192,0.25,0.001,0.012452153865285594,0.009521096370963737,16.42564627136847,0.011724230029527816,0.010708416878644909
193,0.25,0.001,0.012304546085722519,0.009468746644378913,15.891820907592773,0.011343198363735027,0.008436394855380058
194,0.25,0.001,0.012304389388347515,0.00957116081068913,15.317013673108033,0.01093291482734335,0.011538037697651557
195,0.25,0.001,0.012274474488815875,0.009569697684109812,15.157569509564023,0.010819107430095662,0.012053609426532472
196,0.25,0.001,0.012285321047811798,0.00944942832369395,15.892342615609218,0.011343570746330633,0.011777454321937901
197,0.25,0.001,0.012268102106948694,0.009535500093015155,15.313502456202652,0.01093040860542659,0.009039298897343022
198,0.25,0.001,0.012351026269372064,0.009610726592140366,15.356639804262104,0.010961199003755962,0.014214299286582641
199,0.25,0.001,0.012403595261275768,0.009581686072804109,15.813978657577977,0.011287636443667363,0.018198597244918346
200,0.25,0.001,0.01249239480856693,0.009730576274145131,15.477231035328876,0.01104727411515266,0.02014819984989507
201,0.25,0.001,0.012375777323890214,0.009678848915629916,15.113586676241171,0.010787713544783134,0.020756641003702368
202,0.25,0.001,0.012318973213133185,0.00958574517169083,15.31700944418859,0.010932911808842677,0.015279898020837988
203,0.25,0.001,0.012294470172638844,0.00948831694896775,15.72568411778922,0.011224613931327065,0.015625738804893836
204,0.25,0.001,0.012531986949269217,0.009773695530990759,15.457465913560656,0.011033166248080411,0.023949327346469675
205,0.25,0.001,0.012442821759090882,0.009638708028377909,15.714254514135495,0.011216455755985365,0.021830042491533926
206,0.25,0.001,0.012324193925267518,0.0095738937062296,15.412682061243538,0.01100120061473486,0.018895195930131843
207,0.25,0.001,0.012344087069534292,0.009562321637540755,15.58901324416652,0.011127061559005367,0.013398213711168085
208,0.25,0.001,0.012278161830071247,0.009525048687602535,15.428446654117469,0.011012453000797623,0.014998143405786582
209,0.25,0.001,0.01230064851956235,0.009582595034229636,15.231972357239385,0.010872214387751168,0.019249352759548595
210,0.25,0.001,0.012292730951248998,0.009554077222040205,15.347414575441919,0.01095461425798852,0.019286861044487784
211,0.25,0.001,0.01235311705092288,0.0096537395841395,15.12731217856359,0.010797510477204562,0.018925425596535206
212,0.25,0.001,0.012415435089908465,0.009651259340421117,15.490441582419656,0.01105670348495336,0.019766813410179957
213,0.25,0.001,0.012210713868791407,0.009459848854352127,15.41584801914716,0.011003460399105753,0.016337234659918716
214,0.25,0.001,0.012064351041735423,0.00937580435790799,15.066614883114593,0.010754186212073228,0.009995782947433847
215,0.25,0.001,0.012225269443458982,0.009489653519157207,15.33039287605671,0.010942464579626488,0.013554559887519904
216,0.25,0.001,0.01220842938155237,0.009546817891826534,14.91567101141419,0.010646446118068658,0.015183108193533761
217,0.25,0.001,0.012245542360375625,0.009508258315047832,15.339739404543481,0.010949135906169508,0.01214881893247366
218,0.25,0.001,0.012293844370905197,0.009532347265066523,15.475429130323006,0.011045987958831553,0.01682692180786814
219,0.25,0.001,0.012237355959686365,0.00945769122453651,15.57724096317484,0.011118658788847137,0.013973749375769071
220,0.25,0.001,0.012150600138637755,0.009393456495470472,15.451032041299223,0.011028573905281388,0.00961578484358532
221,0.25,0.001,0.01210079531213551,0.009406593736411646,15.098305750374843,0.010776806388561629,0.013602052416120256
222,0.25,0.001,0.012057126894819014,0.009322340760116626,15.325741584854896,0.010939144600181938,0.012159939988383226
223,0.25,0.001,0.012058095009338975,0.009408043208296853,14.85089049676452,0.0106002073495821,0.01200014419321503
224,0.25,0.001,0.012022390557133188,0.009303669172404992,15.235714844983033,0.010874885685212728,0.01329224051109382
225,0.25,0.001,0.012081713782566967,0.009497965667208638,14.479326190370502,0.010334993711899002,0.011069174855947495
226,0.25,0.001,0.01208655507952878,0.009392794409785608,15.095835724262276,0.010775043343513402,0.013236730026879482
227,0.25,0.001,0.012100873063459541,0.009302725319308465,15.68082112976999,0.011192591812826546,0.01196569889517767
228,0.25,0.001,0.012023483412434357,0.009301065740109695,15.256428130949386,0.01088967032901455,0.01162341722686376
229,0.25,0.001,0.012094588056582995,0.009487044226114799,14.612676610850324,0.01043017602487532,0.010222540037440402
230,0.25,0.001,0.012081626247652251,0.009275600351769515,15.72496961343168,0.011224103935354519,0.012978852793042148
231,0.25,0.001,0.012044607642849888,0.009253297038752623,15.642504913638337,0.011165242622154417,0.010414943365114076
232,0.25,0.001,0.01202248197726228,0.009365787720213634,14.888114274150194,0.010626776783833116,0.009519913499908788
233,0.25,0.001,0.012056527066637169,0.009321472231261056,15.327247947153419,0.010940219805248693,0.010789148709071534
234,0.25,0.001,0.011973584654054256,0.009245246912192816,15.289605073254517,0.0109133512300175,0.0076944597198494846
235,0.25,0.001,0.012082026603471751,0.009500871421863335,14.464792935535161,0.010324620225221386,0.012608964994017566
236,0.25,0.001,0.012098397824424083,0.009369080293584953,15.295095308862551,0.010917270027739151,0.014563998939203364
237,0.25,0.001,0.011954039918503375,0.009220757479356094,15.317314282812253,0.010933129395297825,0.009982686090682234
238,0.25,0.001,0.012077535192171732,0.009391381367664747,15.053206183693625,0.01074461540591979,0.015397794744265931
239,0.25,0.001,0.012127200546062956,0.00940868937683226,15.234537143899937,0.010874045070592388,0.019324797870857374
240,0.25,0.001,0.012156847977277004,0.009447832281390825,15.181323215214894,0.01083606225211627,0.015923376394701854
241,0.25,0.001,0.012147578156807205,0.00933624158679235,15.75472969479031,0.01124534596344776,0.013246983555810792
242,0.25,0.001,0.012130262094991977,0.00945839344175777,14.973152102846088,0.010687474734365515,0.014804803367171968
243,0.25,0.001,0.012065717602393241,0.009341099054900685,15.268762848593973,0.01089847455288649,0.012219271223459924
244,0.25,0.001,0.011995100350391984,0.009239808016578959,15.440658492271346,0.011021169516253638,0.011230193544179201
245,0.25,0.001,0.011977708663302238,0.009293347159682802,15.043161970196348,0.010737446088648357,0.012241143134555646
246,0.25,0.001,0.011981102713204995,0.009283023698236605,15.120035431601785,0.01079231651077929,0.009656078847391265
247,0.25,0.001,0.011990153729313552,0.009257790049293427,15.312166849772135,0.010929455281778825,0.011299769793237959
248,0.25,0.001,0.011951057974136236,0.009267983309021502,15.03595155658144,0.010732299469365767,0.011846240875976426
249,0.25,0.001,0.012005090412467417,0.009338717672484691,14.94235260318024,0.0106654907945612,0.014114057179540396
250,0.25,0.001,0.01199409215137212,0.00923113471292185,15.483613216515744,0.011051829562109738,0.012955274033759321
251,0.25,0.001,0.012165147434882444,0.009496532850945838,14.954914680635087,0.010674457302380504,0.01680193083094699
252,0.25,0.001,0.012135809118097479,0.009401973891965669,15.320412491307113,0.010935340821775242,0.016756175884178708
253,0.25,0.001,0.01202145071154592,0.009229025869357466,15.648748340028705,0.0111696990292853,0.018268886155315807
254,0.25,0.001,0.012006302768684397,0.00929135416700232,15.21457233814278,0.010859794673906338,0.011831576004624367
255,0.25,0.001,0.011910857463424856,0.009276859894996941,14.760922441578876,0.010535990322326107,0.011888541547315461
256,0.25,0.001,0.011939062125454045,0.009250921093755297,15.064343500618984,0.010752564954046384,0.010936332933072532
257,0.25,0.001,0.012040739559163951,0.00928920390780526,15.419606526692709,0.011006143131115424,0.011445816473237105
258,0.25,0.001,0.011880117054614756,0.009188913735514037,15.081503473146997,0.010764813328441826,0.011308388451912574
259,0.25,0.001,0.01189537603182323,0.00921583455055952,15.01615113923044,0.010718166409158058,0.010871108754404954
260,0.25,0.001,0.012062515367311661,0.009448304396085065,14.650038131559738,0.010456843776987678,0.015453947175826346
261,0.25,0.001,0.012047385928606746,0.009172264129073933,16.112183214438083,0.011500487661982929,0.0190262674753155
262,0.25,0.001,0.011994085632114097,0.009344802068715746,14.846585398972637,0.010597134474641426,0.013446378787713391
263,0.25,0.001,0.011986781457307362,0.009299120715245454,15.061651249124546,0.010750643289881904,0.010557856543787889
264,0.25,0.001,0.011971715028689366,0.009257151406597008,15.212415059407553,0.01085825486039083,0.016642702211226736
265,0.25,0.001,0.012085235630623017,0.009409783662042835,14.993233622926654,0.01070180843891981,0.016096983770174638
266,0.25,0.001,0.011988215948069337,0.009257320728566911,15.30393689088147,0.010923580935675567,0.012058546101408345
267,0.25,0.001,0.0118961182959152,0.009139638196564081,15.447312711465239,0.011025919137377044,0.015715328909988915
268,0.25,0.001,0.011972503106326166,0.009300204069174901,14.975563396107066,0.010689195857321247,0.015116185149444001
269,0.25,0.001,0.01200251074300872,0.009292240480356144,15.188354646316682,0.010841081117999059,0.017836268059909344
270,0.25,0.001,0.011914795368081994,0.009228953216789347,15.051460670702385,0.010743369500858233,0.01698873651080898
271,0.25,0.001,0.012006203832123617,0.009341193664104047,14.934716985683249,0.010660040675005887,0.017632253201944486
272,0.25,0.001,0.011927275720870855,0.009208884678141337,15.233864370018544,0.010873564860826941,0.011833651257412774
273,0.25,0.001,0.011909891211550044,0.009177773560613695,15.310788048638237,0.010928471126793888,0.010607384677444185
274,0.25,0.001,0.011818703292219929,0.009058724242177877,15.466921912299263,0.011039915711848154,0.00959186302497983
275,0.25,0.001,0.011791886912301333,0.00913462352308661,14.89130332253196,0.010629053049630237,0.01093077932351402
276,0.25,0.001,0.0118266987059303,0.009130695637202623,15.108401067329176,0.010784012182247806,0.015116736159792967
277,0.25,0.001,0.011941899394973962,0.00926508033892723,15.000893698798286,0.010707276016272867,0.021561975590884686
278,0.25,0.001,0.011998639413804718,0.009236577013977851,15.47859825750794,0.011048250005358987,0.02308893469827516
279,0.25,0.001,0.011901652478057929,0.009175652652188684,15.276503206503511,0.01090399943362135,0.017656623252800534
280,0.25,0.001,0.01191840111042815,0.009255442123935378,14.923221761530096,0.010651835661334829,0.01550526384796415
281,0.25,0.001,0.011890244623175774,0.009122884503067141,15.508286533933697,0.011069440780823482,0.012313284778169222
282,0.25,0.001,0.011936863639740029,0.00923220430397325,15.156911214192709,0.010818637554741405,0.011833825148642063
283,0.25,0.001,0.011899058970462794,0.009237870103632561,14.913301949549203,0.010644755138864526,0.012969790425683771
284,0.25,0.001,0.01197236225084223,0.009134939100329925,15.900918999103585,0.011349692361958305,0.013880313374102116
285,0.25,0.001,0.011843899641223628,0.009144661148464439,15.12653320967549,0.010796954468005346,0.012084905723375934
286,0.25,0.001,0.012006357970713364,0.009353689934042368,14.86555203524503,0.010610672402030712,0.01457886424447809
287,0.25,0.001,0.012015174444049898,0.00922957772031577,15.610483612677063,0.011142386590062144,0.011766565032303333
288,0.25,0.001,0.01193215118514167,0.009112420407208529,15.80177151073109,0.011278923276753098,0.011074438558093138
289,0.25,0.001,0.011854471996276065,0.009171714921566572,15.034170189289132,0.010731027972369116,0.010894415567495994
290,0.25,0.001,0.011873892348523091,0.00909365200898563,15.580466935128877,0.01112096140979934,0.0120981615036726
291,0.25,0.001,0.01182027802699142,0.009111772709987078,15.17846336750069,0.010834020961813483,0.01126525763954435
292,0.25,0.001,0.01186086753891273,0.009211466628869977,14.847242644338897,0.010597603600527406,0.011401257743792874
293,0.25,0.001,0.011903521190914843,0.009158367601533731,15.383840888437598,0.010980614481397286,0.01285147966284837
294,0.25,0.001,0.01187747825087622,0.00922251906659868,14.878391699357467,0.010619837044509256,0.011445048597774335
295,0.25,0.001,0.011767743221211314,0.009126430339734964,14.801917182074654,0.010565251379068274,0.012175098394176789
296,0.25,0.001,0.011847812983423772,0.009125889448279684,15.25366131946294,0.010887695445726582,0.01351027177380664
297,0.25,0.001,0.011812893861923555,0.009085209475773754,15.285943233605588,0.010910737497220262,0.009964754671922751
298,0.25,0.001,0.011808998929807033,0.009091914876016101,15.226538465480612,0.010868335806909787,0.012139443840299333
299,0.25,0.001,0.011795478346146117,0.009177314625544981,14.672189124906906,0.010472654621632337,0.01056173084569829
300,0.25,0.001,0.011759139268160468,0.00905487993073584,15.154669906153824,0.010817037763136205,0.009443362443042653
301,0.25,0.001,0.011799801442057195,0.009092787186605762,15.170108448375355,0.010828057422109462,0.015399669297039509
302,0.25,0.001,0.01182815097648688,0.009129681958431246,15.12221977927468,0.01079387564544945,0.010799542002912079
303,0.25,0.001,0.011803410495772507,0.009082038614033448,15.250567773375849,0.010885487347163348,0.012465750931629114
304,0.25,0.001,0.0118443737408579,0.009071314086516699,15.54022814047457,0.01109223992896115,0.011182118872446674
305,0.25,0.001,0.01182311966149795,0.009067466040377063,15.442682401098386,0.011022614133546315,0.010693732715610946
306,0.25,0.001,0.01181352153570965,0.009021611771348751,15.645861702735978,0.01116763861722768,0.01609429477580956
307,0.25,0.001,0.01191836775214684,0.009222407881734949,15.108158005608452,0.01078383869065557,0.015170029364526272
308,0.25,0.001,0.011897880471113956,0.009131008091222758,15.505552561596186,0.011067489337327756,0.015794878027268817
309,0.25,0.001,0.011730163198227834,0.00903828043227244,15.085311369462447,0.010767531312963917,0.015327231958508492
310,0.25,0.001,0.011772281979445857,0.009118672657870886,14.870827077615141,0.010614437600010808,0.013657203143728631
311,0.25,0.001,0.011758179337990404,0.009036882272498175,15.250151200727982,0.010885190007657376,0.013190634814756257
312,0.25,0.001,0.011776173675451616,0.009128735297256045,14.836244679460622,0.010589753518530065,0.012601204748664583
313,0.25,0.001,0.011790904065951555,0.009105688741788118,15.047946351947207,0.010740861064915922,0.015568069049290248
314,0.25,0.001,0.011770839059744218,0.009073503926923179,15.115866044555048,0.010789340502894396,0.013381366884069783
315,0.25,0.001,0.011772156523709948,0.009076663942048044,15.105541942095515,0.0107819714076342,0.012470072467944451
316,0.25,0.001,0.01189308287105476,0.009177259019002168,15.219476333772294,0.010863295027674727,0.01960903685539961
317,0.25,0.001,0.011784040811236459,0.009121725175793122,14.919616400593458,0.010649262241679842,0.01572272354470832
318,0.25,0.001,0.01178416624815777,0.0090281923743661,15.444478285433066,0.011023895992457577,0.011205594587538923
319,0.25,0.001,0.011732181778760871,0.009053462015634233,15.011546202380249,0.01071487951633137,0.010350856996540512
320,0.25,0.001,0.011824172714518176,0.009116497370555546,15.173813376763855,0.010830701910609461,0.016659872606396675
321,0.25,0.001,0.011739176152405715,0.009037365939355257,15.140945328606499,0.01080724149079693,0.013386000546493701
322,0.25,0.001,0.011674924292648681,0.00903123842006681,14.815216430509933,0.010574744061748704,0.012380438457642282
323,0.25,0.001,0.011714784005148844,0.008984216874597049,15.302097532484266,0.010922268046027313,0.01482528421495642
324,0.25,0.001,0.011735209903557493,0.009129846402716756,14.600457490092577,0.01042145431127236,0.013170805693204914
325,0.25,0.001,0.011691348420249091,0.008994163089253084,15.115026454732876,0.010788741223934958,0.013059461223227637
326,0.25,0.001,0.011672916549323785,0.009063905104994774,14.620901088521938,0.010436046458616658,0.012284838195358003
327,0.25,0.001,0.011707067386143737,0.009037360619527824,14.961036845891163,0.010678827156239232,0.012454488248165165
328,0.25,0.001,0.011640393636142365,0.008965085806193375,14.992424637380273,0.010701231004554085,0.010679300674902541
329,0.25,0.001,0.011748161872453762,0.009080197784409981,14.951270209418404,0.01067185596675118,0.012836662520255362
330,0.25,0.001,0.011800424788485874,0.00905410499509537,15.390375638248944,0.010985278828157705,0.01615090388804674
331,0.25,0.001,0.011740623653461837,0.00903869332802115,15.14161698505132,0.010807720902963112,0.012510364409536123
332,0.25,0.001,0.011744778452798574,0.00910226401468419,14.80865021907922,0.010570057258443412,0.011731115568961416
333,0.25,0.001,0.011728470627632406,0.009017608956330352,15.191669117320668,0.010843446907438022,0.010472880210727453
334,0.25,0.001,0.011718683264622784,0.008955362017708595,15.485652653857915,0.011053285263281882,0.011704798588263137
335,0.25,0.001,0.011794477889333108,0.009129478031712952,14.934658416593917,0.010659998869802938,0.015511142622147287
336,0.25,0.001,0.011758370550744461,0.009082342949554775,14.99645961414684,0.010704111073623726,0.011861440991716725
337,0.25,0.001,0.011774436457816399,0.008992210754917728,15.591592422639481,0.011128902514375075,0.013326582764940602
338,0.25,0.001,0.011706425855406608,0.00902746624379146,15.012890131786616,0.010715838780718499,0.01269816726978336
339,0.25,0.001,0.011695938147228174,0.00909977921783322,14.548875519723603,0.010384636345270239,0.010604079347103834
340,0.25,0.001,0.011803110788642155,0.009133706847676124,14.959339373039477,0.01067761554107029,0.010750659475369113
341,0.25,0.001,0.01169094198731461,0.008888088858150171,15.707189425073489,0.01121141286586259,0.01611899957060814
342,0.25,0.001,0.011803966034391914,0.009082010119325586,15.25384028270991,0.010887823185374668,0.01611187681555748
343,0.25,0.001,0.011806155357396963,0.009129098658873276,15.002225933652936,0.010708226933371118,0.01450631973732795
344,0.25,0.001,0.011763399673832787,0.009009315970946442,15.433885150485569,0.01101633486829805,0.012526480214936393
345,0.25,0.001,0.0117676148209909,0.009040423518404214,15.283180583607066,0.010908765584301974,0.015528750738927297
346,0.25,0.001,0.011837996109718025,0.009075790088661391,15.479403890744605,0.011048825046926912,0.010044957111988748
347,0.25,0.001,0.011695186297098795,0.008934129913798486,15.472959422101878,0.011044225140686566,0.012394937952714307
348,0.25,0.001,0.011787555124046225,0.009077958960198996,15.184576487300372,0.010838384359243664,0.010800752921828203
349,0.25,0.001,0.011774903915897764,0.009067356859267963,15.173093872840958,0.01083018834606778,0.013063025128628527
350,0.25,0.001,0.011640031953727958,0.008932933009069676,15.17058166349777,0.01082839519164723,0.014160372050745147
351,0.25,0.001,0.01169900909404863,0.009020994694884679,15.007593029677265,0.01071205783702874,0.012851637788116932
352,0.25,0.001,0.011705120159971594,0.009008205627476928,15.11350878320559,0.010787657946613556,0.010615423920431308
353,0.25,0.001,0.011720844572692207,0.009110229005190458,14.62989001803928,0.010442462539642598,0.011901447482939278
354,0.25,0.001,0.011776066676835822,0.008946465591740126,15.857084929341017,0.011318404660486094,0.012035573300506388
355,0.25,0.001,0.011678071353923191,0.00895045974263639,15.285536005039408,0.010910446827294367,0.011636542422430856
356,0.25,0.001,0.011653023800163559,0.009053355139313322,14.568543954329057,0.010398675199378342,0.013016922266355582
357,0.25,0.001,0.011634124245381716,0.008994440797415345,14.792785605998954,0.010558733480370418,0.01319523248821497
358,0.25,0.001,0.01153972696023758,0.008867644582583446,14.974349840722903,0.010688329650765813,0.013265252778572696
359,0.25,0.001,0.011838314970108595,0.009156096077552347,15.031155441746566,0.0107288761183059,0.02105403771357877
360,0.25,0.001,0.011721006820373463,0.008935248705022263,15.611388081251972,0.011143032177910045,0.015729543353830065
361,0.25,0.001,0.011699476693239477,0.009050652365943398,14.844011595754912,0.010595297355999223,0.016151870600879192
362,0.25,0.001,0.011651382414680538,0.008994891900907864,14.88697338104248,0.010625962441857588,0.012566634586879186
363,0.25,0.001,0.011736793321265716,0.00905166318959961,15.047469167998344,0.010740520462525584,0.012559598977012294
364,0.25,0.001,0.011625632060447125,0.008883943950588053,15.364421266497988,0.0109667532237673,0.014240202360919543
365,0.25,0.001,0.011689546790839446,0.008994755429225136,15.101610906196363,0.010779165529048082,0.013982835890991347
366,0.25,0.001,0.011646908510363463,0.008998166035973665,14.843552714646465,0.010594969817734808,0.011375086781169687
367,0.25,0.001,0.011634561647143628,0.008988945867226582,14.826031655976266,0.010582463708762502,0.01613806068365063
368,0.25,0.001,0.011554457849324351,0.008912544039012206,14.805285501961757,0.01056765560454087,0.014883329958787985
369,0.25,0.001,0.011575126465447623,0.0089491635485731,14.715895874331697,0.010503851444919127,0.014409435779920645
370,0.25,0.001,0.011734214272688736,0.008994714737954464,15.352155367533365,0.010957998121008826,0.01427144676979099
371,0.25,0.001,0.01160990580389596,0.008915851908651266,15.0974786257503,0.010776216006959528,0.009210577101579734
372,0.25,0.001,0.011570750980289897,0.008893687842470226,15.002262558599915,0.010708253075374671,0.012909432873129845
373,0.25,0.001,0.011563122799300184,0.008950412263999683,14.641630346124822,0.01045084250258731,0.011464453036231654
374,0.25,0.001,0.011680976591176458,0.00892742145618405,15.430923616043245,0.011014220996461987,0.01256058391715799
375,0.25,0.001,0.011612545266145408,0.008952429809729861,14.907287713253137,0.010640462322093602,0.011657986523849624
376,0.25,0.001,0.011653670504914991,0.009005215122467942,14.841943692679356,0.010593821336673345,0.012864628407571996
377,0.25,0.001,0.011608215086538382,0.008900372452582374,15.174752052384193,0.010831371914621123,0.013130239077976771
378,0.25,0.001,0.011531201595760356,0.008821974009877503,15.182512119562938,0.010836910863356844,0.009893310655440603
379,0.25,0.001,0.011603266800368073,0.008978643962605433,14.708386864325012,0.010498491694735912,0.010185747340853726
380,0.25,0.001,0.011583729901097038,0.008823450795854584,15.468604270857995,0.011041116538799425,0.012265624611505441
381,0.25,0.001,0.01157094215541476,0.008907822515777868,14.924121991552488,0.010652478223806201,0.012463469989597797
382,0.25,0.001,0.011553995969771134,0.008831436181384506,15.257224343039773,0.010890238645995556,0.010209784843027592
383,0.25,0.001,0.011633498302538587,0.008944213898344473,15.070749745224461,0.010757137576891122,0.012547765991517476
384,0.25,0.001,0.01154816478980009,0.00891413391953466,14.761109255781077,0.01053612366579663,0.00954862404614687
385,0.25,0.001,0.011487614401061125,0.008753487181783927,15.322048379917337,0.010936508479598385,0.012039446138909884
386,0.25,0.001,0.01152683828364719,0.008881305297366296,14.82556732254799,0.010582132278763734,0.013191992017839636
387,0.25,0.001,0.011618373068896208,0.008946762843565508,14.971703519724835,0.010686440770681538,0.013155023833470685
388,0.25,0.001,0.011419610618942916,0.008687485931347114,15.310825925884824,0.01092849816265869,0.012775527047259467
389,0.25,0.001,0.011633339864813318,0.00899167267624477,14.8039036953088,0.010566669304288937,0.013721569308212824
390,0.25,0.001,0.01165330774066123,0.008881179855741335,15.535004779545948,0.011088511619947145,0.016437342523464134
391,0.25,0.001,0.0117369613073992,0.009065517525404992,14.970770951473352,0.01068577512596242,0.017448749792362963
392,0.25,0.001,0.011725910882832426,0.009019937281581488,15.164275140473336,0.010823893747661196,0.01444212267441409
393,0.25,0.001,0.011618964571618673,0.008937537387916536,15.026718775431315,0.01072570933292742,0.012118257316095489
394,0.25,0.001,0.011579924027877624,0.008823487907648087,15.447067684597439,0.011025744243110236,0.01355860275881631
395,0.25,0.001,0.011697601272978565,0.009012739446879638,15.04596448185468,0.01073944645385773,0.016886028461158276
396,0.25,0.001,0.011627889661626383,0.008910626285906994,15.22754424509376,0.01086905370813259,0.013589745786573206
397,0.25,0.001,0.011533274202410019,0.008867614780261058,14.938355888983216,0.010662638036390589,0.011921208884034837
398,0.25,0.001,0.011583939806153678,0.008972393894436383,14.635104063785437,0.010446184199704096,0.011834720149636269
399,0.25,0.001,0.011637814060756655,0.00893561320492264,15.143133606573548,0.010808803430816237,0.011861717594521386
400,0.25,0.001,0.011591875521146287,0.008849110764761766,15.370453805634469,0.010971059104664145,0.012571427705032485
401,0.25,0.001,0.011542970690913874,0.008910332891074095,14.753301678281842,0.010530550805340358,0.013223162053951196
402,0.25,0.001,0.011550018479200926,0.008858193041324014,15.084990568835327,0.010767302333215793,0.011556638670819146
403,0.25,0.001,0.01153453200528718,0.008943139914084564,14.522162215878264,0.010365569033460574,0.011541242312107767
404,0.25,0.001,0.011521915848733801,0.008817692456597631,15.154467881327928,0.010816893562689457,0.010527447464742832
405,0.25,0.001,0.011559926848294157,0.008859231061480864,15.134699773306798,0.010802783564101925,0.01083586537944419
406,0.25,0.001,0.011512261881220221,0.008831521684322694,15.022867395420267,0.010722960310792482,0.011641589126416616
407,0.25,0.001,0.011521373828402673,0.008857777727899528,14.926791875049322,0.010654383922233635,0.011676607121314322
408,0.25,0.001,0.011500391544717731,0.008800118540724119,15.132329863731307,0.01080109197982249,0.01026655181444117
409,0.25,0.001,0.011507260735438328,0.008811307421913652,15.108122247638125,0.010783813167479032,0.010142382300857986
410,0.25,0.001,0.011621513168769653,0.008992525278543584,14.732849044029159,0.010515952208443369,0.01341799832880497
411,0.25,0.001,0.011599472244129036,0.008817489371832573,15.59023288765339,0.011127932111101633,0.011671590485743113
412,0.25,0.001,0.011539801070937003,0.00880361365323717,15.333594081377742,0.010944749522753563,0.010724496362464768
413,0.25,0.001,0.011576299000569064,0.008976876651021566,14.567162764192831,0.01039768933918118,0.014065021050295659
414,0.25,0.001,0.011571212765770127,0.008772281892221383,15.685209871542574,0.011195724390822679,0.013661848115069526
415,0.25,0.001,0.011590307747775858,0.008916746641537457,14.982636114563604,0.010694244193121772,0.014546378515660763
416,0.25,0.001,0.011573159098248891,0.008863151477969657,15.18688271262429,0.010840030487240748,0.01698106780116047
417,0.25,0.001,0.01152133099697154,0.008882701284054554,14.786881456471454,0.010554519240878982,0.015201841347983905
418,0.25,0.001,0.011549938253757327,0.008919117445446025,14.743119307238647,0.010523282874545787,0.011261214103017534
419,0.25,0.001,0.011445053486209927,0.008791476102414155,14.870647777210582,0.010614309619707767,0.011841515677848033
420,0.25,0.001,0.011524414530757702,0.008824374225705561,15.131026528098367,0.010800161690291483,0.011393776163458824
421,0.25,0.001,0.011414101638953494,0.008763677393547211,14.852978542597606,0.010601697746322346,0.01009758049622178
422,0.25,0.001,0.011495483945114444,0.008875972243270488,14.67974357412319,0.010478046805227117,0.01049037603661418
423,0.25,0.001,0.011497211510861161,0.008836623619903217,14.909933860855872,0.010642351078412472,0.013199035277856248
424,0.25,0.001,0.011459708627727296,0.00880622189736577,14.870139507332233,0.01061394682893093,0.010961562328572785
425,0.25,0.001,0.011497651255040459,0.008778631480203735,15.23738803285541,0.010876079966349329,0.011516192395772253
426,0.25,0.001,0.011478036134080454,0.008784788416115323,15.092960868218933,0.01077299134062736,0.015797951258718967
427,0.25,0.001,0.011467360101188675,0.008836005899039183,14.746109914298009,0.010525417497714495,0.017295338479535922
428,0.25,0.001,0.01149452549189028,0.008885959229159236,14.618405544396603,0.010434265199426555,0.01431894169322082
429,0.25,0.001,0.011411091830167506,0.008752561973953488,14.898401742029671,0.010634119730213899,0.011133716109075717
430,0.25,0.001,0.011519648435741964,0.008815421638163652,15.154487735093243,0.010816907733828153,0.015249844906585557
431,0.25,0.001,0.011568810358041465,0.008803877974813334,15.494681753293433,0.011059730016626291,0.01421798818877765
432,0.25,0.001,0.011504923341551213,0.00878352045335553,15.250742536602598,0.010885612088938328,0.012630095705389977
433,0.25,0.001,0.011443166212752612,0.008744010673553654,15.126068847347991,0.010796623017379008,0.011359410293932472
434,0.25,0.001,0.011353953167645618,0.008745081525183085,14.620115992998835,0.010435486076373188,0.00960962740438325
435,0.25,0.001,0.011472428471527317,0.008870520346769781,14.581094761087437,0.010407633662446422,0.010275524841355426
436,0.25,0.001,0.01142989027530256,0.008652520996302066,15.56437688885313,0.011109476722950129,0.011038004753312894
437,0.25,0.001,0.011477600961848342,0.008775270816804183,15.143859054103043,0.010809321237760915,0.014816784632525273
438,0.25,0.001,0.011455858568425733,0.008755718602450809,15.131583367935335,0.010800559149133,0.009895415510982275
439,0.25,0.001,0.011474676138599111,0.008874464347356498,14.571585684111625,0.010400846312713508,0.012361252480851752
440,0.25,0.001,0.01159970076622987,0.008926676642714125,14.9796265496148,0.01069209603826895,0.01617544370570353
441,0.25,0.001,0.011595492646323912,0.008869585684604116,15.275982461794458,0.010903627738611319,0.013975635303982667
442,0.25,0.001,0.01151447065851905,0.008854416989241585,14.906941269383285,0.010640215038817477,0.01062501993562494
443,0.25,0.001,0.011600122429581002,0.008892179466784,15.175312331228545,0.010831771828143145,0.012565251705901963
444,0.25,0.001,0.011457884082137937,0.008756385777484287,15.13919611651488,0.010805992945406767,0.011276771181396075
445,0.25,0.001,0.011539269577373158,0.008905554623013795,14.75933776238952,0.01053485921655212,0.01102546269872359
446,0.25,0.001,0.011572256091643463,0.008796339798154253,15.556235573508523,0.011103665648471466,0.012852897268853017
447,0.25,0.001,0.011541842727573833,0.008828773069186042,15.204042531023122,0.0108522787516225,0.013437069686395782
448,0.25,0.001,0.01157199613975756,0.008959251258409384,14.641822246590046,0.01045097947650967,0.016188391351274083
449,0.25,0.001,0.011576861067853793,0.00884619155766988,15.302671798551925,0.01092267794329188,0.017109211135123457
450,0.25,0.001,0.011594631135313197,0.008836649245384968,15.455729455658883,0.011031926806323257,0.018476040767771856
451,0.25,0.001,0.01156268496480253,0.008837046487388587,15.274478575195928,0.010902554300639493,0.016270755590604886
452,0.25,0.001,0.01159355372679655,0.008878933021215478,15.212733567363085,0.010858482203685285,0.015219481528869696
453,0.25,0.001,0.011584148638778262,0.008900850606762399,15.037202016271726,0.010733192017324573,0.015316219069063663
454,0.25,0.001,0.011559591703869478,0.00884813889672961,15.194982210795084,0.01084581171362961,0.01570705949727978
455,0.25,0.001,0.011604044398274085,0.008832050854283752,15.534251126376065,0.011087973680496833,0.01444479204448206
456,0.25,0.001,0.011536844874346497,0.008808874355798418,15.287546456462206,0.010911881839016563,0.013953403303665774
457,0.25,0.001,0.011524031578440858,0.008791513091912775,15.313031764945599,0.010930072637363026,0.012529385409184865
458,0.25,0.001,0.011476720316392002,0.00877068985742752,15.16459547871291,0.010824122397368244,0.012332316221935409
459,0.25,0.001,0.01142592148648368,0.008751581140765638,14.987002411273995,0.010697360750374014,0.012619553000799246
460,0.25,0.001,0.011468515157549068,0.008782927153839005,15.050035033563171,0.010742351915462649,0.011100337241909333
461,0.25,0.001,0.011400943001111349,0.008747146220294514,14.87187728496513,0.010615187212680321,0.010490780496703727
462,0.25,0.001,0.01136520764592922,0.008714305222824667,14.855656575674962,0.010603609261723742,0.011009785878871168
463,0.25,0.001,0.011426742132188696,0.008745019540491731,15.028372350365224,0.010726889614821716,0.013148554068590914
464,0.25,0.001,0.011436805580601547,0.008769654198502652,14.946716173730715,0.010668605405946264,0.01600253315908568
465,0.25,0.001,0.011418512900068302,0.008722943103298395,15.105972222607544,0.0107822785314829,0.012768388193632876
466,0.25,0.001,0.011355986583488758,0.00869796641472012,14.895543069550484,0.010632079278765513,0.011491537892392703
467,0.25,0.001,0.011405949791272482,0.008817654371148708,14.504807183236787,0.01035318142986209,0.010015383761908327
468,0.25,0.001,0.011339084226449933,0.008630186102983325,15.18066546892879,0.010835592768685788,0.013633809850684233
469,0.25,0.001,0.011423643800721627,0.008702388663559851,15.249913071141098,0.010885020036503282,0.012658290032829558
470,0.25,0.001,0.011387778728297262,0.008731943766840479,14.883298353715377,0.01062333929601383,0.013166318381471294
471,0.25,0.001,0.011489458664348631,0.008821193204082624,14.952960794622248,0.01067306266568326,0.016197143654738153
472,0.25,0.001,0.011464335165466324,0.00880403332224097,14.908331206350615,0.010641207142291659,0.011753067573798555
473,0.25,0.001,0.011391594403921956,0.008678566720901114,15.203807869342842,0.010852111255776476,0.011459236166306905
474,0.25,0.001,0.0114419199338164,0.008809360854252421,14.75286144680447,0.01053023657873267,0.012643891120595592
475,0.25,0.001,0.011458814228800211,0.008731279117666711,15.285107525912197,0.010910140989230691,0.01292805140838027
476,0.25,0.001,0.01139000929289996,0.008649322985097616,15.3588068027689,0.010962745755009922,0.012995783439172166
477,0.25,0.001,0.011403907861823987,0.008710782283521963,15.09227607226131,0.01077250254979394,0.013040019398821252
478,0.25,0.001,0.011353936385024677,0.00869786354590847,14.884632380321772,0.010624291492021251,0.009444245137274265
479,0.25,0.001,0.011338286572183021,0.008649065394443696,15.070395575629341,0.010756884779178688,0.01006656831928662
480,0.25,0.001,0.011406564294840351,0.008715853123276524,15.078745061700994,0.010762844440900067,0.009161066263914108
481,0.25,0.001,0.011365186733504137,0.008643542557503239,15.252094480726454,0.01088657707403744,0.009792066046169825
482,0.25,0.001,0.011404628649052947,0.008745584072488728,14.90128717518816,0.010636179282789551,0.009859256712453706
483,0.25,0.001,0.01136445047126876,0.008710284576271519,14.873945756392045,0.010616663637681689,0.013656907182719027
484,0.25,0.001,0.011477971750527921,0.008666469936607161,15.75565623273753,0.011246007303881178,0.012587085299726044
485,0.25,0.001,0.011437844306305803,0.008804935002417275,14.754824416805999,0.010531637699361884,0.009954820520111493
486,0.25,0.001,0.011377555675654098,0.008675583186700489,15.141854276560773,0.010807890275917754,0.011089848753597056
487,0.25,0.001,0.011509726896430508,0.008691761402808355,15.7918786809902,0.011271862013554746,0.009948817281318563
488,0.25,0.001,0.011386034050674149,0.008724798236719587,14.913566367794768,0.010644943874228957,0.009325288236141205
489,0.25,0.001,0.011372436063759254,0.008697406896813349,14.99086360738735,0.01070011677900596,0.009444158989936113
490,0.25,0.001,0.011360683798263169,0.008693076444394661,14.949272637415413,0.010670430148048119,0.009413626444126879
491,0.25,0.001,0.011398985135284338,0.008654357489160817,15.380893688009243,0.010978510840834578,0.010336116421967745
492,0.25,0.001,0.0113082868658533,0.00855411546812816,15.434378479466293,0.011016686994622622,0.011412471000637327
493,0.25,0.001,0.011328565746997341,0.008728048895871398,14.573296710698292,0.010402067602211486,0.012331537303647824
494,0.25,0.001,0.011384693886896577,0.008696047292852943,15.067176019302522,0.010754586737546411,0.014086493756622076
495,0.25,0.001,0.011374669102481519,0.00866645686516557,15.176822325195928,0.010832849625407514,0.01401509065181017
496,0.25,0.001,0.01133939762119994,0.008721488198698168,14.67076399832061,0.010471637400657109,0.013571888008820159
497,0.25,0.001,0.011432174348620453,0.008768488982259626,14.927292236173995,0.010654741067932901,0.013150373340717383
498,0.25,0.001,0.011412049559029665,0.008743002041798047,14.957342012964114,0.010676189873636055,0.01524863698120628
499,0.25,0.001,0.011438514510489474,0.008809430694038218,14.733387609924932,0.010516336623786532,0.016828450906489576
500,0.25,0.001,0.01147000536774144,0.008690300604535474,15.577464402324022,0.011118818274321214,0.015075302283678736
