epoch,beta,learning_rate,train_loss,train_reconstruction_loss,train_kl_unnormalized,train_kl_normalized,mean_unclipped_gradient_norm
1,0.0,0.001,0.07920905134550811,0.07920905134550811,32.55486402414777,0.023236876534009826,0.1078050434589386
2,0.02,0.001,0.05503396546175032,0.05000864623615584,352.0236528270741,0.2512659905974833,0.08685957959720067
3,0.04,0.001,0.04228741240682941,0.038838292836083976,120.80541128555531,0.08622798806963262,0.09367502374308449
4,0.06,0.001,0.03734643053887459,0.03297867001918367,101.98720600883368,0.072796007144064,0.07185439126832145
5,0.08,0.001,0.036130849385473326,0.033049478729818074,53.96249509704899,0.03851712712137687,0.04832473982657705
6,0.1,0.001,0.034543090759951454,0.032159010468400674,33.40096511453542,0.02384080307961129,0.02604204336447375
7,0.12,0.001,0.033763736486434937,0.03172711750048066,23.77752622614052,0.01697182457254855,0.019382843082504615
8,0.14,0.001,0.03255192914665653,0.03040499609852503,21.48466756985272,0.015335237380337418,0.022532336679952487
9,0.16,0.001,0.03053694108718543,0.028184715166763605,20.596679532588436,0.014701412942604165,0.02538472387407507
10,0.18,0.001,0.028384040076720532,0.025519694537302563,22.294157570388716,0.015913031813268176,0.031372916884720325
11,0.2,0.001,0.02726573800564115,0.023421945324555268,26.92576839234018,0.019218963877473363,0.048419083069477765
12,0.22,0.001,0.026403745324327255,0.02270571815634742,23.549711972928893,0.016809216254767233,0.09594038661037173
13,0.24,0.001,0.02495656420623288,0.021245009658224692,21.66620216756908,0.015464812396551805,0.040089369751513004
14,0.25,0.001,0.024395825672270683,0.020626758182714432,21.121854452917418,0.01507627013056204,0.05213762939508472
15,0.25,0.001,0.023671093042278046,0.020226556694295805,19.303179561789264,0.013778143869942373,0.034831498616508076
16,0.25,0.001,0.02382983898904723,0.020096264543191432,20.922950531625506,0.0149342973102252,0.03443738605294909
17,0.25,0.001,0.023189088055476318,0.019938955991174363,18.21373917245623,0.01300052760346626,0.024948563426733017
18,0.25,0.001,0.022657888511261964,0.019516291985581368,17.6055068098349,0.012566386017012777,0.02107547888798373
19,0.25,0.001,0.02246849741881269,0.0191225431632572,18.750728742725354,0.013383817803515599,0.043419508529560905
20,0.25,0.001,0.02209365186352415,0.019086365668377295,16.85283194217585,0.012029144855229015,0.027599852266056196
21,0.25,0.001,0.021638883655975917,0.018287765334932333,18.779668367453638,0.013404474209460128,0.0356367625562208
22,0.25,0.001,0.021409006628590792,0.01829697755236311,17.43981333311439,0.012448118010788288,0.034274605102837086
23,0.25,0.001,0.02082271478729805,0.017579908165986164,18.172690948253962,0.012971228371344727,0.022952474520674775
24,0.25,0.001,0.0205171238252808,0.017429201707697763,17.304716478144456,0.01235168913500675,0.023757951999349252
25,0.25,0.001,0.020511282333716522,0.01712265646624081,18.989861125268305,0.013554504728956678,0.03434872294643095
26,0.0,0.001,0.016512232175484528,0.016512232175484528,20.269390222384846,0.014467801729039862,0.025884958117135932
27,0.02,0.001,0.015890314508475327,0.015364483911260433,36.83442248426718,0.026291522115822398,0.011659292637237481
28,0.04,0.001,0.01606351461469522,0.01451859590573813,54.11077646555634,0.03862296678483679,0.019390855317137072
29,0.06,0.001,0.01660327610044461,0.014228555473125525,55.44972269668192,0.03957867430170015,0.024357371697468416
30,0.08,0.001,0.016755881232356058,0.014264699076373262,43.62682392875555,0.031139774395971126,0.020217172668448517
31,0.1,0.001,0.0168669930834153,0.01457486590039609,32.11270393332854,0.022921273328571405,0.015649417814399515
32,0.12,0.001,0.017248538838047063,0.014944578681689531,26.898735104478554,0.019199668168792688,0.026142547306205546
33,0.14,0.001,0.017631829824998294,0.01499555399877771,26.38158832104678,0.018830541271268222,0.01955725492111274
34,0.16,0.001,0.01773544097423251,0.014654729950246472,26.975477334811604,0.019254444921350183,0.013859603687056474
35,0.18,0.001,0.01794501269226752,0.01496437591911875,23.199288847482748,0.016559092682000533,0.011713460753006595
36,0.2,0.001,0.01847668971658358,0.015278747721296277,22.401587113511138,0.01598971242934414,0.02290266552673919
37,0.22,0.001,0.0186087039162211,0.015138931742628214,22.096141466634528,0.015771692695670612,0.05062031666082995
38,0.24,0.001,0.018636615861793458,0.0153474197368407,19.200684678130948,0.013704985494740148,0.02403412918959345
39,0.25,0.001,0.01878788080160993,0.01542057585784324,18.870378068255896,0.013469220605464594,0.03310551680624485
40,0.25,0.001,0.01881729845468163,0.015497720308677496,18.60291496509223,0.013278311895140777,0.02308730355330876
41,0.25,0.001,0.018656281796922237,0.015357318031719795,18.487393751967378,0.013195855640233674,0.023117658948259696
42,0.25,0.001,0.0187273789291757,0.01529207915483695,19.25141983225866,0.013741199023739228,0.02805211820772716
43,0.25,0.001,0.01853993236262181,0.01535383195895229,17.854907224626107,0.012744402016149969,0.0205836949337806
44,0.25,0.001,0.01844544788151223,0.01490128259670916,19.8615034655266,0.014176662002517201,0.02373874546693904
45,0.25,0.001,0.01841661346329348,0.01533900604105843,17.2469110343662,0.012310429003830264,0.02197352424263954
46,0.25,0.001,0.018394745952511195,0.014990471085996796,19.07755419445522,0.013617097926092234,0.027741999498435428
47,0.25,0.001,0.01830427174640791,0.015180927176539063,17.503225946184344,0.012493380404128725,0.02854572289756366
48,0.25,0.001,0.018078097109186467,0.014798033911602448,18.381473366984256,0.013120252224828162,0.013296897789197308
49,0.25,0.001,0.018159934068996894,0.014819511633158335,18.7197270950085,0.013361689575309423,0.019738630059042146
50,0.25,0.001,0.018014934982366972,0.014710712894267843,18.51686020672019,0.013216888084739607,0.022041201990629946
51,0.0,0.001,0.014582472361699881,0.014582472361699881,21.7123140344765,0.015497725934672734,0.04241147903459413
52,0.02,0.001,0.01390901076498673,0.013358717339898124,38.5480540900061,0.027514671013566094,0.019990899600088596
53,0.04,0.001,0.014219327910146132,0.012622777088947103,55.919197256795044,0.03991377391634193,0.02328023993011032
54,0.06,0.001,0.014723298834816453,0.012392633495294503,54.42103909720019,0.038844424766024406,0.018982432250465666
55,0.08,0.001,0.014976379598684723,0.012654651717523936,40.6592608902055,0.029021599493365812,0.019080750644207
56,0.1,0.001,0.015193437240299234,0.013037703798960912,30.201827673742613,0.02155733595556218,0.019413450599781105
57,0.12,0.001,0.015488072983958394,0.01315713323047621,27.213722587236898,0.019424498634715844,0.015881522625152553
58,0.14,0.001,0.015887429006397724,0.01328001602973581,26.09275352168204,0.0186243779598016,0.013208003049450261
59,0.16,0.001,0.016284189172807682,0.01340040425547791,25.25114044925283,0.018023654853142633,0.02337110647931695
60,0.18,0.001,0.016565602542217915,0.01352363057094177,23.6766786720547,0.016899842021452317,0.01450899469533137
61,0.2,0.001,0.016862292707836266,0.013715183367092295,22.04550243513233,0.015735547776682606,0.02206301050526755
62,0.22,0.001,0.01700216489205808,0.013731447284861567,20.828526404908466,0.014866899646615608,0.023038276870335852
63,0.24,0.001,0.017463149351592596,0.014023625949010026,20.078220309339805,0.014331349257201859,0.027807432625974928
64,0.25,0.001,0.01742636550425878,0.014135817897879533,18.440230461546612,0.013162191621375169,0.02762797780867134
65,0.25,0.001,0.01728273867653106,0.01394037789840081,18.730592563067596,0.013369445084273802,0.01814739459327289
66,0.25,0.001,0.017200468476804984,0.014058480313435423,17.60770034790039,0.012567951711563448,0.017830173817596266
67,0.25,0.001,0.017217238438386604,0.014005335151846638,17.999507139176888,0.012847613946593069,0.027452879585325718
68,0.25,0.001,0.017181343791372886,0.013982025547151639,17.928980609487155,0.012797273811197113,0.021578012433435236
69,0.25,0.001,0.017162222878506342,0.013933554310635261,18.093457856154078,0.012914673701751662,0.029254844146115438
70,0.25,0.001,0.01717274442201641,0.014014071732910756,17.701202566853635,0.012634691339652844,0.031686127718005865
71,0.25,0.001,0.016986430537541806,0.013941983867266456,17.061081629719226,0.012177788458043702,0.02749412047809788
72,0.25,0.001,0.017081883920328268,0.013867721041938678,18.01216771275864,0.012856650758571477,0.024972967537386075
73,0.25,0.001,0.016921970946005154,0.013731529912556792,17.879231864425737,0.012761764357191818,0.01906780120251434
74,0.25,0.001,0.016764635475456414,0.01377147083468546,16.773694624150465,0.011972658546859718,0.01703115539359195
75,0.25,0.001,0.01683121981089793,0.013654249044239218,17.803743875571314,0.012707882851942407,0.024615106039813588
76,0.0,0.001,0.013268422685223182,0.013268422685223182,19.530267802591858,0.013940233977581627,0.021711406830166067
77,0.02,0.001,0.01276600835041195,0.012239627516473913,36.87296972904109,0.026319036209165658,0.015460833574512176
78,0.04,0.001,0.013176353185007416,0.01173812827936889,50.373831947442845,0.035955625943927795,0.01371946039476565
79,0.06,0.001,0.013737186208026966,0.011677142814142148,48.10201824982154,0.034334060135490035,0.011286094385598387
80,0.08,0.001,0.01389282731443341,0.011834396087200508,36.04827807276382,0.02573039120111622,0.013861459812947683
81,0.1,0.001,0.014203704420836443,0.012261668291075278,27.207923579337027,0.019420359442781605,0.012585150876215525
82,0.12,0.001,0.01456354119280722,0.012449854157562485,24.67729356446242,0.017614056791193735,0.01695220671328051
83,0.14,0.001,0.014851451771059617,0.012345834772296364,25.07406684952944,0.017897263989671265,0.01372213927762849
84,0.16,0.001,0.015051987419273648,0.012396631322725473,23.25096264950515,0.01659597619522138,0.018496929268751825
85,0.18,0.001,0.0153252945522669,0.012602011001843789,21.196221608195813,0.015129351611845691,0.01653546141460538
86,0.2,0.001,0.01569599954193921,0.01276971694308943,20.498609697758244,0.01463141306049839,0.021173517618860518
87,0.22,0.001,0.015896751616282512,0.01270806304826803,20.306150049122458,0.01449404000651139,0.018753766414842436
88,0.24,0.001,0.01620945157625046,0.0129260045055508,19.167124336746138,0.013681030932723867,0.014505987321691853
89,0.25,0.001,0.016251350426810043,0.012993290221441519,18.258168903099097,0.013032240473304138,0.015705931798688004
90,0.25,0.001,0.016295471885785232,0.013117070007256142,17.811763163145425,0.012713606825942487,0.017218312049018487
91,0.25,0.001,0.016199039318953373,0.013117210074389344,17.270570154722574,0.01232731631314959,0.030630233165408884
92,0.25,0.001,0.01615786215829365,0.01298352275611029,17.78899665290329,0.01269735664018793,0.03301340501223292
93,0.25,0.001,0.016063049681446877,0.013036550845251169,16.960502508328045,0.012105997507728797,0.025483886977391585
94,0.25,0.001,0.01620594480164765,0.013037050776372705,17.75848186802743,0.012675575922931785,0.0206780984465565
95,0.25,0.001,0.016037131848787595,0.013018064167785464,16.91885557029453,0.012076270928118865,0.01561540285391467
96,0.25,0.001,0.015863594140498167,0.012918368142646582,16.505048950311497,0.011780905746118129,0.010463874055338758
97,0.25,0.001,0.01581285008451509,0.012887112002082283,16.395835779645115,0.011702952019732416,0.014820517306881291
98,0.25,0.001,0.015829492019971615,0.012864584112681713,16.615345746732604,0.011859632938424415,0.018542802426964045
99,0.25,0.001,0.015967664219023008,0.012989080974331059,16.691981054199527,0.011914333372019649,0.02011718800557511
100,0.25,0.001,0.015918977170955712,0.012895796013059955,16.941906338415777,0.012092724010289633,0.019660082645714283
101,0.25,0.001,0.01579467681836961,0.012872744077428949,16.374511389562926,0.011687731184555978,0.021090228177074875
102,0.25,0.001,0.015699753150116975,0.012659725359626834,17.036316895848,0.012160111988471091,0.018868994499955858
103,0.25,0.001,0.015593136145454373,0.012693616504861316,16.248907534604147,0.01159807818315785,0.023879130503961017
104,0.25,0.001,0.015736326329447898,0.012909945365287325,15.839038989265559,0.011305523903829806,0.022341843428356305
105,0.25,0.001,0.015770975254513892,0.01261251132821825,17.700032326170636,0.012633856050086106,0.014901674219540187
106,0.25,0.001,0.01559975002017723,0.0126012343780946,16.803681165433776,0.011994062216583709,0.013852125233305352
107,0.25,0.001,0.015772605059564414,0.012962823402760597,15.746015437363369,0.011239125936733312,0.014737249352037907
108,0.25,0.001,0.01566476360682001,0.012547195666862018,17.470851530278395,0.012470272327108062,0.0157644853794149
109,0.25,0.001,0.015640426143474384,0.012715655104800832,16.390414799530493,0.01169908265491113,0.017542942027960504
110,0.25,0.001,0.015526907121393886,0.012648135281834505,16.13263661244194,0.01151508680402708,0.015400459923382317
111,0.25,0.001,0.015527594115982202,0.012576513701510913,16.53785476103652,0.011804321742352977,0.01797882161502327
112,0.25,0.001,0.015551944854220158,0.012616094480727227,16.452505837842292,0.011743401740073014,0.021891958213278224
113,0.25,0.001,0.015569542151719785,0.012641729961910526,16.407459491400548,0.011711248744754139,0.022760824566440924
114,0.25,0.001,0.015461994174319475,0.012583522948668088,16.130953658050693,0.011513885551784933,0.01579183672687837
115,0.25,0.001,0.015367758616351234,0.012512448513265793,16.00115812853508,0.011421240634214905,0.011975108845425504
116,0.25,0.001,0.01546526544249905,0.012580277875708748,16.16747081582316,0.011539950618003685,0.0130333864529218
117,0.25,0.001,0.015388816642352773,0.012496090409000815,16.21083873903691,0.011570905595315423,0.011413273268512316
118,0.25,0.001,0.015360033886535519,0.012572524166160125,15.621205925336344,0.011150039918155849,0.01720701184655939
119,0.25,0.001,0.01537652767551732,0.012513061687539373,16.046862607074875,0.011453863388347519,0.011398272189710821
120,0.25,0.001,0.015324371923612157,0.012383325909486579,16.481622637831016,0.01176418460944398,0.01302086082952363
121,0.25,0.001,0.01529990164043032,0.012333378994714487,16.624392097976607,0.01186609000569351,0.013139048458210059
122,0.25,0.001,0.015317683566720957,0.012454609755369914,16.044665738410757,0.0114522953164959,0.013252280120338713
123,0.25,0.001,0.015259333682922543,0.012367037243119956,16.20842831994071,0.011569185096317424,0.013966637730066265
124,0.25,0.001,0.015125529112549602,0.012241931641616192,16.15968084093278,0.01153439032186494,0.010857225927923406
125,0.25,0.001,0.015216323863809484,0.012341959903082872,16.107934351499917,0.011497454926124138,0.021822902839630842
126,0.25,0.001,0.015188003025079137,0.012297139441603936,16.20040111251289,0.011563455469316837,0.013664149213582277
127,0.25,0.001,0.015112917227339623,0.012302387964339728,15.75020637124928,0.011242117324232177,0.010162291782242911
128,0.25,0.001,0.015059424379868859,0.01228391834851449,15.55393601916163,0.011102024282056838,0.01565932043428932
129,0.25,0.001,0.015091873932308352,0.012260699956701492,15.865899642711968,0.011324696390229812,0.01527809677645564
130,0.25,0.001,0.015205469540306155,0.012366419194767319,15.910038778624559,0.01135620184056,0.02663175602044378
131,0.25,0.001,0.01520999159361354,0.012362008157947342,15.960098266601562,0.011391933095361573,0.022941450189266886
132,0.25,0.001,0.01504464309927322,0.01218518969333414,16.024377934218663,0.011437814371319532,0.014711516975824322
133,0.25,0.001,0.01504349584695954,0.01225567216214341,15.622964147383792,0.011151294894635112,0.01348443010023662
134,0.25,0.001,0.015039227231580594,0.012110796251197152,16.41092925870479,0.011713725380945603,0.024576349183917046
135,0.25,0.001,0.015224688180585198,0.012400440039671012,15.827086308280828,0.011296992368508799,0.022197075321206024
136,0.25,0.001,0.01507433275999454,0.012191656267809384,16.154518122600418,0.011530705298073103,0.020105215986924514
137,0.25,0.001,0.015100797912493575,0.012222989344127893,16.127239396729443,0.0115112344016627,0.01704493005360876
138,0.25,0.001,0.014930142789398353,0.012093908720777423,15.89425722596609,0.011344937349012199,0.012621539511850901
139,0.25,0.001,0.014941484100057691,0.012117365441346532,15.826360997814817,0.011296474659396729,0.01525318921942796
140,0.25,0.001,0.014958089472829993,0.012163692328908722,15.659801957570961,0.011177588834811535,0.016958650600697314
141,0.25,0.001,0.01501350208814374,0.012087350195926156,16.398154786395544,0.011704607270803385,0.02601778693497181
142,0.25,0.001,0.015059129259345798,0.012226202851397737,15.875719709444772,0.011331705716948444,0.024508580565452576
143,0.25,0.001,0.014934878375589242,0.0121567467378859,15.568650463510892,0.011112527097438181,0.01413745732445802
144,0.25,0.001,0.014955623406292824,0.012186337352215033,15.519078172402939,0.011077143592007808,0.014927496601428305
145,0.25,0.001,0.01492174654291366,0.01209830193009776,15.82258575458817,0.011293779981861648,0.01965922928814377
146,0.25,0.001,0.014886958732595903,0.012062961661119751,15.825680059829944,0.01129598862229118,0.015053039217101676
147,0.25,0.001,0.014884417129652149,0.012087950331683691,15.67139973616237,0.011185867049366431,0.018597141174333438
148,0.25,0.001,0.014911288215878046,0.01209412118996763,15.787404578349312,0.011268668507030202,0.02403825694429023
149,0.25,0.001,0.014918035907945052,0.012051530555836137,16.06389649870432,0.011466021769239344,0.015236345918050833
150,0.25,0.001,0.014864420376453302,0.01195149440885649,16.324037571243828,0.011651704190752198,0.015702424437872002
151,0.25,0.001,0.0148781311986637,0.01206262461217073,15.77809933115383,0.011262026646076968,0.014342783684177058
152,0.25,0.001,0.01504382909497785,0.012114264505920071,16.417282269085725,0.011718260006485171,0.012288305176688092
153,0.25,0.001,0.015058610749048025,0.012141055725325789,16.349977435194297,0.011670219439824624,0.016363023381148065
154,0.25,0.001,0.015014605894495691,0.012163565843957027,15.977228571315708,0.01140416029358723,0.017702709617359296
155,0.25,0.001,0.014881297851425742,0.012133964011209265,15.396056664171558,0.010989333807402968,0.013136849073427064
156,0.25,0.001,0.014758146774534344,0.011944337511614797,15.768586957515193,0.011255236943265662,0.010468287726065941
157,0.25,0.001,0.014709376522013682,0.011942195819530087,15.507282189306268,0.011068723903858864,0.011319414180304323
158,0.25,0.001,0.014785702694869283,0.012034641649706412,15.416947074347947,0.011004244878192682,0.014718505154762949
159,0.25,0.001,0.014617083386191863,0.011739311645251846,16.12703307389003,0.011511087133397595,0.010028486871825797
160,0.25,0.001,0.0147683602677384,0.0121013202567391,14.946091017747289,0.010668159184687573,0.01424873513834817
161,0.25,0.001,0.014660973210587416,0.011937445965666456,15.26264637012772,0.010894108758121142,0.014277891788099493
162,0.25,0.001,0.014712467165616564,0.011879896177782625,15.873728127648988,0.011330284173910769,0.015633398334362676
163,0.25,0.001,0.0146612798237256,0.011898267078142481,15.483924826994766,0.011052051982151867,0.009928533474781684
164,0.25,0.001,0.01470762032183445,0.012050451649362363,14.890774179836216,0.010628675360339911,0.013696476551038879
165,0.25,0.001,0.014737382044230923,0.011814088721376688,16.382136156111198,0.01169317355896588,0.01664948902492012
166,0.25,0.001,0.014810882981507307,0.012078277875437651,15.31351939554747,0.010930420696322248,0.014364031409578664
167,0.25,0.001,0.01474768290683854,0.01180885258003086,16.46920539158855,0.011755321478649928,0.017638402857950757
168,0.25,0.001,0.014757870209549889,0.012001945769537222,15.444201009527681,0.011023698079605768,0.01452083938888141
169,0.25,0.001,0.014672623777071837,0.011908793552461917,15.48850578463017,0.011055321759193555,0.013345292835895504
170,0.25,0.001,0.014550283683586848,0.011779615069328226,15.526827129615745,0.011082674610717876,0.009543333202600479
171,0.25,0.001,0.014563421080560248,0.011821671795610547,15.364763758509293,0.010966997686302136,0.009952242286609752
172,0.25,0.001,0.014546254006814835,0.011755290890329985,15.640559549864173,0.011163854068425533,0.016121214854397943
173,0.25,0.001,0.01446185226027433,0.011690364762913756,15.531416060355713,0.011085950078769245,0.01631378715059587
174,0.25,0.001,0.014471939188158754,0.011905294653917025,14.383475879727282,0.01026657807261048,0.012018226220139436
175,0.25,0.001,0.014537960035622422,0.011774460567624738,15.486649653633235,0.01105399689766826,0.01306746354592698
176,0.25,0.001,0.014537267349093094,0.011663353694650122,16.10541275431057,0.011495655070885489,0.014209972960608346
177,0.25,0.001,0.014575602713650859,0.011862694006885974,15.203141318965079,0.010851635488197772,0.018820988280432566
178,0.25,0.001,0.014635607174734779,0.011762187745289754,16.102643298618684,0.011493678300227468,0.014848978657807623
179,0.25,0.001,0.014621353930401319,0.011825480512556085,15.668074854739427,0.011183493829221574,0.015285520947405271
180,0.25,0.001,0.014536176264512963,0.01177015319126209,15.500793273073768,0.011064092272001261,0.014957080728241376
181,0.25,0.001,0.014489173614963663,0.011758662249684939,15.301785870857046,0.010922045589476835,0.0159624228919191
182,0.25,0.001,0.014540098276613327,0.011760966459922681,15.574254457115522,0.011116527092873321,0.02067510344620262
183,0.25,0.001,0.014516420983874859,0.01168277566581208,15.879748891452847,0.011334581649859277,0.01494221854954958
184,0.25,0.001,0.014545055087372132,0.011790345143999546,15.437393798440846,0.011018839256560204,0.015096883622131177
185,0.25,0.001,0.014572689914839522,0.01187600908318752,15.112198819968906,0.01078672292645889,0.017835102110568966
186,0.25,0.001,0.014622409468715264,0.01174367741128515,16.1324146967854,0.011514928405985296,0.016843913655195917
187,0.25,0.001,0.014655108076666817,0.011780349282443826,16.110149122131656,0.011499035775968348,0.011016382503190212
188,0.25,0.001,0.014520640919921059,0.011682832632497482,15.903077111026358,0.011351232770182983,0.014066546889288085
189,0.25,0.001,0.014543775005767189,0.011700764114065522,15.932234018587218,0.011372044267371319,0.011773914231785707
190,0.25,0.001,0.014542546832395083,0.011726762740140034,15.779653060254711,0.01126313566042449,0.013154965426240648
191,0.25,0.001,0.014605551305685551,0.011890923353810298,15.2127761598771,0.010858512605194218,0.013078666292130947
192,0.25,0.001,0.01447451345357798,0.011686638924222307,15.623249034591133,0.01115149824025063,0.01595436515552657
193,0.25,0.001,0.014490001825473938,0.011574412889892074,16.338960516876377,0.011662355829319326,0.013385209521012647
194,0.25,0.001,0.014327839853686427,0.011573901447245313,15.433071465661683,0.011015754079701416,0.010718777975333589
195,0.25,0.001,0.014395014349806128,0.011662153503502989,15.3149520322151,0.010931443277812349,0.01325532142072916
196,0.25,0.001,0.014407760515657779,0.011617575072432836,15.636198886154872,0.011160741531873571,0.013213898121778454
197,0.25,0.001,0.01435838496492145,0.011567190700792117,15.641853443862217,0.011164777618745337,0.011985764306570803
198,0.25,0.001,0.014412469329870291,0.011716557222271934,15.10789268997115,0.010783649314754569,0.015914595419807092
199,0.25,0.001,0.014354913235467098,0.01164055027559324,15.211290035150983,0.010857451845218403,0.01216387768675174
200,0.25,0.001,0.014437077401517914,0.011614789065862368,15.816103707715339,0.01128915325318725,0.01375644061980503
201,0.25,0.001,0.014354518780172779,0.011599463420130577,15.439332076135626,0.011020222752416578,0.013589428338621343
202,0.25,0.001,0.01435914363825533,0.011533595233928733,15.834373909809868,0.01130219408266229,0.011994803989572185
203,0.25,0.001,0.014368954856837462,0.011654454325964004,15.212061707743533,0.010858002646497883,0.011828601160751922
204,0.25,0.001,0.014463580979346321,0.011751969349641485,15.195871033644313,0.010846446133935983,0.017015565585877215
205,0.25,0.001,0.014325158509808748,0.011540149782930836,15.607189270445538,0.011140035168055345,0.016157564441008226
206,0.25,0.001,0.014403214091955103,0.011687971244986892,15.216221267196733,0.010860971639683607,0.01515835543562259
207,0.25,0.001,0.014357301165458514,0.011503512323432162,15.992632560923619,0.011415155289738486,0.012542524375021458
208,0.25,0.001,0.014256880670634624,0.011560399264929258,15.111081283104602,0.010785925255606425,0.017697394160287722
209,0.25,0.001,0.01426499426780921,0.011622628317625843,14.807819124405759,0.010569464043116173,0.011231448168733291
210,0.25,0.001,0.01435115523069038,0.011596754807884318,15.435660342879707,0.011017601957801361,0.012935198510863952
211,0.25,0.001,0.01429489230368343,0.011459678898418918,15.88853533013823,0.011340853197814582,0.012843552511185408
212,0.25,0.001,0.01428504962341737,0.011517168046329832,15.511208234099568,0.011071526219914038,0.01131937506475619
213,0.25,0.001,0.014329217204133871,0.011563879442472143,15.496953020241055,0.011061351192177769,0.014723961308066334
214,0.25,0.001,0.01432242248264061,0.011500568734245554,15.81366873029525,0.011287415225050142,0.020188974349626472
215,0.25,0.001,0.01427792885392753,0.01156181074338516,15.221126590283388,0.010864472940958879,0.016557432245463133
216,0.25,0.001,0.014312319145514275,0.01162971546258872,15.033311495321051,0.010730415057331228,0.012843274644442968
217,0.25,0.001,0.014362386489277564,0.011507276105245358,16.000037812944598,0.01142044097997473,0.012861197282161032
218,0.25,0.001,0.01434137132302456,0.011634744632856797,15.167936935037526,0.010826507448278034,0.014066428145659822
219,0.25,0.001,0.014312372103257833,0.011554446383403038,15.455415672457157,0.011031702835444081,0.013092061637767724
220,0.25,0.001,0.014443474623190268,0.011690067349540704,15.430095938861673,0.011013630220458011,0.019750456724848067
221,0.25,0.001,0.014389569422012659,0.011628525185063103,15.472891095931155,0.011044176371114316,0.011557484311716897
222,0.25,0.001,0.01424015612166545,0.011457516168844578,15.593914840427146,0.011130560200162131,0.016110469653670276
223,0.25,0.001,0.014220052720212997,0.011518649747453365,15.138662938539147,0.01080561237583094,0.02343170078737395
224,0.25,0.001,0.014263033951977788,0.011490643946312103,15.536472993453748,0.011089559595612954,0.01974234277648585
225,0.25,0.001,0.014236962195807302,0.01145868877015138,15.569443823722413,0.011113093378816854,0.011839950124600105
226,0.25,0.001,0.014124998449333731,0.011444193296853056,15.023232411612108,0.010723220850543974,0.0153453180433384
227,0.25,0.001,0.014194633277501855,0.011428675075359454,15.500429734360749,0.011063832786838507,0.018587649866406406
228,0.25,0.001,0.014178144031672309,0.011472712450561487,15.161239386815105,0.010821726899939405,0.01595756957041366
229,0.25,0.001,0.01425621876975304,0.011522565698865707,15.3193920154862,0.010934612430753889,0.022218835407069752
230,0.25,0.001,0.01428926883615213,0.011562793908007254,15.279164507909474,0.010905899006359368,0.017035731114447117
231,0.25,0.001,0.014257614997210842,0.011500660538068277,15.44997300956455,0.01102781799397898,0.016523778837706362
232,0.25,0.001,0.014202444043558866,0.011406158716394211,15.670382911178667,0.011185141264224601,0.012457168993673154
233,0.25,0.001,0.01429921782901747,0.011535609708295256,15.487259467846245,0.01105443216834136,0.014634871988424234
234,0.25,0.001,0.014224595120791252,0.011329432991971523,16.224488650481714,0.011580648572792087,0.011531675034867865
235,0.25,0.001,0.014314552598873976,0.011580690145870756,15.320567203657276,0.010935451251718256,0.015105648631496089
236,0.25,0.001,0.014118963791066922,0.011391879626677424,15.28258049185506,0.01090833725328698,0.0101991757484419
237,0.25,0.001,0.014212475210276958,0.01154822010433462,14.930486620985311,0.01065702114274469,0.01351354071604354
238,0.25,0.001,0.01421345062648433,0.011424850369921795,15.627315438943466,0.01115440074157278,0.012158171805952276
239,0.25,0.001,0.014221021801535854,0.011324540924677995,16.2318786533956,0.011585923378583584,0.012851038947701454
240,0.25,0.001,0.014176649060383968,0.011358134306702516,15.794957112539842,0.011274059323725797,0.011525982059538364
241,0.25,0.001,0.0141162249037457,0.011340460101813834,15.555385778398078,0.011103059085223467,0.011985873537404197
242,0.25,0.001,0.014264983158123674,0.011557462790668918,15.172943391170598,0.01083008093588194,0.01276164096114891
243,0.25,0.001,0.014154726090997004,0.011381731723165754,15.53985975236457,0.011091976982415824,0.009905549830624036
244,0.25,0.001,0.0142626502754422,0.011457191217633975,15.721792095203691,0.01122183589950299,0.013676693729524101
245,0.25,0.001,0.014204651041684417,0.011433763694263957,15.528051560300256,0.011083548579800324,0.01100063802940505
246,0.25,0.001,0.014274935687178282,0.011514428435697168,15.469883710599794,0.011042029772019839,0.013328768712069308
247,0.25,0.001,0.014233149895397238,0.011467205360531807,15.500353130592307,0.011063778108916707,0.010863130845661675
248,0.25,0.001,0.014199471337541106,0.011458866421114369,15.35834997922636,0.010962419685386408,0.014492267875799112
249,0.25,0.001,0.01411170754959892,0.011236034934101673,16.115269080031343,0.011502690278394963,0.010755642716373717
250,0.25,0.001,0.01417547256359594,0.011450066949775073,15.273173617832551,0.010901622853556425,0.013708220262612616
251,0.25,0.001,0.014149294092986486,0.01148684824424498,14.920345495194953,0.010649782651816526,0.015628996704305922
252,0.25,0.001,0.014179278770225302,0.011372873923613637,15.727092689669071,0.011225619335952227,0.01760018270994936
253,0.25,0.001,0.014155653158798435,0.011325138805405742,15.86220199565597,0.011322057098969288,0.020403019950858185
254,0.25,0.001,0.014192703525124467,0.011400646809015782,15.64668508229522,0.01116822632569252,0.010810843934970242
255,0.25,0.001,0.014261298817653341,0.011451303273401587,15.74721554209133,0.011239982542534855,0.013290429886962687
256,0.25,0.001,0.014054029168286904,0.01130188271630234,15.423029178290198,0.011008586137252105,0.010162859689444304
257,0.25,0.001,0.014161122821006678,0.01142711702942243,15.321368837114518,0.010936023438340128,0.011262864938804082
258,0.25,0.001,0.014135927860128699,0.01129965761175313,15.894458857889708,0.01134508126901478,0.012539978737809829
259,0.25,0.001,0.01417283113421825,0.011499092223945306,14.983632436258539,0.010694955343510735,0.014557200617023877
260,0.25,0.001,0.014083561851515382,0.011361254398063354,15.255812310930436,0.010889230771542066,0.012704653266285146
261,0.25,0.001,0.014091796114057453,0.011310782326092273,15.584801993394262,0.011124055669803184,0.011540617195091077
262,0.25,0.001,0.014035549473376745,0.011300380729365773,15.3278855502908,0.010940674910985581,0.014293434896639414
263,0.25,0.001,0.01419240883480625,0.01131670402958611,16.115449798893806,0.011502819271159034,0.022984576411545277
264,0.25,0.001,0.014082602627083735,0.01130261445219444,15.579054328995912,0.011119953125621636,0.011795427583690201
265,0.25,0.001,0.014083239755730339,0.0113998383264705,15.037781139315687,0.010733605381381647,0.013454144887093986
266,0.25,0.001,0.013999585289186633,0.01124558162870746,15.43343645182963,0.011016014598022577,0.009878835175186396
267,0.25,0.001,0.014053205699484966,0.011320858985790747,15.312071214472581,0.010929387019609266,0.012165313786161798
268,0.25,0.001,0.014139727022744677,0.011380297051468476,15.463844807619976,0.01103771934876515,0.013397842778691224
269,0.25,0.001,0.014245352977272217,0.011511788358391844,15.318895185054256,0.010934257805177913,0.013866410989846503
270,0.25,0.001,0.01412657811424605,0.01128461166299161,15.926380825526824,0.011367866399376748,0.01480220870247909
271,0.25,0.001,0.014117339937971329,0.01138961521747905,15.286168800392732,0.010910898501350986,0.013832874862211091
272,0.25,0.001,0.014164235622522794,0.011348703327744746,15.77824325367884,0.011262129374503098,0.019492380853210176
273,0.25,0.001,0.014094665788378813,0.011352824302494223,15.365280006137596,0.010967366171404423,0.012524934618600778
274,0.25,0.001,0.014067522997064942,0.01139106350917804,14.998878595187579,0.010705837683931177,0.014318543286728007
275,0.25,0.001,0.014100725994194825,0.011179083717164352,16.37288302697506,0.011686568898626024,0.012951607283736979
276,0.25,0.001,0.014094751649701656,0.011294069525024613,15.695023604455939,0.011202729196613803,0.015441967706595148
277,0.25,0.001,0.014107582249163371,0.011364445017017236,15.372541495386114,0.010972549247242051,0.014079118280538492
278,0.25,0.001,0.014143005032375984,0.011363453548496145,15.576606479393044,0.01111820590963101,0.017771535819130286
279,0.25,0.001,0.014277682086537936,0.011457415136891573,15.804776821039654,0.011281068394746362,0.017615930310317447
280,0.25,0.001,0.01406871550125519,0.011279684392177514,15.629729759874683,0.011156124025606484,0.012019464213933264
281,0.25,0.001,0.014075841716854706,0.011327006674470938,15.404471663654153,0.010995340231016526,0.01565140179757561
282,0.25,0.001,0.014119773989704055,0.011222372252286086,16.237040016251772,0.011589607434869215,0.014414549139993531
283,0.25,0.001,0.014118090706882138,0.011354718149313468,15.48594146573604,0.01105349141023272,0.015351937152445316
284,0.25,0.001,0.014070810040997975,0.011358690055720697,15.19871957653065,0.010848479355125375,0.011750832732234682
285,0.25,0.001,0.014050000507932932,0.011212419132290758,15.901805582385379,0.011350325183715473,0.011735987516918353
286,0.25,0.001,0.014007609157922304,0.0111620604192961,15.94645519547051,0.011382195000335838,0.013968188049537795
287,0.25,0.001,0.014044914366251927,0.011383923356832587,14.91219240759835,0.010643963174588402,0.014887951713587557
288,0.25,0.001,0.013969685598678396,0.011186639248833136,15.596191716073129,0.011132185379067187,0.010007016892944063
289,0.25,0.001,0.014017763656332408,0.011277581461076507,15.35598043257815,0.01096072836015571,0.01059394103607961
290,0.25,0.001,0.014023212938177102,0.011359764050295207,14.925967385926223,0.01065379542178888,0.015785447854016508
291,0.25,0.001,0.013934856843260037,0.01116418631908101,15.526838118654823,0.011082682454428852,0.011900992199246372
292,0.25,0.001,0.013898538042635179,0.011199494143049729,15.125441967533325,0.010796175565691167,0.01486289587670139
293,0.25,0.001,0.013911876042709133,0.011173175411478517,15.34767786016319,0.010954802184270656,0.014073737763932772
294,0.25,0.001,0.013974228552377163,0.01133089950355479,14.813215386443938,0.010573315764770833,0.01341530228299754
295,0.25,0.001,0.013963826705091798,0.011189644234396782,15.546518955133893,0.01109673016069514,0.014982602425983973
296,0.25,0.001,0.01404949779229872,0.011208422240909888,15.921387028573129,0.01136430194758967,0.017138834643576826
297,0.25,0.001,0.013948227288343277,0.011237455234120642,15.191167390891138,0.010843088787217087,0.01821381412446499
298,0.25,0.001,0.014034306904688704,0.011356703166466982,15.005292248604867,0.010710415595007043,0.01836983167699405
299,0.25,0.001,0.013983365157760944,0.011183073356520705,15.692835769072403,0.01120116757249993,0.017868598390902792
300,0.25,0.001,0.01393948900064236,0.011198789216956209,15.358881301686244,0.010962798930539789,0.011540129913815431
301,0.25,0.001,0.01395407426856496,0.011193196189963273,15.47196123442674,0.011043512658405953,0.011683445822979723
302,0.25,0.001,0.013917959427583945,0.01120251553312776,15.217348350486175,0.010861776124544021,0.009092353616974183
303,0.25,0.001,0.013926326283040991,0.011219900739639242,15.166808931960672,0.010825702306895554,0.01056512478472931
304,0.25,0.001,0.013912503929042877,0.011160475939398793,15.42236563396938,0.011008112515324325,0.01636365714616009
305,0.25,0.001,0.013970083996729197,0.011199986770143968,15.523626056419412,0.011080389761898225,0.01863764865057809
306,0.25,0.001,0.013978380776071912,0.01128637653108932,15.08599249360525,0.010768017482944503,0.02195442793890834
307,0.25,0.001,0.013978938383007716,0.011271956854211498,15.16992473602295,0.01082792629266449,0.020474393186824664
308,0.25,0.001,0.014003903704321929,0.011340763259130686,14.924239197358261,0.0106525618824827,0.01680347483072962
309,0.25,0.001,0.013983721367371868,0.01124682696299807,15.337557889483302,0.010947578793349965,0.01915541131581579
310,0.25,0.001,0.01390458233087196,0.011203203397580816,15.138527584560027,0.010805515763426143,0.013621653297117777
311,0.25,0.001,0.013915117962408793,0.011224703901083335,15.077081394679656,0.010761656955517241,0.016240361412721022
312,0.25,0.001,0.01390751631845375,0.011242944841760064,14.932259152988491,0.010658286333325119,0.009987259682800089
313,0.25,0.001,0.01392746404721047,0.011190440945402922,15.338277623133006,0.010948092521865101,0.012069204755659615
314,0.25,0.001,0.013914665604378972,0.011113528124420777,15.69757491561967,0.0112045502609705,0.015316188601510865
315,0.25,0.001,0.014013445439753193,0.011289746377636032,15.263608632353963,0.010894795597683056,0.02113901810454471
316,0.25,0.001,0.014035738815510939,0.011349970706487973,15.051045867997377,0.010743073424694773,0.01928759565843003
317,0.25,0.001,0.013972769344821194,0.011194928327036387,15.567021495799727,0.011111364379585814,0.013402661308646202
318,0.25,0.001,0.013864939200318404,0.011144255292672796,15.246713130002094,0.01088273599571884,0.011281600221991539
319,0.25,0.001,0.01394243671223143,0.011227334660435389,15.215431223060879,0.010860407725239742,0.012326184527150221
320,0.25,0.001,0.013924534843884749,0.011183106033178755,15.362967563764698,0.010965715605827764,0.013499223494103976
321,0.25,0.001,0.013857906315532433,0.011052677809700446,15.720500728200534,0.011220914152891174,0.012112106928335769
322,0.25,0.001,0.013910446656385654,0.011137341082965964,15.54048482052566,0.01109242314098905,0.010690403170883656
323,0.25,0.001,0.013900744984030421,0.01112200661094358,15.572049678279663,0.01111495337493195,0.016693516900496825
324,0.25,0.001,0.013958460372414081,0.011144339130614614,15.770336335080529,0.011256485606766974,0.021477858935083662
325,0.25,0.001,0.013984720241562061,0.01120915120174437,15.554289609647645,0.011102276666415164,0.01550560284938131
326,0.25,0.001,0.013944589112161985,0.011145340524576037,15.686987726821512,0.011196993381028916,0.01204606338537165
327,0.25,0.001,0.013908915448612369,0.011101480894887508,15.73286342136751,0.011229738345016067,0.013426489662379026
328,0.25,0.001,0.013959128154337709,0.011236705183793749,15.256458335721554,0.010889691888452216,0.015498858610434192
329,0.25,0.001,0.013926724179974061,0.011176504667489057,15.41223076273342,0.011000878488746197,0.012655983412904399
330,0.25,0.001,0.013941848215642315,0.011178209228904416,15.487433898267406,0.011054556672567741,0.016665216801421984
331,0.25,0.001,0.013909197918276496,0.011153598202553195,15.442380818013612,0.011022398870816283,0.0144595703376191
332,0.25,0.001,0.014033617915084519,0.011247594037145226,15.612877134139163,0.01114409502793659,0.011774863914719649
333,0.25,0.001,0.01398608071947007,0.011161026270672452,15.8316057272974,0.011300218220769022,0.016258959924536093
334,0.25,0.001,0.01404030214484573,0.011211943949766571,15.850119455211658,0.011313432873098972,0.015184722973832063
335,0.25,0.001,0.01406674495978555,0.011144881084712628,16.37412633266546,0.011687456340232305,0.012979553480233465
336,0.25,0.001,0.013976675373156966,0.01115595928965335,15.807292347632083,0.011282863916939388,0.012127990435276712
337,0.25,0.001,0.01397302434756066,0.011244139090407319,15.292671895874333,0.010915540254014514,0.011651952817503895
338,0.25,0.001,0.013936688820949665,0.01118726549471544,15.40776902406954,0.01099769380733015,0.01647691854408809
339,0.25,0.001,0.013858317080790621,0.011054992302306716,15.709832138216434,0.01121329917074692,0.013834801302956683
340,0.25,0.001,0.013898983049362445,0.01117714160703463,15.253199078709946,0.010887365509428941,0.012691050634852477
341,0.25,0.001,0.013881471320079063,0.011089226060788038,15.647742072942899,0.011168980780116274,0.012396064853029591
342,0.25,0.001,0.013886937611561439,0.01115624718651705,15.302789896272765,0.010922762238595835,0.012913721746632032
343,0.25,0.001,0.01387725414018038,0.011146183468420343,15.304918870102936,0.010924281848752987,0.0193801417148539
344,0.25,0.001,0.013795601828071066,0.011080400138942119,15.215990569990904,0.0108608069735838,0.014764976687729359
345,0.25,0.001,0.013896879262579273,0.01112485948363839,15.534398006303661,0.011088078519845583,0.014443314767309598
346,0.25,0.001,0.013786006510862845,0.010965117466101792,15.808262248934827,0.011283556209089813,0.011235002561339311
347,0.25,0.001,0.01386642104326771,0.011175552794359965,15.079624422915696,0.010763472107719984,0.01231904820139919
348,0.25,0.001,0.013836634832287803,0.011129101634328136,15.173016097945005,0.010830132832223416,0.01274545696963157
349,0.25,0.001,0.013897614317194459,0.01102840003609506,16.07907702838104,0.011476857265082826,0.020197572585727488
350,0.25,0.001,0.013976770713168957,0.011291964745461033,15.045652742918373,0.01073922394212589,0.021694733495158807
351,0.25,0.001,0.01398694830081487,0.011210497487620048,15.559231254655092,0.011105803893401208,0.0169867460748979
352,0.25,0.001,0.013889550737242408,0.011004807739542221,16.166099906572835,0.011538972096054843,0.013975013446594988
353,0.25,0.001,0.013788926174041583,0.011154562608353074,14.762973925788996,0.010537454622261954,0.01454231355871473
354,0.25,0.001,0.013826073936853311,0.011073677720227822,15.424427560138218,0.011009584268478385,0.018800307863524983
355,0.25,0.001,0.013858436933023676,0.011043918016484848,15.772564045668858,0.011258075692840012,0.020103198808750937
356,0.25,0.001,0.013825358099630338,0.01114201374106147,15.037461963401833,0.010733377561314657,0.01265271327325276
357,0.25,0.001,0.013873482075742053,0.011078891311275778,15.660887122759359,0.011178363399542725,0.014047108457556792
358,0.25,0.001,0.013906080313594207,0.011077499026574459,15.85137001269965,0.01131432549086342,0.012922122808439391
359,0.25,0.001,0.013928068485016447,0.011238642254381011,15.071544516510164,0.010757704865460502,0.015506823946322714
360,0.25,0.001,0.013969676001801103,0.01106405890248905,16.283079970306552,0.011622469643330873,0.01310221731130566
361,0.25,0.001,0.013842053068470833,0.011100047064689816,15.366200413195616,0.010968023135757041,0.01098663532840354
362,0.25,0.001,0.01381851866047092,0.011120730358634503,15.11840562287926,0.010791153192633305,0.010893511452845164
363,0.25,0.001,0.013834774716364854,0.01108787734496412,15.393613253753198,0.010987589759995146,0.010005637471164976
364,0.25,0.001,0.013782975779193912,0.010981957508525268,15.696906728792916,0.011204073325333987,0.01169661432504654
365,0.25,0.001,0.013818999695671996,0.011126402774967518,15.089313177893004,0.01077038770727552,0.014218602595584733
366,0.25,0.001,0.01390460356691767,0.011041932597491644,16.04240635324856,0.011450682621876202,0.01411819803927626
367,0.25,0.001,0.01394189338242342,0.011141338702385801,15.694308319672714,0.01120221864359223,0.01306703660104956
368,0.25,0.001,0.013960102062464366,0.011099962191419855,16.028223560546255,0.011440559286614029,0.014400312011795384
369,0.25,0.001,0.013899707391404259,0.011113005397170026,15.616678150777284,0.01114680810191098,0.01237057608419231
370,0.25,0.001,0.013794425695302523,0.011077354302828385,15.226468444475667,0.010868285827605758,0.011732474235551698
371,0.25,0.001,0.013831716919610947,0.011039325939065914,15.64856089190178,0.011169565233334604,0.011876528816563743
372,0.25,0.001,0.013702511371392284,0.010985764845033285,15.224648795152074,0.010866987005818753,0.010474075496728932
373,0.25,0.001,0.013872776019769877,0.011132803291725326,15.354807471260807,0.010959891128665815,0.011786530592611857
374,0.25,0.001,0.01368983384921466,0.010926650988344614,15.484876681100294,0.011052731392648318,0.012615063493805272
375,0.25,0.001,0.013702548737755886,0.011048691328331299,14.872216365059016,0.010615429239870819,0.012848368180649621
376,0.25,0.001,0.013815361514763178,0.011079958120011134,15.329201093179925,0.010941613913761545,0.011890684786651815
377,0.25,0.001,0.013786036473921107,0.011095349795095206,15.078607733479611,0.010762746419328773,0.014135756662913732
378,0.25,0.001,0.013876103583326194,0.011011969227211427,16.050609186821177,0.011456537606581853,0.012068825241710459
379,0.25,0.001,0.0138725866256329,0.011101957316023444,15.526605828764476,0.011082516651509262,0.012670102130089487
380,0.25,0.001,0.013798431082047181,0.011062023215714445,15.334829800020014,0.010945631548907932,0.01716819791389363
381,0.25,0.001,0.013828223878470472,0.011065243473891075,15.483741692480097,0.01105192126515353,0.01459603470617107
382,0.25,0.001,0.013756772106144633,0.010928469499677117,15.849808775228897,0.011313211117222624,0.011649510956236295
383,0.25,0.001,0.013799949563321123,0.011019919814570301,15.57928679316177,0.011120119052934883,0.01336862931826285
384,0.25,0.001,0.013855933585218366,0.01115610896784642,15.1298169266754,0.010799298305978158,0.016212145664862225
385,0.25,0.001,0.013901896883501921,0.011115799558722429,15.613290230029731,0.011144389885817082,0.013611312955617905
386,0.25,0.001,0.013830510270663628,0.01103546901081268,15.66341059825142,0.011180164595468537,0.014385617338120937
387,0.25,0.001,0.013845840421727465,0.011101085333352162,15.381608759691268,0.010979021241749655,0.012941086531749793
388,0.25,0.001,0.013812674961152113,0.011053130862676553,15.464485168457031,0.011038176422881536,0.013540826471788543
389,0.25,0.001,0.013771180791525067,0.011042272634236946,15.292800554769293,0.010915632087629759,0.012944586641554321
390,0.25,0.001,0.013736748547874732,0.010892170060634008,15.941018283669719,0.011378314263861327,0.01320000844342368
391,0.25,0.001,0.013734688873634424,0.011020864539680444,15.208270537671703,0.010855296600764956,0.016365745503987585
392,0.25,0.001,0.013878153731602097,0.01120314137244285,14.990768384207323,0.010700048810997375,0.020277896762958596
393,0.25,0.001,0.013705642685899275,0.010902502895498337,15.70879547002957,0.011212559222005402,0.012690222689083644
394,0.25,0.001,0.013755099200241759,0.011078296631082968,15.000801759322888,0.010707210392093425,0.013660375427986895
395,0.25,0.001,0.013697130823044608,0.01091178188450294,15.609096773989915,0.011141396698065607,0.014710096642374992
396,0.25,0.001,0.01372383979295716,0.0109786669898608,15.383948858619341,0.010980691547908166,0.012479195570839303
397,0.25,0.001,0.013696431929273957,0.011008819962289128,15.06137701702602,0.010750447549625996,0.019482770934700966
398,0.25,0.001,0.013795419288846441,0.01106240666060127,15.315803247054822,0.010932050854428853,0.020472702038075243
399,0.25,0.001,0.01375965565102657,0.01100484975779117,15.437932116126046,0.011019223494736649,0.019896516177271093
400,0.25,0.001,0.01377514350762222,0.011011386067998893,15.488096493754895,0.011055029617241181,0.01915622888399022
401,0.25,0.001,0.013852501212415961,0.011108672771092296,15.376413413110724,0.010975312928701445,0.013951146442975317
402,0.25,0.001,0.013784254225074942,0.011047925332060017,15.33438749845863,0.010945315844724218,0.013007684078599726
403,0.25,0.001,0.013779177339889374,0.011004088999618432,15.551595542636619,0.011100353706378742,0.015292289733354534
404,0.25,0.001,0.013726958522790579,0.011008190236947863,15.235978508963802,0.010875073882201143,0.011841353960335255
405,0.25,0.001,0.013759765149978212,0.01110267236847714,14.890347940667631,0.010628371121104662,0.011734196450561285
406,0.25,0.001,0.013773184354762135,0.01097168922329766,15.699578067372897,0.011205980062364666,0.013930171462041991
407,0.25,0.001,0.01375024269812452,0.010936012382850732,15.770946986784185,0.011256921475220689,0.015339273560260023
408,0.25,0.001,0.01363911672121831,0.011029287255581865,14.625484582736407,0.010439318046207286,0.01320503798446485
409,0.25,0.001,0.013831470161676407,0.011016129201684658,15.777170307140059,0.011261363531149222,0.014385125067617213
410,0.25,0.001,0.013786311294448557,0.010966304108160099,15.803320744315984,0.011280029082309767,0.014463196242494243
411,0.25,0.001,0.013734842154202122,0.011028247568661791,15.167757194054309,0.010826379153500577,0.0127640554149236
412,0.25,0.001,0.01374809168808654,0.011006955889427118,15.361325268818037,0.01096454337531623,0.0133725756646267
413,0.25,0.001,0.013644907557344073,0.01087975289275501,15.495926852153643,0.011060618738153921,0.012052449796880995
414,0.25,0.001,0.013756996621070477,0.010926315182734868,15.8631392783925,0.01132272610877409,0.014165349836860384
415,0.25,0.001,0.013638263974849343,0.01094204591596641,15.109606699290008,0.010784872733254824,0.012125008207346712
416,0.25,0.001,0.013666390001698194,0.010906819854555699,15.464631221016047,0.011038280671674552,0.012690013540642602
417,0.25,0.001,0.013664979653120949,0.011032919971470906,14.750063063529542,0.01052823916026377,0.0133797787129879
418,0.25,0.001,0.013696335572843927,0.010893886663057477,15.70492428813489,0.011209796065763661,0.012407672059323107
419,0.25,0.001,0.013733137947351193,0.010930900854356398,15.70373643594345,0.011208948205527088,0.013183433296425002
420,0.25,0.001,0.013701532523001209,0.010953442500856928,15.400297745835358,0.010992360989175845,0.011882233965609754
421,0.25,0.001,0.013756169010955973,0.011042683153663795,15.206374531469974,0.010853943277280495,0.018728349224797318
422,0.25,0.001,0.01370036613839078,0.01088329512852854,15.7868665850102,0.011268284500364168,0.013502741498606545
423,0.25,0.001,0.01373275338676829,0.011080315057661026,14.864263432885185,0.010609752628754594,0.012326778112245458
424,0.25,0.001,0.01369154093040125,0.01092079500218636,15.527260915882092,0.01108298423688943,0.011526879787977253
425,0.25,0.001,0.013655732428361923,0.01092465277193918,15.304970842932686,0.010924318945704987,0.010992355644702911
426,0.25,0.001,0.013668943522734388,0.010976566417795148,15.08808172293726,0.010769508724437729,0.014498813077807426
427,0.25,0.001,0.013714704227629047,0.010899078181287662,15.778768636248438,0.011262504379906094,0.011730726941355638
428,0.25,0.001,0.013687318517131552,0.010959449574010929,15.286977598509813,0.010911475801934198,0.010906060958015067
429,0.25,0.001,0.013631711368860327,0.010938682361756484,15.09173451825447,0.010772116001609185,0.011619111589555229
430,0.25,0.001,0.013684956082686555,0.010803182221722179,16.14946135893691,0.011527095902167673,0.01524974246110235
431,0.25,0.001,0.013732436122514572,0.010979927400231059,15.425059768754213,0.011010035523736056,0.012913323539708341
432,0.25,0.001,0.013631519937159749,0.010847890007352163,15.59946328855408,0.01113452054857536,0.015304547202374254
433,0.25,0.001,0.01372915091758906,0.011030770743710136,15.12172158236431,0.01079352004451414,0.01835594100079366
434,0.25,0.001,0.013731712049941726,0.01097162148258105,15.46754733923123,0.011040362126503375,0.012776982438351427
435,0.25,0.001,0.013696257478845906,0.010934910911896507,15.474586569113175,0.011045386558967292,0.01812911905082209
436,0.25,0.001,0.013663301773860975,0.010823529960615986,15.91408249327374,0.011359088146519444,0.015664408249514445
437,0.25,0.001,0.013630750924727033,0.010882450820793053,15.40147474453534,0.010993201102452064,0.013872970560831683
438,0.25,0.001,0.013561240506126795,0.010805060169872293,15.445635021035441,0.011024721642423584,0.009765600586043937
439,0.25,0.001,0.0136733801496513,0.010924754735214759,15.403297540500079,0.010994502170235601,0.015252020609165941
440,0.25,0.001,0.013590170235992386,0.010830663593703417,15.464276115301297,0.011038027205782511,0.01014839212543198
441,0.25,0.001,0.01361142882727427,0.01085461892641438,15.44916308833863,0.011027239891747772,0.014007444626518659
442,0.25,0.001,0.013778967825402767,0.011032829023330346,15.38936234488705,0.01098455556380232,0.018097713589668274
443,0.25,0.001,0.013694837188281989,0.010868205731441528,15.840441863548937,0.011306525241648064,0.014369051637394088
444,0.25,0.001,0.013675996513687415,0.010972680074876638,15.149384547006056,0.01081326520128912,0.02208143239840865
445,0.25,0.001,0.013571223390624306,0.01090776780383841,14.926005256962656,0.010653822453221025,0.015630677342414856
446,0.25,0.001,0.013700292100609862,0.010943927754870223,15.446666112406,0.011025457610568166,0.016215282758431777
447,0.25,0.001,0.013618863674665466,0.010811529798329179,15.732297795678154,0.011229334615045078,0.015014125699443477
448,0.25,0.001,0.013553795782934287,0.010861126304164453,15.089720745377129,0.01077067861911287,0.01570518534364445
449,0.25,0.001,0.013551988492384174,0.01080929233366387,15.37006911650527,0.01097078452284459,0.013052579148539476
450,0.25,0.001,0.013704473861885554,0.011028183539052905,14.997931519135605,0.01070516168389408,0.02373077747012888
451,0.25,0.001,0.013648981346658946,0.010802805461556778,15.94997033734007,0.011384704023797336,0.014526204206049442
452,0.25,0.001,0.01364276721733173,0.010908319591190005,15.32384462889076,0.010937790598779985,0.015514763870409556
453,0.25,0.001,0.013593188302619809,0.010754795730832567,15.906351549371244,0.011353569985275692,0.014987255446612835
454,0.25,0.001,0.013596238483329715,0.01082473790963289,15.531491095644569,0.011086003637148158,0.010960830974259548
455,0.25,0.001,0.013670332086872933,0.01087482284451953,15.6660340691581,0.01118203716570885,0.01366403971665672
456,0.25,0.001,0.013652838851670323,0.0109158565153174,15.338048702569177,0.010947929123889491,0.012658460863998957
457,0.25,0.001,0.01365714818050111,0.010817065021864653,15.91582709278552,0.011360333399561398,0.012131770407514912
458,0.25,0.001,0.013601047970203277,0.010849035921776053,15.422275068796226,0.01100804787208867,0.013632745748119695
459,0.25,0.001,0.013609198191519921,0.01093418505704645,14.990773007349315,0.010700052110884593,0.013407449637140547
460,0.25,0.001,0.013631145011274343,0.010896379860864981,15.325623991525719,0.010939060664900585,0.01623142171385033
461,0.25,0.001,0.013627582905710046,0.010845858480800228,15.58878373857682,0.011126897743452406,0.01305880956351757
462,0.25,0.001,0.013658600325133595,0.010873982758464547,15.604996434323073,0.01113846997453467,0.014089846318321568
463,0.25,0.001,0.013605183009341888,0.010843661372658565,15.475567498182887,0.011046086722471725,0.012201940441238028
464,0.25,0.001,0.013744566646324197,0.010972137314735482,15.536693510065223,0.011089716995050123,0.012476892077497073
465,0.25,0.001,0.01359357777037445,0.01068344131717222,16.308405532449637,0.011640546418593602,0.01260783470102719
466,0.25,0.001,0.013642712907515807,0.010906887084699524,15.331568078946342,0.010943303411096604,0.017937970480748584
467,0.25,0.001,0.013517570620412148,0.010762499399521024,15.439418589403182,0.011020284503499773,0.009905173709349973
468,0.25,0.001,0.013539526677751905,0.010803195321696058,15.334400390005353,0.010945325046399253,0.01151446539110371
469,0.25,0.001,0.013571485371191792,0.010915447012308588,14.884438640575118,0.010624153205264181,0.01338501028450472
470,0.25,0.001,0.01364094727119516,0.01075372371709135,16.179999549981908,0.01154889332618266,0.018065131668533598
471,0.25,0.001,0.013530010868071905,0.010800240046065774,15.297635305956536,0.010919083016385821,0.014095767002020563
472,0.25,0.001,0.013561769322430724,0.010879690508325088,15.03036955528453,0.0107283151715093,0.015915249806961844
473,0.25,0.001,0.013555315895204617,0.010844948224080395,15.188900986298691,0.010841471082297424,0.014225283105458533
474,0.25,0.001,0.01362044305592624,0.010808474143144443,15.758274823881044,0.011247876391064272,0.01264113826411111
475,0.25,0.001,0.013543151787051998,0.010765768493038749,15.564456174821418,0.01110953331536147,0.01166622287460736
476,0.25,0.001,0.01352966162683395,0.010775328353803775,15.435283980393773,0.011017333319338882,0.0126729780541999
477,0.25,0.001,0.013647259605414977,0.010953949433444115,15.093310249638437,0.010773240720655558,0.013147825042584113
478,0.25,0.001,0.013500334988088171,0.010721961518532129,15.570005261958553,0.011113494119884763,0.011572742568595069
479,0.25,0.001,0.013581952382692226,0.01088833583395947,15.095027894538067,0.010774466734145657,0.012027617144797529
480,0.25,0.001,0.01365313979650512,0.010805777326074954,15.956619107783748,0.011389449755734296,0.013484676967241935
481,0.25,0.001,0.013550567100306755,0.010791778739371578,15.46024986208998,0.011035153363376146,0.011511009452598435
482,0.25,0.001,0.01354210296182463,0.010876691503081527,14.9369664797323,0.010661646309587651,0.012817240453192167
483,0.25,0.001,0.013635717786205601,0.010843307725366602,15.648665771871654,0.011169640094126805,0.012843739108315535
484,0.25,0.001,0.013559861089750595,0.010831069565250486,15.292147592844696,0.010915166019161097,0.016337920911610126
485,0.25,0.001,0.013578013327861498,0.010790150900971768,15.62318110587028,0.011151449754368508,0.013152498086648328
486,0.25,0.001,0.013740183894290839,0.01098506829611541,15.439668297162516,0.01102046273887403,0.013892306147941522
487,0.25,0.001,0.013635862788875696,0.01084171498411803,15.658405284591133,0.011176591923334141,0.012609083604599749
488,0.25,0.001,0.013689534388822953,0.010918554675004204,15.528570494676,0.011083918982638115,0.013411065297467368
489,0.25,0.001,0.013657388376629897,0.010865469964287305,15.645911018255399,0.011167673817455674,0.013579477023865496
490,0.25,0.001,0.013703885422026748,0.010926165339078395,15.566343656046136,0.01111088055392301,0.014251782425812312
491,0.25,0.001,0.01362710716533782,0.010858850870376009,15.513308142647526,0.011073025083973965,0.010798571099128042
492,0.25,0.001,0.013585825838375516,0.010794893961380883,15.640382592448123,0.011163727760491167,0.01230718195438385
493,0.25,0.001,0.013575047443663408,0.010765763155662167,15.743229745003173,0.011237137576733171,0.012293880539281028
494,0.25,0.001,0.013598932534796635,0.010749646575960713,15.967399664941778,0.011397144657346023,0.011046876332589559
495,0.25,0.001,0.013625398854994532,0.010873814345086892,15.419880828276504,0.01100633892096824,0.012276867471103157
496,0.25,0.001,0.013559193109270885,0.010789775199772138,15.51981848992672,0.01107767201279566,0.011005164190594639
497,0.25,0.001,0.01358130055144051,0.01072722778839962,15.994223967421478,0.011416291197302982,0.014341445240591253
498,0.25,0.001,0.01361786533941321,0.010826510958713929,15.642751480722186,0.011165418615790283,0.013211250704314028
499,0.25,0.001,0.01352583420306898,0.010742063837381183,15.600249237215458,0.01113508153976835,0.013706640140818698
500,0.25,0.001,0.013625395384990625,0.010760912260390477,16.052564122350084,0.011457932992398346,0.018840915257377282
