epoch,beta,learning_rate,train_loss,train_reconstruction_loss,train_kl_unnormalized,train_kl_normalized,mean_unclipped_gradient_norm
1,0.0,0.001,0.0887429582943087,0.0887429582943087,22.32474371039349,0.015934863462093857,0.1245527101887597
2,0.02,0.001,0.05730577169553093,0.05293948579741561,305.8583754033628,0.21831432933858871,0.1440330222249031
3,0.04,0.001,0.047781090697516564,0.04130535075198049,226.81281721032184,0.1618935169238557,0.15111361775133345
4,0.06,0.001,0.04045656756214473,0.03631099259075911,96.79916072679603,0.06909290558657818,0.09861790637175243
5,0.08,0.001,0.03723556904041249,0.033386348498904185,67.4094679857337,0.048115251952700715,0.06697828012208144
6,0.1,0.001,0.03583970468329347,0.03263729736856792,44.86572593357252,0.032024072757724856,0.04969462938606739
7,0.12,0.001,0.03471396039361539,0.032412192827981454,26.87313689522121,0.01918139678459758,0.036701907507247396
8,0.14,0.001,0.03365673453911491,0.03127756797101187,23.808669705598252,0.016994054036829586,0.0279718575378259
9,0.16,0.001,0.032156906124690306,0.030084422340859538,18.14718915856403,0.012953025809110655,0.040143275529974036
10,0.18,0.001,0.03020682759259058,0.027682621161574904,19.64674128988515,0.014023369942815953,0.02440117196076446
11,0.2,0.001,0.028159430768826734,0.02524779747037784,20.395992703645124,0.014558167525799517,0.030349476883808773
12,0.22,0.001,0.026772730269509812,0.023415249822580295,21.38104661361031,0.01526127524169187,0.03050639708009031
13,0.24,0.001,0.026085492061532062,0.022650415479488994,20.052261949622114,0.014312820806297012,0.026869382191863325
14,0.25,0.001,0.025353486706381257,0.022038194734765135,18.578896049831226,0.013261167772898805,0.0664692868789037
15,0.25,0.001,0.024239365516797357,0.020672679527298263,19.98770748635997,0.014266743387837238,0.03366036030153433
16,0.25,0.001,0.023632955444247827,0.02011820873812489,19.69664162013842,0.014058987594674104,0.02755580221613248
17,0.25,0.001,0.023065745406176733,0.019550604473637496,19.69884931481403,0.014060563393871541,0.05017982381913397
18,0.25,0.001,0.02228201494268749,0.018741519720010136,19.84093635559082,0.014161981695639415,0.03230146401458316
19,0.25,0.001,0.021850647774079572,0.01837328260683495,19.4871536984651,0.013909460170210636,0.026641615925149784
20,0.25,0.001,0.021146935998745585,0.0176709693637879,19.479316230442212,0.01390386597461971,0.05986363689104716
21,0.25,0.001,0.020617167927000832,0.017193221537315326,19.18779532391092,0.013695785384661612,0.029636272953616247
22,0.25,0.001,0.020529636274213375,0.01710515913432059,19.19077103656271,0.013697909376561537,0.0419243136420846
23,0.25,0.001,0.020118647859148357,0.016678103639379792,19.280810915076213,0.01376217766957617,0.029507926303065486
24,0.25,0.001,0.019974289999707885,0.01653453941416481,19.276362948210345,0.013759002818137292,0.03772539790305826
25,0.25,0.001,0.020191558819750082,0.016656699109336603,19.809352768607763,0.01413943809322467,0.06256714276969433
26,0.0,0.001,0.015876522179207077,0.015876522179207077,26.51691969498344,0.018927137541030294,0.04956678880585565
27,0.02,0.001,0.014927099227257396,0.014133809992800589,55.5699003932787,0.03966445424216895,0.039276447974973254
28,0.04,0.001,0.015374563887067464,0.013400528460093167,69.14059307595957,0.04935088727762996,0.01981845720567637
29,0.06,0.001,0.015745742401998976,0.013364607897465644,55.5994952259893,0.03968557831976396,0.021879087823132675
30,0.08,0.001,0.016044562313219775,0.013872011789809102,38.046795309315556,0.02715688458909033,0.01864562566495604
31,0.1,0.001,0.01628169111907482,0.014009595260671947,31.832065847645634,0.022720960633580038,0.024315122721923724
32,0.12,0.001,0.016635861319044362,0.013980377569146779,31.0027728702711,0.022129031313541114,0.03172919216255347
33,0.14,0.001,0.01694654616324798,0.01409532561250355,28.532569507101307,0.02036585974810943,0.021860426809224818
34,0.16,0.001,0.01711642480738785,0.014027780103294746,27.04494722780974,0.019304030854967694,0.02816208115675383
35,0.18,0.001,0.01745641045920227,0.014244869910180568,24.996489984263544,0.017841891494834793,0.022394065434734028
36,0.2,0.001,0.017672705893283305,0.014356485064262929,23.2301266811205,0.016581103983669163,0.0343068472834097
37,0.22,0.001,0.017756163131283677,0.014369289081381714,21.568229665341583,0.015394881988109625,0.03572895388222403
38,0.24,0.001,0.018025691431501636,0.01448407387441915,20.674190796561863,0.014756738612820744,0.018443565401766036
39,0.25,0.001,0.018145226065231407,0.014487399808738543,20.498458268538766,0.01463130497397485,0.027439506620996527
40,0.25,0.001,0.017836609884448674,0.014354469934883325,19.513912894207497,0.013928560238549248,0.024591092330714066
41,0.25,0.001,0.01782648150039756,0.014422095694943614,19.078178641277812,0.01361754364116903,0.027161300596263673
42,0.25,0.001,0.01754117312638656,0.014041046757736932,19.614707910288935,0.014000505289285464,0.017690057038433023
43,0.25,0.001,0.017502260062357652,0.01414722565561533,18.801613056348717,0.013420137798964109,0.023249956779181957
44,0.25,0.001,0.017627267623725146,0.01416751783017231,19.38843747014585,0.013838998908027016,0.020470241653836437
45,0.25,0.001,0.01737628419114196,0.01409193838906029,18.40547525157099,0.013137384190985717,0.023638721865912277
46,0.25,0.001,0.017313166889159577,0.013926472662259702,18.97903461953868,0.013546777030363083,0.0237538136748804
47,0.25,0.001,0.017235118383946625,0.01390294584405163,18.673493765126103,0.013328689339847325,0.0319681814354327
48,0.25,0.001,0.017190133093491846,0.01397281754276027,18.029838061125382,0.012869263426927468,0.02564269107662969
49,0.25,0.001,0.016949464724115702,0.01369017703215713,18.26504723922066,0.013037150063683554,0.028635247403548822
50,0.25,0.001,0.01688506829349891,0.013623089098735996,18.280131527444592,0.013047916864699922,0.02053493545908067
51,0.0,0.001,0.012882780761498472,0.012882780761498472,24.287541185461958,0.01733586094608277,0.022586622171931796
52,0.02,0.001,0.012595676977349365,0.011889721752832766,49.45217886219854,0.035297772207136716,0.015663240260134142
53,0.04,0.001,0.01319852041647486,0.011508538535107736,59.1916151826278,0.04224954688267509,0.019442080313132867
54,0.06,0.001,0.013433840653818587,0.011599091765997202,42.84138743524966,0.030579148776052577,0.01437311034856571
55,0.08,0.001,0.013724062478412753,0.012015345937207988,29.92389727053435,0.02135895593899668,0.01433446082390017
56,0.1,0.001,0.014019568358426509,0.012038620081932648,27.75308694590693,0.019809483901432497,0.015146306405464808
57,0.12,0.001,0.014330701424699763,0.012021205564555914,26.96336625472359,0.01924580032457073,0.01311945521997081
58,0.14,0.001,0.014648982059696447,0.012177246762034686,24.73501056505286,0.017655253793756504,0.012520519654370017
59,0.16,0.001,0.01489074653905371,0.012225476833789245,23.337769984369693,0.01665793717656652,0.012581766427805027
60,0.18,0.001,0.0151847529962011,0.012374090234870495,21.876325723399287,0.01561479352134139,0.014056619877616564
61,0.2,0.001,0.015367360417933568,0.012365808955029301,21.02586744888969,0.01500775692283347,0.009746420611109998
62,0.22,0.001,0.015661769165940906,0.012516406364738941,20.03024473770805,0.01429710545161174,0.013131213633136617
63,0.24,0.001,0.01602079575476439,0.012710511971103108,19.323781522667925,0.013792849052582387,0.013237687966061963
64,0.25,0.001,0.016039908677339555,0.012743703726193179,18.471930581797725,0.013184818402425214,0.013447924982756376
65,0.25,0.001,0.015892000638920326,0.012646602218889672,18.187213612432064,0.012981594298666712,0.01934294578515821
66,0.25,0.001,0.015982665322397067,0.012846256933458474,17.576432342529298,0.01254563336368972,0.03006151530684696
67,0.25,0.001,0.015810638449114303,0.012708096258018328,17.38664774023968,0.012410169693247453,0.02709463756117556
68,0.25,0.001,0.01581928965838059,0.012712259328235751,17.411797860187033,0.012428121242103522,0.014219394471082423
69,0.25,0.001,0.015731705893640934,0.012619023255032042,17.443473052978515,0.012450730230534272,0.011188308915330304
70,0.25,0.001,0.01572538731214793,0.012580771828475206,17.622425158956776,0.012578461926450233,0.01279869804986649
71,0.25,0.001,0.015603740782193516,0.012544486655489259,17.14405997234842,0.012237016397108079,0.011202039817969004
72,0.25,0.001,0.015562117770314217,0.01254330173296773,16.917445516171664,0.0120752644655044,0.014262510980996821
73,0.25,0.001,0.015528396789146507,0.012476404443707154,17.10336630448051,0.012207970238744119,0.012030939312858714
74,0.25,0.001,0.015461038548661314,0.012444945092758408,16.902187821761423,0.012064373891335776,0.009637205706288418
75,0.25,0.001,0.015395170822739602,0.012356208038070927,17.03034672612729,0.012155850625358523,0.014389878449340662
76,0.0,0.001,0.011822848551623199,0.011822848551623199,24.02728988647461,0.01715009984759073,0.022894813161757257
77,0.02,0.001,0.011655976459707902,0.01093631737906,50.41212723441746,0.03598296019587256,0.017868173101709947
78,0.04,0.001,0.012203294981432997,0.010635005562849667,54.92933735723081,0.03920723580102128,0.012689983523968194
79,0.06,0.001,0.01243297808682141,0.01088657302700955,36.10855812404467,0.025773417647426602,0.01146426336425874
80,0.08,0.001,0.012586458466299202,0.011072096576833206,26.520261578767197,0.018929522897050105,0.0065364769866897
81,0.1,0.001,0.012920680776562379,0.011118787990316101,25.244518100904383,0.018018927980659804,0.008503217043148147
82,0.12,0.001,0.013254231791133466,0.011152900697096534,24.53304230068041,0.017511093719257968,0.009002668783068657
83,0.14,0.001,0.013561229815949564,0.011272818901292656,22.90045514314071,0.016345792393390943,0.011737279180023406
84,0.16,0.001,0.013879403348850168,0.011413506491352683,21.59201117142387,0.015411856653407474,0.011494961774183644
85,0.18,0.001,0.014144918918609618,0.01152252050359612,20.411000488944676,0.014568879720874145,0.009973600713743104
86,0.2,0.001,0.01437524462847606,0.011563155134410962,19.698685501762057,0.014060446468067136,0.011967319839944443
87,0.22,0.001,0.01465692297110091,0.011796193712431452,18.2176448291281,0.013003315366972235,0.013632305432111025
88,0.24,0.001,0.014916982224777988,0.01183569487022317,17.987015297931173,0.012838697571685348,0.014000674192276266
89,0.25,0.001,0.015021898809658445,0.011894690013774063,17.524878314474353,0.012508835342237226,0.014733034599986341
90,0.25,0.001,0.015017139069412065,0.01189010817071666,17.523881335051165,0.012508123722377706,0.013750798327641355
91,0.25,0.001,0.01495814771755882,0.011919151442530362,17.0305359981371,0.01215598572315282,0.01252474646187491
92,0.25,0.001,0.014997412857154141,0.011988814672374207,16.860185344530187,0.012034393536424116,0.011197623382839892
93,0.25,0.001,0.014913965215825517,0.011797681941610315,17.463650588989257,0.01246513246894308,0.012062046573393874
94,0.25,0.001,0.01497205975263015,0.012000208382049333,16.654256064373513,0.01188740618442078,0.016623249380952783
95,0.25,0.001,0.014872250833913036,0.01185554586674856,16.905615055250085,0.012066820167915835,0.014545175867776075
96,0.25,0.001,0.014920476660456346,0.01199070038354915,16.418466295988665,0.011719105136323101,0.015557514400117926
97,0.25,0.001,0.014896530359983444,0.01193250737760378,16.610385237984037,0.01185609224695506,0.017146198751611844
98,0.25,0.001,0.014798189939364144,0.011868001159442507,16.42077718983526,0.011720754596599043,0.016915635412765875
99,0.25,0.001,0.014817804080312667,0.011856471990113674,16.595306761368462,0.011845329594124527,0.02007374120876193
100,0.25,0.001,0.014763316742104033,0.011823718126701271,16.473510629405148,0.011758394453536864,0.012610302358451817
101,0.25,0.001,0.014714431369110294,0.011815609708428383,16.244996971462083,0.011595286917531823,0.012698438742922412
102,0.25,0.001,0.014745449342805406,0.011841395840696666,16.274316359810207,0.011616214389586158,0.013716983815862073
103,0.25,0.001,0.014747193188447019,0.01178503354444452,16.59994309466818,0.01184863889697943,0.013207378279831674
104,0.25,0.001,0.014794149013317149,0.01188984269519215,16.27573166888693,0.011617224603059908,0.013642406970676448
105,0.25,0.001,0.014731858111917972,0.011813867529449256,16.35241968901261,0.011671962661679237,0.01263566729095247
106,0.25,0.001,0.014690765566799952,0.011770043624160082,16.367726117009703,0.011682888020706425,0.01228496256387896
107,0.25,0.001,0.014684943673403367,0.011733766185200733,16.53839845076851,0.011804709814966818,0.009811658308737807
108,0.25,0.001,0.014601909506904043,0.011663550865714965,16.466561707206395,0.011753434480518483,0.008839299229698049
109,0.25,0.001,0.014631751523069713,0.011690129585888075,16.484850598210873,0.011766488649686562,0.013519615090141693
110,0.25,0.001,0.014600679320485695,0.011705380783456823,16.225253557951554,0.011581194545290188,0.011828055915733179
111,0.25,0.001,0.014716252930786298,0.011766767728587856,16.528914532868757,0.011797940423175416,0.013270669616758823
112,0.25,0.001,0.014627510531117088,0.0116502987480034,16.684294821697733,0.011908847124695027,0.01142695996289452
113,0.25,0.001,0.014601214903852215,0.01170549671125153,16.22760428055473,0.011582872434371684,0.010938850283208821
114,0.25,0.001,0.014541816241715265,0.01163450902732818,16.292549596040146,0.011629228833718877,0.012292592424071498
115,0.25,0.001,0.014514857711999313,0.011578677100655825,16.45435707755711,0.011744723110319136,0.014706824802690081
116,0.25,0.001,0.014613851438397947,0.011724157890547877,16.193843138321586,0.01155877454555431,0.02135624995248185
117,0.25,0.001,0.014467712196966876,0.011588848008085852,16.13315626061481,0.011515457716356039,0.013924378384318616
118,0.25,0.001,0.014470836764768414,0.011568180160677951,16.266487692128056,0.011610626475466136,0.010717439465224743
119,0.25,0.001,0.014472064090811688,0.011589979683251485,16.15120214711065,0.011528338434768486,0.015039769829147391
120,0.25,0.001,0.014453284442424774,0.01151862961118636,16.445806456856104,0.011738619883551822,0.011626440617773268
121,0.25,0.001,0.014423837088372396,0.011531369172684524,16.209391107973847,0.011569872311187614,0.011049431541727649
122,0.25,0.001,0.014442302532818006,0.011556230357483677,16.17354843803074,0.011544288678109022,0.01124652661383152
123,0.25,0.001,0.01442854545848525,0.011488524851915628,16.475875990494437,0.011760082791216585,0.011826219865017466
124,0.25,0.001,0.014432311537473099,0.011529917412477992,16.26501783619756,0.011609577327764142,0.01771201705560088
125,0.25,0.001,0.014472752720441507,0.011552619138813537,16.364429009479025,0.011680534624895806,0.01611365108854241
126,0.25,0.001,0.01438829245612673,0.011473610287775163,16.333878853839376,0.01165872866084181,0.009768539470516972
127,0.25,0.001,0.014351535582024118,0.01146163588632708,16.194998659880266,0.011559599328965215,0.009435433428734541
128,0.25,0.001,0.014304001681182696,0.01145440850082947,15.969119806704313,0.011398372453036626,0.01000952772382233
129,0.25,0.001,0.014299070611596108,0.011424805555978548,16.107381094227666,0.011497060024430883,0.01297574495482776
130,0.25,0.001,0.014355233509255492,0.011478816863635312,16.119439819999364,0.011505667251962429,0.01176075828779075
131,0.25,0.001,0.014377562886346942,0.011538604493050471,15.909522827811863,0.011355833567317532,0.017789130099117756
132,0.25,0.001,0.014270247883446838,0.011334797843642858,16.450262719859246,0.011741800656573338,0.01328985889752706
133,0.25,0.001,0.014379212253767511,0.011461865430616815,16.348812607474947,0.011669388013900748,0.013573462660941813
134,0.25,0.001,0.014338126004390094,0.011487767127868921,15.973412094116211,0.011401436184237125,0.016315628464023273
135,0.25,0.001,0.014246219827429109,0.011374622295084206,16.092433453435483,0.01148639075905459,0.013850571277240912
136,0.25,0.001,0.014265842865342679,0.011399310979506245,16.064044192770254,0.011466127189700396,0.011933502223756578
137,0.25,0.001,0.014207628741860389,0.01136526669173137,15.928596274334451,0.011369447733286546,0.00940319300732679
138,0.25,0.001,0.014223206883863262,0.011348947458293127,16.107350029323413,0.011497037851051687,0.011094153030878968
139,0.25,0.001,0.014280966701714888,0.011396064018101795,16.166994210948115,0.011539610428942266,0.012457683268520568
140,0.25,0.001,0.014297616264742354,0.011418744439016217,16.13319763681163,0.011515487249687102,0.011736362085988125
141,0.25,0.001,0.014236969332332197,0.011324519136029741,16.3213716092317,0.01164980129138594,0.010700593650754955
142,0.25,0.001,0.0142287871338751,0.011401338013617889,15.84502453347911,0.011309796240884447,0.012054427940812375
143,0.25,0.001,0.014163696393370628,0.011280773965560872,16.155897830465566,0.011531690100260932,0.014359666138059564
144,0.25,0.001,0.014217056296765805,0.011335043665831504,16.150799062977665,0.011528050723039019,0.010836552104188336
145,0.25,0.001,0.014110932233540908,0.011230306984937708,16.14302404652471,0.011522501103872028,0.01022693675218357
146,0.25,0.001,0.014173507356773252,0.011331604469729506,15.926024786907693,0.011367612267600066,0.016481703975134425
147,0.25,0.001,0.01425043897136398,0.01139675952008237,15.992019674881645,0.011414717826467984,0.012527256272733212
148,0.25,0.001,0.014144820629254632,0.01127123186931662,16.103591491035793,0.011494355097099068,0.011557936616655853
149,0.25,0.001,0.014172354623999284,0.011279960120825664,16.20897914223049,0.011569578259978936,0.011533906372884909
150,0.25,0.001,0.014151096188503763,0.011302350660705049,15.964369944696841,0.01139498211612908,0.013529059011489153
151,0.25,0.001,0.014176412438568861,0.011302259912633377,16.10675111853558,0.011496610362980428,0.012669093130777279
152,0.25,0.001,0.014182875681182613,0.011331993642708529,15.976342463286027,0.011403527811053553,0.010778061838613616
153,0.25,0.001,0.014141955621864485,0.011300697372011517,15.922411333167034,0.011365033071496812,0.015474009120629894
154,0.25,0.001,0.01415608598486237,0.011280348537408787,16.115631922846255,0.011502949266842437,0.01079708363653885
155,0.25,0.001,0.01417451489554799,0.01131907181247421,16.00190309939177,0.011421772376439524,0.013406006619334221
156,0.25,0.001,0.014183934246716292,0.011206782502324686,16.683958517986795,0.011908607079219697,0.013926074322726991
157,0.25,0.001,0.014129589826840422,0.011350328318126823,15.574982235120691,0.01111704656325531,0.015498986571199365
158,0.25,0.001,0.014122731499373913,0.011222790099032548,16.251271962704866,0.011599765854892839,0.017238313953081768
159,0.25,0.001,0.014103679268256477,0.011283534940170205,15.804090604367463,0.011280578589841158,0.01191762462258339
160,0.25,0.001,0.014115913481168125,0.011208647338916427,16.292319049005922,0.011629064274807938,0.012091329528225793
161,0.25,0.001,0.014106164849970652,0.011262453954828822,15.936156214838443,0.01137484383643001,0.013608972490247753
162,0.25,0.001,0.014040537933292596,0.01120190637105185,15.907692103178604,0.011354526840241687,0.011616224630011452
163,0.25,0.001,0.014066765023314434,0.011231112862410752,15.89099477187447,0.011342608687990342,0.014800805288056532
164,0.25,0.001,0.014057057312001353,0.011210402502961781,15.95265337239141,0.011386619109487088,0.013260525858236684
165,0.25,0.001,0.014001417744742787,0.011113782818226711,16.182305644491443,0.011550539360807596,0.009476878162887361
166,0.25,0.001,0.014014291852388693,0.011172468330225218,15.925579150655995,0.011367294183194857,0.011610974454217486
167,0.25,0.001,0.014093875954656497,0.011233878296030604,16.02742699664572,0.011439990718519429,0.010965397995379236
168,0.25,0.001,0.014103646432252034,0.011240613679199115,16.04443549944007,0.011452130977473282,0.014614322843650976
169,0.25,0.001,0.014033540876015374,0.011186486105232134,15.954894176980723,0.011388218541742129,0.014140314526028104
170,0.25,0.001,0.01401937904889169,0.011183465769433456,15.892458421458368,0.011343653405751868,0.012044120321257247
171,0.25,0.001,0.014015510532519091,0.011104230563277783,16.314812515922213,0.01164511956882385,0.010733915182451407
172,0.25,0.001,0.013947082399998022,0.011116125348793424,15.864683025194251,0.011323827997997324,0.01283194993933042
173,0.25,0.001,0.01400348586394735,0.011174954791431841,15.851088751088017,0.011314124733110647,0.012351125064823363
174,0.25,0.001,0.014011338277031545,0.011114934893405955,16.231444539609164,0.011585613518636092,0.014311417419877317
175,0.25,0.001,0.013905692886075249,0.011110939085483551,15.661800905310589,0.01117901563548222,0.011826559176875485
176,0.25,0.001,0.01401368419761243,0.011073184734129387,16.478558535368546,0.011761997527029654,0.010099205498894056
177,0.25,0.001,0.013964901271721591,0.01117077535909155,15.658281901815663,0.011176503855685698,0.010372187321384748
178,0.25,0.001,0.013911499858874342,0.01097554032407377,16.453117221334708,0.011743838130859892,0.011808249582019117
179,0.25,0.001,0.013950033521522647,0.011150162714007109,15.690475641333538,0.011199482970259486,0.013310840042928854
180,0.25,0.001,0.01398576310309379,0.011057480369573054,16.41009763966436,0.011713131791337874,0.011162931047793891
181,0.25,0.001,0.01396736211264911,0.011111654192209244,16.00338720238727,0.011422831693352798,0.010059968361424075
182,0.25,0.001,0.014001520749019539,0.01102167493623236,16.699056257164997,0.01191938348120271,0.012023310073547892
183,0.25,0.001,0.013970648309458857,0.011180371486622355,15.636712158866551,0.011161107893552142,0.013411477932499515
184,0.25,0.001,0.013952899307984374,0.011089188189286253,16.04823745727539,0.011454844723251529,0.010298180807795789
185,0.25,0.001,0.013887507842610712,0.011060291212861952,15.843723131262738,0.011308867331379542,0.010430446825921535
186,0.25,0.001,0.01383220428843861,0.010993735603988171,15.906778741919476,0.011353874905010332,0.01117043336853385
187,0.25,0.001,0.013960626300262369,0.011098632600320422,16.03861331442128,0.011447975242270722,0.015807289940615494
188,0.25,0.001,0.013894177736795467,0.011032960176791834,16.03426266214122,0.011444869851635418,0.01594892640908559
189,0.25,0.001,0.013993425639751166,0.011104309937876203,16.190604049019193,0.011556462561755312,0.013853687793016434
190,0.25,0.001,0.01392054124046927,0.011076604438864667,15.937422284665315,0.011375747526527705,0.01210282618800799
191,0.25,0.001,0.013903347350980925,0.011061014584873033,15.928432638748832,0.011369330934153342,0.012247332423511479
192,0.25,0.001,0.013927362415453661,0.011016237395613089,16.313944483217984,0.011644499988021402,0.01062433866577016
193,0.25,0.001,0.01383802167099455,0.011002330190461615,15.891215674358865,0.011342766362854292,0.009020254015922546
194,0.25,0.001,0.013778809077389861,0.01090758498110201,16.090339350493057,0.011484896038895829,0.008772420024292337
195,0.25,0.001,0.013864358158215233,0.010981592153725416,16.15502068726913,0.011531064016608942,0.009650584775954485
196,0.25,0.001,0.013829595028706218,0.010995994662137135,15.879495426675549,0.011334400732816238,0.012053079075283475
197,0.25,0.001,0.013881493265862051,0.011000125115008457,16.147187670832096,0.011525472998452602,0.013787080844243368
198,0.25,0.001,0.01392575260899637,0.011084638582947462,15.921602441538935,0.011364455704167692,0.017991884818507567
199,0.25,0.001,0.013883070178006007,0.010996137455753658,16.17837186067001,0.011547731520820849,0.012572685049639808
200,0.25,0.001,0.013871336955091228,0.011063714050080465,15.733918496836786,0.011230491432431681,0.017154307415088017
201,0.25,0.001,0.013876854453397834,0.011005542501807212,16.090832332113514,0.011485247917283023,0.017497306844840448
202,0.25,0.001,0.013909504965919516,0.011021871148892071,16.1823003486965,0.011550535580796932,0.016882255776888795
203,0.25,0.001,0.01380753513911496,0.010975026745835077,15.873376318890115,0.011330033061306291,0.011569261654383607
204,0.25,0.001,0.013811755196555801,0.011001750472123208,15.747266653309698,0.011240019024489435,0.010872559001048407
205,0.25,0.001,0.013752145642495673,0.010857356078922749,16.22240047454834,0.011579158083189394,0.008950239926990535
206,0.25,0.001,0.013822105991775574,0.011011078407906967,15.752998328830884,0.011244110156196205,0.011393745119373003
207,0.25,0.001,0.013837112337350846,0.010956380032002926,16.143623899376912,0.011522929264366105,0.01322205002523131
208,0.25,0.001,0.013844768497283043,0.01098544926909001,16.0236247021219,0.011437276732421056,0.01567383690012826
209,0.25,0.001,0.013730312524282414,0.010863266992180244,16.066924557893174,0.011468183124834528,0.016530758546044428
210,0.25,0.001,0.013741061344094899,0.010890618723047816,15.973880401279615,0.01140177045059216,0.009663633588287566
211,0.25,0.001,0.013767010637599488,0.010900212787091731,16.06553511578104,0.011467191374576045,0.011792356769243876
212,0.25,0.001,0.013779571726918221,0.010909540249925593,16.083657068998917,0.011480126387579528,0.009762578333417574
213,0.25,0.001,0.013792895682803962,0.010926386790107125,16.06391594596531,0.01146603565022506,0.01003540214151144
214,0.25,0.001,0.013713773294635441,0.010799467521517173,16.331769890163255,0.011657223333449861,0.009107933172749149
215,0.25,0.001,0.013717297360948894,0.01091799280565718,15.687304199882176,0.011197219271864508,0.01110320957377553
216,0.25,0.001,0.013766095782427684,0.010875867976118688,16.196837466696035,0.011560911824907948,0.01180027151066396
217,0.25,0.001,0.01377085391432047,0.010930169192345246,15.919196953151538,0.011362738724590676,0.015886750641382404
218,0.25,0.001,0.01378851896394854,0.010896840280164842,16.204967747563902,0.011566715023243327,0.013032857225173049
219,0.25,0.001,0.013736766055226326,0.010928223792301572,15.73907090726106,0.01123416909868741,0.017311137687000964
220,0.25,0.001,0.013822540482101233,0.010938723229843638,16.1609118685515,0.011535268999679873,0.023527201989458665
221,0.25,0.001,0.013759466578131136,0.010930119704293167,15.855660446830418,0.011317387899236558,0.013495862897899415
222,0.25,0.001,0.013730373163910016,0.010840860156585341,16.192831785782523,0.011558052666511437,0.01149930101301935
223,0.25,0.001,0.013808846392709276,0.010948896349772162,16.02716005076533,0.011439800178990241,0.012883842819266848
224,0.25,0.001,0.013718859755798526,0.010848068465357241,16.087913868116296,0.011483164788091575,0.010731151120530235
225,0.25,0.001,0.013759540209303731,0.010877854012600753,16.148970585698667,0.011526745600070425,0.009492023485816188
226,0.25,0.001,0.013763664737343789,0.01088705137372017,16.120542340485947,0.011506454204486758,0.010441489517688751
227,0.25,0.001,0.01378411261283833,0.010918112463601257,16.061066088469133,0.01146400149069888,0.010969917186432414
228,0.25,0.001,0.013746451235011867,0.010842138384671315,16.275769411169964,0.011617251542590981,0.010509356390684843
229,0.25,0.001,0.013674287800879582,0.010889045761331269,15.608496543220852,0.011140968267823593,0.01043285946879122
230,0.25,0.001,0.013679803520764994,0.010794959546107314,16.16666536414105,0.011539375706025017,0.011786472673217455
231,0.25,0.001,0.01368511652978866,0.010826972556178984,16.017038856174636,0.011432575914471546,0.013680882027579678
232,0.25,0.001,0.013685832916070586,0.010822262776934582,16.047446464870287,0.01145428013195595,0.014367772680189874
233,0.25,0.001,0.013605422494204149,0.010800859646304794,15.71677058012589,0.011218251663187646,0.01228523968408505
234,0.25,0.001,0.013623934150066064,0.010818151938526527,15.723603256889012,0.011223128663018566,0.009748342550463147
235,0.25,0.001,0.013593429011171278,0.010736912793439368,16.00791666113812,0.011426064711733132,0.012496629574646553
236,0.25,0.001,0.013699695506821508,0.010868027908322603,15.868665821241295,0.011326670821728262,0.01432487503108051
237,0.25,0.001,0.01363422480614289,0.010792913487100084,15.922708892822266,0.011365245462399904,0.011215743608772755
238,0.25,0.001,0.013647738597963168,0.010804006599861643,15.936273357557214,0.011374927450076526,0.012052100306997696
239,0.25,0.001,0.013655322516418022,0.010811031243723372,15.939408917634383,0.011377165537212264,0.011816859245300293
240,0.25,0.001,0.01369384013440298,0.010837805138333984,16.005219602170197,0.011424139616110062,0.013116743001672957
241,0.25,0.001,0.013675501411375792,0.01084859958809355,15.841959298175315,0.011307608349875315,0.014718307803074518
242,0.25,0.001,0.013734240256573844,0.010843907322572625,16.197426751178245,0.011561332441954493,0.015666700796120696
243,0.25,0.001,0.01362224703087755,0.010799913390175156,15.816357531340225,0.011289334426367042,0.011333512607961893
244,0.25,0.001,0.013608448592864949,0.010782919432158056,15.834266304347826,0.011302117276479534,0.014873541167212857
245,0.25,0.001,0.013644342067772928,0.010795901568363542,15.962660250456437,0.011393761777627721,0.01429005546702279
246,0.25,0.001,0.013635430740921394,0.010720126620777275,16.33736393638279,0.011661216228681506,0.011387981267438995
247,0.25,0.001,0.013681310152877931,0.010853128123866474,15.849132076760997,0.01131272810618201,0.011544398963451385
248,0.25,0.001,0.013637696133683557,0.010749230047930842,16.186964771436607,0.011553864933216708,0.010956331466635069
249,0.25,0.001,0.013677674655033195,0.010800599342455034,16.123131020587422,0.011508301941889666,0.011679459259741835
250,0.25,0.001,0.013621366773934468,0.010815833661219349,15.722208650008492,0.011222133226273013,0.011269995011389256
251,0.25,0.001,0.013625835317956365,0.010768885455377724,16.010348275226097,0.011427800339204923,0.011921401859985458
252,0.25,0.001,0.01362502433521592,0.010779532644411793,15.946135519276494,0.011381966823180937,0.012652713753696945
253,0.25,0.001,0.013569740904090197,0.010754911815342695,15.774302197331968,0.011259316343563147,0.01176978275179863
254,0.25,0.001,0.013548301276953324,0.010692761182461095,16.00244681648586,0.01142216046858377,0.01184834653718604
255,0.25,0.001,0.01366467267760764,0.010792693858561308,16.0945695147307,0.011487915428073306,0.012581026285058923
256,0.25,0.001,0.013625755394282549,0.01079428134729033,15.867579871467923,0.011325895696979246,0.013615639259417852
257,0.25,0.001,0.013660847217492436,0.010715095115744548,16.507996016792628,0.01178300929107254,0.011915068038635783
258,0.25,0.001,0.01362266078915285,0.010805805084174095,15.785660755323327,0.011267423808225072,0.01383871285037862
259,0.25,0.001,0.01355847623685132,0.010694892127876696,16.0475256496927,0.011454336652171807,0.012302568648010492
260,0.25,0.001,0.013596850902489993,0.010771133107659609,15.835321315267812,0.011302870317821422,0.011870705315636264
261,0.25,0.001,0.013667047033491342,0.010801134621319564,16.0605723588363,0.0114636490783985,0.012192697264254093
262,0.25,0.001,0.01367274714714807,0.01080098121062569,16.093375612341838,0.011487063249351776,0.013979199652870497
263,0.25,0.001,0.013547787995118162,0.010679020531799482,16.076573980580207,0.011475070649950183,0.013403355661365721
264,0.25,0.001,0.013593106480396312,0.01076759830441164,15.83414728247601,0.011302032321538908,0.01205655187368393
265,0.25,0.001,0.013707812315096025,0.01071929817614348,16.74763309644616,0.011954056457135018,0.01524014263931248
266,0.25,0.001,0.01360848148231921,0.010760278172143128,15.961331485250723,0.011392813337081172,0.011974645985497369
267,0.25,0.001,0.013577699988432553,0.01062950562685728,16.52168160148289,0.01179277773125117,0.012367399202452766
268,0.25,0.001,0.013529434657615164,0.010723860118052235,15.722440464185631,0.011222298689639993,0.009669528549744023
269,0.25,0.001,0.013563631131597188,0.01066502941529388,16.243764386384385,0.011594407128040246,0.01404855897029241
270,0.25,0.001,0.013550937295607898,0.010718208169159683,15.87461378843888,0.011330916337215474,0.014018129143449996
271,0.25,0.001,0.013642759501286175,0.010764814015963802,16.1280078125,0.011511782878301215,0.012828779613806142
272,0.25,0.001,0.013525740709965643,0.010661529777166636,16.0510381532752,0.011456843792487651,0.010495220310986042
273,0.25,0.001,0.013622241255057895,0.010805235803127288,15.786498303620712,0.011268021629993371,0.014716462853054205
274,0.25,0.001,0.013553099881695665,0.010656772233221841,16.231019622139307,0.011585310222797508,0.011834707421561083
275,0.25,0.001,0.013566531159955523,0.010713500834029653,15.988382546798043,0.011412121732189895,0.010040146660887532
276,0.25,0.001,0.013509740382432937,0.010651989647227784,16.01483516527259,0.011431002973071085,0.011398005506230725
277,0.25,0.001,0.01353917286609826,0.010693211587874786,15.948767610632855,0.011383845546490261,0.011930152463416258
278,0.25,0.001,0.013494932560817055,0.010682769642899865,15.759360998402471,0.011248651676233026,0.0105237757994069
279,0.25,0.001,0.013552364072074061,0.010646488822024801,16.284524877797,0.011623500983438258,0.013795433876415094
280,0.25,0.001,0.01357796516755353,0.01071931129888348,16.01989620042884,0.011434615417864981,0.013762310871647464
281,0.25,0.001,0.013525883322176725,0.010665097840778206,16.031841837012248,0.011443141925062275,0.01261845738109615
282,0.25,0.001,0.013481204901700435,0.010626759359046169,15.996313486513884,0.011417782645620189,0.011544136537445916
283,0.25,0.001,0.013533318015220373,0.010704900630466316,15.850451490982719,0.011313669872221785,0.010495935256282488
284,0.25,0.001,0.013538321923950445,0.010683430987207787,15.99880762183148,0.011419562899237316,0.012255275518529944
285,0.25,0.001,0.013511062183457873,0.01068167123619629,15.855908038927161,0.0113175646245019,0.01279955967846844
286,0.25,0.001,0.01355232825745707,0.010716712204334528,15.890792236328124,0.011342464123003658,0.010863031985031234
287,0.25,0.001,0.013513064028128333,0.010586295804899672,16.401609488777492,0.011707073154016768,0.010624154522601102
288,0.25,0.001,0.013517659138078274,0.010724281647607036,15.654086900793988,0.011173509565163445,0.014042655937373638
289,0.25,0.001,0.013508153561016787,0.01068239546502414,15.835548939912215,0.011303032790801009,0.013738734647631645
290,0.25,0.001,0.013509204261328863,0.01063817088532707,16.089270737689475,0.011484133288857584,0.013005712690452734
291,0.25,0.001,0.013525367194543714,0.010641418941642927,16.161645685278852,0.01153579278035607,0.0107006278509895
292,0.25,0.001,0.013579851121682187,0.01073140454195116,15.962695342354152,0.011393786825377696,0.011507023332847489
293,0.25,0.001,0.013540931609661683,0.010709012260903483,15.870076197748599,0.01132767751445296,0.012592598588930236
294,0.25,0.001,0.013464992985777233,0.010607047417889471,16.01592854872994,0.011431783403804381,0.012824642937630415
295,0.25,0.001,0.013525010302014973,0.010663833326619604,16.034034692515498,0.011444707132416486,0.011150483714623583
296,0.25,0.001,0.013480029977534128,0.010646944125385388,15.876613089519998,0.01133234339009279,0.018092137968374625
297,0.25,0.001,0.01352108271225639,0.010666991239008695,15.9943287492835,0.011416365988068167,0.017608388223581843
298,0.25,0.001,0.013504366933003716,0.010659118029086485,15.944773778500764,0.011380994845468069,0.015372120361361239
299,0.25,0.001,0.01351975459119548,0.01066765478933635,15.98316722040591,0.011408399158034196,0.01111636647126741
300,0.25,0.001,0.013489428376374037,0.010589188547885936,16.252944219838017,0.011600959471690233,0.012036897449029816
301,0.25,0.001,0.013432819156543069,0.01063113657352717,15.700629066798998,0.011206730240399,0.009088875518904792
302,0.25,0.001,0.013430715800951357,0.010533927481459534,16.233602347995923,0.011587153710204084,0.01080317117480768
303,0.25,0.001,0.013498749700577363,0.010681757959334747,15.786422082652216,0.011267967225304936,0.010749134442044629
304,0.25,0.001,0.01346928731902786,0.010603573858414008,16.059458956511126,0.011462854358680318,0.011079431459721591
305,0.25,0.001,0.013488571718335151,0.010633891778795616,15.997626681120499,0.011418719972248751,0.014739721599552367
306,0.25,0.001,0.013489903205114862,0.010621583754925624,16.074063126937205,0.011473278463195721,0.014713275556763014
307,0.25,0.001,0.013505579613797043,0.010689456571379433,15.781553071063497,0.011264491842300854,0.010357885673228238
308,0.25,0.001,0.013429077690386254,0.010541486905320831,16.182059548419456,0.011550363703368633,0.01033125590119097
309,0.25,0.001,0.013414019634542258,0.01058311679440996,15.864379481440006,0.011323611335788726,0.011377228630913628
310,0.25,0.001,0.013450670025270919,0.010592799436139024,16.01550653208857,0.011431482178507186,0.013874259673886828
311,0.25,0.001,0.013504149567173876,0.010665269129626129,15.909086680204972,0.011355522255678067,0.016682737093004916
312,0.25,0.001,0.01352844951917296,0.010637569271999856,16.200494212274965,0.011563521921680918,0.01850767857912514
313,0.25,0.001,0.013450364125487597,0.010632167306283247,15.79317551986031,0.011272787665853183,0.01203337942974435
314,0.25,0.001,0.013509056658848472,0.010627450105612692,16.14852405713952,0.01152642687875769,0.013149151371584998
315,0.25,0.001,0.013439524798937466,0.010597963966429234,15.924106569704803,0.011366243090438832,0.014090097405844264
316,0.25,0.001,0.013420310117628263,0.010615878001503322,15.716036345440408,0.011217727584183018,0.012139069226880869
317,0.25,0.001,0.013442664062199385,0.01057006454338198,16.098048636395,0.0114903987411813,0.010586132605870565
318,0.25,0.001,0.013494700471992077,0.010622544063498145,16.095564694611923,0.011488625763463186,0.011626886928247081
319,0.25,0.001,0.013472476698782133,0.010604020208120346,16.074830071822458,0.01147382588995179,0.012438929846717251
320,0.25,0.001,0.013468318775944088,0.010582466162741184,16.17231757785963,0.011543410119814154,0.012246561236679554
321,0.25,0.001,0.013437964676514915,0.010609328464969345,15.851676658962084,0.011314544367567512,0.010141976539873414
322,0.25,0.001,0.013348527991253396,0.010481617884791416,16.0661647929316,0.01146764082293476,0.008402533725731902
323,0.25,0.001,0.013404762868000113,0.010562211239467496,15.929660613018534,0.011370207432561409,0.01061107161351376
324,0.25,0.001,0.013384182425620764,0.01057776500835367,15.727163079303244,0.011225669578374906,0.010614453245782189
325,0.25,0.001,0.013438724985589151,0.01056830751993086,16.085820088593856,0.011481670298782196,0.010585057445698313
326,0.25,0.001,0.013425438169227994,0.01059550210185673,15.858962080582328,0.011319744525754695,0.012677951250225306
327,0.25,0.001,0.013425858024021853,0.01055793781157421,16.071825408935545,0.011471681234072481,0.012515780826409658
328,0.25,0.001,0.013426180379870145,0.010621968292347763,15.71480392124342,0.011216847909524211,0.01106007598961393
329,0.25,0.001,0.013376049645569014,0.01052165254464616,15.99604159147843,0.01141758857350352,0.010719965315527387
330,0.25,0.001,0.013355574486372264,0.010487911140789157,16.070385430377463,0.011470653412118104,0.011172142397198413
331,0.25,0.001,0.013366822067486203,0.01054203133382227,15.830127573427946,0.011299163150198391,0.009792656327287355
332,0.25,0.001,0.013385652174120364,0.010570170391836891,15.777959639507792,0.011261926937550173,0.010639226684967676
333,0.25,0.001,0.01341680572570666,0.010546470260166604,16.08536050547724,0.011481342259441285,0.010901097311741777
334,0.25,0.001,0.01337778437072816,0.010554754154189773,15.820261927065642,0.01129212128983986,0.009360617647568384
335,0.25,0.001,0.013364151133143383,0.010471048384256984,16.21294725832732,0.011572410605515573,0.009916573142011961
336,0.25,0.001,0.013384157276671865,0.010559533204397429,15.829194173398225,0.011298496911776035,0.009571005383299457
337,0.25,0.001,0.013392673500854036,0.010549028928837051,15.935784802644148,0.011374578731366273,0.011998719225327173
338,0.25,0.001,0.013469529977959135,0.010672412190748298,15.675048022062882,0.01118847110782504,0.012506111214558283
339,0.25,0.001,0.013450084084078022,0.010565650597538638,16.164364136405613,0.011537733145186019,0.01070517384343677
340,0.25,0.001,0.013399889678086923,0.010554835224605125,15.943685150146484,0.011380217808812623,0.010316350911226537
341,0.25,0.001,0.013436989742128745,0.01058889544852402,15.960720921392026,0.01139237753132907,0.013321046717464924
342,0.25,0.001,0.01343893605729808,0.010609058297198751,15.858635416445525,0.01131951136077482,0.012789342138502333
343,0.25,0.001,0.013430507121526677,0.010556698271437832,16.104825509112814,0.011495235909430988,0.01186315342783928
344,0.25,0.001,0.01345403971231502,0.010566733907098355,16.18046304785687,0.011549224159783631,0.013205510874589285
345,0.25,0.001,0.01332874377136645,0.010513812352133833,15.774875906239386,0.011259725843140176,0.01017190950612227
346,0.25,0.001,0.013321702954885752,0.01048174544359031,15.915121602597443,0.01135982983768554,0.009535427877886428
347,0.25,0.001,0.013379319059136122,0.01052070120268542,16.01969525212827,0.011434471985816038,0.010638696451981863
348,0.25,0.001,0.01341810690967933,0.01055887817364672,16.023118372378143,0.011436915326465484,0.011533809618817436
349,0.25,0.001,0.013419420123100281,0.010563371882814428,16.005294600777003,0.011424193148306212,0.013697680810259448
350,0.25,0.001,0.01332636574688165,0.01048960099077743,15.89722942352295,0.011347058831922162,0.013927029445767403
351,0.25,0.001,0.013417042858250763,0.010561714755452197,16.00125929625138,0.011421312845290065,0.011718977967070209
352,0.25,0.001,0.013347926564190699,0.01048118004332418,16.065247625268025,0.011466986170783743,0.012601426699095301
353,0.25,0.001,0.013356948734625526,0.010548378638923168,15.73922679071841,0.01123428036453848,0.0110973184928298
354,0.25,0.001,0.013373057735355003,0.010474517372963222,16.243420869578486,0.011594161934031753,0.011460274768372377
355,0.25,0.001,0.013262845762073993,0.010420430752894153,15.928893537106722,0.011369659912281744,0.010141118688301908
356,0.25,0.001,0.01336503808265147,0.010537897401853747,15.84329698147981,0.011308563155945618,0.011183766130771901
357,0.25,0.001,0.013385899648394274,0.0105569055725051,15.853682906109354,0.011315976378379267,0.010727307862705655
358,0.25,0.001,0.013407808589222638,0.010529193175227746,16.131759938779084,0.011514461055516833,0.011272966240843138
359,0.25,0.001,0.01332840678970451,0.010462959228974321,16.057968554289445,0.011461790545531368,0.011604367858833738
360,0.25,0.001,0.013349258389485918,0.010519834377843401,15.856091454547384,0.011317695542146598,0.012690053631862005
361,0.25,0.001,0.013294373091472233,0.010503880987348764,15.637918293165123,0.01116196880311572,0.012901080254879262
362,0.25,0.001,0.013328697619878727,0.010466998606596304,16.036960442584494,0.011446795462230189,0.012834555055532191
363,0.25,0.001,0.013421458640824193,0.010565596883711607,16.00424845488175,0.011423446434605104,0.015825517061683867
364,0.25,0.001,0.013363754230996837,0.010495365790050963,16.0744489752728,0.011473553872428838,0.01133477646443579
365,0.25,0.001,0.013326231477701145,0.010453304413544095,16.09988335982613,0.01149170832250259,0.011645726445648406
366,0.25,0.001,0.013327249635172927,0.010477320811022883,15.971001586914063,0.011399715622351222,0.00920165123211013
367,0.25,0.001,0.013284523660398048,0.010403688260070655,16.14420253421949,0.01152334227995681,0.00975420196644134
368,0.25,0.001,0.01330724681687096,0.010536726220794346,15.525998004415761,0.011082082801153291,0.011062065553334024
369,0.25,0.001,0.013259718944521054,0.010431481535020081,15.84944237087084,0.011312949586631578,0.014011290803965595
370,0.25,0.001,0.013351244754765344,0.01046054020524025,16.199509023583452,0.011562818717761209,0.016701482753786776
371,0.25,0.001,0.01330417226838029,0.010539095333736875,15.495491130663002,0.011060307730665953,0.012152872048318386
372,0.25,0.001,0.013500693074387053,0.010566042558006618,16.44578213567319,0.011738602523678223,0.017598054992655914
373,0.25,0.001,0.013351482042799826,0.010478590490377467,16.099684514584748,0.011491566391566559,0.011495137690669961
374,0.25,0.001,0.013316262521497582,0.010480642987658148,15.890811966605808,0.011342478205999863,0.01114520032165779
375,0.25,0.001,0.013319056832596012,0.010443424415653166,16.115044107851777,0.011502529698680783,0.00996371865686443
376,0.25,0.001,0.013254623733784842,0.01042365840109794,15.864728778341542,0.011323860655490037,0.011045747540063329
377,0.25,0.001,0.013342816692007625,0.010497799565934617,15.943476131273352,0.011380068616183691,0.01255525348501073
378,0.25,0.001,0.013274203781848369,0.010362515315089537,16.31710270093835,0.011646754247636225,0.010982460756268766
379,0.25,0.001,0.013322530095667943,0.010460276639331943,16.04006972271463,0.011449014791373755,0.009988220460298989
380,0.25,0.001,0.01326845686720765,0.01040514011097991,16.04602638576342,0.011453266513749763,0.008991587079233594
381,0.25,0.001,0.013282643815745478,0.010433464369372182,15.96680181088655,0.011396717923545003,0.011138114146888256
382,0.25,0.001,0.013312262570404488,0.010469672709055569,15.929873687080715,0.011370359519686448,0.013297186336583562
383,0.25,0.001,0.013360960028417732,0.010455273325028627,16.28346925154976,0.01162274750289062,0.011272618029680517
384,0.25,0.001,0.013329935737926027,0.01047609694302082,15.992912806635317,0.011415355322366394,0.011236684086422125
385,0.25,0.001,0.013321720510721207,0.010432015869604504,16.193904807049297,0.011558818563204351,0.011185878680811988
386,0.25,0.001,0.013276801749092081,0.010468737523516883,15.73639208752176,0.011232257021785697,0.009994296150075065
387,0.25,0.001,0.013272138958715875,0.010383989307219567,16.185190894085427,0.011552598782359334,0.010889866596294774
388,0.25,0.001,0.013327294844000236,0.01051227545770614,15.775369259378184,0.011260077986708196,0.012816235216127502
389,0.25,0.001,0.013285759983827238,0.010429639686708864,16.005698834294858,0.01142448168043887,0.014195771473977301
390,0.25,0.001,0.013271755495149156,0.010406337652517401,16.05780163972274,0.01146167140594057,0.009919810367541181
391,0.25,0.001,0.013212400315248448,0.010355186613033647,16.01182608562967,0.011428855164617896,0.008706216131233506
392,0.25,0.001,0.013319467511837896,0.010492282577830813,15.843544314840566,0.011308739696531452,0.010146048437390063
393,0.25,0.001,0.013296121002539345,0.01035542809444925,16.479643843277643,0.011762772193631437,0.010677623045113351
394,0.25,0.001,0.013257943762709265,0.01043189583103294,15.837172426970108,0.011304191596695295,0.010939469664461084
395,0.25,0.001,0.01329157561711643,0.010398506841257862,16.212757588262143,0.01157227522359896,0.011338351863539882
396,0.25,0.001,0.013338402370395868,0.010491982858790003,15.951334964918054,0.01138567806204001,0.015225485484633181
397,0.25,0.001,0.013244000836882902,0.0103588875318351,16.168174941021462,0.01154045320558277,0.013884236415227255
398,0.25,0.001,0.01326462535592525,0.010441449997217758,15.821074610171111,0.011292701363434056,0.012158744658033053
399,0.25,0.001,0.013204033872031647,0.010336891905121182,16.067464402240255,0.011468568452705392,0.011666403255528875
400,0.25,0.001,0.013299085612854231,0.01046047646228386,15.907565095320992,0.011354436185097069,0.015332430497639708
401,0.25,0.001,0.013262330530130345,0.010377825752872489,16.164764868694803,0.011538019178226127,0.013168813039859137
402,0.25,0.001,0.013275852376676124,0.010428991342044395,15.953809431324835,0.011387444276463123,0.016008303604192205
403,0.25,0.001,0.013319019838843657,0.010485068750770196,15.881463210064432,0.01133580528912522,0.013512326094011465
404,0.25,0.001,0.013233681437761888,0.010325921119555184,16.295088517562203,0.011631041054648253,0.013661537733342912
405,0.25,0.001,0.013301075603003087,0.01040165896648946,16.24833094721255,0.011597666628988259,0.011387454863223765
406,0.25,0.001,0.0133116576431886,0.01040215024481649,16.304879359369693,0.011638029521320266,0.010435478658311896
407,0.25,0.001,0.013291628691165343,0.010426047675959442,16.05871570089589,0.011462323840753668,0.012517997477617528
408,0.25,0.001,0.013270303696070029,0.010383739469815856,16.176306392835535,0.011546257239711302,0.012318459649880728
409,0.25,0.001,0.013224581505941309,0.010321402078413444,16.26941715074622,0.011612717452352763,0.010879424814548757
410,0.25,0.001,0.013237849843242893,0.010404068829248781,15.880509980243186,0.011335124896676079,0.011653307411405776
411,0.25,0.001,0.013205416045435098,0.010370964032152425,15.884269158736519,0.011337808107592091,0.009909997332013316
412,0.25,0.001,0.013287649546628413,0.01039194460310366,16.227529459414274,0.011582819028846733,0.012723961534599463
413,0.25,0.001,0.01325723244768122,0.010402354251431382,15.998737607209579,0.01141951292448935,0.0137742655351758
414,0.25,0.001,0.013307167008195234,0.01044538117621256,16.037447703817616,0.011447143257542909,0.014973768757449256
415,0.25,0.001,0.013274864870245042,0.010327129111341808,16.519111165585723,0.011790943016121144,0.014988330917225944
416,0.25,0.001,0.013227103054523468,0.010430746279332949,15.670783751114556,0.011185427374100325,0.011881926821337806
417,0.25,0.001,0.013208189273010129,0.010396020240757777,15.759395483265752,0.011248676290696468,0.013952081298662556
418,0.25,0.001,0.013265787925085296,0.010392646138434825,16.101086628126062,0.011492567186385484,0.012948090727958415
419,0.25,0.001,0.013223854084701642,0.01039880106954471,15.83159609919009,0.011300211348458308,0.013846714670459429
420,0.25,0.001,0.013284096050521601,0.010351879092986169,16.432144533240276,0.011728868332077284,0.011582468946774801
421,0.25,0.001,0.013187336830989174,0.010316748197959818,16.086778839774755,0.011482354632244651,0.010348319127741788
422,0.25,0.001,0.01333341274248517,0.010423720726824326,16.305913908585257,0.01163876795759119,0.01397937960508797
423,0.25,0.001,0.01334897917897805,0.010432741928683676,16.34259357618249,0.011664949019402206,0.012501480057835579
424,0.25,0.001,0.013217632004424282,0.010341724426202152,16.116586370053497,0.011503630528232332,0.012601328134122822
425,0.25,0.001,0.01322711030750171,0.010366320508005827,16.031865660625954,0.01144315892978298,0.010118982237246301
426,0.25,0.001,0.013235360618842685,0.010322228845046914,16.325190758083178,0.011652527307696772,0.011516760310365094
427,0.25,0.001,0.013305551105219384,0.01045970561063808,15.94811803403108,0.011383381894383354,0.011675049654311605
428,0.25,0.001,0.013176927589204,0.010317197124595227,16.025929215472676,0.011438921638453016,0.01067723696016603
429,0.25,0.001,0.013169694045639556,0.01031844237252422,15.97841489377229,0.011405007061935968,0.014109999044901796
430,0.25,0.001,0.013280059623977412,0.010367269512751827,16.323275282486627,0.011651160087428,0.015599900028771825
431,0.25,0.001,0.013207908723017444,0.010337091316671475,16.088061559925908,0.011483270206942118,0.013043505864010917
432,0.25,0.001,0.013219564949040828,0.010360426381230354,16.022612145465352,0.011436553993908175,0.013147553015086386
433,0.25,0.001,0.013174637530160987,0.010347151905298233,15.845229999708092,0.011309942897721694,0.013711481976012388
434,0.25,0.001,0.013180414021986981,0.010303123695370944,16.124334784798002,0.011509161159741614,0.010676257105337249
435,0.25,0.001,0.013209938215820685,0.010347342351856439,16.04198769942574,0.011450383796877758,0.011291256070964865
436,0.25,0.001,0.01328114234558914,0.010398288623470328,16.155512721849526,0.011531415219021788,0.01255106098122067
437,0.25,0.001,0.01318225661697595,0.010289703711219456,16.209866313105046,0.011570211501145643,0.011604449711740017
438,0.25,0.001,0.013261948810971301,0.010350526271630888,16.315612580672553,0.01164569063574058,0.013579747122195032
439,0.25,0.001,0.01320204600367857,0.010380321966241236,15.812941076859184,0.011286895843582574,0.012193102079133192
440,0.25,0.001,0.013211049226963001,0.010352038107812404,16.021898682635765,0.011436044741353152,0.010177598231368594
441,0.25,0.001,0.013318642178631348,0.010420336600231088,16.242104462333348,0.011593222314299321,0.013844775242937936
442,0.25,0.001,0.013199801966547966,0.010311966567583706,16.183430675009024,0.011551342380448982,0.013951645750138495
443,0.25,0.001,0.013185608753043672,0.010323024973597215,16.04191957556683,0.011450335171710799,0.011612843204703596
444,0.25,0.001,0.013217348044981127,0.010322588957522227,16.22223112355108,0.011579037204533247,0.010230765884949101
445,0.25,0.001,0.013206147896530835,0.01030640547366246,16.25015589175017,0.011598969230371283,0.013008521559337774
446,0.25,0.001,0.013221306084938671,0.010359757464864979,16.036118329918903,0.011446194382525983,0.012798027652833197
447,0.25,0.001,0.013153621026355287,0.010267561747004156,16.1734758294147,0.01154423685183062,0.0117203907834159
448,0.25,0.001,0.013188849464058875,0.010312151845706545,16.12101385365362,0.011506790759210291,0.011137763866119914
449,0.25,0.001,0.01321127694586049,0.01036440513704134,15.953869444805642,0.01138748711263786,0.012511580044196712
450,0.25,0.001,0.013268593499517959,0.010339237177825492,16.416113181736158,0.011717425540140013,0.012745738857322268
451,0.25,0.001,0.013157425357595735,0.010297799768007319,16.025341926242994,0.01143850244556959,0.017397155260874167
452,0.25,0.001,0.01320334429488234,0.010353353937035022,15.971346004320228,0.011399961459186458,0.013951217445234457
453,0.25,0.001,0.013134949566877406,0.01021155269411595,16.382716339774753,0.011693587680067632,0.010838624814318286
454,0.25,0.001,0.01314934079899736,0.010292351130882034,16.010570607392683,0.011427959034541529,0.010410324359933535
455,0.25,0.001,0.013233169305907644,0.010381319114695425,15.981768818730893,0.011407401012655884,0.011201433423492644
456,0.25,0.001,0.01319378855921652,0.010229370997327826,16.61259584509808,0.011857670124980785,0.010756205767393112
457,0.25,0.001,0.01311369620911453,0.010310255248585472,15.710482983796492,0.011213763728619909,0.012134489085939195
458,0.25,0.001,0.013187813912720784,0.010261338239778643,16.399970709759256,0.011705903433090118,0.011451114176048173
459,0.25,0.001,0.013192889862086462,0.010334338025878305,16.019325190005095,0.011434207844400496,0.011860541326718198
460,0.25,0.001,0.01319887299252593,0.010261374744384185,16.46173988673998,0.011749992781398986,0.012945090937945578
461,0.25,0.001,0.01316739072456308,0.010263495702782403,16.273427737692128,0.011615580112556836,0.010312746278941631
462,0.25,0.001,0.013235444620899532,0.01033924049657324,16.230328299480934,0.01158481677336255,0.016615260288947158
463,0.25,0.001,0.01316677392338929,0.010279692688389965,16.17920427405316,0.011548325677411249,0.013333261013031006
464,0.25,0.001,0.013210968950196453,0.01031530309792446,16.227311548979387,0.011582663489635537,0.01288635583801402
465,0.25,0.001,0.013138891500623329,0.010274053429779799,16.054552529376487,0.011459352269362231,0.011599765573110845
466,0.25,0.001,0.013151032071074714,0.010280267320897268,16.08776630235755,0.011483059459213098,0.012470655143260956
467,0.25,0.001,0.013071426658526711,0.010210187253744707,16.034386299796726,0.011444958101211081,0.009767130431201723
468,0.25,0.001,0.01312010377159585,0.010305565109719401,15.772675074701723,0.011258154942685027,0.012529219397240214
469,0.25,0.001,0.013184807686054189,0.010275433355051539,16.30413433904233,0.011637497743784676,0.01444083121087816
470,0.25,0.001,0.013188400804672552,0.010247690590179485,16.479739117829695,0.011762840198308134,0.012108965052498711
471,0.25,0.001,0.013192859392451203,0.010325721306321414,16.067441837476647,0.011468552346521518,0.013441793206665251
472,0.25,0.001,0.013171711418291796,0.010257480308089567,16.331350392880648,0.011656923906410169,0.011407477988137139
473,0.25,0.001,0.013162240381150141,0.010306557701981587,16.003246342202893,0.01142273115075153,0.013106786645948887
474,0.25,0.001,0.01307820054176061,0.010206097779066666,16.095264451400094,0.011488411457102138,0.011556049912340112
475,0.25,0.001,0.013173826369254486,0.010334249289463396,15.912989448879076,0.011358307957800911,0.013747195195820596
476,0.25,0.001,0.013109943996305051,0.010199661010309407,16.309226731010106,0.011641132570314138,0.013057528684536615
477,0.25,0.001,0.013239592164754867,0.010346540520372599,16.212660950370456,0.011572206245803324,0.012572093349364068
478,0.25,0.001,0.013181153001344722,0.010289841338020304,16.202910182787026,0.01156524638314563,0.013650384628110461
479,0.25,0.001,0.013154308306782141,0.010257327640834061,16.23468026202658,0.011587923099233817,0.013635465461346839
480,0.25,0.001,0.01317602211366529,0.01030078943170931,16.11280400151792,0.01150093076482364,0.014419865897960134
481,0.25,0.001,0.013137141775501812,0.010242643766105175,16.220766873567,0.011577992058220557,0.014560682181682851
482,0.25,0.001,0.013103092889422956,0.010294086861869563,15.741669248498004,0.011236023731975735,0.014710584758884378
483,0.25,0.001,0.013205354550610417,0.010287084752774758,16.353985224184783,0.01167308010291562,0.014184458802143732
484,0.25,0.001,0.013153707799704178,0.010232963076104289,16.367853512971298,0.011682978952870305,0.011733625084161758
485,0.25,0.001,0.013140591298756393,0.0102286446839571,16.31854886594026,0.011647786485324954,0.012755723670125008
486,0.25,0.001,0.013130372229801571,0.01021361196818559,16.34552509142005,0.01166704146425414,0.009985932666394446
487,0.25,0.001,0.013109841390472391,0.010204097094095272,16.28379074262536,0.011622976975464211,0.010266409255564213
488,0.25,0.001,0.013123080847056016,0.010241474972470946,16.148519187595532,0.01152642340299467,0.009910595810247792
489,0.25,0.001,0.013138768316611,0.010255338954536812,16.158738063314686,0.011533717389946243,0.01116441386855311
490,0.25,0.001,0.013198916163781415,0.010251663758055023,16.51640290301779,0.01178900992363868,0.011562517119778527
491,0.25,0.001,0.013134263128690097,0.010226458837480648,16.295334618609886,0.011631216715638748,0.012196704590072235
492,0.25,0.001,0.01315272533375284,0.010250880225845005,16.261941362463908,0.01160738141503491,0.009749762093027433
493,0.25,0.001,0.013103779060361177,0.010237591969578163,16.062113657412322,0.011464749220137275,0.01084000099864271
494,0.25,0.001,0.013092069229030091,0.010191628780701886,16.254067920187246,0.01160176154188954,0.010395540855824947
495,0.25,0.001,0.013066245100420454,0.0101853916729274,16.144303595501444,0.011523414415061701,0.01081971244679557
496,0.25,0.001,0.013056322848019393,0.01019815690005603,16.017162508757217,0.011432664174701797,0.009356139434708489
497,0.25,0.001,0.013135138098960338,0.010177659044123214,16.57371247664742,0.011829916114666252,0.010703317924506135
498,0.25,0.001,0.01308150746576164,0.01016489229934371,16.344710885752804,0.01166646030389208,0.0137783151326908
499,0.25,0.001,0.013059313224385614,0.010219871458476004,15.912231763756793,0.011357767140440253,0.012143259040183492
500,0.25,0.001,0.01310092226156722,0.010236326028471408,16.053196877189304,0.011458384637536977,0.011850045062601566
