epoch,beta,learning_rate,train_loss,train_reconstruction_loss,train_kl_unnormalized,train_kl_normalized,mean_unclipped_gradient_norm
1,0.0,0.001,0.08507693266478654,0.08507693266478654,20.941697575221554,0.014947678497659924,0.11498573103121348
2,0.02,0.001,0.06333292435819858,0.060081962844200226,227.72981989495108,0.16254805131688158,0.10999250465205737
3,0.04,0.001,0.05268764941491813,0.04283581426906809,345.0605314736054,0.24629588256502885,0.08616855261581284
4,0.06,0.001,0.045387902514678294,0.04148491962908584,91.13467293142158,0.06504973085754574,0.09154011415583747
5,0.08,0.001,0.039362207333618233,0.03634788976790749,52.78823274986766,0.03767896698777135,0.06334694900682994
6,0.1,0.001,0.035503408062123806,0.033296626426766965,30.917010619261553,0.022067816287838368,0.062236327944057326
7,0.12,0.001,0.03459953520203305,0.03202347298997028,30.075530150226342,0.0214671878302829,0.07425340903656823
8,0.14,0.001,0.033801156087456465,0.031559088206458315,22.43669549104209,0.016014771942214196,0.08443278287138258
9,0.16,0.001,0.032786243986860614,0.03071251318346117,18.158102017696773,0.012960815144680067,0.07003236721668925
10,0.18,0.001,0.030955255484191056,0.028444743671706903,19.5401509008675,0.01394728829469486,0.06704623864165374
11,0.2,0.001,0.028229028003934387,0.025277011026845913,20.678878338537483,0.014760084467193065,0.03878475273294108
12,0.22,0.001,0.026505716145038605,0.02276257798075676,23.83698392137189,0.01701426404095067,0.023406614948596274
13,0.24,0.001,0.024946023683960192,0.021039183591013758,22.806179545750126,0.01627850074643121,0.060813914984464645
14,0.25,0.001,0.024055570990682763,0.020556268743543982,19.610090416168497,0.013997209433382224,0.11015894902603966
15,0.25,0.001,0.02335072742235438,0.01998365388434624,18.869081835880458,0.013468295386067421,0.11821329620267663
16,0.25,0.001,0.022567996685610752,0.019138153433521217,19.22084186233093,0.013719373206517437,0.15135082629110133
17,0.25,0.001,0.021887560540409846,0.018387446092946506,19.614641385657766,0.014000457805608683,0.09709364774503879
18,0.25,0.001,0.02129933568779553,0.0178564919559198,19.29369732152636,0.01377137567560768,0.11773211030023438
19,0.25,0.001,0.020524074158100324,0.016811931993220453,20.802844787312445,0.014848568727560631,0.09045012534729072
20,0.25,0.001,0.019801547437488475,0.01630501308104145,19.59458069489381,0.013986138968518066,0.0727911756506988
21,0.25,0.001,0.019584892160981617,0.01604733885936091,19.82444838051484,0.014150212976812878,0.03988484612533024
22,0.25,0.001,0.019245634586593816,0.015498240635007899,21.00039530246057,0.014989575519243806,0.07593792503965753
23,0.25,0.001,0.018727758307462542,0.015245834086960721,19.512702549729394,0.013927696323861094,0.06687305548361369
24,0.25,0.001,0.018789636075635937,0.015201007190082117,20.11067599002446,0.014354515339061,0.07017369175861989
25,0.25,0.001,0.018413815020679312,0.014968962103964012,19.304955580524194,0.013779411549267805,0.04650292984609093
26,0.0,0.001,0.01432848253470158,0.01432848253470158,23.79525471624927,0.01698447874107728,0.06975388686571803
27,0.02,0.001,0.013719130359659685,0.013093008320326003,43.85985875352521,0.03130610903178102,0.06045835491802011
28,0.04,0.001,0.014009038482522853,0.01227796132563152,60.63098319222994,0.0432769330422769,0.04269889808659043
29,0.06,0.001,0.014691372175709667,0.012032775469472476,62.07823830007393,0.04430994882232257,0.020467797560351237
30,0.08,0.001,0.014971512117397005,0.012158894563250453,49.255964368303246,0.035157719035191465,0.04090591333806515
31,0.1,0.001,0.015050132523908794,0.01252904544784644,35.320430381275784,0.025210871078712196,0.04508511043552842
32,0.12,0.001,0.015243807215696183,0.012825126054688035,28.23810511437532,0.020155678168719,0.03180168316300426
33,0.14,0.001,0.015511818143112636,0.012764896753583556,27.48883463066315,0.019620866974063633,0.03836399423224585
34,0.16,0.001,0.015800423798299282,0.01259251958124827,28.089212952373185,0.020049402535598275,0.027274879893021926
35,0.18,0.001,0.01608022709733972,0.012880090267232087,24.907731421639987,0.017778537774189855,0.053437218735260625
36,0.2,0.001,0.01628339356768911,0.012922789396665921,23.541033147651458,0.01680302151866628,0.028513737488538027
37,0.22,0.001,0.01653431871227015,0.013057360930420528,22.14190017842801,0.015804354160191297,0.04183439085526126
38,0.24,0.001,0.01678589327591602,0.013123634149468391,21.37843866437395,0.01525941375044536,0.07407598862690586
39,0.25,0.001,0.016723827345766752,0.013018662275346083,20.76374672506457,0.01482066147399327,0.056603520044258664
40,0.25,0.001,0.016644174981618597,0.013123177139906683,19.731671823519413,0.014083991308721922,0.04691155241536243
41,0.25,0.001,0.016658344662913653,0.013030676449709963,20.329454742859458,0.01451067433466057,0.06606167262153965
42,0.25,0.001,0.016245303222926978,0.012769513023651648,19.478328330494534,0.01390316083547076,0.03289155701973608
43,0.25,0.001,0.01653425704478939,0.013153724677025158,18.944504871546666,0.01352213052929812,0.07231142132409982
44,0.25,0.001,0.016072865149058473,0.012648865110545514,19.18809673273675,0.013696000523009814,0.04423872660845518
45,0.25,0.001,0.016081207336109377,0.012787320163692826,18.458943875036507,0.013175548804451468,0.04062228516808578
46,0.25,0.001,0.016006424936039425,0.01268122192890009,18.63443925447553,0.013300813172359408,0.02924847150487559
47,0.25,0.001,0.01593944185770282,0.012539421791367442,19.053714502637632,0.013600081729220293,0.03679332882165909
48,0.25,0.001,0.01584360884311043,0.012504549079061112,18.712092051996247,0.013356239865807458,0.03492603703801121
49,0.25,0.001,0.015628918578900468,0.012251994650915404,18.924281111387447,0.013507695297207314,0.035712272860109806
50,0.25,0.001,0.015453779913276155,0.012171681108666914,18.392882409496842,0.01312839572412337,0.015814931198422397
51,0.0,0.001,0.011643815872685932,0.011643815872685932,23.04579708063714,0.01644953396191088,0.025109400041401386
52,0.02,0.001,0.011183552348237728,0.010578886684134741,42.35683059692383,0.030233283795091954,0.01373243804222771
53,0.04,0.001,0.011663388669769341,0.010027987438593513,57.27993528419566,0.04088503589164572,0.020357311570218632
54,0.06,0.001,0.01230713463101153,0.00991410348634018,55.87727630472629,0.0398838517521244,0.028185949128653322
55,0.08,0.001,0.012482430620519357,0.01005180765848572,42.56628585530218,0.0303827879052835,0.04105515033006668
56,0.1,0.001,0.012741084567436549,0.010612116761018182,29.826838716168268,0.021289677884488413,0.043787723274103234
57,0.12,0.001,0.013131663063976251,0.010808473905531045,27.123235720340336,0.019359911292177255,0.03412685969046184
58,0.14,0.001,0.013447352658922428,0.010628404905236213,28.209611839223133,0.02013534035633343,0.025670847722462246
59,0.16,0.001,0.013684435373294019,0.010826267963536432,25.026829051080153,0.017863546788779553,0.02846361749938556
60,0.18,0.001,0.013973945560299348,0.011008365558477763,23.082096973312236,0.01647544394954478,0.03722391650080681
61,0.2,0.001,0.013962317362566975,0.010774242334833768,22.332465537240573,0.015940375115803408,0.020205233512180194
62,0.22,0.001,0.014285740068304204,0.011066403022366706,20.50132450210714,0.01463335082234628,0.018586923767413412
63,0.24,0.001,0.014554349252971534,0.011000046889497855,20.7482411928266,0.014809593999162457,0.019951660984328816
64,0.25,0.001,0.014616122800056065,0.011276779530970293,18.71368040993949,0.013357373597387215,0.02623792684503964
65,0.25,0.001,0.014496545107147403,0.01118466027394355,18.559803650757978,0.013247540079056373,0.02942737311656986
66,0.25,0.001,0.014603794247747581,0.011204027440224853,19.05229269009884,0.01359906687373222,0.038417116073625426
67,0.25,0.001,0.014291620177921847,0.01106958161760992,18.05630418296172,0.012888154306182528,0.029122859505670413
68,0.25,0.001,0.014259567736674136,0.011063260104611655,17.91210782416513,0.012785230424100735,0.019652392183031355
69,0.25,0.001,0.014153634728950875,0.010989382445255172,17.732470949119495,0.012657009956544965,0.015467148606798478
70,0.25,0.001,0.014191204090123978,0.011024497962931049,17.746221578009774,0.012666824823704336,0.012970602805061
71,0.25,0.001,0.0141438294254313,0.010953854882619648,17.8766177703287,0.012759898479892005,0.022890424888048853
72,0.25,0.001,0.014092926997865471,0.010947226346513935,17.628506901108217,0.012582802927272103,0.024524464005870477
73,0.25,0.001,0.01405084892132572,0.010996686486161757,17.11552611021238,0.012216649614712619,0.027003408276609013
74,0.25,0.001,0.01394064341471574,0.01088124596313617,17.144862807799722,0.012237589441684312,0.01910929215539779
75,0.25,0.001,0.01379709145942024,0.01069822722053695,17.366035354471652,0.012395457069572914,0.024695742077061107
76,0.0,0.001,0.010332175164927388,0.010332175164927388,21.112530128978122,0.015069614653089309,0.022075091089521135
77,0.02,0.001,0.009928709618468708,0.009397510595828574,37.21049606465848,0.0265599543644957,0.011236480636788266
78,0.04,0.001,0.010432620846152863,0.0090057969737415,49.97450873116466,0.03567059866607042,0.01271095685660839
79,0.06,0.001,0.010966698543351387,0.00894808253952276,47.134685159843656,0.03364360111337877,0.014708409218915872
80,0.08,0.001,0.011090065718184565,0.009106271821901064,34.74119557175681,0.024797427246079095,0.012750047125986643
81,0.1,0.001,0.011342367496794072,0.009494146802158,25.8935733509955,0.01848220795931156,0.011058515004281486
82,0.12,0.001,0.011516837899303325,0.00948286930395064,23.74658417033258,0.016949738879609263,0.008775802927889995
83,0.14,0.001,0.011893991694272122,0.009578172456925717,23.174734899930865,0.01654156666661732,0.019026021473109722
84,0.16,0.001,0.012144600815862138,0.009611165281559262,22.18339583138439,0.01583397275616302,0.029830862634948323
85,0.18,0.001,0.01257673276710176,0.009895533288472166,20.868668315566588,0.01489555197399471,0.035084210602300506
86,0.2,0.001,0.012748008437245805,0.009940834332988641,19.66425442918439,0.014035870399132327,0.028762336820364
87,0.22,0.001,0.012909844918089492,0.009897762021728766,19.18149165572407,0.013691285978389771,0.01985376122008477
88,0.24,0.001,0.013188522100170082,0.010064008854608113,18.239347903527946,0.01301880649787862,0.019254554861358235
89,0.25,0.001,0.013203353760328806,0.010092884293435333,17.431071343823014,0.012441878189738053,0.015184323170355387
90,0.25,0.001,0.013156287981388725,0.010097877105053898,17.139335061902198,0.012233643870022981,0.015545393473335676
91,0.25,0.001,0.01313692848328675,0.010093233652552155,17.05686742123042,0.012174780457694805,0.01699558665443744
92,0.25,0.001,0.013163079646912134,0.010187707710837093,16.673984777147524,0.011901488063631352,0.020645011349448135
93,0.25,0.001,0.013156817773374442,0.01014941535611576,16.85348389527508,0.01202961020362247,0.01757809054106474
94,0.25,0.001,0.013083917915681812,0.01006892948437517,16.895994988557334,0.012059953596400667,0.015540741250983306
95,0.25,0.001,0.01293011167234628,0.009963944798039498,16.62239901818962,0.011864667393425852,0.016231897420116832
96,0.25,0.001,0.012977537655524004,0.009996167096857713,16.707600032057716,0.011925481821597228,0.014468037323760135
97,0.25,0.001,0.013013963091457002,0.010048506946833891,16.618416759455314,0.011861824953215784,0.021706019395164082
98,0.25,0.001,0.013003461141243716,0.010060857267719563,16.490351685853764,0.011770415193328882,0.030917348872338022
99,0.25,0.001,0.012894825653007654,0.00989816645073278,16.793278061340903,0.0119866367318636,0.026472780587417737
100,0.25,0.001,0.01284222297857855,0.009937264904310213,16.279384327826097,0.011619831782888007,0.013974045270255633
101,0.25,0.001,0.012911614518020755,0.009912077485470572,16.809405353581795,0.01199814800398415,0.012165236153772898
102,0.25,0.001,0.012870251331652436,0.009899947896739033,16.645581093904013,0.011881214199788732,0.01916840619274548
103,0.25,0.001,0.01278476612033131,0.009900222941536769,16.164979738609812,0.01153817254718759,0.01565815115879689
104,0.25,0.001,0.012823359831889099,0.009907769700773408,16.338967136133498,0.011662360553985366,0.017023069517953054
105,0.25,0.001,0.012857443505079946,0.009905279483472076,16.543928057233863,0.011808656714656576,0.022679346214447702
106,0.25,0.001,0.012668301734342196,0.009745694609863735,16.378290844854906,0.011690428868561675,0.015508649538138084
107,0.25,0.001,0.01263588204736186,0.009825961725246683,15.74679299826934,0.01123968094094885,0.021957626699336937
108,0.25,0.001,0.012627566955705112,0.009768692872304226,16.02113057074146,0.011435496481614175,0.01531997456082276
109,0.25,0.001,0.012609373238459926,0.0097264149443847,16.156098642081858,0.011531833434747936,0.02112722277109112
110,0.25,0.001,0.012718025290311496,0.009884129939861944,15.881149345469252,0.01133558126014936,0.030816164133804187
111,0.25,0.001,0.012598285547274853,0.009690105096898346,16.29744308685588,0.011632721689404624,0.020967553768839155
112,0.25,0.001,0.012467131845513794,0.009605480828017833,16.036691915209047,0.011446603793867985,0.015840097729648863
113,0.25,0.001,0.012494877563946159,0.009689173861363224,15.72316339082807,0.01122281469723631,0.012230199029935258
114,0.25,0.001,0.012434602079686717,0.009476350568165289,16.578041575779423,0.011833006121184457,0.018442185196493353
115,0.25,0.001,0.012525090817187992,0.009759062196119366,15.500825436315804,0.01106411522934747,0.014307150085057532
116,0.25,0.001,0.012450017174270666,0.009652673893512409,15.676311867259374,0.011189373210035242,0.016529570799320936
117,0.25,0.001,0.012467308474756847,0.009621118943894579,15.950045826279114,0.01138475790598081,0.019584394725305692
118,0.25,0.001,0.012408282677425402,0.009567348373549008,15.920595382975641,0.011363736890061128,0.014549657303307737
119,0.25,0.001,0.01244355150646417,0.009660333621306954,15.597152371272863,0.01113287107157235,0.02909689024090767
120,0.25,0.001,0.01242645266770481,0.009596430243941668,15.859445340165468,0.011320089464786201,0.018935900846762315
121,0.25,0.001,0.012449372559785843,0.009610607837126634,15.908438495386427,0.011355059596992453,0.015700812052403177
122,0.25,0.001,0.012329684483392216,0.009510381364864167,15.799375462754865,0.011277213035513822,0.01698078720697335
123,0.25,0.001,0.012337848848759015,0.00951397073429043,15.825013419178045,0.011295512790276978,0.015226348170212336
124,0.25,0.001,0.012265430963554673,0.009469144176865849,15.67039090450679,0.011185146969669373,0.00973870571968811
125,0.25,0.001,0.012303319794482718,0.009558527138536778,15.381818263330192,0.010979170780392714,0.010215722423579012
126,0.25,0.001,0.012263469537284888,0.009411990912370036,15.97968671923486,0.011405914860267565,0.015897448241178478
127,0.25,0.001,0.012248968957949465,0.009436087090974656,15.763390238039962,0.011251527650278346,0.01881955603935889
128,0.25,0.001,0.012312137678474467,0.009523649177749022,15.626689919801516,0.011153954261100297,0.014099345276398318
129,0.25,0.001,0.012196664289336339,0.009369229027461783,15.844947921895535,0.011309741557384394,0.024530117000852312
130,0.25,0.001,0.012258043599741482,0.009468159542601799,15.63451079787495,0.011159536615185546,0.0170961521299822
131,0.25,0.001,0.012291697402284524,0.009524999691225658,15.504573946801301,0.01106679082569686,0.020219187385269573
132,0.25,0.001,0.012118059341038498,0.009370305932292315,15.398410636687947,0.010991014016194109,0.013244869653135538
133,0.25,0.001,0.012114337262497327,0.009351892701445897,15.480739326120537,0.01104977824848004,0.014217362473053592
134,0.25,0.001,0.01201115823655485,0.009337876392441375,14.98107234562669,0.010693128012581505,0.016618918760546615
135,0.25,0.001,0.012153406879890746,0.009312611073255539,15.919820375531634,0.011363183708445135,0.022919481886284693
136,0.25,0.001,0.012125002289904612,0.009383776930169525,15.36182685210326,0.010964901393364212,0.015840400409485613
137,0.25,0.001,0.011983975376411576,0.009231577287906799,15.424439207415714,0.011009592582024065,0.01306062564253807
138,0.25,0.001,0.012095661677211244,0.009375451115247246,15.24405909030237,0.010880841606211542,0.011051778415484088
139,0.25,0.001,0.012072698918179931,0.009303048488066018,15.521122094626739,0.011078602494380255,0.017493242797042643
140,0.25,0.001,0.01202789076960811,0.00928716430283874,15.359030090759848,0.010962905132590899,0.015354564280382224
141,0.25,0.001,0.012024601460129859,0.009198357124821605,15.838272379937573,0.011304976716586418,0.012774817911641938
142,0.25,0.001,0.012008370213628373,0.009267123189763488,15.361947710268966,0.010964987659007113,0.018293079254882678
143,0.25,0.001,0.012062320067921531,0.009333038197778096,15.294896491220065,0.010917128116502545,0.01811863315690841
144,0.25,0.001,0.011975362801175808,0.009192129605771782,15.597239556713639,0.011132933302436573,0.01577940716275147
145,0.25,0.001,0.012006028337734882,0.009281666836240024,15.267321952035495,0.010897446075685577,0.01343461252482874
146,0.25,0.001,0.011903962111709831,0.009207686026380441,15.109932061667754,0.010785104969070489,0.014932055425431048
147,0.25,0.001,0.012088910049854596,0.00931451200707772,15.547726720292992,0.011097592234327618,0.01802473914410387
148,0.25,0.001,0.012017989487639654,0.009259051329969802,15.461089089652088,0.011035752383763088,0.02902007369058473
149,0.25,0.001,0.011983243626690357,0.009296887188662435,15.054341316223145,0.01074542563613358,0.018125915101596286
150,0.25,0.001,0.01198108391575167,0.009213907591928945,15.507256668304729,0.011068705687583676,0.019712006141032492
151,0.25,0.001,0.012029475541176083,0.009216038692986296,15.766500045205945,0.011253747355607384,0.012767040436821324
152,0.25,0.001,0.01202228117873457,0.00922980727888992,15.649023920576148,0.011169895732031513,0.01602328828136836
153,0.25,0.001,0.01197307527274172,0.009211051739125608,15.478379436742479,0.011048093816375788,0.012836920629654611
154,0.25,0.001,0.011809396714180987,0.009061095800912269,15.401477466119784,0.01099320304505338,0.011731815990060568
155,0.25,0.001,0.011876369382594234,0.009121784104782845,15.436696507106317,0.011018341546828207,0.013476849533617496
156,0.25,0.001,0.011930650526605477,0.009187652981866187,15.37175836295725,0.010971990266207887,0.017022641774799143
157,0.25,0.001,0.011912100878761751,0.009150720958676294,15.474773103945724,0.011045519703030495,0.017437757591583898
158,0.25,0.001,0.011944287308604917,0.009178194800548465,15.501182796799133,0.011064370304638924,0.023274656917367662
159,0.25,0.001,0.011862080996838685,0.009165500116612867,15.111639459556509,0.010786323668491441,0.022600562178662846
160,0.25,0.001,0.01186469857032611,0.00914345814837752,15.249831030301959,0.01088496147773159,0.0155015329032072
161,0.25,0.001,0.011961921422838051,0.009202696400407318,15.462696761728447,0.011036899901305101,0.019372938200831413
162,0.25,0.001,0.011871284944501436,0.0091310102301084,15.356499627371814,0.010961098948873529,0.014271245870207037
163,0.25,0.001,0.01185153815547161,0.009092715264202278,15.46044340757566,0.011035291511474418,0.016675176365034922
164,0.25,0.001,0.011846615628243606,0.009126399487048109,15.24409101610986,0.010880864394082698,0.020755577300276076
165,0.25,0.001,0.01187268094481709,0.009132944343385295,15.353484545912698,0.010958946856468735,0.013468755675213677
166,0.25,0.001,0.011761785893936023,0.009029572011432915,15.311326668641277,0.010928855580757514,0.016108369122126272
167,0.25,0.001,0.011787464119772488,0.009099949342764426,15.060834403349974,0.010750060245074928,0.017646692294095243
168,0.25,0.001,0.011869402376012268,0.009135380134891683,15.321460536707228,0.010936088891297093,0.015865196606942585
169,0.25,0.001,0.011773744101905934,0.00903631776362379,15.340536812755548,0.010949705076913311,0.016534142861408845
170,0.25,0.001,0.011872887341566732,0.009159636875248957,15.205055762674206,0.010853001971930197,0.014687549322843552
171,0.25,0.001,0.011858289695788766,0.009133559207771426,15.269390230980989,0.01089892236329835,0.015379506828529494
172,0.25,0.001,0.01172579429765171,0.00894835801951796,15.564753487845447,0.011109745530225158,0.015961523167788982
173,0.25,0.001,0.01185737407513868,0.009163079731096731,15.098825846877054,0.010777177620897254,0.016056000654186522
174,0.25,0.001,0.01180716423822619,0.009021628447851844,15.610142645434799,0.011142143215870664,0.0207948479136186
175,0.25,0.001,0.011734842200911491,0.008995412143869935,15.351766470436738,0.01095772053564364,0.014899908831076962
176,0.25,0.001,0.011714151546916116,0.009037327108399891,15.000924386710764,0.010707297920564428,0.009685251263103314
177,0.25,0.001,0.011815531623210305,0.00909214719224756,15.261846729528123,0.010893537993952979,0.013752611819654703
178,0.25,0.001,0.011831057197022661,0.009052438426449478,15.571378939619688,0.01111447461785845,0.02248742657580546
179,0.25,0.001,0.011733915874403771,0.009081755677742935,14.862706861763357,0.010608641585841082,0.013470672070980072
180,0.25,0.001,0.01170962499715736,0.008949475876429927,15.467876131289474,0.011040596810342237,0.017048448723341738
181,0.25,0.001,0.011584084446185102,0.008892729956761141,15.082351773698754,0.01076541882490989,0.012594384274312429
182,0.25,0.001,0.011677440865156806,0.009047489447919565,14.73824720293562,0.010519805284036845,0.014628275763243437
183,0.25,0.001,0.011678201346614651,0.008944299507224671,15.320786814823329,0.010935608004870328,0.021827276796102524
184,0.25,0.001,0.011689040017810381,0.009001568238311839,15.060591314440575,0.010749886734076071,0.015759732108563185
185,0.25,0.001,0.01164576923039472,0.008926912506815985,15.236472780459396,0.01087542668127009,0.01502142906455057
186,0.25,0.001,0.011615371418612026,0.008943323663949409,14.97415638861255,0.010688191569316595,0.014768303771104132
187,0.25,0.001,0.011581833013028743,0.008872909053603065,15.1808105183539,0.010835696301466025,0.013793262719575847
188,0.25,0.001,0.011636240373008718,0.008987584516893481,14.843066839414222,0.010594623011716075,0.013634381682745047
189,0.25,0.001,0.011615587885831004,0.008830819426922598,15.605841966432946,0.011139073494955708,0.011865076875048024
190,0.25,0.001,0.011620910124522503,0.00887958278931747,15.362398994303195,0.010965309774663238,0.009033785999885626
191,0.25,0.001,0.011695742206735032,0.008962865327006188,15.315040846851385,0.01093150667155702,0.014333953814847129
192,0.25,0.001,0.011708063082160236,0.008964554641709149,15.374622558878961,0.01097403466015629,0.013883694939847504
193,0.25,0.001,0.011728456000162063,0.009021611501262567,15.1691569390698,0.010827378257722913,0.019891819783619473
194,0.25,0.001,0.011780124914910749,0.009001212081410618,15.573028350544867,0.011115651927583774,0.025483744218945503
195,0.25,0.001,0.011739444605588355,0.008983892362529987,15.442115721301498,0.0110222096511788,0.021760793003652776
196,0.25,0.001,0.011731460768833895,0.008986446606082337,15.383060348368137,0.010980057350726722,0.02201994601637125
197,0.25,0.001,0.011687902794611231,0.009001485394122445,15.054683453568789,0.010745669845516623,0.01756296306848526
198,0.25,0.001,0.011633397184451607,0.00892635756476878,15.170249172460252,0.010828157867566204,0.019796688242682388
199,0.25,0.001,0.01169879323689737,0.008986491849210776,15.199737263617115,0.010849205755615357,0.026073959789105823
200,0.25,0.001,0.01157654527679225,0.008885513503696317,15.080541352245294,0.010764126589753958,0.020916907648955072
201,0.25,0.001,0.011596197932610445,0.008921750673206053,14.987602091281213,0.010697788787495513,0.01567029194640262
202,0.25,0.001,0.011502033604361186,0.008825903967301423,14.997030953380548,0.01070451888178483,0.01795817100043808
203,0.25,0.001,0.011628115845617846,0.008942088808551013,15.052495207741996,0.010744107928438256,0.01253917081547635
204,0.25,0.001,0.011590009537812706,0.008820771474704564,15.518810441560834,0.011076952492191887,0.011729896600757326
205,0.25,0.001,0.011565323362005091,0.008893910821562058,14.970595769793073,0.010685650085505406,0.015465519257954188
206,0.25,0.001,0.011735038675158937,0.009051075562068793,15.04092950018767,0.010735852605415895,0.02132283164454358
207,0.25,0.001,0.011616568794804756,0.008778695974533802,15.903439174188632,0.011351491202133213,0.01972248697919505
208,0.25,0.001,0.011474320795561108,0.008866070943806216,14.61663320131391,0.010433000143693012,0.02021036483347416
209,0.25,0.001,0.011644762018086197,0.008993396317917053,14.85825291749473,0.010605462467876324,0.023910733605069772
210,0.25,0.001,0.011636781706431202,0.008884264399932923,15.425106155538113,0.011010068633503293,0.021109657096011297
211,0.25,0.001,0.011521572638825278,0.008841068092211385,15.02154777205993,0.010722018395474611,0.016534197809440748
212,0.25,0.001,0.01148437410070796,0.008834898959253436,14.847658861463316,0.01059790068626932,0.013967279211751052
213,0.25,0.001,0.011534003349386644,0.008843862294941862,15.075551576703509,0.010760565008353682,0.01705187346254076
214,0.25,0.001,0.011503369329827968,0.008796208111621509,15.17093228848181,0.01082864545930179,0.013820999435016088
215,0.25,0.001,0.01151698806854052,0.008880016515814812,14.777587694542431,0.010547885577831857,0.012677278369665146
216,0.25,0.001,0.011529315228217115,0.008759253240564716,15.523428533678857,0.011080248774931375,0.018809177912771702
217,0.25,0.001,0.011515945413750466,0.008916510094966844,14.567235946655273,0.010397741575057297,0.01598567409174783
218,0.25,0.001,0.01150017645140396,0.008778393233769407,15.252873893096067,0.010887133399783061,0.012910537820841585
219,0.25,0.001,0.011541518652550528,0.008818434908220145,15.260161702878007,0.010892335262582447,0.014012384228408337
220,0.25,0.001,0.011481378105617016,0.008749412094181943,15.309938323832004,0.01092786461372734,0.013941990743790354
221,0.25,0.001,0.011496309678409701,0.008860427355306727,14.771485230633031,0.01054352978631908,0.017241444837834154
222,0.25,0.001,0.011523866834484529,0.008793756478927403,15.299539361044625,0.010920442084971182,0.01597662642598152
223,0.25,0.001,0.011442654896701607,0.008810622312964122,14.749910737866553,0.01052813043388048,0.01662264850788883
224,0.25,0.001,0.01151849010907044,0.008835848786424254,15.033521429400578,0.010730564903212404,0.014776410601500953
225,0.25,0.001,0.01148671793499004,0.008768185503154157,15.234656013060953,0.010874129916531729,0.012502676142113549
226,0.25,0.001,0.011359009064873245,0.008709521180836954,14.847730119651724,0.010597951548645056,0.012081776546048266
227,0.25,0.001,0.011389655992388725,0.008755880825778592,14.759676291563801,0.010535100850509495,0.015320126366402422
228,0.25,0.001,0.01146351570420176,0.008779081489855999,15.043568031810155,0.010737735925631802,0.014111343771219254
229,0.25,0.001,0.011388979251627053,0.008689849654856686,15.125923379559383,0.010796519185981002,0.011910002412540572
230,0.25,0.001,0.011437134016479287,0.008757865134731074,15.014623561752177,0.010717076061207835,0.01323799682515008
231,0.25,0.001,0.011304025564377552,0.008674045963752493,14.73840583373453,0.01051991851087404,0.013420817309192248
232,0.25,0.001,0.011413047246843855,0.008776486607564388,14.77528634472428,0.010546242929853162,0.012120883512709821
233,0.25,0.001,0.011397782147418116,0.008644648418526784,15.42856120171948,0.011012534762112405,0.008956634106912784
234,0.25,0.001,0.01140787778857434,0.008762878000248815,14.822578964946427,0.01057999926120373,0.013173412465091263
235,0.25,0.001,0.011362630621504003,0.008721682095082006,14.799875295050791,0.010563793929372442,0.014363881732736315
236,0.25,0.001,0.011359767657574092,0.008715653600536775,14.817615981413939,0.010576456803293319,0.016156530672950403
237,0.25,0.001,0.011371798099619206,0.008687377976967352,15.043490605933643,0.010737680660909096,0.012372249471289771
238,0.25,0.001,0.011418646862991502,0.008813674126481898,14.598266770906537,0.010419890628769834,0.021805627537625178
239,0.25,0.001,0.011429501035920928,0.008714189474409986,15.216606541214702,0.010861246638982656,0.017871455289423466
240,0.25,0.001,0.01148552291756757,0.008801185465026125,15.04302712021587,0.010737349835985632,0.013546850997954607
241,0.25,0.001,0.011464196631563044,0.00873295447536718,15.305881268510195,0.010924968785517627,0.014875578960137708
242,0.25,0.001,0.011468282657040058,0.008859071462789428,14.622019446898843,0.010436844715844999,0.016701944305428436
243,0.25,0.001,0.011445332388175982,0.008702801096592551,15.369145250766076,0.01097012508976879,0.01713909474866731
244,0.25,0.001,0.011457894171509787,0.008764106258053645,15.09598697234537,0.01077515130074616,0.011949295444147927
245,0.25,0.001,0.01142612173631091,0.008682509187922299,15.375206457120235,0.010974451432634001,0.012353776887591397
246,0.25,0.001,0.011419625909320105,0.008731053828775325,15.066757852786056,0.010754288260375486,0.012914529735488551
247,0.25,0.001,0.01128610050323132,0.008629404635072868,14.888124412465318,0.010626784020317857,0.010753359446035964
248,0.25,0.001,0.011369995703206999,0.008757042202437035,14.642991315538637,0.010451813929720655,0.010532271516110216
249,0.25,0.001,0.011367026716470718,0.008626119764608758,15.360043276136167,0.010963628319868786,0.009529211159263338
250,0.25,0.001,0.01132138499067487,0.008680392108927263,14.800123562322598,0.010563971136561455,0.009319690056145191
251,0.25,0.001,0.011306605484580325,0.0086091252949054,15.116680038309543,0.010789921511998247,0.010284687059798412
252,0.25,0.001,0.011380521467425556,0.008706195889232314,14.986922861259675,0.010697303969492988,0.013115261415285724
253,0.25,0.001,0.011337958267567871,0.00864433217793703,15.095081124350289,0.01077450472830142,0.01786556454109294
254,0.25,0.001,0.011290460616071647,0.008662562939190419,14.72673913474395,0.010511591102600963,0.013970520081264632
255,0.25,0.001,0.011354582941281461,0.008674099971757871,15.021425790875872,0.010721931328248302,0.013751436557088579
256,0.25,0.001,0.01135202685249186,0.00873782565799829,14.649982666300836,0.010456804187224009,0.01717922996197428
257,0.25,0.001,0.011340026708894243,0.008682617143005411,14.892123944291445,0.010629638789644144,0.01990594036344971
258,0.25,0.001,0.011292898801164093,0.008604181869495138,15.067569857445832,0.010754867849711514,0.013814523150878293
259,0.25,0.001,0.011284209039305972,0.008645268357315354,14.788623729598857,0.010555762833403896,0.013120848552456923
260,0.25,0.001,0.011374483093897873,0.008690288856138135,15.042224848381826,0.0107367771937058,0.013809738281582083
261,0.25,0.001,0.011377204966809705,0.008694364628362879,15.03463739769481,0.010731361454457395,0.011681540869176388
262,0.25,0.001,0.011360909180524193,0.00861950710450656,15.362816926474883,0.010965608084564513,0.01308146451732942
263,0.25,0.001,0.01127113711750396,0.008612636520274889,14.898238431627504,0.010634003163188797,0.013753377034195833
264,0.25,0.001,0.011359084179955665,0.008764468786245752,14.540224672477937,0.010378461579213374,0.01198100345209241
265,0.25,0.001,0.011370689573340883,0.008632190307933036,15.346550941467285,0.010953997816893137,0.01629094187436359
266,0.25,0.001,0.011303933581041398,0.008642484547100334,14.91476063416383,0.01064579631275077,0.018177970977766172
267,0.25,0.001,0.011354451912028767,0.008711203810906856,14.812762572386555,0.010572992557021096,0.01740283878254039
268,0.25,0.001,0.011301659413169478,0.008665901147455813,14.770790527914173,0.010543033924278496,0.0173024001664349
269,0.25,0.001,0.01138784714635009,0.00868381836634373,15.153376989275495,0.010816114910260882,0.013058578528996025
270,0.25,0.001,0.011255751790426602,0.008570858164229126,15.046144155698402,0.010739574700712635,0.015892718120345047
271,0.25,0.001,0.011293141536902045,0.008653300718587135,14.79366915693907,0.010559364137715252,0.0155684953954603
272,0.25,0.001,0.011388892238245947,0.00870612712803288,15.034215365614847,0.010731060218140505,0.019859042151698043
273,0.25,0.001,0.01133823328625376,0.008654886508517177,15.03747407966685,0.010733386209612313,0.0174178865605167
274,0.25,0.001,0.011234365473283785,0.00853806672287043,15.110058419058255,0.010785195159927378,0.015191479186926569
275,0.25,0.001,0.011293478336220032,0.008684302802049668,14.621819469416254,0.010436701976742508,0.015714249573647976
276,0.25,0.001,0.011291445293855444,0.008570137337964271,15.250210343120255,0.010885232222070131,0.012040294041591031
277,0.25,0.001,0.011279473194382458,0.008615094411108538,14.931178208823516,0.010657514781458613,0.0161032716610602
278,0.25,0.001,0.011352531463952265,0.008691346063931411,14.913283998721115,0.010644742325996513,0.01513172872364521
279,0.25,0.001,0.011361253195416147,0.008610098431252431,15.417471359823352,0.01100461910051631,0.018904381564685276
280,0.25,0.001,0.011230312653373336,0.00856437995838367,14.939887964836904,0.010663731595172666,0.011139769838856799
281,0.25,0.001,0.01127401666245728,0.008554420294675314,15.240618456189878,0.010878385764589492,0.010241946072450705
282,0.25,0.001,0.011344057377253738,0.008667219186497627,15.001002008669845,0.010707353325246142,0.011961098361228193
283,0.25,0.001,0.011281184956570652,0.00861900587017848,14.918851852416992,0.010648716525636683,0.019359703175723553
284,0.25,0.001,0.011365009906971566,0.008680063543545308,15.04643949169979,0.01073978550442526,0.019335548792566572
285,0.25,0.001,0.011319736532309901,0.008589380129162117,15.30091835628046,0.0109214263785014,0.017492948632155145
286,0.25,0.001,0.011207813910582912,0.008580132988150989,14.725523226729063,0.010510723216794478,0.013350121011691434
287,0.25,0.001,0.011230639773899707,0.008550825132770794,15.017681736812413,0.010719258912785449,0.013837693259119987
288,0.25,0.001,0.01121481141580321,0.008550215186116017,14.932396781778781,0.010658384569435247,0.011705235711165838
289,0.25,0.001,0.011233665397234052,0.008591101287263576,14.808929728570385,0.010570256765574864,0.010936655636344637
290,0.25,0.001,0.011268810003508474,0.008621400448484955,14.836082173285083,0.010589637525542529,0.014945062209985085
291,0.25,0.001,0.011270647511652139,0.008549570010226463,15.248918649192168,0.010884310242107186,0.011058666743338108
292,0.25,0.001,0.011192365201346786,0.008565107395298014,14.72315211608031,0.010509030775217924,0.015611335502139159
293,0.25,0.001,0.011193473945223839,0.008549555213512661,14.816520851349162,0.010575675125873778,0.015964273496397903
294,0.25,0.001,0.011191770608458563,0.00850927897633236,15.032683131850769,0.010729966546645802,0.01106578204780817
295,0.25,0.001,0.011205316303628627,0.008538011339641063,14.947577307157427,0.010669220062210868,0.011842875009668725
296,0.25,0.001,0.011215739900890354,0.008560677589935678,14.878970351174614,0.010620250072215998,0.0127016795533044
297,0.25,0.001,0.011170493665142594,0.00850403940775127,14.942808356240532,0.010665816100100308,0.008833591693214007
298,0.25,0.001,0.0112157084448176,0.008617093534182722,14.562638202560283,0.010394459816245741,0.01794509736022779
299,0.25,0.001,0.011220274319019273,0.008597314967034019,14.699065333214875,0.010491838210717256,0.012256582666720663
300,0.25,0.001,0.011165072575698947,0.00849932471777652,14.93885240822195,0.01066299243984436,0.012339620185749871
301,0.25,0.001,0.011186991670282087,0.008521828147643637,14.935575734789126,0.010660653629399804,0.010290931311569043
302,0.25,0.001,0.011207648727033183,0.008572474209086918,14.76751800786669,0.010540698078420192,0.013860862569085189
303,0.25,0.001,0.011220856578411343,0.008508919651193596,15.197695482557066,0.010847748381553937,0.014001615345478058
304,0.25,0.001,0.011166181606806326,0.008526803037830603,14.791077801000291,0.010557514490364234,0.015682074773524488
305,0.25,0.001,0.011199084972249014,0.008631932984376065,14.386320230002715,0.010268608301215357,0.014067236600177628
306,0.25,0.001,0.011157520402605845,0.008468077335262968,15.071639025322744,0.010757772323570837,0.015554193806435381
307,0.25,0.001,0.01123572438607149,0.008630235531480512,14.6011600137871,0.010421955755736689,0.013296135302100862
308,0.25,0.001,0.011232507528267174,0.008553982407690208,15.010454730452778,0.010714100450001983,0.015832624664264067
309,0.25,0.001,0.0112154558126893,0.008544928698896248,14.965634907517478,0.010682109141696986,0.015352135790245873
310,0.25,0.001,0.011227285237025434,0.008594127841920497,14.756213526859462,0.010532629212604897,0.019402554657842432
311,0.25,0.001,0.011178062985015808,0.00854320041661229,14.765769388074073,0.010539449955798768,0.012165931319551808
312,0.25,0.001,0.011214120487604185,0.0085149818648384,15.125974013426594,0.010796555327213844,0.016065116439546858
313,0.25,0.001,0.011205094709783514,0.00857916846871376,14.715690630618656,0.010503704946908391,0.016507994117481366
314,0.25,0.001,0.011137898106162792,0.008511862125700322,14.716305474254572,0.01050414380746222,0.01991728294108595
315,0.25,0.001,0.011177460419310031,0.008605989174934749,14.410525027836595,0.010285885101953315,0.017783112358301878
316,0.25,0.001,0.011201872899432048,0.00852890305708502,14.979322923678104,0.010691879317400503,0.01100818280662809
317,0.25,0.001,0.01108466757235126,0.008463891754013913,14.686827401134455,0.010483103070046006,0.011854745580681733
318,0.25,0.001,0.011190801876309876,0.008585896595407313,14.597889445652472,0.01041962130310669,0.01350427232682705
319,0.25,0.001,0.011160176464957055,0.008478781756744764,15.026536620665933,0.010725579315250488,0.015082645496087415
320,0.25,0.001,0.01110462851334955,0.008499268655639106,14.600436798880033,0.010421439542384035,0.013009691877024514
321,0.25,0.001,0.011212922798069281,0.008561278615042429,14.859814109089218,0.010606576808771747,0.011852006294897624
322,0.25,0.001,0.011150500484716112,0.00840779008326408,15.370148774619414,0.010970841380884664,0.013198616515312876
323,0.25,0.001,0.011181009463339208,0.008499113703581774,15.029344736972702,0.010727583680922699,0.014090681315532752
324,0.25,0.001,0.011185198517464032,0.008564932393693478,14.683971431767828,0.010481064548014153,0.018067928895886456
325,0.25,0.001,0.011122266170090047,0.008414563357342626,15.17396621169331,0.010830811000494867,0.016547994688153267
326,0.25,0.001,0.01112785102433969,0.008505767898930011,14.694154409604652,0.010488332911923377,0.015563801330115114
327,0.25,0.001,0.011219283496247274,0.008598104075781095,14.689090015732239,0.010484718069758914,0.018204621837607453
328,0.25,0.001,0.011232306371295006,0.008488081108395742,15.378639417273975,0.010976901796769432,0.017056910720254694
329,0.25,0.001,0.011286771377531167,0.008592209874469544,15.100323160118032,0.010778246366965049,0.018906909440244948
330,0.25,0.001,0.011212137344980909,0.008536071916955096,14.99667121316785,0.010704262107899964,0.01870646939745971
331,0.25,0.001,0.011192142371540871,0.008456247484433316,15.331954858013402,0.010943579484663384,0.01959964952298573
332,0.25,0.001,0.01110074990298425,0.008531604876097675,14.397488228628568,0.010276579749199549,0.010571112057992391
333,0.25,0.001,0.011173668465463915,0.00855356668096001,14.683049210878176,0.010480406288992274,0.014633049789283956
334,0.25,0.001,0.011151501473700889,0.008486152844172772,14.936614464376575,0.010661395049519325,0.01395436589206968
335,0.25,0.001,0.011106449196759228,0.008457418069870116,14.84517039539658,0.010596124479226681,0.011311792502445834
336,0.25,0.001,0.011107293157794766,0.008462085815094342,14.823741957406018,0.010580829377163467,0.013964093689407622
337,0.25,0.001,0.01107052832876689,0.008410333612254847,14.907731279034481,0.010640778928647024,0.010912806261330843
338,0.25,0.001,0.01115067469426126,0.0085177492158853,14.754913918325833,0.01053170158338746,0.013091712790940489
339,0.25,0.001,0.011143105452723592,0.00846170117451905,15.02659043641848,0.010725617727636317,0.010903606191277504
340,0.25,0.001,0.011179204194623734,0.008525833844372603,14.86948701377227,0.010613481094769643,0.015729439444839954
341,0.25,0.001,0.011096679979813433,0.00849750943516738,14.565751833336376,0.010396682250775429,0.017227213829755783
342,0.25,0.001,0.01106852286051367,0.00844993847030624,14.674547008264845,0.010474337621887826,0.01079839960272823
343,0.25,0.001,0.01107330804812574,0.008428364744079169,14.822263280922007,0.010579773933563174,0.011702709166066987
344,0.25,0.001,0.011100164867032355,0.008410321740068007,15.073880988860799,0.01075937258305553,0.01012100838124752
345,0.25,0.001,0.011133592384301614,0.008484386534334342,14.846148963286497,0.010596822957377943,0.013032348427389349
346,0.25,0.001,0.011110852289701177,0.008492940888853273,14.670775992848048,0.010471645962061418,0.017748256347009113
347,0.25,0.001,0.011172540677345801,0.008504853366273586,14.949719660750059,0.010670749222519671,0.016115291842392514
348,0.25,0.001,0.011057124882240161,0.008383427703074205,14.983399373348629,0.010694788988828429,0.013787554710039071
349,0.25,0.001,0.011080050545039579,0.008423620334469547,14.886635504036306,0.010625721273402075,0.016611660298492228
350,0.25,0.001,0.011086276923872042,0.008421597044880146,14.93286707690943,0.01065872025475334,0.011460730074239629
351,0.25,0.001,0.011029403917839594,0.008397662324534955,14.748280338037794,0.010526966693817127,0.011844985586191927
352,0.25,0.001,0.011043613593781663,0.00847189082267964,14.411935200201016,0.01028689164896575,0.01711009070277214
353,0.25,0.001,0.011096091749512147,0.00844855516034866,14.836795477109535,0.010590146664603521,0.01786022200914366
354,0.25,0.001,0.011144836998988534,0.008493379211035844,14.8587692385522,0.010605831005390578,0.015568518878093787
355,0.25,0.001,0.011106237159850442,0.008445394860806867,14.9113606960974,0.010643369518984582,0.013026430803750242
356,0.25,0.001,0.011092814146845697,0.008430730595000994,14.918316743084203,0.010648334577504784,0.011772914656570979
357,0.25,0.001,0.011131520409171826,0.008492906186207433,14.786794395090263,0.010554457098565498,0.013785929951284612
358,0.25,0.001,0.011084811344185722,0.008401328854471724,15.038235102858499,0.010733929409606352,0.015041542904717582
359,0.25,0.001,0.011155063921811982,0.008436932715926772,15.232406544908185,0.010872524300434108,0.011516909248062543
360,0.25,0.001,0.011127433548115682,0.008500403994433234,14.721873363601826,0.010508118032549484,0.010486254135945014
361,0.25,0.001,0.011125082063062168,0.008427697390526812,15.116145419183178,0.010789539913763867,0.012810434880001205
362,0.25,0.001,0.011086169316946903,0.008452764181333167,14.757602246008187,0.01053362044682954,0.01267567795834371
363,0.25,0.001,0.011010262575522761,0.00844402842780697,14.381175469015247,0.010264936094943075,0.014753039327583142
364,0.25,0.001,0.011058555062964697,0.00835982031215017,15.12370917061779,0.010794938737057665,0.01297010641012873
365,0.25,0.001,0.011094414637746098,0.00849565900165901,14.563426721875913,0.010395022642309716,0.011925360320934228
366,0.25,0.001,0.011049940590267983,0.008352373857225212,15.117164888114573,0.010790267586091772,0.01667444540985993
367,0.25,0.001,0.011058455742199286,0.008443689600468795,14.653148802641397,0.010459064098958885,0.018516684350158488
368,0.25,0.001,0.011164958440811834,0.008485475259128019,15.015823836638548,0.010717932788464345,0.018271803323711668
369,0.25,0.001,0.011132072648642776,0.008495133213489969,14.77740851963792,0.010547757687107723,0.02094991145921605
370,0.25,0.001,0.011192921392410715,0.008580784535331426,14.638415202916226,0.010448547610932352,0.023626454041472504
371,0.25,0.001,0.011118944333953279,0.00846178285237924,14.890731758046373,0.010628645080689773,0.017602460458874702
372,0.25,0.001,0.01101878593527825,0.008347997102433833,14.967100776244546,0.01068315544342937,0.010375987738370895
373,0.25,0.001,0.011033677600463417,0.008410377636830384,14.70097338596237,0.010493200132735454,0.012194138552461351
374,0.25,0.001,0.011023841476259387,0.008413570506550441,14.627958814674448,0.010441084093272268,0.016163170670292208
375,0.25,0.001,0.010959240146607997,0.008318233704107387,14.800199927570663,0.010564025644233165,0.014238545138921057
376,0.25,0.001,0.011040336931141738,0.00843246604933917,14.614508958620446,0.010431483910507099,0.01406913942524365
377,0.25,0.001,0.010982848268663772,0.00838191338997578,14.575639323653462,0.010403739702821886,0.014394796985600675
378,0.25,0.001,0.010996481429820305,0.008428549885784632,14.390687505775523,0.010271725557298732,0.02112799004784652
379,0.25,0.001,0.011065540931004788,0.00845291757973555,14.641141463662976,0.010450493550080639,0.01907544835869755
380,0.25,0.001,0.010999639979868291,0.00833863875541453,14.912250634665801,0.010644004735664384,0.012444783401276385
381,0.25,0.001,0.010988258547802394,0.008367060587924217,14.689193868191444,0.01048479219713879,0.0111191953931536
382,0.25,0.001,0.010902423246232706,0.008336388279692592,14.380060507872395,0.01026414026257844,0.011387003319604056
383,0.25,0.001,0.011032074063180764,0.00839777803483689,14.762595221260998,0.010537184312106351,0.012436577251979284
384,0.25,0.001,0.011019677768034912,0.008376075529328016,14.814746776473857,0.01057440883402845,0.011990318873098918
385,0.25,0.001,0.010933407356039943,0.008311904666544957,14.690900713483863,0.010486010502129809,0.011463579056518418
386,0.25,0.001,0.011060837194950225,0.008450968600113257,14.625703909686793,0.010439474596493071,0.012571966275572777
387,0.25,0.001,0.010980761879793952,0.008321904707874092,14.900236334756157,0.010635429218241368,0.010079535522631236
388,0.25,0.001,0.011013715101458202,0.00840568280491595,14.61541236449625,0.010432128739826017,0.011136937154723065
389,0.25,0.001,0.010969785651383556,0.008306145755069279,14.927039030556367,0.010654560335871782,0.01293260564229318
390,0.25,0.001,0.010940972019300282,0.008338324673404203,14.585236683070102,0.010410590066431193,0.014438733059380735
391,0.25,0.001,0.010968817728702153,0.008391056497032954,14.445773543598495,0.010311044642111702,0.01122000174862998
392,0.25,0.001,0.010984848001014406,0.008320147850524599,14.932980136336568,0.010658800953844801,0.010251585926328386
393,0.25,0.001,0.011015180541881334,0.008361961396637365,14.86864010641508,0.01061287659273025,0.014396652446261473
394,0.25,0.001,0.010988747875127837,0.008407048289185372,14.467844891770978,0.010326798637952161,0.015117426802005087
395,0.25,0.001,0.011034260878217555,0.008360300604776244,14.984873629061974,0.010695841276989275,0.014559935512287276
396,0.25,0.001,0.010954097896883978,0.008312419840247831,14.803964383134218,0.010566712621794589,0.013310316417898451
397,0.25,0.001,0.010949735886582705,0.008346083556589123,14.590867158408477,0.010414608963888992,0.011534778334732567
398,0.25,0.001,0.01103790939097928,0.008339270601205737,15.123172653055637,0.010794555783765623,0.015075362154415675
399,0.25,0.001,0.011021355184439186,0.008352988364749422,14.95352864488263,0.010673467983499378,0.014865128589527947
400,0.25,0.001,0.010951468860295332,0.008377395718245306,14.425105620767468,0.010296292377421462,0.01314934462841068
401,0.25,0.001,0.01102272707481529,0.008398662504052447,14.705257807936624,0.010496258249776319,0.012476186268031597
402,0.25,0.001,0.010987444946142,0.008383334588224644,14.593434021851726,0.010416441129087598,0.011742945893534593
403,0.25,0.001,0.011017776834212732,0.008312427569354805,15.160777751530443,0.010821397395810452,0.012963524221309594
404,0.25,0.001,0.011006680439078362,0.008452725466166702,14.312364043476425,0.010215820159512081,0.02139133494347334
405,0.25,0.001,0.01105947715935306,0.008376856203948227,15.033408058023898,0.010730483981458885,0.014935539503182684
406,0.25,0.001,0.011024562885688843,0.008402385479100397,14.694682495616307,0.010488709846978092,0.014629835528986794
407,0.25,0.001,0.010968230525466882,0.008376696059985138,14.522958800057385,0.010366137616029539,0.012948127862598215
408,0.25,0.001,0.011170882183327296,0.00855122502266525,14.68056002287107,0.010478629566646018,0.0164205917556371
409,0.25,0.001,0.010980904285108374,0.008313664191654909,14.947214019632785,0.010668960756340318,0.012492770861302103
410,0.25,0.001,0.01100512617485267,0.008399162232597297,14.603822146620706,0.010423855921927698,0.015972775340612446
411,0.25,0.001,0.011036798340555664,0.008345202394874296,15.083704458218868,0.010766384338485988,0.013518927153199911
412,0.25,0.001,0.010934572910594048,0.008291048467785956,14.814310287760797,0.01057409727891563,0.012004017031618528
413,0.25,0.001,0.010942622897363155,0.008378733584883615,14.368036314705822,0.01025555768358731,0.013770861684211664
414,0.25,0.001,0.010998476975571329,0.008349949154550227,14.842350531961316,0.010594111728737556,0.013334871934992927
415,0.25,0.001,0.011010350877088364,0.00836448931509507,14.82740787256544,0.01058344601896177,0.012354841056678976
416,0.25,0.001,0.010916870000345684,0.008336537073705798,14.460185113354264,0.010321331272915249,0.01511871734900134
417,0.25,0.001,0.010990548939835802,0.008355204224865014,14.768472484339064,0.010541379360698832,0.015458960352199418
418,0.25,0.001,0.010994290297624663,0.008340155792849087,14.873770232512571,0.010616538352971144,0.011937586457601615
419,0.25,0.001,0.010937348721879665,0.008284578404485066,14.866124429435374,0.010611080963194413,0.012744088125016009
420,0.25,0.001,0.010926288004233458,0.008343275231700913,14.475204048869767,0.010332051426745016,0.012157751912517207
421,0.25,0.001,0.010931912165518119,0.008276952961546796,14.87839146195171,0.010619836875054753,0.012873917418931211
422,0.25,0.001,0.011037129717313241,0.00842414839001738,14.643146568369643,0.010451924745445856,0.012987806727843625
423,0.25,0.001,0.010937710928025647,0.008298992074886772,14.7873816623866,0.010554876275793434,0.014293125963636808
424,0.25,0.001,0.010969120887256115,0.008363617575405357,14.60124082654436,0.010422013437933163,0.014653673794652735
425,0.25,0.001,0.010971774878067391,0.008356308590655571,14.657073956783687,0.010461865779288856,0.01253567636013031
426,0.25,0.001,0.01099243189129874,0.008282968469799678,15.18383305986351,0.010837853718674881,0.014326314707951886
427,0.25,0.001,0.011029748472376404,0.00836979140414395,14.906399664477767,0.010639828454302475,0.011774154246917792
428,0.25,0.001,0.010959554655111838,0.008334439430629538,14.711146586409239,0.010500461517779613,0.012074415705033712
429,0.25,0.001,0.010977730111471403,0.00826954920819708,15.176646170215072,0.01083272389023203,0.015630506245153292
430,0.25,0.001,0.010910769306541047,0.008337743702196629,14.419236602070175,0.010292103213469076,0.014955578637974603
431,0.25,0.001,0.01093289370117622,0.008309733818903148,14.700187504848587,0.010492639189756308,0.011897707690617867
432,0.25,0.001,0.01089302675850759,0.008227028988441017,14.940252437769809,0.010663991747159035,0.014830986902649914
433,0.25,0.001,0.01099543558068086,0.00832398482990042,14.970810096954631,0.010685803067062549,0.017663211029555117
434,0.25,0.001,0.010971659933712996,0.008338987940452366,14.753494307259533,0.01053068829925734,0.013666758047682899
435,0.25,0.001,0.010978187469191084,0.008330786400518127,14.836036245399546,0.010589604743325872,0.014158953912556171
436,0.25,0.001,0.01094141062000923,0.00832880756634975,14.64102787837804,0.010450412475644568,0.012534311573420252
437,0.25,0.001,0.011025779602056909,0.008344190404097611,15.02762562760683,0.010726356622131927,0.015418550132640771
438,0.25,0.001,0.010988275912181239,0.008336385581468311,14.861193835178268,0.010607561623967358,0.01308584346302918
439,0.25,0.001,0.010905067514732619,0.008263704758659701,14.802198187213078,0.010565451953756659,0.011857062046016966
440,0.25,0.001,0.010920755956844191,0.008284937468505352,14.771127442333185,0.010543274405662516,0.015173159406653472
441,0.25,0.001,0.011010287259922964,0.008310553957229462,15.129305705845914,0.010798933408883594,0.01375108930681433
442,0.25,0.001,0.01092403481287934,0.008279341133746588,14.820863162245706,0.010578774562630767,0.013333781489304133
443,0.25,0.001,0.010872556410172832,0.008270637358530102,14.581154368748175,0.010407676208956584,0.0102935614330428
444,0.25,0.001,0.010947672954856236,0.008313539716476035,14.76168275993561,0.010536533019225988,0.009967324390475239
445,0.25,0.001,0.010857553961121034,0.008191393061636765,14.94116582603098,0.010664643701663798,0.010749242534594876
446,0.25,0.001,0.010812883448099421,0.008233921036611651,14.452505111694336,0.01031584947301523,0.009779376310429402
447,0.25,0.001,0.010880663712448049,0.008295968340309424,14.484634203331494,0.01033878244349143,0.01218662949811135
448,0.25,0.001,0.010928939540531033,0.008304802796620632,14.705662593663297,0.01049654717606231,0.019423057724322592
449,0.25,0.001,0.010965559849184807,0.008344646343073555,14.687598486927069,0.010483653452481848,0.017626651296658174
450,0.25,0.001,0.010869806658511406,0.008263762300468493,14.60427276219163,0.010424177560450843,0.01514501843069281
451,0.25,0.001,0.010930447760864954,0.008300196475166584,14.739927291870117,0.010521004490985095,0.018026418584798063
452,0.25,0.001,0.010863211423715699,0.00825566830653175,14.612671656029248,0.010430172488243574,0.016289929593248025
453,0.25,0.001,0.010938954583116781,0.008338805244556654,14.571237528435537,0.01040059780759139,0.014706919768026896
454,0.25,0.001,0.010854235328037604,0.008244430002208068,14.625349704350267,0.010439221773269284,0.011383696858372008
455,0.25,0.001,0.01086148698857733,0.008234516308407918,14.721544212270006,0.01050788309226981,0.00983889853315694
456,0.25,0.001,0.01091342591724106,0.008286068655515665,14.723710167073758,0.010509429098553718,0.01065105346164533
457,0.25,0.001,0.010850814719484231,0.00819616829193084,14.87663900963614,0.010618586016870907,0.011931759305298328
458,0.25,0.001,0.010865192956108357,0.008239788133825096,14.712768278389333,0.010501619042390673,0.013495193062616246
459,0.25,0.001,0.010906626470386982,0.008319802547448149,14.496561255410453,0.01034729568551781,0.015002610427992684
460,0.25,0.001,0.010914998964589332,0.008278104411351067,14.77715736460463,0.010547578418704233,0.014086517438824688
461,0.25,0.001,0.0108258063060658,0.008160250635695792,14.937775594051754,0.01066222383586849,0.016359578418944563
462,0.25,0.001,0.010927649328015118,0.008319878358846513,14.613949401356349,0.010431084512031655,0.014142043622476714
463,0.25,0.001,0.010823270523589905,0.0081688966950245,14.875109610156478,0.010617494368420041,0.01190985060696091
464,0.25,0.001,0.010964707758660628,0.008375324239240629,14.510904802340214,0.010357533763269247,0.016878015893910612
465,0.25,0.001,0.010887953287390905,0.008258111592138483,14.737632448428146,0.010519366487100746,0.01601816141711814
466,0.25,0.001,0.010833046555727999,0.008241339708530457,14.5239249523555,0.010366827232230907,0.012040345264332635
467,0.25,0.001,0.010861447307272492,0.008257828844345618,14.590678874577318,0.010414474571432774,0.012808806928140777
468,0.25,0.001,0.01090814484822973,0.008303579534882697,14.595984655005909,0.010418261709497436,0.017611468210816383
469,0.25,0.001,0.010933028438311313,0.008216503015327677,15.223407959269586,0.010866101327101774,0.014246351617787565
470,0.25,0.001,0.010843833386201724,0.008207528656087468,14.773851982901029,0.010545219116988601,0.009981258639267512
471,0.25,0.001,0.010781732553215784,0.008189998036163432,14.524081167773666,0.010366938735027599,0.013566017017832823
472,0.25,0.001,0.010828021791911571,0.008217711619614997,14.628178320198415,0.010441240771019569,0.013640690195773329
473,0.25,0.001,0.010800305127261956,0.008212515779675167,14.501971565674399,0.010351157434457102,0.0160662458677377
474,0.25,0.001,0.010900392223184353,0.008269377492333406,14.744205822454434,0.010524058402893957,0.014409954127456461
475,0.25,0.001,0.010848341057094459,0.00820201991352244,14.829984085582128,0.010585284857660334,0.010519143327006273
476,0.25,0.001,0.010817548590842808,0.00821517358716821,14.58370992179229,0.010409500301065161,0.015464092072631632
477,0.25,0.001,0.010803585227961852,0.008215647887125194,14.50280234969665,0.010351750428049,0.01174034078472427
478,0.25,0.001,0.010814042570434999,0.008233606249581431,14.46076599905424,0.010321745895113662,0.01366948535931962
479,0.25,0.001,0.010845040415074223,0.008292859002390754,14.30242507257194,0.01020872596186434,0.011779986188880034
480,0.25,0.001,0.010911574012765261,0.008257172105259428,14.875269265932458,0.010617608326861141,0.014862341274108206
481,0.25,0.001,0.010883051492970124,0.008242461334252469,14.797867846266131,0.010562361060860908,0.013717468961008958
482,0.25,0.001,0.010816430664299248,0.008214520455869002,14.58110468855528,0.010407640748433462,0.01120799726673535
483,0.25,0.001,0.010779402244870907,0.00820249913556275,14.440965955502518,0.010307613101714859,0.012878607559416975
484,0.25,0.001,0.01084243037920689,0.008234423254486,14.615270775055217,0.010432027676698942,0.011344806291162968
485,0.25,0.001,0.010739659672933761,0.008149398586529995,14.515822401670652,0.010361043827031157,0.011882741669459003
486,0.25,0.001,0.010843919459556308,0.008268165758976313,14.434523609197027,0.010303014710347629,0.010561685942645584
487,0.25,0.001,0.010851735649543387,0.008261521834288245,14.515558126930879,0.0103608551940977,0.01218841876834631
488,0.25,0.001,0.010805924353407366,0.008209286144473285,14.551561230811004,0.010386553341049968,0.012751273012587003
489,0.25,0.001,0.010744729697286525,0.008214758117204514,14.177961474267121,0.010119886848156404,0.012443547270127706
490,0.25,0.001,0.010811745711367265,0.008186452317042885,14.712144833858883,0.010501174042725827,0.013614979572594166
491,0.25,0.001,0.010839529788104173,0.008250062510580103,14.511374429007557,0.010357868971454359,0.0147303950839809
492,0.25,0.001,0.010795730784117618,0.008169508130054608,14.717351842149396,0.010504890679621268,0.01292942078518016
493,0.25,0.001,0.01082029590539843,0.008237351036726315,14.474822721748708,0.01033177924464576,0.012956046366265841
494,0.25,0.001,0.010785900909349184,0.0081245101744605,14.91443378234578,0.010645563013808552,0.011619903612881899
495,0.25,0.001,0.010793119886559304,0.008183409703599515,14.624816128026659,0.010438840919362355,0.012295458332768508
496,0.25,0.001,0.010817995616974675,0.008230675986715567,14.499338631317995,0.010349278109434685,0.01210879534482956
497,0.25,0.001,0.010875909014770362,0.008234884624726305,14.800301605295912,0.010564098219340408,0.012985886207648687
498,0.25,0.001,0.010829031484845642,0.008261542762934325,14.388206125419831,0.01026995440786569,0.015821600865040506
499,0.25,0.001,0.010838980212041709,0.008215551943492109,14.701692599002445,0.010493713489651996,0.010181593841740064
500,0.25,0.001,0.010761832713941547,0.008126862299254287,14.76637453453563,0.01053988189474349,0.010690133486475264
