epoch,beta,learning_rate,train_loss,train_reconstruction_loss,train_kl_unnormalized,train_kl_normalized,mean_unclipped_gradient_norm
1,0.0,0.001,0.09337423388895236,0.09337423388895236,22.562793887846652,0.016104777935650714,0.11552865554889043
2,0.02,0.001,0.074068806869419,0.07059185298388465,243.56073676215277,0.17384777784593344,0.15047768875956535
3,0.04,0.001,0.06412824735655422,0.048472678473992656,548.3362706948442,0.3913892010669837,0.10922874758640926
4,0.06,0.001,0.05053736360972388,0.04488709616905067,131.933762288233,0.09417113653692577,0.10533452903230985
5,0.08,0.001,0.04302525393969831,0.03923126286146236,66.44227269936724,0.04742489129148268,0.06364261979858081
6,0.1,0.001,0.04067995133455734,0.03708562442259482,50.35651029620254,0.03594326216716812,0.057983689941465855
7,0.12,0.001,0.03875562444067838,0.035101584523741965,42.660907522279615,0.030450326568365178,0.043125651155908905
8,0.14,0.001,0.03622149233842454,0.033695089701584906,25.282074510005483,0.018045734839404342,0.03640923152367274
9,0.16,0.001,0.03367006600077389,0.03102985548389237,23.11834422329016,0.016501316362091477,0.038644008338451385
10,0.18,0.001,0.030682375578329577,0.027139538071221776,27.575082176610042,0.019682428391584614,0.04619291331619024
11,0.2,0.001,0.028806012908094807,0.02475137093610931,28.402766601384034,0.020273209565584607,0.037410144383708634
12,0.22,0.001,0.02753699621000485,0.02361071363570746,25.003280226947272,0.017846738206243593,0.03602518141269684
13,0.24,0.001,0.02649831276234479,0.022293700057773563,24.544424938179596,0.017519218371291646,0.02934042861064275
14,0.25,0.001,0.025414200804648342,0.021330789450490682,22.88343678301538,0.01633364509851205,0.025313743700583775
15,0.25,0.001,0.0243182677274559,0.02039810085985047,21.968614455552128,0.015680666991828785,0.024040039163082838
16,0.25,0.001,0.02375947745048512,0.0198328259526289,22.004957054093566,0.015706607461879775,0.03083742984260122
17,0.25,0.001,0.023125644076114508,0.018864308827017482,23.880525008976807,0.01704534261882713,0.028064790181815624
18,0.25,0.001,0.02268502179380746,0.018672626726982885,22.485462110642104,0.01604958037875953,0.02763312744597594
19,0.25,0.001,0.022398313834217556,0.018430889687604375,22.233444169250845,0.015869696052284686,0.033112535874048867
20,0.25,0.001,0.022000827450762716,0.017804696251861533,23.515118704901802,0.01678452441463369,0.026420395510892074
21,0.25,0.001,0.02159370740124008,0.017584961283494505,22.465010648582414,0.01603498261854562,0.023209741959969204
22,0.25,0.001,0.020827607605715243,0.01709755358683784,20.903222256933738,0.014920215743707164,0.02422698571657141
23,0.25,0.001,0.020612310781552082,0.01657724726879806,22.612496983935262,0.01614025480652053,0.028975935497631628
24,0.25,0.001,0.01957892334600638,0.01547568845862185,22.994528039854174,0.016412939357497627,0.025848951190710068
25,0.25,0.001,0.019094895941820757,0.015095561290737133,22.41227038422523,0.01599733789023928,0.017377940006554127
26,0.0,0.001,0.013803332303351129,0.013803332303351129,27.088823441176388,0.01933534863752776,0.023069963945696752
27,0.02,0.001,0.01289351433188769,0.012214130623952338,47.59082397104007,0.033969181992177064,0.021139780214677256
28,0.04,0.001,0.013084041423093506,0.011204896903221021,65.81703556350797,0.046978612108142734,0.022003268512586754
29,0.06,0.001,0.01377673288643883,0.010774149483189596,70.11032617580123,0.050043059368880254,0.038853650291760765
30,0.08,0.001,0.013931974354717467,0.01068003017629622,56.9496736359178,0.040649303094873517,0.017976063924531143
31,0.1,0.001,0.013984797489747666,0.011047207663238745,41.15563572219938,0.029375899873090205,0.01706153651078542
32,0.12,0.001,0.014316541921587019,0.011422205493071972,33.791379783585754,0.024119471651381695,0.01854650303721428
33,0.14,0.001,0.014575798293216187,0.011365286755370118,32.12804677193625,0.022932224676614023,0.02680508854488532
34,0.16,0.001,0.015120546491435396,0.011533928512219797,31.40532626324927,0.02241636421359691,0.015047414228320122
35,0.18,0.001,0.01529292648995829,0.011323335411691527,30.896648273133394,0.022053282136426405,0.030874411885937054
36,0.2,0.001,0.015517973390064742,0.011553054207075409,27.774258094921446,0.019824595356831867,0.023955162304143112
37,0.22,0.001,0.015778015803393216,0.011681124050584104,26.08975084762127,0.01862223472349841,0.022628929155568283
38,0.24,0.001,0.01603732636056797,0.011733042871394353,25.126257098906223,0.017934516130554048,0.018295199765513342
39,0.25,0.001,0.01631146803367556,0.011840466284656037,25.055492278428105,0.01788400590894226,0.027527682793637116
40,0.25,0.001,0.01589864918319454,0.011769952927852234,23.137212809066327,0.01651478430340209,0.01635251147672534
41,0.25,0.001,0.01585239689383242,0.011830371374275252,22.53943128753127,0.016088102275182918,0.019078287451217573
42,0.25,0.001,0.016009738113273653,0.012058751042169786,22.141330283984804,0.015803947383286797,0.02128858429690202
43,0.25,0.001,0.01567518132689752,0.011554271429341439,23.093579989427713,0.01648364024941307,0.029879542843749125
44,0.25,0.001,0.01587161308492136,0.011979431491236241,21.811786238910162,0.015568726794368425,0.040301960737754904
45,0.25,0.001,0.015620004440173071,0.01147054059550776,23.253594013682584,0.016597854399487924,0.021213057295729715
46,0.25,0.001,0.015798347179739797,0.01189735707178799,21.86114920231334,0.01560396088673329,0.02907208849986394
47,0.25,0.001,0.015526800476319609,0.011553114770274413,22.268536037868923,0.015894743781491024,0.03354630355412761
48,0.25,0.001,0.015042350720069562,0.011063337500332391,22.29839072868838,0.01591605333953489,0.017993956959495943
49,0.25,0.001,0.01516678043755523,0.011443294051010706,20.86641980890642,0.01489394704418731,0.016754053145026166
50,0.25,0.001,0.015001476769558868,0.011006133570962133,22.389903709902402,0.015981373097717633,0.01492279216957589
51,0.0,0.001,0.01070703596029191,0.01070703596029191,24.21888406095449,0.017286855147005346,0.02460718061774969
52,0.02,0.001,0.010036081260843583,0.009453443113213394,40.81380538494266,0.02913190962522674,0.017928374620775383
53,0.04,0.001,0.01032641985894818,0.0086567263930426,58.48101351553934,0.041742336556416376,0.016293426044285297
54,0.06,0.001,0.011177952243396414,0.00843672472874672,64.00766261139809,0.045687125347179225,0.012934701517224312
55,0.08,0.001,0.011544943923315806,0.008397920759754223,55.112248783223116,0.0393377935640422,0.013733213922629753
56,0.1,0.001,0.011719172842234199,0.00879381270806866,40.984294311344975,0.02925360050774088,0.01596987930436929
57,0.12,0.001,0.011935912268726449,0.009250829159690622,31.3483473125257,0.0223756940132232,0.011567804186294476
58,0.14,0.001,0.012449756542449458,0.009668117759433405,27.83625773379677,0.019868849203281063,0.012296618971352776
59,0.16,0.001,0.012811051333072589,0.009568281215751729,28.394505383675558,0.020267312907691334,0.01742385250205795
60,0.18,0.001,0.013077963617417896,0.009483512066173972,27.976814560025755,0.019969175274822094,0.013088197292139133
61,0.2,0.001,0.013275682593951796,0.009625504158262969,25.56950022602639,0.01825089238117515,0.012492626284559568
62,0.22,0.001,0.013727483606477927,0.009937197225963512,24.137233466432807,0.01722857492250736,0.014794548352559408
63,0.24,0.001,0.013958996995107123,0.010002167541424783,23.09799377262941,0.016486790701377166,0.017364395782351494
64,0.25,0.001,0.014137903065012213,0.010116359126367415,22.53673207690144,0.016086175643755488,0.024846314763029415
65,0.25,0.001,0.014065707211344564,0.010264876788776172,21.299851679662513,0.015203320256718425,0.02359791441510121
66,0.25,0.001,0.014047009244081919,0.010202054996370223,21.547123479564288,0.015379816901901704,0.025723739837606747
67,0.25,0.001,0.013916023386021456,0.010150493830660282,21.10202770344695,0.015062118275122735,0.02565160191928347
68,0.25,0.001,0.01383876192726587,0.01026425550947761,20.03153398301866,0.014298025683810608,0.019217210200925667
69,0.25,0.001,0.013668845080884924,0.009987230897385475,20.631766324851945,0.014726457048431082,0.018698889917383592
70,0.25,0.001,0.013591598773821753,0.009880098944518998,20.799244105467324,0.014845998647728282,0.02020513266324997
71,0.25,0.001,0.013433632326492091,0.009829868742248468,20.195490675362926,0.01441505401524834,0.011718572583049536
72,0.25,0.001,0.013300304998213436,0.009766308106046322,19.804518392908644,0.014135987432482972,0.016292712651193142
73,0.25,0.001,0.013304783870079363,0.009735697477358824,20.00115974604735,0.014276345286257923,0.014718535356223583
74,0.25,0.001,0.013285431820267474,0.00983672315657836,19.326563963416028,0.013794835091660263,0.0158121045678854
75,0.25,0.001,0.013393652560025976,0.009770677125419092,20.303155252110887,0.01449190239265588,0.013979876569161812
76,0.0,0.001,0.009320504554923167,0.009320504554923167,23.53886377881145,0.01680147307552566,0.020748199118922155
77,0.02,0.001,0.008687489121411627,0.008132519380173139,38.875628934269066,0.027748486034453294,0.010751171736046672
78,0.04,0.001,0.009106986584109172,0.007562605740382657,54.091944755866514,0.03860952516478695,0.009603277624895176
79,0.06,0.001,0.009836518445340862,0.00738296088114468,57.29057053236934,0.04089262707521009,0.012614610760162273
80,0.08,0.001,0.010131113596086264,0.007399357171805456,47.83988533243101,0.034146955983177026,0.008893965433041254
81,0.1,0.001,0.010353416422305748,0.007869701317854617,34.79684563129269,0.024837148915983362,0.011056874024992188
82,0.12,0.001,0.010567340542349899,0.008212205115161096,27.496207343207466,0.01962612943840647,0.008739073605587086
83,0.14,0.001,0.010872522766609289,0.008315485185938097,25.58864272268195,0.018264555833463206,0.012386000094314417
84,0.16,0.001,0.011277647612736239,0.008351745326289831,25.61993480704681,0.018286891368341763,0.01263516660158833
85,0.18,0.001,0.011583074404482255,0.008384590445641885,24.894866575274552,0.01776935515722666,0.009655765801047286
86,0.2,0.001,0.011900861431675696,0.00857036448034801,23.330130504585846,0.01665248430020403,0.011575747902194658
87,0.22,0.001,0.012152006762505274,0.008693458376267152,22.02466510750397,0.015720674594935025,0.009332360078891119
88,0.24,0.001,0.012509544298314211,0.00895507907091874,20.7491914291828,0.014810272254948466,0.009113458218052983
89,0.25,0.001,0.012588852526325928,0.008864005145273711,20.87404439602679,0.014899389290525903,0.011069171751538912
90,0.25,0.001,0.012536078827640814,0.00901710848754261,19.720310478879693,0.014075881855017625,0.01628125412389636
91,0.25,0.001,0.012519539649767137,0.00892123742279602,20.164886173449066,0.01439320926013495,0.017109599740554888
92,0.25,0.001,0.012580206040401904,0.009184541965001508,19.029301593178197,0.013582656383424837,0.012260077986866236
93,0.25,0.001,0.012546223512039198,0.0089833980306373,19.96607376678645,0.014251301760732657,0.023459323681890965
94,0.25,0.001,0.012527615387450185,0.008927985377696871,20.172326517383954,0.01439851999813273,0.01757031896462043
95,0.25,0.001,0.012400338725780535,0.00885879743452135,19.84679787619072,0.014166165507630779,0.0107514140351365
96,0.25,0.001,0.012406492889014601,0.00900450691428275,19.064729032460708,0.013607943634875594,0.015357129741460085
97,0.25,0.001,0.012408344990067315,0.008993868285800979,19.13472831458376,0.01365790743367863,0.01531054467583696
98,0.25,0.001,0.012429647191226134,0.008942942478154836,19.539494174265723,0.013946819539090452,0.013808820707102617
99,0.25,0.001,0.01235569640994072,0.008880934253204287,19.47256824426484,0.01389904942488568,0.016857782611623406
100,0.25,0.001,0.012161326970447573,0.008756722029494611,19.079406269809656,0.013618419892797756,0.013844026252627373
101,0.25,0.001,0.012138755953930623,0.008706961834683405,19.231773343002587,0.013727175833692068,0.014606217776114741
102,0.25,0.001,0.012129407632028499,0.00874350283687052,18.97461060194941,0.013543619273340052,0.013703589793294668
103,0.25,0.001,0.012099200173428184,0.008708721282755771,19.00024496602733,0.013561916463973827,0.013364055349181095
104,0.25,0.001,0.012088278907607173,0.0088162848627881,18.336254443341527,0.013087976048066758,0.012246477728088697
105,0.25,0.001,0.011945584015539515,0.008583563091287836,18.84076438591494,0.013448083073458203,0.011022418038919568
106,0.25,0.001,0.011896127660633528,0.008668691252102281,18.086552380121244,0.012909744739558348,0.01444318424910307
107,0.25,0.001,0.011935283909197788,0.008568490784593492,18.8675078676458,0.013467171925514488,0.011035376228392124
108,0.25,0.001,0.011956129549888143,0.008544938821258426,19.116312863533956,0.013644762929003537,0.023935037665069103
109,0.25,0.001,0.012064235519116734,0.008845402940846327,18.038338354456496,0.01287533073123233,0.02684836694970727
110,0.25,0.001,0.011924499820111787,0.008578645430330992,18.75016909593727,0.013383418341140093,0.019364256411790848
111,0.25,0.001,0.011791348348409808,0.008570186118459144,18.051393899304127,0.012884649464171397,0.014521501492708921
112,0.25,0.001,0.011751467362046242,0.008490204113965843,18.27611918756139,0.013045052953291501,0.011434645392000675
113,0.25,0.001,0.011763037307656298,0.008430095373146367,18.67780631885194,0.013331767536653775,0.013365478254854679
114,0.25,0.001,0.011764498656256157,0.008427833272307589,18.698673571759496,0.013346662078343681,0.01765138702467084
115,0.25,0.001,0.01175060310014333,0.008471328471052019,18.37705557527598,0.013117098911688779,0.013047096009055773
116,0.25,0.001,0.011804788841795155,0.008449407931613294,18.803555148386817,0.01342152401740672,0.01571382520099481
117,0.25,0.001,0.01159829130036789,0.008329719925920168,18.317075361285294,0.01307428648200235,0.011070366483181715
118,0.25,0.001,0.011678429647234449,0.008442987957479138,18.13141587463736,0.012941767219584125,0.01316095826526483
119,0.25,0.001,0.011713517998612066,0.008467258387163543,18.192038798192787,0.012985038399852097,0.01140806901579102
120,0.25,0.001,0.011547203540627719,0.008295342456876185,18.223429339670997,0.013007444211042824,0.012603605166077614
121,0.25,0.001,0.011685158300338781,0.008433311355262124,18.22335043566966,0.013007387891270277,0.012691982323303819
122,0.25,0.001,0.011528551480487773,0.008290477303995026,18.146167242039017,0.012952296389749476,0.011026456175992886
123,0.25,0.001,0.011481699920450037,0.008260480313403913,18.05171408848456,0.012884878007483625,0.016052255251755316
124,0.25,0.001,0.011486470503242393,0.008269991132033151,18.025151102166426,0.012865917988698376,0.01221862155944109
125,0.25,0.001,0.011635772491756239,0.008370017690028538,18.301290523239047,0.013063019645424017,0.0208022678270936
126,0.25,0.001,0.011616125768213942,0.008409243763277405,17.971366692704763,0.012827527974807112,0.021411262607822817
127,0.25,0.001,0.011528106629630627,0.008339761513998808,17.867486317952473,0.012753380669487847,0.019725398470958073
128,0.25,0.001,0.011479388606565737,0.008187868784873457,18.445677617837113,0.013166079670119282,0.013999884637693564
129,0.25,0.001,0.01134406816083611,0.008220050930541161,17.506992931254427,0.012496069187190883,0.014528474925706783
130,0.25,0.001,0.011273206816169253,0.008103209678410437,17.764663685134977,0.012679988354842953,0.011942266564195355
131,0.25,0.001,0.011374022212554838,0.008129737835529952,18.180969271743507,0.01297713723893184,0.009915658660853902
132,0.25,0.001,0.011394992977250041,0.008247894311203943,17.636341384976927,0.012588394992845772,0.0113111212849617
133,0.25,0.001,0.011213639805540007,0.007970507637929846,18.174513052778636,0.01297252894559503,0.013686625442157188
134,0.25,0.001,0.011295073485949584,0.008070108151248498,18.072706958703826,0.012899862211780033,0.01188699264700214
135,0.25,0.001,0.011343952595141897,0.008154176714781084,17.87550415351377,0.01275910360707621,0.018251194152981043
136,0.25,0.001,0.011362212944274757,0.008181840426435596,17.82280853896113,0.012721490748723148,0.01596576697193086
137,0.25,0.001,0.01119018189216915,0.007935960423092397,18.23665541933294,0.013016884667618087,0.013719751189152399
138,0.25,0.001,0.011212020322724043,0.008049861293787148,17.72073939808628,0.012648636258448451,0.011299598030745983
139,0.25,0.001,0.011285158299040376,0.008102822095722134,17.83381210014834,0.012729344825230792,0.010765488647545377
140,0.25,0.001,0.011296770622550745,0.008058076811551351,18.1496402673554,0.012954775351431407,0.014937395074715218
141,0.25,0.001,0.01115736633822409,0.008006360022383825,17.65823957655165,0.012604025393684262,0.013763443722079197
142,0.25,0.001,0.011274311348403754,0.008083125009958506,17.88340821740223,0.012764745337189316,0.01475549628958106
143,0.25,0.001,0.011234912885167795,0.007989478760469727,18.18741382353487,0.01298173720452168,0.014491143946846327
144,0.25,0.001,0.011169275715511445,0.007949023956857752,18.046291329010188,0.012881007372598278,0.015002391145875057
145,0.25,0.001,0.011104693494693578,0.00794366928776018,17.714379204644096,0.01264409650581306,0.01448295001561443
146,0.25,0.001,0.011077304343469659,0.00793064436303419,17.633883002208687,0.012586640258535823,0.016354771020511787
147,0.25,0.001,0.011075063020383058,0.007849783568550445,18.074466861479465,0.01290111838792253,0.009001646113271514
148,0.25,0.001,0.011223809978766748,0.0080650715805503,17.70156975238644,0.01263495342782758,0.011311402078717947
149,0.25,0.001,0.011049838388088153,0.007851886579342056,17.921321946975084,0.012791807242666013,0.013488452415913343
150,0.25,0.001,0.011050380396041257,0.007941644311996928,17.421357305426348,0.012434944543487756,0.013449620610723892
151,0.25,0.001,0.011037470522331215,0.007849920524709057,17.86303056192677,0.012750200258334596,0.010651800005386272
152,0.25,0.001,0.010953482697930252,0.0077039327973510785,18.21047722665887,0.012998199305252584,0.011533194221556187
153,0.25,0.001,0.011054299946068323,0.007896409996333177,17.69681609862032,0.01263156038445419,0.01404608708495895
154,0.25,0.001,0.011042858272442344,0.00791198922299415,17.54538959927029,0.01252347580247701,0.011920054132739702
155,0.25,0.001,0.011016557886325128,0.007902564557149397,17.45081778855352,0.012455972725591376,0.011437134972463051
156,0.25,0.001,0.010984161879584106,0.00780511944832509,17.815353304322002,0.012716169382099931,0.010815633150438467
157,0.25,0.001,0.01097376369571651,0.007886479298273722,17.301142129284596,0.01234913785102398,0.010691781140243014
158,0.25,0.001,0.010951234398093836,0.007793858532973549,17.693934501960264,0.01262950357027856,0.01271635697533687
159,0.25,0.001,0.010928397573399962,0.007703949855259288,18.069805334883128,0.012897791102700305,0.011850434510658184
160,0.25,0.001,0.010888753698496094,0.007731001671643285,17.696042668749715,0.012631008328872031,0.015237987972795963
161,0.25,0.001,0.010936631853773929,0.007812014309831007,17.510356501529092,0.012498470022504706,0.015031943718592325
162,0.25,0.001,0.010965951898118905,0.007746915872159757,18.03947823507744,0.012876144350519229,0.017456968314945698
163,0.25,0.001,0.010936076790965789,0.007782784451278504,17.671051449245876,0.01261317019931897,0.013203592350085577
164,0.25,0.001,0.01097517225303148,0.0077770161415226975,17.92246719271119,0.012792624691442676,0.015239313710480928
165,0.25,0.001,0.010867364878891504,0.007690689624532273,17.802088865759778,0.01270670154586708,0.01054273429326713
166,0.25,0.001,0.010951179722378477,0.007820598029515199,17.543780232033534,0.012522327074970403,0.016871668708821137
167,0.25,0.001,0.010998713876507436,0.007824281742523986,17.789517397071883,0.012697728334812194,0.018462936549137037
168,0.25,0.001,0.010956493146412553,0.007790455199799865,17.742476546973514,0.012664151710901865,0.01776609569787979
169,0.25,0.001,0.010998432938423421,0.007822427403029294,17.79833500287686,0.01270402212910554,0.011401821703960499
170,0.25,0.001,0.010869666786962435,0.007669737388254606,17.93240539372316,0.012799718339559714,0.01129473939848443
171,0.25,0.001,0.01087311125899616,0.007717906813306069,17.68176559537475,0.012620817698340291,0.014152196701616049
172,0.25,0.001,0.010754444516585237,0.007621802506717848,17.55532595985814,0.012530568136943712,0.011555341382821402
173,0.25,0.001,0.010755613446235657,0.007653209636783042,17.3858707494903,0.012409615095995932,0.011328902250776688
174,0.25,0.001,0.01079209397236506,0.007600069778552007,17.888103975887187,0.012768097056307772,0.009247440922384461
175,0.25,0.001,0.010774624681002215,0.007627011875877952,17.63922368992142,0.012590452312577743,0.00957015009286503
176,0.25,0.001,0.0107730672700189,0.007649808329644433,17.502744250827366,0.012493036581604116,0.009980411423991123
177,0.25,0.001,0.010728429910340155,0.0075836821938510875,17.62316596717165,0.01257899069748155,0.010655032470822334
178,0.25,0.001,0.010695596503322585,0.007572757763711855,17.50038945605183,0.012491355785904233,0.011207361239939928
179,0.25,0.001,0.010603927391750074,0.00738915078047859,18.015609640824167,0.012859107523785987,0.011041340961431464
180,0.25,0.001,0.010701730150228355,0.007561936288287765,17.59540489821406,0.012559175516212748,0.011593544855713844
181,0.25,0.001,0.010646358132362366,0.0075282632830765165,17.473803325006138,0.012472379246970833,0.01153631826552252
182,0.25,0.001,0.010815660872262472,0.0077777909283793115,17.024222245690417,0.012151479118979598,0.016966999197999637
183,0.25,0.001,0.010580695729855209,0.007399461757696685,17.82763515717802,0.012724935872361185,0.013209092120329538
184,0.25,0.001,0.010691234776586817,0.007593939856936534,17.35723866914448,0.012389178207811906,0.01630060646372537
185,0.25,0.001,0.01073039999525798,0.007631989392010789,17.363493757638317,0.01239364293907089,0.014030655845999718
186,0.25,0.001,0.010668596416188959,0.007460826351606881,17.976343366834854,0.0128310802047358,0.011203965793053309
187,0.25,0.001,0.010754269302675598,0.007620260495235,17.56298578273483,0.012536035533715083,0.010435246707250675
188,0.25,0.001,0.010670777655353672,0.0075217988015266884,17.64687736689696,0.012595915322553147,0.01137634553015232
189,0.25,0.001,0.010671320376776115,0.007587112361096848,17.283902051156026,0.01233683229918346,0.013295372948050499
190,0.25,0.001,0.01065395117263522,0.007468036294244884,17.85386732447217,0.012743659760508329,0.010651578040172657
191,0.25,0.001,0.010649576009801256,0.007538598074376235,17.433920720864457,0.012443912006327235,0.011789112196614345
192,0.25,0.001,0.01061734283201353,0.007516951498994876,17.374593143574675,0.012401565412972644,0.010006105061620474
193,0.25,0.001,0.01067555721369926,0.007559544365983783,17.46213722229004,0.012464052264304096,0.012026525878657898
194,0.25,0.001,0.010635399069005286,0.007402723129533711,18.115917083115605,0.012930704556113922,0.013523765839636326
195,0.25,0.001,0.010635772687301301,0.007536115222855618,17.370481468780696,0.012398630598701424,0.01148636577030023
196,0.25,0.001,0.010597258653731375,0.007569967221730111,16.96494105824253,0.012109165637574968,0.010901927792777618
197,0.25,0.001,0.010546322040564833,0.0074832506439708475,17.165452834458378,0.012252286105966008,0.012130500438312689
198,0.25,0.001,0.0106208347906059,0.007481496299110484,17.592852419579934,0.01255735361854385,0.015247343728939692
199,0.25,0.001,0.010666503718024805,0.007574923595206605,17.3252144082945,0.012366320063022483,0.015988498460501432
200,0.25,0.001,0.010640829431208951,0.007476914369049128,17.730579264679847,0.012655659717830012,0.011960626890261969
201,0.25,0.001,0.010644292317287267,0.007476277649402618,17.75355394820721,0.012672058492653253,0.012014320585876703
202,0.25,0.001,0.010538798386546953,0.007499169710783931,17.03408055556448,0.01215851574272982,0.013610016942645112
203,0.25,0.001,0.010614256450786577,0.007490494234040815,17.505563970197713,0.012495049229263179,0.012823848519474268
204,0.25,0.001,0.010572142441544616,0.007402121078506199,17.76479891726845,0.012680084880277267,0.014410720206797123
205,0.25,0.001,0.010535826378267759,0.0074306857222092085,17.40120748330278,0.012420562086582997,0.012077506321171919
206,0.25,0.001,0.010648959948087644,0.007552051987520784,17.355072556880483,0.012387632089136676,0.012994359402606884
207,0.25,0.001,0.010618368261738828,0.007502652987924933,17.46046975342154,0.01246286206525449,0.012231729148576656
208,0.25,0.001,0.010628132122345486,0.007359188782563161,18.319159591407107,0.013075774155179949,0.013177243371804556
209,0.25,0.001,0.01059981253085255,0.007495087418944863,17.398880071807326,0.012418900836407799,0.013013484266897043
210,0.25,0.001,0.010588882883128366,0.007440771545386977,17.642016650640475,0.012592445860557085,0.013655034049103657
211,0.25,0.001,0.010511008096717255,0.007408031562005567,17.389080856278625,0.012411906392775606,0.009927695306638876
212,0.25,0.001,0.010578819959048639,0.007475502718218238,17.39099017360754,0.012413269217421514,0.010699793774013719
213,0.25,0.001,0.010466154065658475,0.00737735999159907,17.30960374129446,0.012355177545534946,0.01011987884218494
214,0.25,0.001,0.01047367311752679,0.0073335909595092135,17.59702156022278,0.012560329450551593,0.014518888356784979
215,0.25,0.001,0.010476881164338505,0.0073300579737065824,17.634798027618587,0.012587293381597848,0.010197272679458061
216,0.25,0.001,0.010448836356575727,0.00734991093618218,17.366378137242723,0.012395701739645056,0.011470238600547114
217,0.25,0.001,0.010503969874167652,0.007342087573301025,17.71918973866959,0.01264753014894332,0.014293801660339037
218,0.25,0.001,0.01048993918914021,0.0072768796861650996,18.005984880770857,0.012852237602263282,0.012091195831696192
219,0.25,0.001,0.010470732480113269,0.007350760833387486,17.484322196558903,0.012479887363710852,0.017999030494441588
220,0.25,0.001,0.010472213544430788,0.007414693568359341,17.134342539380167,0.012230080327894481,0.01530480571091175
221,0.25,0.001,0.0104609765983813,0.007423146273831875,17.024001160560296,0.012151321313747535,0.0108764940717568
222,0.25,0.001,0.010421195465047457,0.007338039762182542,17.278004819189597,0.012332622997280227,0.012708025984466076
223,0.25,0.001,0.010434851496976021,0.007366545117127965,17.194789183767217,0.012273225684344908,0.01076552551239729
224,0.25,0.001,0.010463493941515162,0.007355781244822064,17.415622599640784,0.01243085124885138,0.011743815693383416
225,0.25,0.001,0.01045704634086779,0.007340004787459011,17.46790197718213,0.012468167007267758,0.015711582421014707
226,0.25,0.001,0.010432783018645139,0.00729257533359423,17.597723977607593,0.012560830819134613,0.014889047636340061
227,0.25,0.001,0.010390255736372275,0.007395235266078983,16.784093923736037,0.011980081316014302,0.013324216784288486
228,0.25,0.001,0.010442797606538611,0.00722567788025702,18.028739895736962,0.012868479582967138,0.013867696902404228
229,0.25,0.001,0.01038967222737813,0.007386816611066896,16.82800220467194,0.012011421987631648,0.016771129332482815
230,0.25,0.001,0.010411723102960322,0.007268783162560379,17.613035536648933,0.012571759840577398,0.010282232193276286
231,0.25,0.001,0.010375341139080231,0.0072533667131125575,17.495545437461452,0.012487898242299395,0.014159574483831724
232,0.25,0.001,0.010480267333400529,0.007361094298505643,17.479847021270217,0.012476693091556187,0.02011812136818965
233,0.25,0.001,0.010366343637133202,0.007280566326576715,17.292694861428778,0.01234310839502411,0.012792656120533744
234,0.25,0.001,0.010412964572291277,0.007294871027401665,17.47379528291044,0.012472373506716946,0.011977419257164001
235,0.25,0.001,0.010467621285402984,0.007361139143593827,17.408726865088035,0.01242592923989153,0.01199485338293016
236,0.25,0.001,0.010367542004201844,0.007214478726297269,17.669765617415223,0.012612252403579745,0.012878388942529758
237,0.25,0.001,0.010375466938430106,0.007187192486217845,17.867089957521674,0.012753097756974785,0.009064724824080864
238,0.25,0.001,0.01034449291965592,0.0072307486402971004,17.44942311515585,0.012454977241367486,0.010504435282200575
239,0.25,0.001,0.010283683780689685,0.00724151739796177,17.04830074868007,0.01216866577350469,0.010631048974270621
240,0.25,0.001,0.010350125357072953,0.007264685642780267,17.290805348178797,0.01234175970605196,0.01050994242541492
241,0.25,0.001,0.010384174918875708,0.007163494994199416,18.048691052442404,0.012882720237289367,0.011696107685565948
242,0.25,0.001,0.010353808160544488,0.007215811353590753,17.585335290919968,0.01255198807346179,0.0139441619006296
243,0.25,0.001,0.010484774863859367,0.007363669296497838,17.49067499484235,0.012484421837860351,0.01870037615299225
244,0.25,0.001,0.010467457982618906,0.007313213646085116,17.676384708337615,0.012616976950990446,0.02120312163606286
245,0.25,0.001,0.010406269348765674,0.00743204614757533,16.667547025178607,0.011896892951590726,0.018146306586762268
246,0.25,0.001,0.0104220219294143,0.007296048050299722,17.517958523934347,0.012503896162694038,0.017623390924806397
247,0.25,0.001,0.010393862977449656,0.007173032595160586,18.049533330906204,0.012883321435336334,0.017511305399239063
248,0.25,0.001,0.01034997213000094,0.007256868581303902,17.333753150806093,0.012372414811424762,0.01114114901671807
249,0.25,0.001,0.01029124931154544,0.007288059010034242,16.82987788685581,0.012012760804322493,0.01185243483632803
250,0.25,0.001,0.010235001757871686,0.0070587205646113,17.79987949795193,0.012705124552428216,0.011731070466339588
251,0.25,0.001,0.010347826308325717,0.007290103478215591,17.13547920762447,0.012230891654264433,0.01490055435958008
252,0.25,0.001,0.010472242965510017,0.007456377328357152,16.900911481756914,0.012063462870633057,0.01680199382826686
253,0.25,0.001,0.010416091218242171,0.007270554075159176,17.627589889437136,0.012582148386464764,0.015384005382657051
254,0.25,0.001,0.01029548625194887,0.007206527829409865,17.3105234514203,0.012355834012434189,0.009759513661265373
255,0.25,0.001,0.010181363677464382,0.007080960645727072,17.374657736884224,0.012401611518118647,0.009137747421239814
256,0.25,0.001,0.010303608893433161,0.007261125722148439,17.050076289483677,0.012169933111694273,0.012572764962290725
257,0.25,0.001,0.010291718992224912,0.007199950551625058,17.32627104597482,0.012367074265506654,0.013552778090039888
258,0.25,0.001,0.01023619736365059,0.007098788678733229,17.582037886680915,0.012549634465867892,0.01412265608087182
259,0.25,0.001,0.010250217074321376,0.0071899692517057145,17.14962799786127,0.012240990719387059,0.011279890158524116
260,0.25,0.001,0.010177834509539675,0.007114049357672532,17.169452176456563,0.01225514073979769,0.009389285696670413
261,0.25,0.001,0.010235772016104202,0.007134370165414106,17.380256418596232,0.012405607722052986,0.011983126013850173
262,0.25,0.001,0.010317855383874032,0.007234983543772795,17.276412763093646,0.012331486626048284,0.010749992138395706
263,0.25,0.001,0.010339343969367053,0.007264445622979897,17.23172995360971,0.012299593114639337,0.016498623105386894
264,0.25,0.001,0.01028421768450249,0.007062755737519055,18.053073113424738,0.0128858480466986,0.01571337878704071
265,0.25,0.001,0.010286522250382872,0.007299121000874809,16.741396039550068,0.01194960459639548,0.016077042402078707
266,0.25,0.001,0.010290861739749796,0.0072622230461640664,16.972491214149876,0.012114554756709405,0.01187248636657993
267,0.25,0.001,0.01027544789909445,0.0072158460739498945,17.146009512114944,0.01223840793155956,0.01534027031933268
268,0.25,0.001,0.010292780574694363,0.007156876986029378,17.57360379180016,0.012543614412419815,0.016523512080311775
269,0.25,0.001,0.010310319818730592,0.007184912379809291,17.51478211921558,0.01250162892163853,0.012502790273477634
270,0.25,0.001,0.01023333118302606,0.007039273696902551,17.899497785066302,0.01277622968241706,0.01301302636663119
271,0.25,0.001,0.01020753535044472,0.0071553917579919276,17.10421237610934,0.012208574144260772,0.011726895347237587
272,0.25,0.001,0.010293719097318356,0.007244499171512169,17.087827838652316,0.012196879256711146,0.011324716731905937
273,0.25,0.001,0.010235978802393752,0.0071123677921312595,17.504717375102796,0.012494444950109063,0.01249060632350544
274,0.25,0.001,0.010163548941674986,0.007001511379531775,17.72005974619012,0.012648151139321998,0.014296611150105795
275,0.25,0.001,0.010251098012889337,0.007243005123141914,16.85735255235817,0.01203237155771461,0.010955708722273508
276,0.25,0.001,0.010183310969487616,0.007034951668472318,17.643406003539326,0.012593437547137277,0.013169254021098217
277,0.25,0.001,0.0101910638432318,0.007110302096875439,17.264588551214565,0.012323046788875493,0.016886191597829264
278,0.25,0.001,0.010175197657568065,0.00710264279381835,17.21859792519731,0.012290219789576954,0.015953967813402414
279,0.25,0.001,0.010199846471087974,0.007111911934239474,17.304786258273655,0.012351738942379483,0.011950053740292788
280,0.25,0.001,0.010275373518554091,0.007130794681891886,17.622219721476238,0.012578315290132933,0.01259693130850792
281,0.25,0.001,0.010253104778845407,0.007215977480297374,17.020061113681013,0.012148509003341194,0.012852257583290339
282,0.25,0.001,0.010241484966630127,0.007101853421687732,17.594495706390916,0.012558526557024208,0.01324817817658186
283,0.25,0.001,0.010227050735718675,0.007108982646979435,17.473655031438458,0.012472273398599899,0.01481819897890091
284,0.25,0.001,0.010219245789605275,0.0071931491273711295,16.958245032014904,0.012104386175599504,0.015896592754870653
285,0.25,0.001,0.010202271733106229,0.007178898976995931,16.94298125149911,0.012093491257315566,0.015383753304680189
286,0.25,0.001,0.010239292088656397,0.0071536557618201825,17.2919060668053,0.012342545372452034,0.01702768262475729
287,0.25,0.001,0.010169523985980198,0.007058848447182723,17.432225489476966,0.01244270199106136,0.015575832376877466
288,0.25,0.001,0.010259706292802479,0.0071998832976086094,17.14724956757841,0.01223929305323227,0.017177996536095936
289,0.25,0.001,0.010218608269348131,0.0071564948660109125,17.160083313434445,0.012248453471402174,0.0150518249720335
290,0.25,0.001,0.010315976225449676,0.007202289358587467,17.44910184402912,0.012454747925788094,0.014557218179106712
291,0.25,0.001,0.010277232002706556,0.0071841524505432235,17.333618331373785,0.012372318580566585,0.01753229834139347
292,0.25,0.001,0.010139967625339827,0.006958232312980626,17.830445228264345,0.012726941633307884,0.013526481886704763
293,0.25,0.001,0.010185115698354634,0.007145607604356537,17.03340282774808,0.012158031996965083,0.013632928176472584
294,0.25,0.001,0.010159159776324417,0.0071444828771272595,16.894249832421018,0.012058707946053546,0.01442675432190299
295,0.25,0.001,0.010179122583123675,0.007054287687009364,17.51157473960118,0.012499339571449808,0.017351940274238586
296,0.25,0.001,0.010198326334792968,0.007123782343029628,17.229745128698518,0.012298176394502867,0.015680620912462473
297,0.25,0.001,0.010077200160084064,0.006946738749437514,17.543104740611295,0.01252184492548986,0.01096806488931179
298,0.25,0.001,0.01013736086979247,0.007120427139081628,16.906897271585745,0.01206773538300196,0.010781814033786455
299,0.25,0.001,0.01017397859444221,0.007147951977469071,16.95785329495257,0.01210410656313531,0.01397575018927455
300,0.25,0.001,0.010212021411467365,0.0070842320034117025,17.528131027667843,0.012511157050441002,0.012896488731106123
301,0.25,0.001,0.010130322865096101,0.00699631140529238,17.562999970731678,0.012536045660764938,0.009967585249493519
302,0.25,0.001,0.010026254250030769,0.0069786401204111285,17.07882895664862,0.012190456071840558,0.011043351842090487
303,0.25,0.001,0.01008543089489665,0.007058064131970294,16.96536336307637,0.012109467068576995,0.014595152034113804
304,0.25,0.001,0.010075128152530793,0.007030360525942337,17.062877086170932,0.012179070011542422,0.010726334371914467
305,0.25,0.001,0.010123181053333812,0.0070235785287505355,17.370172746000232,0.01239841023982886,0.011761445396890243
306,0.25,0.001,0.010178827185031266,0.007052787013177635,17.518329285738762,0.012504160803525169,0.01449046159783999
307,0.25,0.001,0.010032578583872109,0.0069478937201419766,17.286574179666083,0.012338739600047168,0.014415429594616095
308,0.25,0.001,0.010081711938680961,0.0069670151042267245,17.454761393586097,0.012458787575721697,0.011085204314440489
309,0.25,0.001,0.01011061133566307,0.007008249560991923,17.385635520979676,0.012409447195560083,0.015407630242407322
310,0.25,0.001,0.010149127999810796,0.0070429489463132025,17.40702748438071,0.012424716262941263,0.017094650771468878
311,0.25,0.001,0.010162148374127366,0.007175384402514724,16.737826174462747,0.011947056512821375,0.01622303466623028
312,0.25,0.001,0.010146930034964056,0.006969571287869013,17.805918420267385,0.012709434989484215,0.013508750901867947
313,0.25,0.001,0.01017349334270285,0.007064257462492637,17.424158430936043,0.012436943919297675,0.012157446704804897
314,0.25,0.001,0.010087721556294383,0.006982149017092429,17.403629146821316,0.012422290611578384,0.013614681549370289
315,0.25,0.001,0.010253582607235825,0.007173935046735388,17.258346033375165,0.01231859103024637,0.013568132805327574
316,0.25,0.001,0.010139810215485724,0.0068872409943513,18.227398309094166,0.013010277165663216,0.011316809337586164
317,0.25,0.001,0.009945407335521185,0.006890181462928566,17.1214867865133,0.01222090420165118,0.011145225881288448
318,0.25,0.001,0.010238283357381472,0.007175143282555523,17.16583640115303,0.012252559886618865,0.019787923898547888
319,0.25,0.001,0.010087184341112424,0.0069863333159850705,17.37716877809045,0.012403403838751213,0.013181196991354227
320,0.25,0.001,0.009997721091566379,0.006996980974483385,16.81614785445364,0.012002960638439428,0.011342638249819478
321,0.25,0.001,0.01006484965178353,0.006986586123770266,17.250587742231044,0.012313053349201316,0.01066627229253451
322,0.25,0.001,0.010071516532603412,0.006969668684603527,17.382755636471753,0.01240739160347734,0.012553601991385221
323,0.25,0.001,0.01001549175020024,0.006924768092862347,17.320415217974034,0.012362894516755199,0.01796422355497877
324,0.25,0.001,0.010080893387832838,0.006972667548740119,17.418497977898134,0.01243290362448118,0.01566046041746934
325,0.25,0.001,0.010208042828660262,0.00708679980135452,17.491446177164715,0.012484972289196799,0.020092812987665336
326,0.25,0.001,0.010217688384068292,0.007131182212840047,17.296780067577696,0.012346024316615058,0.023525322477022808
327,0.25,0.001,0.010063903787505556,0.0070448839840920345,16.91858769020839,0.012076079721776153,0.016588228677089017
328,0.25,0.001,0.010149574500906188,0.007134229454010377,16.89799440395065,0.012061380730871272,0.02008073202644785
329,0.25,0.001,0.010175270306175216,0.00706096161538136,17.452586279975044,0.012457235032102101,0.018665007626016934
330,0.25,0.001,0.010146158257205235,0.007046632436022424,17.36974230983801,0.012398103004880806,0.021868988561133545
331,0.25,0.001,0.010234546629788234,0.0071362551541356315,17.36282509251645,0.012393165662038864,0.02421225265910228
332,0.25,0.001,0.010131452156350626,0.007052212131171547,17.25606125279477,0.012316960208989843,0.014883243556444844
333,0.25,0.001,0.01006992062695368,0.007025574181468514,17.060517299942106,0.012177385653063602,0.010868681905170282
334,0.25,0.001,0.009940171407328712,0.006813082838572605,17.524204544156614,0.012508354421239553,0.013680526676277319
335,0.25,0.001,0.010010618444161805,0.006965284802193879,17.066049436379593,0.012181334358586433,0.01335531504203876
336,0.25,0.001,0.010084263871462024,0.00696633710411557,17.472861384787755,0.012471706912767848,0.01791765494272113
337,0.25,0.001,0.010118295280644072,0.006980246638236513,17.58562504060087,0.012552194889793627,0.01887454294289152
338,0.25,0.001,0.010160995010090502,0.007170827514682597,16.756899370784648,0.011960670500203175,0.020676004079480965
339,0.25,0.001,0.010082410256329336,0.007037516394684537,17.063585560224208,0.012179575703229271,0.016947711041818064
340,0.25,0.001,0.010065274073453674,0.006895679749047373,17.762406499762285,0.012678377230379933,0.014866383280605078
341,0.25,0.001,0.009995538681440534,0.006897041007702114,17.36398052193268,0.012393990379680715,0.01054193964228034
342,0.25,0.001,0.009937577739314378,0.0068646633768813655,17.220612375359785,0.012291657655503059,0.011664396151900291
343,0.25,0.001,0.009972680882926573,0.006898671641880483,17.2267484274524,0.012296037421450677,0.012180877927069863
344,0.25,0.001,0.010047832732660729,0.006985040539494384,17.163887815865856,0.012251169033451716,0.010910728170226017
345,0.25,0.001,0.009998475626241742,0.00688313726847719,17.458357147306028,0.01246135413797718,0.013152102784564098
346,0.25,0.001,0.009990680374597249,0.006843338720500469,17.637702852661846,0.012589366775633009,0.012188306854416927
347,0.25,0.001,0.009938229403692728,0.006880596734866587,17.134975121035215,0.012230531849418426,0.01176637535293897
348,0.25,0.001,0.009973295920729985,0.006911019402507104,17.160998517309714,0.012249106721848476,0.014439668040722609
349,0.25,0.001,0.010016620665657939,0.0069937299887992835,16.940280021979795,0.01209156318485353,0.015506227500736713
350,0.25,0.001,0.010050915802518526,0.006917129679207216,17.56173632437723,0.01253514370048339,0.014002294900516668
351,0.25,0.001,0.010064204729962768,0.007011650740141757,17.106512805871795,0.012210216135525906,0.012821394484490156
352,0.25,0.001,0.009980725385902221,0.006834485241326324,17.63153060556155,0.012584961174562134,0.012644463839630285
353,0.25,0.001,0.00993581867248517,0.006952765961422732,16.71702691686084,0.011932210504540214,0.010913144641866287
354,0.25,0.001,0.009925616534742696,0.006862407296961337,17.16622415062977,0.012252836652840663,0.010938523802906275
355,0.25,0.001,0.010005176149047258,0.0069249662739491605,17.2614969510084,0.012320840079235118,0.012656706074873606
356,0.25,0.001,0.009995574790614041,0.006898000923513669,17.35880434582805,0.012390295750055711,0.012120211031287909
357,0.25,0.001,0.009961540467644992,0.006897716385404966,17.169669580738447,0.012255295917729083,0.015414935924733678
358,0.25,0.001,0.009895489611036597,0.006809839314361762,17.29198410078796,0.012342601071226238,0.014365068481614193
359,0.25,0.001,0.009971884308023411,0.006866011537110422,17.405310764647368,0.01242349090981254,0.013039212363461653
360,0.25,0.001,0.010066982102716527,0.006994865246509251,17.216143591362133,0.01228846794529774,0.014096116336683432
361,0.25,0.001,0.00996748212049579,0.006893759990949729,17.225139060215643,0.012294888693944071,0.015465404372662306
362,0.25,0.001,0.01004724200727821,0.007011035762247983,17.014899772510194,0.012144824962534042,0.016403732355684042
363,0.25,0.001,0.009986516344224849,0.0068740983526304105,17.441989854065298,0.012449671558933117,0.012690794964631399
364,0.25,0.001,0.009906164844307983,0.006829339485310498,17.242528246160138,0.012307300675346279,0.01184298393006126
365,0.25,0.001,0.009961637363317068,0.006882550652351296,17.255201886271873,0.012316346813898553,0.0136252804659307
366,0.25,0.001,0.01002455752190442,0.007003476309497454,16.930138738531817,0.01208432458139316,0.0148871384250621
367,0.25,0.001,0.009980978237258064,0.006878794443232623,17.38463886997156,0.012408735810115317,0.012931780967240533
368,0.25,0.001,0.009961715120582552,0.006973043356461135,16.748518068190904,0.01195468812861592,0.015576883840064207
369,0.25,0.001,0.00994336435146499,0.00684475826034159,17.364587794967562,0.012394423836522171,0.01593505482499798
370,0.25,0.001,0.01001420143272793,0.006898293298892459,17.46155021622864,0.012463633273539358,0.016745505544046562
371,0.25,0.001,0.010005988855982384,0.006979107333902727,16.962644409715082,0.012107526345264156,0.015648608251164358
372,0.25,0.001,0.010052298152089467,0.006971233619692904,17.266286749588815,0.012324258921904935,0.015775364978859823
373,0.25,0.001,0.00988017101036875,0.006846400005034885,17.001253557484052,0.012135084623471843,0.012830694826940695
374,0.25,0.001,0.009825814564369227,0.006798752229551823,16.963657211839106,0.0121082492589858,0.014394182246178389
375,0.25,0.001,0.009892924421886254,0.0067996917188995415,17.334475132456998,0.012372930144508921,0.01093468830610315
376,0.25,0.001,0.009946778373062959,0.006819678048401723,17.52427020825838,0.012508401290691206,0.015458180258671442
377,0.25,0.001,0.009982239531233297,0.006978209699607558,16.834583204392104,0.012016119346461173,0.0150833196627597
378,0.25,0.001,0.009932425739080236,0.006813829949899026,17.476610116791306,0.012474382667231483,0.012050937240322432
379,0.25,0.001,0.009901585956022405,0.006832000788584439,17.201954534876418,0.012278340139098086,0.011159857735037804
380,0.25,0.001,0.009878404808846133,0.0068225387472942555,17.125073416191235,0.012223464251385607,0.011288163562615713
381,0.25,0.001,0.009841998957358954,0.00679158224392007,17.094536318416484,0.012201667607720545,0.012245005772759518
382,0.25,0.001,0.009849526821390578,0.006818457610077328,16.986112382676865,0.012124277218184772,0.014164469204843044
383,0.25,0.001,0.009938329915728485,0.006850940003795059,17.30173368621291,0.01234956009008773,0.01407037458072106
384,0.25,0.001,0.009950716930784677,0.0067943631595120445,17.688206544396472,0.01262541509236008,0.013670798856765032
385,0.25,0.001,0.009815755545308716,0.006776402268711238,17.032536244531823,0.012157413450772179,0.012863989764203628
386,0.25,0.001,0.00984870759519743,0.006861808589980965,16.738581149898774,0.011947595396073358,0.0112102796168377
387,0.25,0.001,0.009915726738627891,0.006854294107584228,17.15626931887621,0.012245731134101505,0.0137743193966647
388,0.25,0.001,0.009880413982080437,0.006804048699157977,17.23995164123892,0.012305461556915719,0.011882408366849026
389,0.25,0.001,0.00984876420980657,0.006804452127945876,17.060324886388948,0.012177248312911454,0.011098932552461823
390,0.25,0.001,0.009933706198693716,0.0068810137958205935,17.107289007532668,0.012210770169545087,0.012128354515880346
391,0.25,0.001,0.010059168562293053,0.006898667785878244,17.711447910955776,0.012642004219097627,0.017161319963634014
392,0.25,0.001,0.009871873231223452,0.00671531222706214,17.68937004937066,0.01262624557414037,0.016231303724149864
393,0.25,0.001,0.010014203720186887,0.006964374998072434,17.0912392097607,0.012199314211106854,0.019575084714839857
394,0.25,0.001,0.009985986154809681,0.006963188841677548,16.939756371124446,0.012091189415506385,0.01731990712384383
395,0.25,0.001,0.010034085703436394,0.006921988664118693,17.440191681622064,0.01244838806682517,0.022800841989616554
396,0.25,0.001,0.009904072157036491,0.0068709297781015,16.997730154740182,0.01213256970359756,0.01602081209421158
397,0.25,0.001,0.010018162004518927,0.006951331784567464,17.186517626221416,0.012267321646125208,0.013827598032852014
398,0.25,0.001,0.009957891022949888,0.006880814648010054,17.24393600330018,0.012308305498429822,0.014353048677245775
399,0.25,0.001,0.009942581419620598,0.0068765750470740055,17.18190088327865,0.01226402632639447,0.014817766069124142
400,0.25,0.001,0.00994392770903501,0.0068346720885986475,17.42426826521667,0.012437022316357366,0.011866152907411257
401,0.25,0.001,0.009863712514440218,0.0067628776867008,17.377078798082138,0.012403339613192104,0.012123364489525557
402,0.25,0.001,0.009958858661658583,0.006937615840276431,16.931046937641344,0.01208497283200667,0.012934865740438303
403,0.25,0.001,0.009892218915081163,0.006764402291710265,17.528283024391932,0.012511265542035641,0.013081617342929045
404,0.25,0.001,0.00986372475779196,0.006759461459338839,17.396290550455014,0.012417052498540339,0.012199342250823975
405,0.25,0.001,0.009913918420628847,0.0069343720437490455,16.697377857409027,0.01191818547994934,0.0189007930457592
406,0.25,0.001,0.01001953122843253,0.006900013005088645,17.48178141856054,0.012478073817673477,0.015734435835232336
407,0.25,0.001,0.009910233079167137,0.0067434513189813545,17.746645933006242,0.012667127718062984,0.0124838020807753
408,0.25,0.001,0.009968437254428864,0.006912801107010472,17.123786312794824,0.012222545548033422,0.014948512272288402
409,0.25,0.001,0.00986425618897056,0.00683245697597924,16.99020312125223,0.012127197088688244,0.015620043346037468
410,0.25,0.001,0.009878021207425678,0.0068223846433629765,17.123787952445404,0.01222254671837645,0.013920957998683056
411,0.25,0.001,0.00987736221773234,0.00676495654846144,17.441921847605567,0.01244962301756286,0.011366814297313491
412,0.25,0.001,0.009946696302303446,0.0069075597161481605,17.031322613097075,0.012156547189933671,0.0141793309400479
413,0.25,0.001,0.00984036220422788,0.006710558519725911,17.539420981156198,0.01251921554686381,0.010849382262676954
414,0.25,0.001,0.00998021565835204,0.006973677755970704,16.84863951610543,0.012026152402644846,0.014704086352139711
415,0.25,0.001,0.00987306448538401,0.006728404294154797,17.62267537702594,0.012578640526071334,0.01661663642153144
416,0.25,0.001,0.009945491236247862,0.0068146357454403105,17.54531543017828,0.01252342286236851,0.013240637878576914
417,0.25,0.001,0.009835286365484286,0.006790911460197286,17.060677578574733,0.012177500056084749,0.013850229637076458
418,0.25,0.001,0.00981895237812522,0.006848253974179078,16.647793251171446,0.01188279318427655,0.013573472698529562
419,0.25,0.001,0.009914958756961668,0.006843645169198165,17.21164123356691,0.012285254270925701,0.010167486034333706
420,0.25,0.001,0.009828125502456698,0.006671674132935311,17.68875355190701,0.012625805533124203,0.009836984565481544
421,0.25,0.001,0.009776896366860435,0.006650746527688893,17.51894500241642,0.012504600287235131,0.01116551598533988
422,0.25,0.001,0.009785221181592049,0.0068212916219487175,16.609862913165177,0.011855719424100769,0.01292378455400467
423,0.25,0.001,0.009765605752666792,0.006711449087406808,17.1154941313448,0.01221662678896845,0.012364859537531933
424,0.25,0.001,0.009773620840009541,0.006712510435684034,17.154462870101483,0.012244441734547811,0.012435576102385918
425,0.25,0.001,0.009900508394018251,0.006814067889201014,17.29641332682113,0.012345762545910872,0.01492308274221917
426,0.25,0.001,0.009805746371068104,0.006707496543507478,17.362592250980132,0.012392999465367689,0.014240798850854238
427,0.25,0.001,0.009824286296702268,0.006877415505787957,16.514264357717412,0.01178748348159701,0.013226682785898447
428,0.25,0.001,0.009825098540699273,0.006734958019281863,17.31714839823762,0.012360562739641413,0.01294318058838447
429,0.25,0.001,0.009802462407850732,0.00663473813560361,17.751926009417975,0.012670896509220538,0.01198861887678504
430,0.25,0.001,0.009853665117849733,0.00685470257422816,16.806185839468974,0.011995849992483208,0.0187601779277126
431,0.25,0.001,0.009853811411742578,0.00675116646054544,17.387223093133223,0.012410580366262115,0.02017391457532843
432,0.25,0.001,0.009944577336485624,0.006985215570951937,16.584264744094938,0.011837448068590248,0.018004874388376873
433,0.25,0.001,0.009810744202014996,0.006774680656299256,17.014099734568457,0.012144253914752646,0.022340454161167145
434,0.25,0.001,0.0098073194402526,0.006832056341159065,16.67337427641216,0.011901052302935162,0.0133751155808568
435,0.25,0.001,0.009811329900434143,0.006719119803250184,17.328746293720446,0.012368841037630583,0.016545421443879604
436,0.25,0.001,0.009833396439663848,0.0067731014817778825,17.149894379732903,0.012241180856340402,0.014088225395729145
437,0.25,0.001,0.009830001768879375,0.006704526517692714,17.51516304239195,0.012501900815411814,0.010622812900692225
438,0.25,0.001,0.00972584162822418,0.006654460271765963,17.212021766350283,0.012285525886045883,0.010257153150935968
439,0.25,0.001,0.009755162053812317,0.006743057464843082,16.879833411055003,0.012048417852287654,0.012075585002700487
440,0.25,0.001,0.009752195927570437,0.006630898766459254,17.4917495459841,0.012485188826541113,0.01237611286342144
441,0.25,0.001,0.009775160403366675,0.006803157657646297,16.65510440848724,0.011888011711982328,0.011572931737949451
442,0.25,0.001,0.009788286349360357,0.006732308567223842,17.12569993002373,0.012223911441844202,0.012998720475782951
443,0.25,0.001,0.009842983964416716,0.006769052938127901,17.22630873339915,0.012295723578443362,0.013588867460687956
444,0.25,0.001,0.00966372145938943,0.0066203315257590415,17.055157377008808,0.012173559869385302,0.009352285647764802
445,0.25,0.001,0.00981106410314988,0.006791425114552005,16.922056454664084,0.012078555642158519,0.01165322819724679
446,0.25,0.001,0.009787948061412538,0.006684389553572002,17.39234184800533,0.012414234009996666,0.014433469778547684
447,0.25,0.001,0.00981961467918771,0.006661261257590257,17.699412050302964,0.012633413312136306,0.01902194336677591
448,0.25,0.001,0.009803542616771676,0.006726872265796389,17.241660357915865,0.012306681197655864,0.011720665420095125
449,0.25,0.001,0.009820495334546469,0.006846043297596145,16.668828953079313,0.011897807960798939,0.013079568278044462
450,0.25,0.001,0.00980402435562764,0.006728154059760926,17.237177240918253,0.012303481256900966,0.01308537848914663
451,0.25,0.001,0.00983718877429502,0.006792908104147479,17.060148551450137,0.012177122449286322,0.014177730772644281
452,0.25,0.001,0.00986852531718929,0.006745903918857289,17.499170559888693,0.012490485767229617,0.011689298320561647
453,0.25,0.001,0.009751949535562979,0.0066611453324382066,17.320866835744756,0.01236321687062438,0.012455702293664217
454,0.25,0.001,0.009838806672228707,0.0068480272488723026,16.7603267312747,0.011963116867433761,0.012639157784481844
455,0.25,0.001,0.00989045523520973,0.006748321082181575,17.608520217806277,0.012568536914922396,0.011329109935710827
456,0.25,0.001,0.00979572990963682,0.00664578590607434,17.65228636222973,0.01259977613292629,0.011314275364081064
457,0.25,0.001,0.009841346900844783,0.006762058702869373,17.256330590499076,0.012317152455745236,0.017385221707324188
458,0.25,0.001,0.009731896521185923,0.006728535931971338,16.830832899662486,0.012013442469423615,0.015440592697511116
459,0.25,0.001,0.009780093199676938,0.006720024967097748,17.14862158702828,0.012240272367614762,0.015121059957891703
460,0.25,0.001,0.009843028101481889,0.0067175770428968455,17.515029092978317,0.012501805205551974,0.01335148730625709
461,0.25,0.001,0.009802777668711736,0.0068001041014553515,16.826983212030424,0.012010694655267969,0.01457474947286149
462,0.25,0.001,0.009739000573536457,0.006682058804456079,17.13110207674796,0.012227767363845796,0.01284691800052921
463,0.25,0.001,0.009780991735339861,0.006608453906026848,17.77890111688982,0.012690150690142626,0.013467457766334215
464,0.25,0.001,0.009761151732408513,0.00678668740308947,16.668897372240213,0.011897856796745335,0.011534918565303087
465,0.25,0.001,0.009750405549785198,0.006739460721568406,16.87333633467468,0.012043780395913405,0.010299643268808722
466,0.25,0.001,0.00978128822269844,0.006694522765274459,17.298233456081814,0.012347061710265391,0.011590193336208662
467,0.25,0.001,0.009719474638719656,0.00661649414724861,17.38910274617156,0.012411922017253076,0.011618252998838821
468,0.25,0.001,0.009726412561640405,0.006734200312118781,16.76835825289899,0.011968849573803706,0.012263941578567028
469,0.25,0.001,0.009727006189917264,0.00675930831940812,16.63097850063391,0.011870791221009213,0.010247105810170373
470,0.25,0.001,0.009730520810692282,0.006647561834743846,17.276902382833917,0.012331836104806508,0.009277579529831806
471,0.25,0.001,0.009680196773587611,0.006608279269428281,17.215025840446962,0.01228767012166093,0.011870048008859158
472,0.25,0.001,0.009690692550257632,0.006641734930637635,17.086359224821393,0.01219583099558986,0.010740656716128191
473,0.25,0.001,0.009686221646373732,0.006715820465040834,16.646128102352744,0.011881604641222515,0.01206698858489593
474,0.25,0.001,0.009691436099683681,0.006643373690741627,17.081342184055618,0.012192249952930492,0.011918673602243265
475,0.25,0.001,0.009663271069613814,0.006590563449899704,17.219453365482085,0.012290830382214193,0.010880770161747932
476,0.25,0.001,0.009707636374174154,0.00663588203664063,17.21411258853667,0.012287018264480134,0.010582631764312586
477,0.25,0.001,0.00965746932755611,0.006588214907620908,17.20010060315941,0.012277016847365745,0.01066729643692573
478,0.25,0.001,0.009689868558524993,0.006679460357286428,16.87032823953015,0.012041633290171412,0.012593328797568878
479,0.25,0.001,0.009760688538309078,0.0066901166509422995,17.207484228569164,0.012282287101048655,0.01118338123584787
480,0.25,0.001,0.009720856656064416,0.006598870515039093,17.495609941538316,0.01248794428375326,0.014656177256256342
481,0.25,0.001,0.009819666245048158,0.006728129306187232,17.32497122692086,0.012366146486024882,0.01138349405179421
482,0.25,0.001,0.009688267920013757,0.00660314211316886,17.289044876544796,0.012340503123872089,0.012490703724324703
483,0.25,0.001,0.009722646478323908,0.006638002162526923,17.286348476744536,0.012338578498746993,0.011458315110454956
484,0.25,0.001,0.009749931424899756,0.00663963680792796,17.430090697885255,0.012441178228326378,0.013279342713455359
485,0.25,0.001,0.009729681394950689,0.006724034073866076,16.843648620516237,0.012022590021781755,0.01286375398437182
486,0.25,0.001,0.009726776136902341,0.006580655822497711,17.630859503271985,0.012584482157938604,0.011234430751452843
487,0.25,0.001,0.009669968286496505,0.006675537520398696,16.78079036244175,0.01197772331366292,0.012827459877977768
488,0.25,0.001,0.009765659328223321,0.006673412038046017,17.328953436243605,0.01236898889096617,0.015191171007851759
489,0.25,0.001,0.00965951569378376,0.006579949574991625,17.25788874932897,0.01231826463192646,0.01275587361305952
490,0.25,0.001,0.009681502983453329,0.006668016347184516,16.887578824807328,0.012053946341761119,0.010662949178367853
491,0.25,0.001,0.0096324506591548,0.006611348723458965,16.930255544115926,0.01208440795440109,0.009939652169123292
492,0.25,0.001,0.009563211161011493,0.00654043314150638,16.939649626525522,0.012091113223786953,0.01055290480144322
493,0.25,0.001,0.00964245499705362,0.00660101392398975,17.044235564114754,0.012165764142837083,0.010245280805975199
494,0.25,0.001,0.009782517307073052,0.006649957245422734,17.554866891158255,0.012530240464781054,0.0164316453350087
495,0.25,0.001,0.00975877677270195,0.006636524363284746,17.497102692810415,0.012489009773597726,0.01617607893422246
496,0.25,0.001,0.009716047671193268,0.0067051527504291795,16.873055820576628,0.012043580171717793,0.01563350933914383
497,0.25,0.001,0.009714070239175133,0.006562708926044013,17.660228751556218,0.012605445218812433,0.011890174200137457
498,0.25,0.001,0.009652366240819296,0.006654799883172177,16.79836105882076,0.011990264852834233,0.011332079147299131
499,0.25,0.001,0.009617182932663382,0.006535090495184151,17.27204565974007,0.012328369493033597,0.011898978768537441
500,0.25,0.001,0.00974983052617451,0.006585976411180015,17.730237258108037,0.012655415601790176,0.011901269822070995
