epoch,beta,learning_rate,train_loss,train_reconstruction_loss,train_kl_unnormalized,train_kl_normalized,mean_unclipped_gradient_norm
1,0.0,0.001,0.08676205682861912,0.08676205682861912,6.16859701517466,0.00440299572817606,0.1075158342719078
2,0.02,0.001,0.08171370007970312,0.08022187918693095,104.50186102239935,0.07459090722512444,0.15078221261501312
3,0.04,0.001,0.0766151910563847,0.06907597694311056,264.06091638513516,0.1884803114811814,0.18699727207422256
4,0.06,0.001,0.07021118163525521,0.05928517733742525,255.1222846228797,0.18210013177935738,0.17462607473134995
5,0.08,0.001,0.06269745505205146,0.05205694028923103,186.34198602899775,0.13300641401070504,0.1573921963572502
6,0.1,0.001,0.055576116215806826,0.04709625834817285,118.80281321207683,0.08479858187871293,0.15742618590593338
7,0.12,0.001,0.04843362800038613,0.04058953743797165,91.57976002736135,0.06536742328862337,0.14556080102920532
8,0.14,0.001,0.043949569130803015,0.03467173850885383,92.84458524686796,0.06627022501560882,0.0973547101020813
9,0.16,0.001,0.041411816167670326,0.03185649622265283,83.66877169222445,0.059720750672537085,0.07984691485762596
10,0.18,0.001,0.039664999724508404,0.032389847175763535,56.62494033950943,0.04041751630229081,0.06630827486515045
11,0.2,0.001,0.0382403640730961,0.03248504143174704,40.31603835509704,0.028776615528263414,0.0796373263001442
12,0.22,0.001,0.036812489432794554,0.031099762197013374,36.37968197384396,0.025966939310381125,0.05115259811282158
13,0.24,0.001,0.03539551375014288,0.030434262913626595,28.96130219880525,0.02067187880000375,0.06406564451754093
14,0.25,0.001,0.03447128724944484,0.03129191639589834,17.817191974536794,0.01271748178054018,0.0537762064486742
15,0.25,0.001,0.03291282896791493,0.03018157758020066,15.305928909026825,0.01092500279016904,0.024386070668697357
16,0.25,0.001,0.03295502976120055,0.030196666113428167,15.457873353013047,0.011033457068531797,0.048230499029159546
17,0.25,0.001,0.03237485902400704,0.030158053244556393,12.422976072844085,0.008867220608739533,0.04462585598230362
18,0.25,0.001,0.03199255489954003,0.029589121892779797,13.468837342820725,0.009613731151192524,0.06410644575953484
19,0.25,0.001,0.03154468841783635,0.02918413449246604,13.228548917684469,0.009442219070438592,0.032093764282763004
20,0.25,0.001,0.031224747465268987,0.0289002811653657,13.026316376419755,0.009297870361470204,0.04112975485622883
21,0.25,0.001,0.030715579955695984,0.028132510161748878,14.475519695797482,0.01033227672790684,0.04292029980570078
22,0.25,0.001,0.030304526473890554,0.02798464843952978,13.00059495530687,0.009279511031625175,0.02465625572949648
23,0.25,0.001,0.02960823801857931,0.02753725317348768,11.605798918921668,0.00828393927117892,0.04250693880021572
24,0.25,0.001,0.029184873408830917,0.027208036147393623,11.078199996604576,0.007907351889082495,0.018245838582515717
25,0.25,0.001,0.028451575738218455,0.026368492123511462,11.673604827743393,0.00833233749303597,0.028462483547627926
26,0.0,0.001,0.02568197710154293,0.02568197710154293,14.575487248532406,0.010403631155269384,0.043300749734044075
27,0.02,0.001,0.024743797140078502,0.024464529695677327,19.56268138713665,0.013963370012231727,0.06170479953289032
28,0.04,0.001,0.02388372711904414,0.023032998968217824,29.796729663470845,0.021268186769072696,0.0494588278234005
29,0.06,0.001,0.02380033293822864,0.02217003531955384,38.06745209565034,0.02717162890481823,0.04725642316043377
30,0.08,0.001,0.02394306944968464,0.02149129573356461,42.936686988349436,0.030647171297893957,0.02337103709578514
31,0.1,0.001,0.024107802357222582,0.02101207039579078,43.37120959995029,0.03095732305492526,0.018308023922145367
32,0.12,0.001,0.023682595171906927,0.02026477392326604,39.90306043195295,0.028481841850073485,0.03555680625140667
33,0.14,0.001,0.02346161366985725,0.020065258248700753,33.98780705907323,0.024259676701693957,0.014902007766067982
34,0.16,0.001,0.023475282414405194,0.0202801524250357,27.977358345512872,0.019969563415783636,0.03889000043272972
35,0.18,0.001,0.023404583972585095,0.020427526268470393,23.171429058452983,0.016539207036725897,0.08000046014785767
36,0.2,0.001,0.023726674619021716,0.020538275339850434,22.334740527041323,0.015941998948637633,0.09804794564843178
37,0.22,0.001,0.02340578564719574,0.020231534886333318,20.214209943204313,0.014428415377019495,0.049358200281858444
38,0.24,0.001,0.023956487525825028,0.020599393576786324,19.59703488392873,0.013987890709442346,0.07555345073342323
39,0.25,0.001,0.023681131636237238,0.019893993195649738,21.22312647157961,0.015148555654232414,0.11724137142300606
40,0.25,0.001,0.023940486195790874,0.020472152477449126,19.436539761654966,0.013873333163208398,0.06553881196305156
41,0.25,0.001,0.02498663938394538,0.02189037692103837,17.351455843126452,0.012385050566114527,0.17901336401700974
42,0.25,0.001,0.02312479621252498,0.019895433406303595,18.097350644635725,0.012917452280253908,0.055148692801594734
43,0.25,0.001,0.0236693538121275,0.020048405337441073,20.29179521509119,0.014483793872299209,0.12467218562960625
44,0.25,0.001,0.023137852213941178,0.019660922287552205,19.484717601054424,0.013907721342651266,0.03473708173260093
45,0.25,0.001,0.023166608015024983,0.019832692587295093,18.683262438387484,0.013335661983145956,0.07229404151439667
46,0.25,0.001,0.023049683553410007,0.019768097110696742,18.3900126036223,0.01312634732592598,0.05565278511494398
47,0.25,0.001,0.022695995884032937,0.019432536771034334,18.288422094809043,0.013053834471669553,0.0538104297593236
48,0.25,0.001,0.022317918688730076,0.019180850990049472,17.580125894632424,0.01254826973207168,0.06910458952188492
49,0.25,0.001,0.022275976450727868,0.01939696704482173,16.133969341312444,0.01151603807374193,0.03437883034348488
50,0.25,0.001,0.02245018314066771,0.019685542546548286,15.493045093776944,0.011058561808548854,0.08151210471987724
51,0.0,0.001,0.019216667860746384,0.019216667860746384,16.641996383666992,0.01187865552010492,0.06378421746194363
52,0.02,0.001,0.018965208634465665,0.018674081543812882,20.393459766834706,0.014556359576612924,0.039453212171792984
53,0.04,0.001,0.01933927109112611,0.018633320558447023,24.72592207762572,0.017648766650696448,0.07670685090124607
54,0.06,0.001,0.019183697195740434,0.017999879378187762,27.64213008708782,0.019730285572510935,0.013496669474989176
55,0.08,0.001,0.01992562918311304,0.018205850443861506,30.117631929414767,0.021497239064535878,0.07527727261185646
56,0.1,0.001,0.019685129173569852,0.017367559543869517,32.46914748458175,0.023175694136032654,0.030363583005964756
57,0.12,0.001,0.02024153591477656,0.017429118237651146,32.834977605321384,0.02343681485033646,0.07232437282800674
58,0.14,0.001,0.020293343459834922,0.017333582698090655,29.618747986114776,0.02114114774169506,0.022990863770246506
59,0.16,0.001,0.020903237885585776,0.017919200665510452,26.128974983284067,0.01865023196522774,0.030931374058127403
60,0.18,0.001,0.021075512895041757,0.01796843937119922,24.183386725348395,0.017261518005245106,0.042506580241024494
61,0.2,0.001,0.021106093182220117,0.01771226860079411,23.773743895797043,0.016969124836400458,0.020645056385546923
62,0.22,0.001,0.02136017491218743,0.017759807709906553,22.927794258873742,0.016365306394627938,0.048625273630023
63,0.24,0.001,0.02164627685471698,0.01806996373442916,20.876730515076233,0.014901306577499095,0.033254265785217285
64,0.25,0.001,0.021529501824228612,0.018038388408787617,19.564195907867706,0.013964451040590797,0.02292761579155922
65,0.25,0.001,0.021708134779924743,0.01832653379050998,18.950493340019708,0.013526404953618636,0.019465257413685322
66,0.25,0.001,0.021689354769281438,0.0183622135302505,18.645300564465224,0.013308565713394165,0.034338315948843956
67,0.25,0.001,0.021482355607388256,0.018181907449353923,18.49570875769263,0.013201790690715653,0.0286429850384593
68,0.25,0.001,0.021581406394640606,0.01832738436490029,18.235541489747195,0.01301608957155403,0.008359171682968736
69,0.25,0.001,0.0215421548230691,0.01829446310194226,18.20006616265924,0.01299076813894307,0.011773735750466585
70,0.25,0.001,0.021181937072191154,0.017922121997889097,18.26800602405995,0.013039261972919308,0.01881377538666129
71,0.25,0.001,0.021585391012129484,0.01840604846743313,17.817035460257316,0.012717370064423495,0.024131220765411854
72,0.25,0.001,0.02151398669492017,0.018351132570354787,17.724632589666694,0.012651415124672872,0.032361074816435575
73,0.25,0.001,0.02138015178141293,0.018053294369229325,18.64371139938767,0.013307431405701406,0.03817374585196376
74,0.25,0.001,0.021605597171294795,0.018212579543123376,19.014475349907404,0.013572073768670524,0.038459302857518196
75,0.25,0.001,0.02134356924609558,0.017946029283307696,19.03981201927941,0.013590158472005289,0.019810758531093597
76,0.0,0.001,0.018112742300103377,0.018112742300103377,18.861516385465055,0.013462895350082124,0.0671764463186264
77,0.02,0.001,0.017878354451543576,0.017578582103187974,20.999013505540454,0.01498858922593894,0.03378632105886936
78,0.04,0.001,0.0178871445257116,0.017197663383977907,24.149092545380462,0.017237039646952508,0.03635705541819334
79,0.06,0.001,0.01806242404891564,0.01690483151993773,27.029792527894717,0.019293213795784952,0.022855800110846758
80,0.08,0.001,0.018516425261492126,0.016850670766051824,29.171519047505146,0.020821926514992966,0.04475889913737774
81,0.1,0.001,0.018680613890692994,0.016456972572717582,31.153215528608442,0.022236413653539216,0.024039701092988253
82,0.12,0.001,0.01909532683255436,0.016285350160287308,32.80647764120016,0.023416472263526167,0.04108539782464504
83,0.14,0.001,0.019650041251569182,0.01651134506404937,31.409384873536258,0.022419261151703253,0.03640397917479277
84,0.16,0.001,0.019744478216445125,0.016541373404162424,28.04718491837785,0.020019403938884975,0.028179781045764685
85,0.18,0.001,0.02009880465564427,0.016841880104563257,25.34973025966335,0.018094025881272912,0.027419400867074728
86,0.2,0.001,0.02037538754174838,0.017005804892595823,23.603924605223508,0.016847911923785517,0.014202790334820747
87,0.22,0.001,0.02024295231377756,0.016758445314727387,22.189975652608787,0.015838669273810696,0.03535354509949684
88,0.24,0.001,0.020942057407385594,0.017466789900182602,20.28687214207005,0.014480279901548928,0.028882817830890417
89,0.25,0.001,0.02037107132308118,0.016904469957021443,19.426835378011067,0.013866406408287698,0.022798501886427402
90,0.25,0.001,0.02080495395437554,0.017487681663788116,18.58999274657653,0.013269088327320865,0.013323907740414143
91,0.25,0.001,0.020581067195749498,0.017351315298058965,18.09952775422517,0.012919006248554726,0.013122149743139744
92,0.25,0.001,0.020820688506638683,0.017637487098171905,17.838658805366034,0.012732804286485391,0.042037258855998516
93,0.25,0.001,0.02062547814335909,0.01742146274930722,17.955305769636823,0.012816064075401016,0.03452469501644373
94,0.25,0.001,0.02075820704838177,0.017497395475705464,18.27358541402731,0.01304324440687174,0.04042940307408571
95,0.25,0.001,0.020487716824219033,0.01708909830598681,19.045856613296646,0.013594472957385187,0.027150936890393496
96,0.25,0.001,0.020980585081217525,0.017533053887319995,19.319962252367723,0.013790122949584385,0.06678537279367447
97,0.25,0.001,0.020587620333776816,0.017334481684474257,18.23058745238158,0.013012553499201699,0.030384177342057228
98,0.25,0.001,0.020736042275890574,0.017602939511070382,17.55790971635698,0.012532412359997845,0.039633600041270256
99,0.25,0.001,0.02035335501706278,0.017272245440934156,17.266539616627735,0.012324439412296741,0.032163213938474655
100,0.25,0.001,0.0204908366205993,0.017401800667111937,17.310956559739672,0.012356143154703549,0.03644916694611311
101,0.25,0.001,0.02019066392100072,0.017144204176089785,17.072361550889575,0.012185839793639953,0.02379555907100439
102,0.25,0.001,0.020359041219627536,0.017299992594498773,17.142912959193325,0.012236197686790382,0.051572294905781746
103,0.25,0.001,0.019934621966771177,0.016798802878002863,17.57312941336417,0.012543275812536881,0.017781220376491547
104,0.25,0.001,0.020344372922638514,0.017188333864281844,17.686445597055798,0.012624158170632262,0.021202963311225176
105,0.25,0.001,0.02031970515780084,0.017239509653803463,17.26141658989159,0.0123207827194087,0.019065451808273792
106,0.25,0.001,0.020079134535547848,0.017015070578939206,17.17101592845745,0.012256256908249429,0.008532332722097635
107,0.25,0.001,0.02013578453847954,0.017070528438633627,17.1776982384759,0.012261026579925697,0.013514908961951733
108,0.25,0.001,0.020204882397576496,0.017097206836616672,17.415409242784655,0.012430698959874843,0.010168613865971565
109,0.25,0.001,0.020211706223251583,0.017063878157788568,17.640426429542334,0.012591310799102308,0.013440789189189672
110,0.25,0.001,0.020156134104540757,0.01696548481715155,17.880402951627165,0.012762600250982987,0.019161574076861143
111,0.25,0.001,0.019785305485129356,0.016571657899934967,18.009285935410507,0.012854593815425058,0.01972341723740101
112,0.25,0.001,0.02006373826313663,0.016900164066805497,17.728671890121323,0.01265429827988674,0.024686763528734446
113,0.25,0.001,0.01962581783667341,0.016451518831623567,17.788767651394682,0.012697193184435891,0.040567394345998764
114,0.25,0.001,0.019771784560771676,0.016718683059553843,17.109583828900313,0.012212408157673315,0.017802422400563955
115,0.25,0.001,0.02006765455007553,0.017126730685164262,16.48093739071408,0.011763695496583924,0.02401664201170206
116,0.25,0.001,0.02016415878257773,0.017230575786786037,16.439799953151393,0.011734332586118053,0.040721671655774117
117,0.25,0.001,0.019666667087926522,0.016541845777684503,17.511501191972613,0.012499287074926918,0.021581561770290136
118,0.25,0.001,0.019787729323447287,0.016532678912217554,18.241303280667143,0.013020202198905883,0.03602675814181566
119,0.25,0.001,0.01960271019656379,0.016438499244081008,17.73223706838247,0.012656843018117396,0.008631592616438866
120,0.25,0.001,0.01976120399797822,0.016716545305072186,17.06226854066591,0.012178635646442478,0.018309709150344133
121,0.25,0.001,0.019554048306770152,0.01661581728976589,16.465850194295246,0.011752926619768199,0.023254983127117157
122,0.25,0.001,0.01965377525099226,0.016749849022777232,16.273606076970832,0.011615707406831429,0.022468638606369495
123,0.25,0.001,0.019734332220511394,0.016756517527339695,16.68767248617636,0.011911258020111606,0.01599368592724204
124,0.25,0.001,0.01952755530071151,0.01632031885621784,17.973353566350163,0.01282894615728063,0.025907463394105434
125,0.25,0.001,0.019748943883019524,0.016492247950654845,18.250524452140738,0.013026784048637215,0.020639856345951557
126,0.25,0.001,0.01926873424635814,0.016121152603814193,17.6390478976138,0.012590326836269665,0.031139038503170013
127,0.25,0.001,0.019379411631070816,0.016488855922812812,16.198673213924373,0.011562222136990987,0.027433610055595636
128,0.25,0.001,0.01940804139316619,0.016640429158468504,15.509701703045819,0.011070450894393874,0.025509451515972614
129,0.25,0.001,0.0195086381758924,0.016669901373150112,15.908282039401767,0.011354947922485202,0.03368294658139348
130,0.25,0.001,0.019512370497256785,0.01662926873410339,16.156901574349618,0.01153240654842942,0.01672728732228279
131,0.25,0.001,0.019486082516409254,0.016442119135512964,17.058372858408337,0.012175855002432788,0.024265984538942575
132,0.25,0.001,0.019305799911553796,0.016129718128558214,17.798763103313274,0.01270432769686886,0.025593969970941544
133,0.25,0.001,0.019232492424077815,0.016094309487589845,17.586379205858385,0.012552733194759733,0.03623500466346741
134,0.25,0.001,0.019016450388474507,0.0160093107470521,16.85200952409624,0.012028557833045139,0.021135993767529726
135,0.25,0.001,0.019199618012518495,0.016269979008414724,16.417695973370527,0.011718555298622788,0.01765314070507884
136,0.25,0.001,0.019085726541307597,0.016202908563050063,16.155309677124023,0.011531270290595306,0.024875505827367306
137,0.25,0.001,0.01930698869867368,0.016361491771431657,16.506566494434804,0.011781988932501644,0.02489855233579874
138,0.25,0.001,0.01912799730964072,0.01610962735270863,16.91494386690157,0.012073478848609258,0.024427874945104122
139,0.25,0.001,0.019148668408528104,0.016046636477783992,17.383787773750925,0.012408128318166256,0.028141327667981386
140,0.25,0.001,0.019297434218429232,0.016227301965291437,17.20501977044183,0.012280528030293954,0.014167075045406818
141,0.25,0.001,0.01905468613043562,0.016004030022199627,17.09587963207348,0.012202626432600628,0.01778595196083188
142,0.25,0.001,0.0188743996157034,0.015834709914686444,17.03441874186198,0.012158757131950021,0.013030835893005133
143,0.25,0.001,0.01900188920197186,0.01605707405319622,16.502745662723576,0.011779261715006121,0.01945494068786502
144,0.25,0.001,0.019319124016407375,0.016416705591050355,16.265151513589394,0.01160967274346138,0.022832924500107765
145,0.25,0.001,0.019227111426828144,0.016248023959698977,16.694801897616,0.011916346821995718,0.017058859579265118
146,0.25,0.001,0.019365426152944565,0.016173768889259647,17.886049167529958,0.012766630383675915,0.02268183883279562
147,0.25,0.001,0.01921434198749495,0.01590400964424417,18.551099794405,0.013241327476377589,0.011460339650511742
148,0.25,0.001,0.018920857862040803,0.015619140839925758,18.502826690673828,0.013206871299553054,0.01597490906715393
149,0.25,0.001,0.018714413801963266,0.015584642503846873,17.5392369794416,0.012519084210879087,0.014490678906440735
150,0.25,0.001,0.018936191761010402,0.016030544499019243,16.28324522413649,0.01162258759752783,0.02342279627919197
151,0.25,0.001,0.018664951595637174,0.0158552351986637,15.745651537233645,0.011238866193600032,0.021824417635798454
152,0.25,0.001,0.01874427148350724,0.016005566394006885,15.347706872063714,0.01095482289226532,0.014518331736326218
153,0.25,0.001,0.018963208908701804,0.016134800305506132,15.850400082699887,0.011313633178229756,0.024198233149945736
154,0.25,0.001,0.018928619856769975,0.015963271965046186,16.617808445079906,0.011861390753090582,0.021273930091410875
155,0.25,0.001,0.018983448981433303,0.015912045884105535,17.21214280686937,0.01228561228184823,0.013040731195360422
156,0.25,0.001,0.018639580808110064,0.015563862582853248,17.236327059634096,0.012302874418011488,0.023911001160740852
157,0.25,0.001,0.018898444334128954,0.01592690880234177,16.6524830723668,0.011886140665500927,0.0454217866063118
158,0.25,0.001,0.018846499742017134,0.01581663014115514,16.97939329748755,0.012119481297278765,0.013864298816770315
159,0.25,0.001,0.018710566483236647,0.015622061215810947,17.30798403422038,0.012354021437701913,0.02778393868356943
160,0.25,0.001,0.018506213636682915,0.015468493305348061,17.023387883160567,0.012150883571135309,0.028277330100536346
161,0.25,0.001,0.018959542451141117,0.016136097344192298,15.8225919362661,0.011293784394194218,0.047549549490213394
162,0.25,0.001,0.018805871088359807,0.016057810251106013,15.400135865082612,0.010992245442600008,0.03000496979802847
163,0.25,0.001,0.01863856338434391,0.01568539522017713,16.54955329551353,0.011812671874028215,0.04829978756606579
164,0.25,0.001,0.0186636948807014,0.01562950531071102,17.003596950221706,0.012136757280672168,0.02043090295046568
165,0.25,0.001,0.01850450569176459,0.015445943099555668,17.14018849209622,0.01223425302790594,0.01628045691177249
166,0.25,0.001,0.01872577946129683,0.015752920075445563,16.659905081396705,0.011891438316485871,0.016716400161385536
167,0.25,0.001,0.01853777649434837,0.015644040193643655,16.21649391586716,0.011574942124102185,0.011793757788836956
168,0.25,0.001,0.018650028787486186,0.015756743364371696,16.213972126041448,0.011573142131364345,0.010564034339040518
169,0.25,0.001,0.018509793858807366,0.015528505433115873,16.707140192255242,0.011925153599040145,0.02063991129398346
170,0.25,0.001,0.018498760035580344,0.01544327409686269,17.122947778787697,0.012221947022689292,0.01904346141964197
171,0.25,0.001,0.018534526178562962,0.015389474620623095,17.624867516594964,0.012580205222408969,0.032213641330599785
172,0.25,0.001,0.018316156876919506,0.015171700744545675,17.621530189170493,0.012577823118608488,0.01537143113091588
173,0.25,0.001,0.01864478913312023,0.015646974002388684,16.799753343736803,0.01199125863221756,0.014417940750718117
174,0.25,0.001,0.018040217996180594,0.015203135071305541,15.89901117376379,0.011348330602258238,0.013810659293085337
175,0.25,0.001,0.01820306149353315,0.01550788489413691,15.103766733461672,0.010780704306539381,0.011746200267225504
176,0.25,0.001,0.018423289966744347,0.01571002402888225,15.20514221878739,0.01085306368221798,0.022587608080357313
177,0.25,0.001,0.018207553774118423,0.015270113575834411,16.461416536623293,0.011749761981886719,0.018686315044760704
178,0.25,0.001,0.01827837238172153,0.015181927010416985,17.352480467375333,0.012385781918183679,0.023261450231075287
179,0.25,0.001,0.018073468360009493,0.015005850182795847,17.190927849159586,0.012270469556859091,0.0175559357739985
180,0.25,0.001,0.01846173793278836,0.015531828526306796,16.419210167618484,0.011719636093946098,0.04322195239365101
181,0.25,0.001,0.017963078712020908,0.01521642282940783,15.392260353844446,0.010986624092679833,0.020449164789170027
182,0.25,0.001,0.017953687204836723,0.015261214008336669,15.088620821634928,0.010769893520082032,0.030307014007121325
183,0.25,0.001,0.018000165134802595,0.015259215440433304,15.360282812032613,0.010963799294812714,0.01185767212882638
184,0.25,0.001,0.018190405088233517,0.015391601568406767,15.684497549727157,0.011195215952696043,0.01304243691265583
185,0.25,0.001,0.018049044484222256,0.0151226040445738,16.399772592493004,0.011705762021765171,0.03036464098840952
186,0.25,0.001,0.017919076254238952,0.014962326105986093,16.569630064405835,0.011827002187298954,0.023751373402774334
187,0.25,0.001,0.01795844779022642,0.015044466349052953,16.3299496796754,0.011655924111117346,0.04544100537896156
188,0.25,0.001,0.017937512195727846,0.014989932512377834,16.518235558862084,0.01179031802916637,0.03676771325990558
189,0.25,0.001,0.01762713188188033,0.014674645479399341,16.54573411340112,0.011809945833976532,0.022623274009674788
190,0.25,0.001,0.017702163255832216,0.01476177693185237,16.477923539307742,0.01176154428216113,0.025927181355655193
191,0.25,0.001,0.017634330099230416,0.014714662430321311,16.361818536981804,0.01167867133260657,0.013285183347761631
192,0.25,0.001,0.01797734529853941,0.015091874376610593,16.1701755008182,0.011541881156900928,0.018789888359606266
193,0.25,0.001,0.017542960944476427,0.014621679729840777,16.37086129403329,0.011685125834427759,0.04113106336444616
194,0.25,0.001,0.01735049521399511,0.014549356306324134,15.697578120876003,0.011204552548805142,0.026462805457413197
195,0.25,0.001,0.017403504416883528,0.014675317239855323,15.288758578601184,0.010912747022556162,0.032645282335579395
196,0.25,0.001,0.01709646541994434,0.014282730651331378,15.768166284303408,0.011254936676876095,0.02490993170067668
197,0.25,0.001,0.017075146070203266,0.014210198653509488,16.055166210140193,0.011459790299885933,0.030846063047647476
198,0.25,0.001,0.016976835726349202,0.014083540646006932,16.214022455988705,0.011573178055666456,0.02294160984456539
199,0.25,0.001,0.017240289581922797,0.014252016950096633,16.746281666798634,0.011953091839256698,0.029152211733162403
200,0.25,0.001,0.016924800653312658,0.01383769994618388,17.300113540511948,0.01234840366917341,0.01376077113673091
201,0.25,0.001,0.016863036598708178,0.013805464195372822,17.13463427569415,0.01223028856223708,0.018779673147946596
202,0.25,0.001,0.016852960091184924,0.013867545621217909,16.73026131294869,0.011941656897179652,0.021531036123633385
203,0.25,0.001,0.01693025080336107,0.013921389758989617,16.861660914378124,0.01203544676258253,0.03958376310765743
204,0.25,0.001,0.016550578227317012,0.01350255974207644,17.08109831595206,0.012192075885761643,0.02413841150701046
205,0.25,0.001,0.016480939009705105,0.013432836470504602,17.08156695666614,0.012192410390197103,0.024883280508220196
206,0.25,0.001,0.01662699708731862,0.013536368865888935,17.319881043992602,0.012362513236254534,0.03561611659824848
207,0.25,0.001,0.016336234638819825,0.013272128739134149,17.171246296650654,0.012256421339507962,0.010695884004235268
208,0.25,0.001,0.016012862987547845,0.012938826210662589,17.226904791754645,0.012296149030517234,0.01917061861604452
209,0.25,0.001,0.015992590201062126,0.01291036194710581,17.272807129868514,0.012328913012040338,0.012936760671436787
210,0.25,0.001,0.016013257037680428,0.012998373767881244,16.895403630024678,0.01205953149894695,0.01698182476684451
211,0.25,0.001,0.015960557386279106,0.013019266446028743,16.482996957796114,0.011765165565878739,0.0338379624299705
212,0.25,0.001,0.016057149733643274,0.01309853303875472,16.580088228792757,0.011834466972728592,0.014248738065361977
213,0.25,0.001,0.015819302567087853,0.012794048231732738,16.953528086344402,0.01210101933357916,0.03606756031513214
214,0.25,0.001,0.015934367471181595,0.012972922769148607,16.59593664633261,0.011845779190815567,0.016990693286061287
215,0.25,0.001,0.015941901635882015,0.012955990326297176,16.733042777121604,0.011943642239201717,0.033950263634324074
216,0.25,0.001,0.01610665859000103,0.012965200586361927,17.604729660996444,0.012565831306921087,0.02239203592762351
217,0.25,0.001,0.015930617630884453,0.012723804233377581,17.970984020748652,0.01282725483279704,0.03274275362491608
218,0.25,0.001,0.015773604615583078,0.012653402136722664,17.485611065013988,0.012480807326919334,0.020301430486142635
219,0.25,0.001,0.015687855824761024,0.012711133170235265,16.681554966144734,0.011906891481902023,0.028041159734129906
220,0.25,0.001,0.01585964546413035,0.012923127342317556,16.456244992780256,0.011746070658658285,0.02420907560735941
221,0.25,0.001,0.015641361206501454,0.01261497775579358,16.9598530949773,0.012105533972146539,0.016489621717482805
222,0.25,0.001,0.01557731471519481,0.012432444404374372,17.62385234317264,0.012579480616111806,0.012972163036465645
223,0.25,0.001,0.015621918463357934,0.012477047011457585,17.6238573778857,0.012579484209768522,0.019435540307313204
224,0.25,0.001,0.015485508333858068,0.012453907765112482,16.989090721886438,0.01212640308485827,0.013203067239373922
225,0.25,0.001,0.015733270360542846,0.012840580413336153,16.21063212661056,0.011570758120350149,0.02224397216923535
226,0.25,0.001,0.015422501223715575,0.012527254133208378,16.224966856810422,0.011580989904932492,0.014621347654610872
227,0.25,0.001,0.01525970899105609,0.012258970858277502,16.816137520042627,0.012002953261986173,0.014225204708054662
228,0.25,0.001,0.015180752688163036,0.012138500088104257,17.048784221614802,0.012169010864821415,0.026866511441767216
229,0.25,0.001,0.01542608845173507,0.012549193861248257,16.122117747057665,0.011507578691689982,0.014457627199590206
230,0.25,0.001,0.01588712307112711,0.01313411282492919,15.427868928995219,0.011012040634543339,0.041769418865442276
231,0.25,0.001,0.015442548235794445,0.012546678661024786,16.22845170304582,0.011583477304101229,0.02735989075154066
232,0.25,0.001,0.015411209013011004,0.012396830209606403,16.89257931064915,0.012057515567915168,0.02446793857961893
233,0.25,0.001,0.015320956488853102,0.012277728651423712,17.054249187847514,0.012172911625872602,0.019263343885540962
234,0.25,0.001,0.0153746902271434,0.012353139862351053,16.932769397357564,0.01208620228219669,0.031598648987710476
235,0.25,0.001,0.015311728525269139,0.012339604582201253,16.655784864683408,0.011888497405198721,0.019730566069483757
236,0.25,0.001,0.015180616337503935,0.01229009894771619,16.19846076793499,0.011562070498169158,0.023019098676741123
237,0.25,0.001,0.015188131263261443,0.012347807344217022,15.917175396068677,0.011361295785916258,0.015333152376115322
238,0.25,0.001,0.015068885442372915,0.012205104167396957,16.048628557909716,0.011455123881448762,0.015196099877357483
239,0.25,0.001,0.015044884504498663,0.012170849703587927,16.106089669304925,0.011496138236477462,0.021386203356087208
240,0.25,0.001,0.015126531767482692,0.012156431462515044,16.644442927729976,0.011880401804232674,0.028202193789184093
241,0.25,0.001,0.01504302476239097,0.012031883429232481,16.87443803666948,0.012044566764218044,0.012180718593299389
242,0.25,0.001,0.015192845064374778,0.01219089459292255,16.822928454424883,0.012007800467112693,0.016768095083534718
243,0.25,0.001,0.01511367992707738,0.012100148576873916,16.88782903310415,0.01205412493440696,0.025563428178429604
244,0.25,0.001,0.015132738948539571,0.01221193103035828,16.36820648811959,0.01168323089801541,0.02146236365661025
245,0.25,0.001,0.015184062222639719,0.01227941924521515,16.27762339136622,0.011618574868926639,0.02293990459293127
246,0.25,0.001,0.015371822357714714,0.012399673982112258,16.65592289830113,0.011888595930264905,0.01609276095405221
247,0.25,0.001,0.015046333206129504,0.012012183087298999,17.003379271911072,0.012136601907145661,0.02163468673825264
248,0.25,0.001,0.015251328363209157,0.012187360290874232,17.170477325851852,0.012255872466703677,0.02014131424948573
249,0.25,0.001,0.015206180571637175,0.012205860955086915,16.81379122347445,0.012001278532101678,0.021373060066252947
250,0.25,0.001,0.015234169525069159,0.012270327128872677,16.609374948450036,0.011855371126659554,0.031229801010340452
251,0.25,0.001,0.014966177334589464,0.012034667655825615,16.428180471196907,0.0117260388802262,0.02712638210505247
252,0.25,0.001,0.01501522422977933,0.012030949732204815,16.72387270884471,0.011937096865699293,0.027282959781587124
253,0.25,0.001,0.014991507252997107,0.011982835342620944,16.860598022873337,0.012034688096269335,0.011285129003226757
254,0.25,0.001,0.014779975243449749,0.011842864473258052,16.459567250432194,0.011748442006018697,0.037633802741765976
255,0.25,0.001,0.014932993765886839,0.012157967532271738,15.55124856759836,0.011100106043967424,0.026563746854662895
256,0.25,0.001,0.014903996089423025,0.012112981396483945,15.640847128790778,0.011164059335325324,0.021702470257878304
257,0.25,0.001,0.014746646363254602,0.011796600562897889,16.53205612113884,0.011800182813089822,0.012897522188723087
258,0.25,0.001,0.01490419816964113,0.011841570463467826,17.162963832820857,0.012250509516645865,0.027634330093860626
259,0.25,0.001,0.01496739026897394,0.011924469390430965,17.052527023865295,0.012171682386770374,0.024280506186187267
260,0.25,0.001,0.014610899142451115,0.011636609882787542,16.667916753270603,0.011897156854582872,0.022814876399934292
261,0.25,0.001,0.014841683678798847,0.011942686261357489,16.24598025416469,0.011595988761002632,0.03119612019509077
262,0.25,0.001,0.014763831387500505,0.01190615727289303,16.01440704620636,0.01143069739201025,0.0313288439065218
263,0.25,0.001,0.015166483324457396,0.012410083139600517,15.44686477248733,0.01102559940934142,0.028811125084757805
264,0.25,0.001,0.014761149916831438,0.011887473884869265,16.10408306980992,0.011494705974168394,0.02371433563530445
265,0.25,0.001,0.014920778178215565,0.011824693799287349,17.350457234425587,0.012384337783315907,0.02762372512370348
266,0.25,0.001,0.014651111553649645,0.011505707863483343,17.62684392499494,0.012581615935042784,0.02195201301947236
267,0.25,0.001,0.01472518285149121,0.011743315520721513,16.71038466101294,0.011927469422564556,0.019432537257671356
268,0.25,0.001,0.014815230283315654,0.011981712285060066,15.879035691957217,0.01133407258526568,0.025846249423921108
269,0.25,0.001,0.014968085933376002,0.01210478343371604,16.045948793222237,0.011453211130065836,0.024715278297662735
270,0.25,0.001,0.014462145666281382,0.011497010468496932,16.616619522507126,0.011860542128841632,0.010844676289707422
271,0.25,0.001,0.014664094777660328,0.011666133244698113,16.8005756171974,0.011991845551175873,0.019397927913814783
272,0.25,0.001,0.014664900078027098,0.011681919548291344,16.7166241138905,0.011931922993497858,0.012264919001609087
273,0.25,0.001,0.014642742487627107,0.011680437319047816,16.600761155824404,0.011849222809296506,0.027875876985490322
274,0.25,0.001,0.014799581521803194,0.011948095802385528,15.979726782790175,0.011405943456666791,0.02236556075513363
275,0.25,0.001,0.014324627917360616,0.011512503338356813,15.759146097544077,0.011248498285184923,0.018874800764024258
276,0.25,0.001,0.014692465430712915,0.011773191644130526,16.359611150380726,0.0116770957533053,0.02521965280175209
277,0.25,0.001,0.014427783924180109,0.011283529662267045,17.6204015542795,0.012577017526252319,0.022306586615741253
278,0.25,0.001,0.014535634837172053,0.011390432119705118,17.625718262818484,0.012580812464538533,0.0241704098880291
279,0.25,0.001,0.014427563863563107,0.011485963682266506,16.484729388812642,0.011766402133342357,0.013453169725835323
280,0.25,0.001,0.014675794186087342,0.011883631717782837,15.647279103597006,0.011168650323766599,0.02289392612874508
281,0.25,0.001,0.014283190288387978,0.011528729989721969,15.43599438882089,0.01101784039173511,0.01943616522476077
282,0.25,0.001,0.014405364791552225,0.011581345016623402,15.82580767451106,0.011296079710571777,0.022142581641674042
283,0.25,0.001,0.014242713641677354,0.011298895989720887,16.49715404682331,0.011775270554477739,0.014820910524576902
284,0.25,0.001,0.014522881675008181,0.011600948761108223,16.37451156410011,0.01168773130913641,0.012535568792372942
285,0.25,0.001,0.014306597428413125,0.011388807758890293,16.351291914243955,0.011671157683257641,0.017105409409850836
286,0.25,0.001,0.014365747663284745,0.011487976412985238,16.127030827977634,0.011511085530319511,0.014614569023251534
287,0.25,0.001,0.014272597727474865,0.011388985431744708,16.159765570013374,0.011534450799438526,0.01962368842214346
288,0.25,0.001,0.014348190110008995,0.011502956694646462,15.944686494432053,0.011380932544205606,0.014443733263760805
289,0.25,0.001,0.014370529031431352,0.011613213977365344,15.451993349436167,0.011029260063837379,0.017118369229137897
290,0.25,0.001,0.014207454196907379,0.011472192232136254,15.328407811688948,0.010941047688571697,0.017672288930043578
291,0.25,0.001,0.014273510289353293,0.011416451116134454,16.010960553143477,0.011428237368410761,0.020188487134873867
292,0.25,0.001,0.014173579930856422,0.01122456581776475,16.526274930249464,0.011796056338507825,0.00865255668759346
293,0.25,0.001,0.01420890101072219,0.011248939368571784,16.587625761289853,0.011839847081577341,0.018605335615575314
294,0.25,0.001,0.01428331165398295,0.01135257494778515,16.423847198486328,0.011722945894708299,0.01402022922411561
295,0.25,0.001,0.014400300729247901,0.011487967796153851,16.320711445164036,0.011649330082201311,0.013050484471023083
296,0.25,0.001,0.014161277923162456,0.011249199501230373,16.31928534980293,0.011648312169737994,0.021145489998161793
297,0.25,0.001,0.014298146062001988,0.011356023542985722,16.48765534753198,0.011768490612085639,0.0136200743727386
298,0.25,0.001,0.014107451405007023,0.011109573691076523,16.800108746365385,0.011991512310039533,0.011754711158573627
299,0.25,0.001,0.01410397329275404,0.011162985250488058,16.4812972438228,0.01176395235105125,0.017020218074321747
300,0.25,0.001,0.014172494075856768,0.011382957710674754,15.632564742285926,0.011158147567655907,0.012854155618697405
301,0.25,0.001,0.014013342811046419,0.011268714812022072,15.38089826085546,0.010978514104821884,0.023503467440605164
302,0.25,0.001,0.014095498802694114,0.011246919363468617,15.96343806842426,0.011394316965327809,0.013455345295369625
303,0.25,0.001,0.014162582001304842,0.011264114942703699,16.243009893743842,0.011593868589396032,0.018527850043028593
304,0.25,0.001,0.01437035569635866,0.011473846437224934,16.23203769030872,0.011586036895295302,0.017073052003979683
305,0.25,0.001,0.013994426575598415,0.01102941076329968,16.615948221704983,0.011860062970524613,0.013446029275655746
306,0.25,0.001,0.014165467767229488,0.011137612155630245,16.968102188797683,0.012111421976300987,0.02871351409703493
307,0.25,0.001,0.01399286853166314,0.010997131231937322,16.78811066429894,0.011982948368521727,0.01810660120099783
308,0.25,0.001,0.014079984445292671,0.011141633002406306,16.466521340447503,0.01175340566769986,0.021580772940069437
309,0.25,0.001,0.014093695434968214,0.011191507994390285,16.263859216157382,0.011608750332731893,0.023216893896460533
310,0.25,0.001,0.014159082737122033,0.011283966603579823,16.11214980563602,0.011500463815586023,0.012098678853362799
311,0.25,0.001,0.013999046992745486,0.011130001437892247,16.078131701495195,0.011476182513558312,0.020388852804899216
312,0.25,0.001,0.013980411379052713,0.011042333635929468,16.464987935246647,0.011752311160061847,0.01958919409662485
313,0.25,0.001,0.013985959779437597,0.011053626039610789,16.4327977154706,0.01172933455779486,0.014649141114205122
314,0.25,0.001,0.014045335495055796,0.011077075928181142,16.63412566657539,0.0118730375921309,0.013663599267601967
315,0.25,0.001,0.013968910795409937,0.010970657917897444,16.802207774944133,0.011993010545998667,0.029510805383324623
316,0.25,0.001,0.014059692923281644,0.011109772272542253,16.53135717237318,0.011799683920323469,0.017367747146636248
317,0.25,0.001,0.01393147810521695,0.011065635830163956,16.06018011419623,0.011463369103637565,0.03059592330828309
318,0.25,0.001,0.013736728444561228,0.010828838801128907,16.295814290776985,0.011631559094059232,0.009181112051010132
319,0.25,0.001,0.013863638144087148,0.010923437891645474,16.476882401887362,0.011760801143388552,0.018141266889870167
320,0.25,0.001,0.013813830979235537,0.010938490782906343,16.113406318802017,0.011501360684369749,0.014060269575566053
321,0.25,0.001,0.013853146459672365,0.011031629828115305,15.811779778282922,0.01128606693667589,0.014750783797353506
322,0.25,0.001,0.013840064322492024,0.010982127986042886,16.01587706213599,0.011431746653915767,0.01976089831441641
323,0.25,0.001,0.013891238870250212,0.010977739946463623,16.32724901147791,0.011653996439313283,0.025679889600723982
324,0.25,0.001,0.013683213760052715,0.010846156769574762,15.898868560791016,0.011348228808558897,0.011188896372914314
325,0.25,0.001,0.013771099667694117,0.010992313793919108,15.572314949722978,0.011115142719288349,0.012203386519104242
326,0.25,0.001,0.013742347910731763,0.010948715714720992,15.655515292743305,0.01117452911687602,0.02181291300803423
327,0.25,0.001,0.0139530353952904,0.011152303853147739,15.695299036867985,0.011202925793624544,0.017194166779518127
328,0.25,0.001,0.013862168584186752,0.011037775978177518,15.827898171570924,0.011297571856938561,0.015556308208033442
329,0.25,0.001,0.013813292397907725,0.01091896032763494,16.219835487571924,0.01157732725736754,0.012145654298365116
330,0.25,0.001,0.01369744671827501,0.010750404928248745,16.51522241197191,0.011788167317610213,0.021058998070657253
331,0.25,0.001,0.013699746304737017,0.010787793577791334,16.318582466056753,0.011647810468277483,0.010337112937122583
332,0.25,0.001,0.013639367856756525,0.010755400752296319,16.1617530186971,0.01153586939236053,0.026172839105129242
333,0.25,0.001,0.013549762752813261,0.010706049272673088,15.936168962770754,0.01137485293559654,0.007639534771442413
334,0.25,0.001,0.01373725833354501,0.010893897732367387,15.934193379170186,0.011373442811684644,0.012291931081563234
335,0.25,0.001,0.013717695592424355,0.010753538308514131,16.61113771661982,0.011856629348051262,0.012114933226257563
336,0.25,0.001,0.013807309103441669,0.010759178918224198,17.081722723471152,0.012192521572784549,0.014790490735322237
337,0.25,0.001,0.013589588396653935,0.010574302745160755,16.89765981725744,0.01206114191096177,0.020590960513800383
338,0.25,0.001,0.01385718862618412,0.010993967680176636,16.045490221934276,0.011452883812943808,0.019956904463469982
339,0.25,0.001,0.013576855211778803,0.0107503710901952,15.8396175143955,0.011305936841110278,0.0158088905736804
340,0.25,0.001,0.013775984848941769,0.010885489475284074,16.19833856874758,0.011561983275337317,0.019793829880654812
341,0.25,0.001,0.013673741907418312,0.010696195905004535,16.686167983321457,0.011910184142270847,0.014841006603091955
342,0.25,0.001,0.013818879351691083,0.010841661451703257,16.684330983204884,0.011908872935906412,0.012128372676670551
343,0.25,0.001,0.013608398201229336,0.010624919162207359,16.719417039338534,0.011933916516301595,0.012513479683548212
344,0.25,0.001,0.01370430510356888,0.010718439168691097,16.732792570784284,0.011943463647954521,0.009018216747790575
345,0.25,0.001,0.01360279558276808,0.01063882032627458,16.61011809271735,0.011855901565108743,0.015750273130834103
346,0.25,0.001,0.01355332632859548,0.01066486364616467,16.186946370580173,0.011553851799129317,0.015880698338150978
347,0.25,0.001,0.013334356583990492,0.01047370665043861,16.031082514170055,0.011442599938736656,0.016173118725419044
348,0.25,0.001,0.013553222691690599,0.010720442049205303,15.87490261352814,0.011331122493596104,0.013807743322104216
349,0.25,0.001,0.013568207101376207,0.01074500162120875,15.821242804999825,0.011292821416844985,0.022571241483092308
350,0.25,0.001,0.013441724358713842,0.010548638481948827,16.212851790694504,0.011572342463022488,0.009892839938402176
351,0.25,0.001,0.01357138616678951,0.010615735490982598,16.56346625250739,0.011822602607071655,0.014549056068062782
352,0.25,0.001,0.01361427470404017,0.010674687605854627,16.473444594993246,0.011758347319766771,0.016155412420630455
353,0.25,0.001,0.013528492251360739,0.010631977890928587,16.232066592654668,0.011586057525092555,0.013080913573503494
354,0.25,0.001,0.013569619540158694,0.010662389189206265,16.29211817560969,0.011628920896223905,0.01219887100160122
355,0.25,0.001,0.013460369285632361,0.010511350893491023,16.526300533397777,0.011796074613417399,0.014136556535959244
356,0.25,0.001,0.013573858484223083,0.010588461566749995,16.730163505485464,0.011941587084572066,0.015275187324732542
357,0.25,0.001,0.013407542319918002,0.010374683886766434,16.996138787484384,0.0121314338240431,0.014075103681534529
358,0.25,0.001,0.013408720585609879,0.010448472800891142,16.589228965140677,0.011840991409807764,0.008460270706564188
359,0.25,0.001,0.013312621109254725,0.010461451771023037,15.977952347145424,0.011404676907312936,0.010129507631063461
360,0.25,0.001,0.013474578054638597,0.010662939097430255,15.756425402185938,0.011246556318476758,0.012924248352646828
361,0.25,0.001,0.01327858126915253,0.010464533232152462,15.76992467072633,0.011256191770682605,0.009742606431245804
362,0.25,0.001,0.013193154413890731,0.010358315867346686,15.886436324935776,0.011339354978540881,0.009300670120865107
363,0.25,0.001,0.013303566497524042,0.010418408038514154,16.16842728692132,0.011540633323998089,0.015755361411720514
364,0.25,0.001,0.013289177538575354,0.010362491498256588,16.40114803142376,0.01170674377689062,0.016918841749429703
365,0.25,0.001,0.01323184315618631,0.010318433815563048,16.32674672582128,0.011653637919929537,0.00849241204559803
366,0.25,0.001,0.013449285858990374,0.010598717836310735,15.974582405777666,0.011402271524466571,0.011786377988755703
367,0.25,0.001,0.013396022707089648,0.010482740395509445,16.326033815607293,0.011653129061818196,0.01105363480746746
368,0.25,0.001,0.013442905636521073,0.010389464882177275,17.1114799568245,0.012213761568040328,0.01594322780147195
369,0.25,0.001,0.013304433676305119,0.01029816214498636,16.84714645523209,0.012025086691814482,0.010303105926141143
370,0.25,0.001,0.013482628759365898,0.010618449893553514,16.05085783606177,0.011456715086410971,0.018084455281496048
371,0.25,0.001,0.013320285222820333,0.010452493370787517,16.07110863762933,0.011471169620006659,0.013623775914311409
372,0.25,0.001,0.013183143056996234,0.010197399830160377,16.732104722444003,0.011942972678404,0.012283693999052048
373,0.25,0.001,0.013339891811614638,0.010283614936712626,17.127373807065123,0.012225106214893021,0.019226192496716976
374,0.25,0.001,0.013198286160692439,0.010275449922627158,16.379574681187535,0.011691345239962552,0.009117215173318982
375,0.25,0.001,0.013192354642727354,0.010392973274999374,15.687732782449809,0.011197525183761462,0.01071605458855629
376,0.25,0.001,0.013293834503840756,0.010475620006521543,15.79327157166627,0.011272856225314968,0.008870040532201529
377,0.25,0.001,0.013296312728040927,0.010389723353557758,16.288527531666798,0.011626357981203995,0.012969573959708214
378,0.25,0.001,0.013093469387574776,0.010102561473645069,16.761047947514164,0.0119636316541857,0.015277289785444736
379,0.25,0.001,0.013156967271152918,0.010194610468707644,16.601046227120065,0.011849426286309825,0.008925824891775846
380,0.25,0.001,0.013163606669787352,0.010244326011554615,16.359649434819953,0.011677123079814385,0.01347907492890954
381,0.25,0.001,0.013274109343419204,0.010342717497936776,16.42752119871947,0.011725568307437168,0.01285272091627121
382,0.25,0.001,0.01336540355607196,0.01041136992474397,16.554402342787736,0.01181613300698625,0.01565107749775052
383,0.25,0.001,0.01318002614687692,0.010247782762120437,16.432292302449543,0.011728973806173834,0.016712630167603493
384,0.25,0.001,0.013321841597087212,0.010374145431293023,16.51889058705923,0.011790785572490527,0.009484585840255022
385,0.25,0.001,0.013172912637929659,0.01017760153155069,16.785726564424532,0.011981246655549274,0.012367242947220802
386,0.25,0.001,0.013100782728141493,0.010073182055609184,16.966674031438053,0.012110402592032872,0.014758671633899212
387,0.25,0.001,0.012979385233274451,0.009954158216714859,16.953370120074297,0.012100906581066592,0.01157223992049694
388,0.25,0.001,0.01319607287678901,0.010289726594278405,16.28716533248489,0.011625385676291856,0.02590485755354166
389,0.25,0.001,0.013104728901305714,0.010361664844592949,15.372128357758394,0.010972254359570588,0.027079202234745026
390,0.25,0.001,0.013110046711255301,0.010387486148927663,15.257228971601606,0.010890241949751325,0.012808135710656643
391,0.25,0.001,0.01329903537827032,0.010510026032591725,15.629607664572227,0.011156036876925216,0.023425494320690632
392,0.25,0.001,0.012997067474701383,0.01014645771870205,15.974819406732783,0.011402440690030538,0.0209627915173769
393,0.25,0.001,0.01321546367562569,0.01024444418883807,16.649594298354142,0.01188407872830417,0.020476650912314653
394,0.25,0.001,0.01324213327219089,0.010195931755341925,17.07091236973668,0.012184805403095416,0.01459181122481823
395,0.25,0.001,0.013184913551552338,0.010142893689843986,17.047478546967376,0.012168078905758299,0.010799887124449015
396,0.25,0.001,0.013284199980196651,0.010285828296128695,16.80287720276429,0.01199348836742633,0.010831119026988745
397,0.25,0.001,0.013138404711745344,0.01021922065096127,16.359107335408527,0.011676736142332996,0.008234865497797728
398,0.25,0.001,0.013044521531408972,0.010158853143923454,16.17128695238818,0.011542674484217115,0.010783005971461535
399,0.25,0.001,0.012928613537066692,0.010019881994807505,16.30053233241176,0.011634926718352433,0.01222290052101016
400,0.25,0.001,0.013237790414341935,0.01034341928725307,16.220057839745873,0.011577485966984921,0.011651024920865893
401,0.25,0.001,0.01296241460619746,0.010055880616041454,16.288214159441424,0.011626134303669823,0.010327342199161649
402,0.25,0.001,0.013166394135033762,0.010230073621412655,16.45514201258754,0.01174528337800681,0.01411411352455616
403,0.25,0.001,0.013139113532127562,0.010190484609018575,16.524117736129075,0.011794516585388347,0.009992178529500961
404,0.25,0.001,0.013049921297745124,0.010148338721813383,16.260468019021523,0.011606329778031065,0.01277162041515112
405,0.25,0.001,0.013085845320879875,0.010159596171532129,16.3987009374945,0.011704997100281585,0.014182399492710829
406,0.25,0.001,0.013040181240989818,0.010052205457746445,16.744616362425656,0.011951903185171775,0.022561787627637386
407,0.25,0.001,0.012974397153467746,0.010010969439135478,16.607048653267526,0.011853710673281604,0.022110735066235065
408,0.25,0.001,0.012920732265925623,0.010053296523118342,16.06911143741092,0.011469744066674462,0.015668820589780807
409,0.25,0.001,0.013009236471073047,0.010178907321312942,15.861163663434553,0.011321315962480052,0.024882368743419647
410,0.25,0.001,0.012964370819899413,0.010040778381464718,16.383812191250087,0.011694369872412624,0.020467504858970642
411,0.25,0.001,0.012902879080659634,0.009936904903870445,16.621320174621033,0.01186389734091437,0.020444714464247227
412,0.25,0.001,0.013129853643476963,0.010146236365979857,16.720191783733195,0.011934469510159312,0.010787381790578365
413,0.25,0.001,0.01283752973619345,0.009874207026383898,16.606459437189876,0.011853290105060582,0.015955097042024136
414,0.25,0.001,0.01275850421337931,0.009912468753083869,15.949182209667859,0.011384141477278986,0.02248445525765419
415,0.25,0.001,0.013010637918571094,0.01023496350961494,15.554878561346381,0.011102697045928894,0.025486737489700317
416,0.25,0.001,0.013187244861713937,0.010265972196787328,16.370813129184484,0.011685091455520687,0.03412692341953516
417,0.25,0.001,0.013173783625903967,0.010125410482958631,17.083084810961473,0.012193493797973928,0.0328899584710598
418,0.25,0.001,0.013130636927713681,0.010033346939127188,17.357214145832234,0.012389160703663265,0.026790276169776917
419,0.25,0.001,0.01287765819411557,0.00987312425901224,16.837410041877817,0.012018137074859256,0.025051276199519634
420,0.25,0.001,0.013122266661879179,0.010253900552990738,16.07432557870676,0.011473465794937016,0.028197309002280235
421,0.25,0.001,0.01287091557809093,0.009953788808874181,16.347578289272548,0.011668506987346573,0.013405181001871824
422,0.25,0.001,0.012838150483665165,0.009864286897150246,16.66552902771546,0.011895452553686982,0.013029836118221283
423,0.25,0.001,0.012848545327312775,0.00990570623528313,16.491671416136594,0.011771357184965449,0.02164615225046873
424,0.25,0.001,0.012910802781514756,0.00996618000538768,16.50166722890493,0.011778491954964262,0.019311378709971905
425,0.25,0.001,0.012902771953392672,0.009891477933673709,16.87528914374274,0.012045174263913449,0.014104512054473162
426,0.25,0.001,0.012727180839860224,0.009731470674343474,16.787957732741898,0.01198283920966588,0.01468686992302537
427,0.25,0.001,0.01280636774157887,0.009896161731097612,16.308794743305928,0.011640824227912868,0.016590263228863478
428,0.25,0.001,0.012893108357381713,0.010009960640591007,16.157159951356082,0.011532590971703128,0.01985661219805479
429,0.25,0.001,0.012711833340224918,0.009764446222500221,16.517157666318052,0.011789548655473272,0.009455999359488487
430,0.25,0.001,0.012771855502783714,0.009793691605598003,16.689627879374736,0.011912653732601525,0.013692700304090977
431,0.25,0.001,0.012875533226441156,0.009894138436999407,16.707738893526095,0.011925580937563237,0.01406943192705512
432,0.25,0.001,0.01288012711348029,0.009960513813672838,16.361513996983433,0.01167845395930295,0.01746138883754611
433,0.25,0.001,0.012678177465122563,0.00976981786457268,16.298447780780965,0.011633438815689482,0.012074340134859085
434,0.25,0.001,0.012808774707016643,0.009880827429393927,16.408219346055038,0.011711791110674545,0.013953715097159147
435,0.25,0.001,0.012767531372069775,0.009787391929945967,16.7007008458043,0.011920557348896715,0.018645340111106634
436,0.25,0.001,0.01286038009634426,0.009814642210331586,17.06831404539916,0.012182950781869492,0.013102080672979355
437,0.25,0.001,0.01279443714700572,0.009706558584160096,17.304470818321985,0.012351513788952165,0.01028703898191452
438,0.25,0.001,0.01266063159952561,0.00957463399783985,17.293929503844666,0.01234398965299405,0.00861018430441618
439,0.25,0.001,0.012753930546947428,0.009746618367530204,16.852978354101783,0.012029249360529466,0.010157045908272266
440,0.25,0.001,0.012787854449974524,0.009839244673515225,16.52401202433818,0.01179444113086237,0.010125754866749048
441,0.25,0.001,0.012694284420561147,0.009758811410482938,16.450391546026008,0.01174189260958316,0.017954604234546423
442,0.25,0.001,0.012623364315577992,0.009671547257148468,16.541981310457796,0.011807267173774302,0.011458662105724216
443,0.25,0.001,0.012684196871411693,0.009762398814698597,16.373756580524617,0.011687192420074674,0.018076675944030285
444,0.25,0.001,0.012808599710665844,0.009913759314463482,16.222685607703955,0.011579361604356856,0.017894703429192305
445,0.25,0.001,0.012728953314525587,0.00975153593531063,16.685447710054415,0.011909670028589876,0.013376152142882347
446,0.25,0.001,0.012667373812816164,0.009556200481145768,17.43501444979831,0.012444692683653325,0.022239547222852707
447,0.25,0.001,0.012699164785780348,0.009565319706526425,17.5620675645433,0.012535380131722557,0.01683143014088273
448,0.25,0.001,0.012726574657937965,0.009718122145345618,16.859366391156172,0.012033808987263505,0.011233672965317965
449,0.25,0.001,0.012486205595704887,0.009576001984847558,16.308780824815905,0.011640814293230483,0.01525773573666811
450,0.25,0.001,0.012722728924976813,0.00980410583921381,16.355963767111838,0.011674492339123368,0.018980028573423624
451,0.25,0.001,0.012621399787095216,0.00964196189096919,16.696771836495614,0.01191775291684198,0.02195259090512991
452,0.25,0.001,0.012756557044413712,0.009818321429528631,16.46587490391087,0.011752944256895695,0.018316689413040876
453,0.25,0.001,0.012563880759517889,0.009638608794088836,16.39322432097014,0.011701088023533292,0.019779494032263756
454,0.25,0.001,0.012649583789679382,0.009661886119493493,16.743057783659513,0.011950790709250187,0.012337303254753351
455,0.25,0.001,0.012564277528105555,0.009466200689407619,17.361623351638382,0.012392307888392849,0.013045828323811293
456,0.25,0.001,0.012574232619692077,0.009507151765262222,17.18792102573154,0.012268323358837645,0.016515344381332397
457,0.25,0.001,0.012635882524353964,0.009620007345671052,16.90096186732387,0.012063498834635167,0.014222823083400726
458,0.25,0.001,0.012542902936672306,0.009611514900383112,16.427500252251154,0.011725553356353429,0.0101096429862082
459,0.25,0.001,0.012535493888028033,0.009636212249395546,16.24757416183884,0.011597126453846425,0.018567968159914017
460,0.25,0.001,0.012525662578441002,0.009603142990051088,16.377799712859833,0.011690078310392458,0.010839705355465412
461,0.25,0.001,0.01265213300415256,0.00966406242737362,16.74514758479488,0.011952282358882854,0.013223151210695505
462,0.25,0.001,0.01251924886192019,0.009482812757293383,17.01618820052963,0.012145744611370185,0.015998881310224533
463,0.25,0.001,0.012543465942144394,0.009548541880002967,16.783553647565412,0.01197969567991821,0.010717750526964664
464,0.25,0.001,0.012551477480981801,0.009586886167190634,16.613568950343776,0.01185836470402839,0.01825223583728075
465,0.25,0.001,0.012392919946898211,0.009387046039977053,16.844918053429407,0.012023496112369312,0.017071657814085484
466,0.25,0.001,0.012513282541017811,0.009484751519184929,16.9718896504995,0.012114125375088864,0.0147985122166574
467,0.25,0.001,0.012581102784957972,0.009614243121767367,16.626283972112983,0.01186744037980941,0.015599706210196018
468,0.25,0.001,0.012735597235528199,0.009773433376271446,16.59996898754223,0.011848657378688244,0.010532931424677372
469,0.25,0.001,0.012402290939814873,0.009461552282241551,16.479898555858714,0.011762954001326705,0.02270213793963194
470,0.25,0.001,0.012409388708571592,0.009482335861403126,16.403204239166534,0.011708211448370117,0.015879745595157146
471,0.25,0.001,0.012493277555918909,0.009511313644481136,16.71092612464149,0.011927855906239463,0.010611619800329208
472,0.25,0.001,0.0124366242388213,0.009450558380030834,16.733915277429528,0.011944265008871897,0.01222291961312294
473,0.25,0.001,0.012509715340628818,0.009529700611827072,16.700002000138568,0.011920058529720605,0.018035870045423508
474,0.25,0.001,0.012445251574857277,0.009465893159981247,16.696325164657456,0.01191743409326014,0.009142633294686675
475,0.25,0.001,0.012353433128278534,0.009380846989114542,16.658373497627878,0.011890345108942097,0.017810863442718983
476,0.25,0.001,0.01251819343012464,0.009530188280854139,16.744780394408078,0.011952020267243454,0.010890056379139423
477,0.25,0.001,0.012607930236504422,0.009582540011956348,16.95428537248491,0.012101559866156254,0.02245173044502735
478,0.25,0.001,0.012396993417594884,0.009384077386343264,16.884381612141926,0.012051664248495308,0.02520983573049307
479,0.25,0.001,0.012236142816307308,0.009158502492281768,17.247097255947352,0.01231056192430218,0.016298952978104353
480,0.25,0.001,0.012259272657133438,0.009182948056977612,17.23972260415017,0.012305298075767431,0.011481903493404388
481,0.25,0.001,0.012361930943354292,0.009385699490169147,16.67880121866862,0.011904925923389452,0.0199158675968647
482,0.25,0.001,0.01242306406467079,0.009477775074071713,16.505400305395728,0.011781156534900592,0.019234986510127783
483,0.25,0.001,0.012605628183296134,0.009700665627983777,16.279410439568597,0.01161985042081984,0.01776941679418087
484,0.25,0.001,0.012530648543893753,0.009575553305514224,16.560354610821147,0.011820381592306315,0.026090373750776052
485,0.25,0.001,0.012341797343446865,0.009218115753888546,17.505111797435863,0.01249472647925472,0.013586102053523064
486,0.25,0.001,0.012351189312097189,0.009152227081358433,17.926985079103762,0.012795849449752863,0.013923492282629013
487,0.25,0.001,0.012390594090427365,0.009296918103286813,17.336957708135383,0.012374702147134464,0.011353217530995607
488,0.25,0.001,0.012075973926363764,0.009087132801813586,16.749467299865174,0.011955365667284206,0.009058620315045118
489,0.25,0.001,0.012419180281728774,0.009452082896353426,16.627612947343707,0.011868388970266742,0.01464760210365057
490,0.25,0.001,0.012311538463240271,0.00924223064872864,17.200401941935223,0.012277231935713935,0.016018401831388474
491,0.25,0.001,0.012282479302705946,0.00919534443869247,17.300303536492425,0.012348539283720504,0.011883184313774109
492,0.25,0.001,0.012458282287928972,0.009453170605607936,16.840647207724082,0.012020447685741672,0.016986934933811426
493,0.25,0.001,0.012173987975394403,0.00923038751457457,16.495936986562366,0.011774401846225815,0.014505811966955662
494,0.25,0.001,0.012347941186178374,0.00935093309260435,16.795234267776078,0.011988033024822325,0.010813676286488771
495,0.25,0.001,0.012255351176602883,0.009123693270659124,17.549810340812613,0.012526631221136768,0.017172073479741812
496,0.25,0.001,0.012303284713411116,0.00918005741629246,17.50256600251069,0.012492909352256025,0.012262177653610706
497,0.25,0.001,0.012098749419925985,0.00900683194600247,17.32710431073163,0.012367669029787032,0.010182798840105534
498,0.25,0.001,0.012087928802446203,0.009024456126598624,17.16770280374063,0.012253892079757767,0.013763015624135733
499,0.25,0.001,0.012191309291567351,0.00914791452085918,17.055186177159214,0.01217358042623784,0.01407660823315382
500,0.25,0.001,0.012294301612151635,0.00932046738327355,16.665366576598572,0.01189533659999898,0.011829377617686987
