epoch,beta,learning_rate,train_loss,train_reconstruction_loss,train_kl_unnormalized,train_kl_normalized,mean_unclipped_gradient_norm
1,0.0,0.001,0.08124839260083873,0.08124839260083873,15.470670281386957,0.011042591207271205,0.0824442096054554
2,0.02,0.001,0.07086272619482947,0.06823402506912626,184.14046720179115,0.13143502298486165,0.14750938738385835
3,0.04,0.001,0.05691328790129685,0.04638762844771874,368.6612132002668,0.2631414798003332,0.11330152799685796
4,0.06,0.001,0.04105769642969457,0.03558508438489786,127.78551538979134,0.09121021797986534,0.11881270756324132
5,0.08,0.001,0.03503261951775086,0.0287016959997212,110.87031927341368,0.07913655908166572,0.07952036398152511
6,0.1,0.001,0.03341434523463249,0.02827219465156881,72.0415324699588,0.05142150783009193,0.060738580301404
7,0.12,0.001,0.031125085473787492,0.026991484368719707,48.25979604953673,0.03444667812243878,0.058264149663348995
8,0.14,0.001,0.02959858090048883,0.026605847223502833,29.948710371808307,0.021376666932054467,0.02952697593718767
9,0.16,0.001,0.028697545753746497,0.025976241543525604,23.828417289547804,0.017008149385829983,0.03398605125645796
10,0.18,0.001,0.027678511764218167,0.024919680160720173,21.472907089605563,0.015326843033265926,0.06765166607995828
11,0.2,0.001,0.026394773728963806,0.02351923418662897,20.143155353825268,0.01437769832535708,0.03877381064618627
12,0.22,0.001,0.02533835022732979,0.02220851555466652,19.931356290491618,0.014226521263734202,0.0726441318790118
13,0.24,0.001,0.024331383316255197,0.02081932181992182,20.501659974819276,0.014633590274674715,0.08121049373100202
14,0.25,0.001,0.02364922192220281,0.01985430712925225,21.266701907646365,0.015179658749212252,0.05376133881509304
15,0.25,0.001,0.022647336170804208,0.01891449670784357,20.91883087158203,0.01493135679627554,0.07478626227627198
16,0.25,0.001,0.021743467168473616,0.018265155893636913,19.49245862263005,0.013913246697094967,0.049545914555589356
17,0.25,0.001,0.02096289091902535,0.017405084220737947,19.93794938994617,0.014231227259062219,0.04928817025696238
18,0.25,0.001,0.020449594435531918,0.0169739481061697,19.477520128575765,0.01390258396043952,0.03999552115177115
19,0.25,0.001,0.020425741401750866,0.016911724037150057,19.692554241273463,0.014056070122250866,0.09005785391976436
20,0.25,0.001,0.021019831481503277,0.017216817316849056,21.312091083061404,0.015212056447581302,0.10810792570312817
21,0.25,0.001,0.020267728716135025,0.016504775187591227,21.087591822554426,0.015051814291616292,0.08474026930828889
22,0.25,0.001,0.01922959252828505,0.01599614958210689,18.120214927487257,0.012933772253738228,0.05887030313412348
23,0.25,0.001,0.019237153186667258,0.0159013666121698,18.693747915872713,0.01334314626400622,0.05450316518545151
24,0.25,0.001,0.018751188476638096,0.015277155016253634,19.468484785498642,0.013896134750534363,0.03781073664625486
25,0.25,0.001,0.019062835268858002,0.01591984264370872,17.613331399312834,0.012571971020209018,0.05451609784116348
26,0.0,0.001,0.014980788229078782,0.014980788229078782,23.526162403385815,0.016792407140175457,0.04650252188245455
27,0.02,0.001,0.014416390870947664,0.013899268832330296,36.2243935189596,0.025856098157715633,0.027163655186692875
28,0.04,0.001,0.01474092382846809,0.013367080606701897,48.118862059058216,0.03434608284015576,0.03142608112345139
29,0.06,0.001,0.015352701223114641,0.01294596463714431,56.19729093225991,0.040112270472705144,0.017970990389585495
30,0.08,0.001,0.01580521223566881,0.01276888223592101,53.17372643075338,0.03795412307691177,0.02188747360681494
31,0.1,0.001,0.01614068698410581,0.013216725755028608,40.96470046624905,0.02923961489382516,0.028828772095342476
32,0.12,0.001,0.01609003253099395,0.013407271741548689,31.321231004668444,0.02235633904687255,0.012313353673865398
33,0.14,0.001,0.016366953802544895,0.013814741336717838,25.540356938431902,0.01823009060559022,0.04342516014973322
34,0.16,0.001,0.01707777221937005,0.014211613117013036,25.0968074798584,0.017913495702968164,0.07894111207375924
35,0.18,0.001,0.017099728171781795,0.0138680361347591,25.15333417566811,0.017953843094695297,0.05358269779632489
36,0.2,0.001,0.017306225238049904,0.013968389867464216,23.381536530285345,0.016689176681145855,0.04857620317488909
37,0.22,0.001,0.017526155905570925,0.01412982668545915,21.628445090317143,0.015437862305722444,0.04384553851559758
38,0.24,0.001,0.01743280799014539,0.014105019000608747,19.42596949600592,0.013865788362602369,0.03365443522731463
39,0.25,0.001,0.017392343001031294,0.014000590572633394,19.00737760125137,0.013567007566917467,0.02010053318614761
40,0.25,0.001,0.017608937739235598,0.014319564670142605,18.433648877027558,0.013157493845130305,0.03808731182167927
41,0.25,0.001,0.01731207280805925,0.014141909255668885,17.76559806451565,0.012680655292302391,0.042896680844326816
42,0.25,0.001,0.017409639251304836,0.014227116048881194,17.83486208101598,0.01273009427624267,0.02537043346092105
43,0.25,0.001,0.017652585103017527,0.014221025744407641,19.230460422794994,0.013726238702922909,0.04823857545852661
44,0.25,0.001,0.017257210503264172,0.013977715972720123,18.37829078116068,0.013117980571849165,0.03367072685311238
45,0.25,0.001,0.01697174359749003,0.013602218590676785,18.882817803359615,0.01347809978826525,0.027961269486695528
46,0.25,0.001,0.017117685388501096,0.013961415669721802,17.68773706947885,0.012625079992490258,0.03500200745960077
47,0.25,0.001,0.017332061080307496,0.014210494076151674,17.493262314214938,0.012486268604007807,0.060596693928043045
48,0.25,0.001,0.017096533826211603,0.013885738146377773,17.993301112477372,0.012843184234459223,0.04938589874655008
49,0.25,0.001,0.016804799437522888,0.013552905287502743,18.223612994682497,0.013007575299559242,0.050096454564481974
50,0.25,0.001,0.01701186220275193,0.013940006494522095,17.214679741277926,0.01228742308442393,0.038904919754713774
51,0.0,0.001,0.013518381364098409,0.013518381364098409,20.65485098303818,0.014742934320512619,0.04850087966769934
52,0.02,0.001,0.012711285409040568,0.012280647097746046,30.16621831568276,0.02153191885487706,0.024924120710541803
53,0.04,0.001,0.013058064460027509,0.011851573499237619,42.25734245486376,0.030162271559503042,0.03791232298438748
54,0.06,0.001,0.013728304584397048,0.011548407625679562,50.90059326916206,0.036331615466925093,0.050159575107196964
55,0.08,0.001,0.014108693522469299,0.011368933701660575,47.98004801680402,0.03424700072577018,0.030302328212807577
56,0.1,0.001,0.014390887056545513,0.011591783565718954,39.21544051751858,0.027991035344410123,0.03250374862303337
57,0.12,0.001,0.014417737040941308,0.011833115412694653,30.17545895460175,0.02153851460000125,0.022949143623312313
58,0.14,0.001,0.014710812306985623,0.0122409720518967,24.71604426314191,0.017641716105026347,0.04637788639714321
59,0.16,0.001,0.01498520446986687,0.012221511226238274,24.199590729504095,0.017273084032479725,0.044724483198175825
60,0.18,0.001,0.015430111256314487,0.012494590087998204,22.848138111393627,0.01630844975831094,0.03020407787213723
61,0.2,0.001,0.015602084240171968,0.012376212083348414,22.597233749017484,0.016129360277671295,0.050323305961986385
62,0.22,0.001,0.015793190769306045,0.012409875532839357,21.545568094020936,0.015378706705225507,0.03654424690951904
63,0.24,0.001,0.016114386979763102,0.01266468193654607,20.137653513652523,0.014373771244577104,0.04312491665283839
64,0.25,0.001,0.01626014900280208,0.013195919985996514,17.171937430777202,0.012256914654373448,0.052460351337989174
65,0.25,0.001,0.016336760279245494,0.01293606033957586,19.05752321568931,0.013602800296709001,0.02859281686445077
66,0.25,0.001,0.01596579196431288,0.012738386577949292,18.086379307072338,0.012909621204191533,0.03698286693543196
67,0.25,0.001,0.015965230172363724,0.012760273430769036,17.96057863933284,0.012819827722578758,0.038022477024545275
68,0.25,0.001,0.0158412373374875,0.012587112056591162,18.23611724667433,0.013016500532958122,0.025781074538826942
69,0.25,0.001,0.015680068785824428,0.012535909531501735,17.619868673929354,0.012576637169114457,0.030424226851512987
70,0.25,0.001,0.01571476872919536,0.012678878290987596,17.01313167665063,0.012143562938365902,0.050685647797460355
71,0.25,0.001,0.015481253290866933,0.01228248477890724,17.925897761089047,0.012795073348386187,0.03589033482906719
72,0.25,0.001,0.015320912866694172,0.012284533688571395,17.01587035016316,0.012145517737446937,0.020647472857187193
73,0.25,0.001,0.015231175620744868,0.012267260789507774,16.60977861357898,0.011855659253089923,0.023706942796707153
74,0.25,0.001,0.015366365837796433,0.01239217924544724,16.667340394927233,0.011896745463902379,0.020565308164805174
75,0.25,0.001,0.015211321776959955,0.012188074769588506,16.94227716399402,0.012092988696640985,0.021890932849297922
76,0.0,0.001,0.011912454941832438,0.011912454941832438,18.09673113939239,0.012917010092357167,0.03611515477920572
77,0.02,0.001,0.011573661266394504,0.01118716856510174,27.073806483571122,0.0193246298954826,0.015294006870438656
78,0.04,0.001,0.011768853859748782,0.010690065396086471,37.78456897270389,0.026969713756391067,0.017631293662513297
79,0.06,0.001,0.01222704605358403,0.010366657635242475,43.44007240853659,0.031006475666335895,0.019509073502073686
80,0.08,0.001,0.012603468420665438,0.010282718031326445,40.64214129564239,0.029009379939787572,0.011925554058204094
81,0.1,0.001,0.01283627950654524,0.010487600297826092,32.904996732386145,0.02348679281398012,0.016150327244152624
82,0.12,0.001,0.0131343277398406,0.010899359723780214,26.09325157723776,0.01862473345984137,0.021431473627065618
83,0.14,0.001,0.013216011566904986,0.010884568617656463,23.33108194862924,0.016653163418008023,0.021622912182162207
84,0.16,0.001,0.013579076905621261,0.011109452512932987,21.624648954810166,0.015435152715781704,0.021777161008988816
85,0.18,0.001,0.013698667742130233,0.010982820900475107,21.138340089379287,0.015088037180142247,0.018948946613818407
86,0.2,0.001,0.0141485457013293,0.011389404535293579,19.32778400328101,0.013795705926681664,0.03113994188606739
87,0.22,0.001,0.01439587017748414,0.011506084738889845,18.402680652897534,0.013135389473874043,0.025304639323924977
88,0.24,0.001,0.014553501475148084,0.011425476384962477,18.259848106198195,0.013033439047964451,0.03041219851002097
89,0.25,0.001,0.014793833263400124,0.01174523081721329,17.08436928725824,0.012194410626165768,0.0440034430163602
90,0.25,0.001,0.014716717459988303,0.011456174616951769,18.27208216597394,0.013042171424678044,0.026124037181337673
91,0.25,0.001,0.014676799747820308,0.011533952704290064,17.61251449584961,0.012571387934225275,0.025089284870773554
92,0.25,0.001,0.014372281366732062,0.011553571014324339,15.796052793177163,0.011274841394130737,0.01890378367776672
93,0.25,0.001,0.01427479260941831,0.011404258448903153,16.08647462798328,0.011482137493207194,0.019633286943038303
94,0.25,0.001,0.014364632891445624,0.011507765776137026,16.009883229325457,0.011427468400660569,0.019479843166967232
95,0.25,0.001,0.014211279362803551,0.011348534875163218,16.04282162829143,0.011450979035183035,0.025511484903593857
96,0.25,0.001,0.014192749291840123,0.011212684463982174,16.700282678371522,0.01192025887107175,0.014353595208376646
97,0.25,0.001,0.014152870240916566,0.011203145858172963,16.530255480510434,0.011798897559250844,0.01588368198523919
98,0.25,0.001,0.014181329368999818,0.011467256946716367,15.209662739823504,0.010856290321073164,0.01882871597384413
99,0.25,0.001,0.014161498126823728,0.011337561601000587,15.825340433818537,0.011295746205437928,0.027274402944991987
100,0.25,0.001,0.014078415612258562,0.011249780473185748,15.851671939942895,0.011314540999245464,0.018656577914953232
101,0.25,0.001,0.014062909136821584,0.01123517495012138,15.846622536822062,0.011310936857117818,0.023970278445631266
102,0.25,0.001,0.013977553695440292,0.011309698610225828,14.950659309945456,0.010671419921445722,0.028282611009975273
103,0.25,0.001,0.013970850149124133,0.011263209008952467,15.173620479862864,0.010830564225455292,0.024273282537857693
104,0.25,0.001,0.014060525291758339,0.011176041418277636,16.164648288633764,0.011537935966191123,0.03724187922974428
105,0.25,0.001,0.013982824027174857,0.011084381286509154,16.24287274988686,0.0115937706994196,0.026930763153359294
106,0.25,0.001,0.013964233579250371,0.011144086786704819,15.804102316135314,0.011280586949418497,0.03113973590855797
107,0.25,0.001,0.013803213925623312,0.011217621632102059,14.489659007002668,0.010342369027125388,0.018290400505065918
108,0.25,0.001,0.013808945807196745,0.01112136580958599,15.061199374315215,0.010750320752544765,0.013428871675084034
109,0.25,0.001,0.013673713930496356,0.010957961924737546,15.219075505326433,0.01086300892600031,0.016420864577715594
110,0.25,0.001,0.01372263564660055,0.01110905715514247,14.64649405130526,0.010454314098005181,0.011251193548863133
111,0.25,0.001,0.013648788399267487,0.011048458357591455,14.572249226453827,0.010401319933228998,0.020544099155813456
112,0.25,0.001,0.013505672945118532,0.010935417490034568,14.403711877218107,0.010281022039413354,0.02487465428809325
113,0.25,0.001,0.013589062114677778,0.010953580869770631,14.769236913541468,0.010541924991821177,0.025312444505592186
114,0.25,0.001,0.01358750158148568,0.010862322115316623,15.271906922503215,0.01090071871699016,0.03339723125100136
115,0.25,0.001,0.013456666478660048,0.01078230828591963,14.987103020272604,0.010697432562649968,0.016332225874066353
116,0.25,0.001,0.013409430251979246,0.010725398343510745,15.041314194842082,0.010736127191179216,0.011668421948949495
117,0.25,0.001,0.013434607104012153,0.010873381775326846,14.353108313025498,0.010244902436135258,0.013170454651117325
118,0.25,0.001,0.013451144008374796,0.010741493437530064,15.184882443125655,0.010838602743130374,0.01732018201922377
119,0.25,0.001,0.013282450733751786,0.010592825029317925,15.072663749136575,0.01075850374670705,0.00999514238598446
120,0.25,0.001,0.013318589116196806,0.010715651348596665,14.586864866861482,0.01041175222474053,0.010213403574501475
121,0.25,0.001,0.013225761333071604,0.010592168560478746,14.758654850285227,0.010534371770367756,0.01461343071423471
122,0.25,0.001,0.013176409732096078,0.01060110737183472,14.431994717295577,0.01030120964831947,0.0154529536763827
123,0.25,0.001,0.013265466294819263,0.01073861980765331,14.160447097406156,0.010107385508498327,0.020596118876710534
124,0.25,0.001,0.01345446957956727,0.010840932293454321,14.646263308641387,0.010454149399458521,0.026811581725875538
125,0.25,0.001,0.013397487334725334,0.010606503386686488,15.640674218898866,0.011163935916416035,0.02061318528528015
126,0.25,0.001,0.013270559561688726,0.01065579587139371,14.653135346203316,0.010459054494078027,0.021032241638749838
127,0.25,0.001,0.01339026086214112,0.010891959661754167,14.00048062859512,0.009993205302351978,0.01789089695860942
128,0.25,0.001,0.013464949866075342,0.010828814560138598,14.772902232844656,0.010544541208311674,0.023889764832953613
129,0.25,0.001,0.013391166243974755,0.010831994322560183,14.341600627433962,0.010236688527790123,0.029761403022954862
130,0.25,0.001,0.013287857583746678,0.010680909586570612,14.609336713465249,0.010427792086698964,0.024833571631461382
131,0.25,0.001,0.01331579155947377,0.010677907729475963,14.782701282966428,0.010551535533880392,0.029066885821521282
132,0.25,0.001,0.013322963333893113,0.010774371872951344,14.28230690374607,0.010194366098319821,0.023888114063690107
133,0.25,0.001,0.013320972893114498,0.010634093931535395,15.057269026593465,0.010747515365163073,0.0313984298457702
134,0.25,0.001,0.013235995341546652,0.010703780347617662,14.190532265639886,0.01012885957576009,0.02437475013236205
135,0.25,0.001,0.013239832276978144,0.010594559129236675,14.824111566310975,0.01058109319508278,0.01947998208925128
136,0.25,0.001,0.013480784416925616,0.010923578517466056,14.330581571997666,0.01022882339186129,0.02588229184038937
137,0.25,0.001,0.0133426544460945,0.010670772867231833,14.973224081644197,0.010687526111095073,0.02622575545683503
138,0.25,0.001,0.013102012436564376,0.010572741489584854,14.174035397971549,0.010117084509615668,0.018021846966197092
139,0.25,0.001,0.013152481374762407,0.010521684455253729,14.742985609101087,0.010523187444040747,0.017062421112010877
140,0.25,0.001,0.01314386743597868,0.010530151858380654,14.647262945407775,0.010454862916065507,0.01337835673863689
141,0.25,0.001,0.013076895325467354,0.010488790346354974,14.503740892177674,0.010352420337029032,0.014789203957964977
142,0.25,0.001,0.012993269690834894,0.010460169190858922,14.195495140261766,0.010132401955932738,0.015515808093671998
143,0.25,0.001,0.012989977533679182,0.01043834910932474,14.2993263384191,0.01020651416018494,0.017928908035779994
144,0.25,0.001,0.012978401966392994,0.01032547375596151,14.867008813997595,0.010611712215558598,0.0170561623138686
145,0.25,0.001,0.012863788685602387,0.010365297722562058,14.001543673073373,0.009993964077853941,0.012888367986306548
146,0.25,0.001,0.012895281721905964,0.010448324005687383,13.712751016384217,0.009787830846812432,0.016959649898732703
147,0.25,0.001,0.012991876068820313,0.010443776266694797,14.279552041030511,0.01019239974377624,0.024517416022717953
148,0.25,0.001,0.012971370367378724,0.010377694829934982,14.534956769245428,0.010374701476977465,0.02336260676383972
149,0.25,0.001,0.01295018516390062,0.010405010929921778,14.263156239579363,0.01018069681625936,0.01431292404110233
150,0.25,0.001,0.012908630459228666,0.010393900546904018,14.092547556249107,0.010058920454139263,0.016632080310955644
151,0.25,0.001,0.013044748773298613,0.010388044913004085,14.88816824191954,0.010626815304724868,0.023147544357925653
152,0.25,0.001,0.012983845978430131,0.010303948483452565,15.018146421851181,0.010719590593755305,0.018768043412516516
153,0.25,0.001,0.01268669433619191,0.010170043991288034,14.103309142880324,0.010066601815046627,0.016390988913675148
154,0.25,0.001,0.012802867309712782,0.010259815469020751,14.251262246108636,0.010172207170669975,0.012219542792687813
155,0.25,0.001,0.012764839046612018,0.010236918630941613,14.16646585231874,0.010111681550548708,0.013947985755900541
156,0.25,0.001,0.01289686372094765,0.010404859465069888,13.965190329202791,0.009968015938046247,0.024069854834427435
157,0.25,0.001,0.012794687117381794,0.010161416741406045,14.756848288745415,0.010533082290325064,0.017585311861087877
158,0.25,0.001,0.012666043257567941,0.010129975200426288,14.212125638636147,0.010144272404451211,0.01367185233781735
159,0.25,0.001,0.012752089604008488,0.010326870467241218,13.590927845094262,0.009700876406205754,0.014108830907692512
160,0.25,0.001,0.012766371640126879,0.010165467540301927,14.575467621407858,0.010403617145901397,0.015246981910119453
161,0.25,0.001,0.012778752801440111,0.010125222547752102,14.870383239373929,0.010614120798982106,0.022724056305984657
162,0.25,0.001,0.012698840804216339,0.010178070288242363,14.126397923725408,0.01008308202978259,0.016860192952056725
163,0.25,0.001,0.012710858590719177,0.010194832254655478,14.09981125157054,0.010064105104618516,0.014447412143150965
164,0.25,0.001,0.012648337316222308,0.010149227091815413,14.005013256538206,0.009996440582825271,0.01474081166088581
165,0.25,0.001,0.012753052795987303,0.010166869748656342,14.492969512939453,0.010344731986395041,0.015401984487349788
166,0.25,0.001,0.012742327526211739,0.010144300826984207,14.559340500250094,0.010392105995895856,0.01764850690960884
167,0.25,0.001,0.012809994675945945,0.010174873989166283,14.767215728759766,0.010540482318886343,0.027975596797962982
168,0.25,0.001,0.0128423538649591,0.010293496840792457,14.283794914803854,0.010195428204713673,0.04270745565493902
169,0.25,0.001,0.013055072529468595,0.010439357107005469,14.658468781447992,0.01046286137148322,0.032321831211447716
170,0.25,0.001,0.013107281973267474,0.010601759706510276,14.040947472176901,0.010022089559012777,0.039211520769943796
171,0.25,0.001,0.013047158604533208,0.010344926585874907,15.14330915125405,0.010808928730374054,0.035672626147667565
172,0.25,0.001,0.012853800887014807,0.010244105215661409,14.624734925060737,0.010438782958644352,0.028929952376832564
173,0.25,0.001,0.012853738442971939,0.010292427387179398,14.353586801668493,0.010245243969784792,0.018139292486011982
174,0.25,0.001,0.012724112991879626,0.010250614206420212,13.86148738861084,0.009893995280949922,0.015518745562682549
175,0.25,0.001,0.012709963930452742,0.01013218245764331,14.445887961038729,0.010311126310520148,0.017385254226004083
176,0.25,0.001,0.012569013346986072,0.010098663408581803,13.843840715361804,0.009881399511321772,0.013545060530304909
177,0.25,0.001,0.01256810687482357,0.010159599503911123,13.497276306152344,0.009634030197110881,0.016825203550979495
178,0.25,0.001,0.01252193092482119,0.01000850197927254,14.08525536699993,0.01005371546538182,0.014065810789664587
179,0.25,0.001,0.012492188275223824,0.009922795849511536,14.39887435261796,0.010277569131062071,0.017095629901935656
180,0.25,0.001,0.012594347229091132,0.010188504917229094,13.482341347671136,0.009623369984062196,0.019136297671745222
181,0.25,0.001,0.012489897085399163,0.00995195418505407,14.222632012716154,0.010151771600796684,0.01389356143772602
182,0.25,0.001,0.012472817174545148,0.00994807265971492,14.148669219598538,0.010098978743467907,0.013281823912014564
183,0.25,0.001,0.01252789000367246,0.009944722192679964,14.47607310225324,0.010332671736083683,0.01198273804038763
184,0.25,0.001,0.012518198524669902,0.01000320338984815,14.094034427549781,0.010059981747001985,0.015370959338421622
185,0.25,0.001,0.012481169457115778,0.009885088972202161,14.548436490500846,0.010384322976802888,0.01609726157039404
186,0.25,0.001,0.012555358272681876,0.010039071666031348,14.101270768700576,0.010065146872734174,0.015485240379348397
187,0.25,0.001,0.012535013690045694,0.00995369623528748,14.465704220097239,0.010325270678156487,0.01283782534301281
188,0.25,0.001,0.012464228608622783,0.009905697209987699,14.338009811029202,0.010234125489671094,0.014951147139072418
189,0.25,0.001,0.012497722057671082,0.009988590120905784,14.061175299853813,0.010036527694399581,0.014666406903415918
190,0.25,0.001,0.012487666090814078,0.010014240993413984,13.86107437785079,0.00989370048383354,0.018416588970770437
191,0.25,0.001,0.012431438921428308,0.00982086392255818,14.629663141762338,0.010442300600829648,0.015432554918030897
192,0.25,0.001,0.012422814192931826,0.009850151382568405,14.41720339147056,0.010290651956795545,0.013346586609259248
193,0.25,0.001,0.012408026176073202,0.009822187400082262,14.49104006697492,0.010343354794414646,0.01940549196054538
194,0.25,0.001,0.012443083542876127,0.010001444643953951,13.682945879494271,0.009766556659167931,0.015971041129281122
195,0.25,0.001,0.012407399532271594,0.009875616921884258,14.188110840029832,0.01012713122057804,0.01989453611895442
196,0.25,0.001,0.012558301138441736,0.010019889998635867,14.225255849884778,0.010153644432465938,0.020549055188894272
197,0.25,0.001,0.012569369021348836,0.010022335458637737,14.27357748078137,0.0101881352468104,0.029294079324851435
198,0.25,0.001,0.012419968321010834,0.00992773991168999,13.966448853655558,0.009968914242437944,0.015804830628136795
199,0.25,0.001,0.012476077848454802,0.010036169233300337,13.673247779287943,0.009759634389213378,0.015096175329138836
200,0.25,0.001,0.01242762177092273,0.009938517380960105,13.948940486442751,0.009956417192321735,0.016905650030821562
201,0.25,0.001,0.012400779736841597,0.009847775578680561,14.307035306604897,0.01021201663569229,0.016498555662110448
202,0.25,0.001,0.012410467535984225,0.009921108190788001,13.950370695532822,0.00995743804106554,0.016002259217202663
203,0.25,0.001,0.01236731122906615,0.009855942664349951,14.073709906601325,0.010045474594290739,0.014079929639895758
204,0.25,0.001,0.01247723041692885,0.00993692227525682,14.235886317927664,0.010161232204088268,0.026438564683000248
205,0.25,0.001,0.012429200362686703,0.009865237468081276,14.368448117884194,0.010255851618761023,0.01967072564487656
206,0.25,0.001,0.012404995902282437,0.009918681981905205,13.933302274564417,0.009945255013964609,0.016605531719202798
207,0.25,0.001,0.012410297989845276,0.009889298550239423,14.127678871154785,0.010083996339154022,0.012601682140181461
208,0.25,0.001,0.012356218109588797,0.009868101807447469,13.943404918763695,0.009952466037661452,0.018590290409823258
209,0.25,0.001,0.012301791550182715,0.009760367661351112,14.242139909325576,0.0101656958667563,0.011295485775917768
210,0.25,0.001,0.012404834238312594,0.00990042154018472,14.034727701326696,0.010017650036635758,0.013254065377016863
211,0.25,0.001,0.012409346950490301,0.009807782929118087,14.579165179555009,0.010406256373700934,0.01727304219578703
212,0.25,0.001,0.01245887563904611,0.009942942594246166,14.099288638045149,0.010063732075692468,0.021833974169567227
213,0.25,0.001,0.012338289400426352,0.009756129257744404,14.470425373170434,0.010328640523319367,0.016789017089953024
214,0.25,0.001,0.012407791619075507,0.009792621520052596,14.655412115701814,0.01046067959721757,0.01656801983093222
215,0.25,0.001,0.012287176645747045,0.009761417648050844,14.154355072393649,0.010103037168018308,0.015474038276200494
216,0.25,0.001,0.012417794318824279,0.009880117776735527,14.221139349588533,0.010150706173867619,0.023169709369540215
217,0.25,0.001,0.012511911733848293,0.009816928312364148,15.102686788977646,0.010779933468221018,0.013572280605634054
218,0.25,0.001,0.012359010419104158,0.00977018807174229,14.50776114114901,0.010355289893753753,0.015600385920455059
219,0.25,0.001,0.01231898655887784,0.009842200386451512,13.879909747984351,0.009907144716619808,0.017651122606669862
220,0.25,0.001,0.012404929573942975,0.009950577622143233,13.754188188692419,0.009817407700708365,0.018900803445527952
221,0.25,0.001,0.012386012368085907,0.009840549151526719,14.264776834627478,0.010181853557906836,0.019333131378516555
222,0.25,0.001,0.012357334538203915,0.009744556904656858,14.642004803913396,0.010451109781522767,0.020623034642388422
223,0.25,0.001,0.012389582286520703,0.009879163761691349,14.0683849613841,0.010041673776862312,0.018916459754109383
224,0.25,0.001,0.01233682747385124,0.009831377168799319,14.040544137722108,0.010021801668609642,0.01758477627299726
225,0.25,0.001,0.012265769265046933,0.009800545394238903,13.815113998040921,0.009860895073548124,0.016336369793862104
226,0.25,0.001,0.012258158383391253,0.009782205131359217,13.875241116779607,0.009903812360299505,0.022918463063736755
227,0.25,0.001,0.01225994559141194,0.009734999331668383,14.149798509551257,0.010099784803391333,0.019338362229367096
228,0.25,0.001,0.012244435277108738,0.009748200704230041,13.988899696164015,0.009984939112179882,0.016601885824153822
229,0.25,0.001,0.01220810165765082,0.009723715325136011,13.922500796434356,0.009937545179467778,0.018161167701085407
230,0.25,0.001,0.012172702291026348,0.00959599401983546,14.43987302082341,0.010306832991308643,0.015002622579534849
231,0.25,0.001,0.01222391780920145,0.009642574799860396,14.465845852363401,0.010325371771851107,0.02194926453133424
232,0.25,0.001,0.01210934055469385,0.009633617134901082,13.873954075138743,0.009902893701026939,0.010956856266905865
233,0.25,0.001,0.012154255607506124,0.009753563055178015,13.453479813366402,0.009602769317178017,0.014569812919944525
234,0.25,0.001,0.012163056287823654,0.009590077327518928,14.418973294700065,0.010291915271020746,0.012957680194328228
235,0.25,0.001,0.012148545714231527,0.009590611634094541,14.3346628328649,0.010231736497405353,0.01582592772319913
236,0.25,0.001,0.012168916941779415,0.009686258462507551,13.9128190947742,0.009930634614399856,0.01611227278287212
237,0.25,0.001,0.012366331364141732,0.009806795681758625,14.343638047939393,0.010238142789392857,0.023853551285962265
238,0.25,0.001,0.01220088892775338,0.009606631472706795,14.53821880061452,0.010377029836270178,0.01646915248905619
239,0.25,0.001,0.01220339727474422,0.009646791124307528,14.32722170759992,0.010226425201713005,0.019570074354608853
240,0.25,0.001,0.012220203172324634,0.009735710464599655,13.923096447456174,0.009937970340796699,0.020640654178957146
241,0.25,0.001,0.012230937164731143,0.00966731736027613,14.366525301119177,0.010254479158543309,0.019128865096718073
242,0.25,0.001,0.01208361881080924,0.009518329440275343,14.375881102026963,0.010261157103516747,0.012186463456600904
243,0.25,0.001,0.012049511029589467,0.009576593525707722,13.858231125808343,0.009891671039120873,0.013379598191628853
244,0.25,0.001,0.01211026597132043,0.009680069471913867,13.618821120843656,0.009720785953492973,0.01517649848634998
245,0.25,0.001,0.012016791100727349,0.00950206875255922,14.09250459438417,0.010058889788996552,0.018178136243174475
246,0.25,0.001,0.012116410905813299,0.009579100418926739,14.219088205477087,0.010149242116686,0.016103285054365795
247,0.25,0.001,0.012030130615685045,0.009499962123610624,14.179064727411038,0.01012067432363386,0.013694190420210361
248,0.25,0.001,0.012079202865318554,0.00956148025011871,14.109318989079172,0.010070891498272071,0.013530007563531399
249,0.25,0.001,0.012051601144598752,0.009529511307979502,14.133792528292028,0.01008836012012279,0.014762540891145667
250,0.25,0.001,0.012131270634510168,0.00961757419494594,14.08675538039789,0.010054786138756523,0.009663343351955215
251,0.25,0.001,0.011992470520298655,0.009488105978362443,14.034459137335055,0.010017458342137799,0.011576897619913021
252,0.25,0.001,0.012160774115927336,0.009680613375655034,13.898821993571955,0.009920643821250503,0.0237287610458831
253,0.25,0.001,0.012162173961902537,0.009598610104947555,14.366210704896508,0.010254254607349399,0.019124402819822233
254,0.25,0.001,0.012057747419287519,0.00957797474523143,13.89664645311309,0.009919090972957238,0.013943240822603306
255,0.25,0.001,0.01205608902907953,0.009593433859508211,13.800720121802353,0.009850621071950288,0.011068957081685463
256,0.25,0.001,0.012114011659854797,0.00949230610688285,14.692039094320158,0.010486823050906608,0.013289279459665218
257,0.25,0.001,0.012047537125465347,0.009511300283143433,14.213071590516625,0.010144947602081816,0.013694315372655788
258,0.25,0.001,0.012065572346129068,0.009464318091731245,14.57742888753007,0.010405017050342663,0.011910335160791874
259,0.25,0.001,0.012026535869553321,0.009510648073401393,14.09903507697873,0.010063551089920578,0.01844149362295866
260,0.25,0.001,0.012152655958765891,0.009621826091372385,14.182771729259956,0.010123320292119884,0.015593452068666616
261,0.25,0.001,0.012208342961058384,0.009622578236569718,14.490627730764993,0.010343060478775869,0.013825859719266495
262,0.25,0.001,0.012162223662726762,0.009708568885377267,13.750281450225085,0.009814619165042887,0.012229386251419783
263,0.25,0.001,0.011972332441407005,0.009375000190807552,14.555451672251632,0.010389330244290958,0.015415419513980547
264,0.25,0.001,0.01204279921494606,0.009519131740600598,14.142632275092893,0.010094669718124834,0.011643849701310197
265,0.25,0.001,0.012084738646702068,0.009578428072173422,14.045363682072336,0.010025241743092318,0.015209195980181297
266,0.25,0.001,0.0120718935050252,0.009534145364674127,14.221540892996439,0.010150992785864696,0.01221470395103097
267,0.25,0.001,0.012077014393559316,0.009511606495191411,14.376545952587593,0.01026163165780699,0.02091292478144169
268,0.25,0.001,0.012023779790757633,0.009578656882229374,13.702468011437393,0.009780491085965305,0.01574873086065054
269,0.25,0.001,0.011920424269103422,0.009398104373093059,14.135080337524414,0.010089279327283665,0.016691725701093674
270,0.25,0.001,0.011859167435365478,0.009454374542323554,13.476459642735923,0.009619171764979246,0.013268226757645607
271,0.25,0.001,0.011889861896634102,0.009411872228289523,13.886653900146484,0.009911958529726256,0.013451942863563696
272,0.25,0.001,0.011845079091627424,0.009337193991352872,14.054189030717058,0.010031541064037872,0.015502789678672949
273,0.25,0.001,0.011878739610859534,0.009405705475861706,13.85888332273902,0.009892136561555333,0.02073799477269252
274,0.25,0.001,0.012047812728801878,0.009468959371854619,14.451894248404153,0.010315413453536156,0.01722169651960333
275,0.25,0.001,0.011986284880194722,0.009376451838761568,14.625504377411634,0.010439332175168903,0.014361619794120392
276,0.25,0.001,0.012022110883419106,0.009514993351952331,14.049887215218893,0.010028470531919267,0.019633088648940127
277,0.25,0.001,0.012130919230602137,0.00960642619558224,14.147259037669112,0.010097972189628202,0.021034476968149345
278,0.25,0.001,0.012198430372447503,0.009625767516653711,14.41720255409799,0.010290651359099208,0.02112336813782652
279,0.25,0.001,0.01211602649674183,0.00959323051317436,14.137748485658227,0.01009118378705084,0.01952379212404291
280,0.25,0.001,0.012108665482118362,0.009457801582246291,14.85544148887076,0.010603455737952006,0.0186688294634223
281,0.25,0.001,0.012018748581772896,0.00945279876724249,14.379582986599061,0.010263799419414034,0.01180968425857524
282,0.25,0.001,0.011910858200635852,0.009457762921001853,13.747145629510648,0.009812380891870556,0.013943021728967627
283,0.25,0.001,0.011971650349839432,0.009634302724607108,13.098495948605422,0.009349390398719072,0.014858711821337542
284,0.25,0.001,0.012023680161957333,0.009477327736776049,14.26975975967035,0.01018541024958626,0.022012535172204178
285,0.25,0.001,0.011961027775414107,0.009371294412852787,14.512866345847526,0.010358933865701303,0.015575116655478874
286,0.25,0.001,0.011903736513198876,0.009349789674870851,14.312317545821028,0.010215786970607443,0.015545706264674664
287,0.25,0.001,0.01193792268452121,0.00943394093887835,14.03231341664384,0.01001592677847526,0.015202784289916357
288,0.25,0.001,0.012038880777431697,0.009483982752099997,14.317647747877167,0.010219591540240661,0.021944002558787663
289,0.25,0.001,0.012030624057643297,0.009430124083670175,14.573201226025093,0.010401999447555384,0.015609316372623047
290,0.25,0.001,0.011976515919696994,0.009501644694132776,13.869178446327767,0.009899484972396693,0.016163140380134184
291,0.25,0.001,0.011952706340064363,0.00948112637440606,13.850734617651963,0.00988632021245679,0.018421721023817856
292,0.25,0.001,0.011851098206711978,0.009384056712250883,13.825299286260837,0.00986816508655306,0.013391417916864157
293,0.25,0.001,0.011930611961316772,0.009552482515573502,13.327036973906726,0.009512517468884173,0.01805981365032494
294,0.25,0.001,0.011985470063802673,0.00936025185737668,14.711723188074624,0.01050087308213749,0.013869958619276682
295,0.25,0.001,0.012043780669933411,0.009467224624553105,14.4390201801207,0.010306224254190364,0.02288531543066104
296,0.25,0.001,0.011966126743794941,0.00952231795413465,13.695104180312738,0.009775234960965551,0.016626765485852957
297,0.25,0.001,0.011867203727001098,0.009351832451435125,14.096140093919708,0.010061484720856322,0.013071442255750299
298,0.25,0.001,0.011782277920624105,0.00930802374169594,13.865720493037527,0.009897016768763402,0.011364740009109179
299,0.25,0.001,0.011767495582561667,0.00934766914422919,13.56070727836795,0.00967930569476656,0.011901937269916138
300,0.25,0.001,0.01188574199814622,0.009388198621752785,13.996232753846703,0.009990173271839188,0.014976837206631899
301,0.25,0.001,0.01185274780614347,0.009353504720620992,14.005758541386301,0.00999697254916938,0.012227661752452454
302,0.25,0.001,0.011763023894007614,0.009314968227976707,13.718904192854719,0.009792222835727851,0.011406370671465993
303,0.25,0.001,0.011824038334009124,0.009364293388477185,13.784410151039681,0.009838979408308125,0.016625716506193083
304,0.25,0.001,0.011896743348277197,0.009400228265582062,13.990470956011515,0.009986060639551403,0.012809572353338202
305,0.25,0.001,0.011926695795320883,0.009382784298462113,14.256081464813978,0.010175647012715188,0.018495007418096066
306,0.25,0.001,0.011839107155981587,0.009348593470526904,13.956838165841452,0.009962054365340079,0.017624576731274526
307,0.25,0.001,0.011965800076723099,0.00942101534001711,14.260974000139933,0.010179139186395384,0.01977243817721804
308,0.25,0.001,0.011921781546822408,0.00943719747862438,13.923609896403986,0.00993833682826837,0.020249496058871348
309,0.25,0.001,0.01196059016737996,0.009340662940791467,14.682071964915206,0.010479708754400576,0.025784014103313286
310,0.25,0.001,0.011884544680758221,0.009337692612373247,14.272558677487257,0.010187408049598327,0.021004805496583383
311,0.25,0.001,0.011980044110337408,0.009443987251781836,14.212062068101837,0.0101442270293375,0.021299785934388638
312,0.25,0.001,0.012021044587216726,0.0094360023646093,14.486576080322266,0.010340168508438448,0.014202417417739829
313,0.25,0.001,0.011954040062136767,0.009385847054967067,14.392152809515231,0.010272771455756767,0.01276446133852005
314,0.25,0.001,0.011767444359820063,0.009233988185481327,14.197487854376071,0.010133824307192056,0.013188184859851996
315,0.25,0.001,0.011852058536577515,0.009443726731327975,13.496291556009432,0.009633327306216582,0.016104279706875484
316,0.25,0.001,0.011859403128122411,0.009325626192659867,14.199286158491926,0.010135107893284744,0.021319737502684195
317,0.25,0.001,0.01181003642154903,0.009308320129426515,14.019619685847585,0.010006866299677078,0.015883121484269697
318,0.25,0.001,0.011833181423021526,0.009297227214385823,14.211487490956376,0.010143816910033103,0.011005523769805828
319,0.25,0.001,0.011883818271865205,0.009409249442197927,13.867484325315894,0.009898275749690147,0.013098471254731217
320,0.25,0.001,0.011823596387374692,0.0093389842659235,13.92376453120534,0.009938447202858915,0.01322034482533733
321,0.25,0.001,0.011814597812367648,0.009306096698997951,14.057640308287086,0.01003400450270313,0.015764393843710423
322,0.25,0.001,0.01182390785798794,0.009219144016686009,14.597096605998713,0.010419055393289588,0.018959052860736847
323,0.25,0.001,0.011749636563586026,0.009298362825974458,13.736937685710627,0.00980509470785912,0.012789402001847824
324,0.25,0.001,0.011877841497885018,0.00935066827550167,14.162277849709115,0.010108692255324136,0.01858648316313823
325,0.25,0.001,0.011963304268514238,0.00954452061616793,13.55486404605028,0.009675134936509837,0.019864741402367752
326,0.25,0.001,0.011864785741015179,0.009270066690699356,14.540806840105754,0.010378877116420953,0.020987479016184807
327,0.25,0.001,0.011756142601370811,0.009281770644209734,13.866380016978194,0.009897487521040823,0.01719245609516899
328,0.25,0.001,0.01178089992665663,0.009329871865125692,13.735561231287514,0.009804112227899725,0.016598591736207407
329,0.25,0.001,0.0117708831662085,0.009233639825408051,14.218712783441312,0.010148974149494155,0.0186176560819149
330,0.25,0.001,0.011742609235026487,0.009202839829391095,14.232868938911253,0.010159078471742506,0.017441817714522283
331,0.25,0.001,0.011792335409398487,0.009202386116290965,14.514074837289206,0.010359796457736764,0.0191616037239631
332,0.25,0.001,0.011762149631977081,0.009346782309343903,13.535718568941443,0.00966146935684614,0.015427883015945554
333,0.25,0.001,0.011866387593128332,0.009238747970723524,14.725292019727753,0.010510558186814956,0.012368157350768646
334,0.25,0.001,0.011910774835907832,0.009371339184481924,14.230998039245605,0.01015774306869779,0.018714311222235363
335,0.25,0.001,0.011773134922472442,0.00923455106775935,14.22622410844012,0.010154335552062898,0.011400948045775294
336,0.25,0.001,0.011730996074109542,0.009264839631391734,13.820341575436476,0.0098646263921745,0.010832524936025342
337,0.25,0.001,0.01177352846304818,0.009303028286411994,13.84468427518519,0.009882001623972297,0.011732555770625671
338,0.25,0.001,0.011708961254576357,0.009194004190404241,14.093818734331828,0.010059827790386744,0.009730224885667363
339,0.25,0.001,0.011870467444745505,0.009247357184748823,14.699910466263933,0.01049244144629831,0.021526979748159647
340,0.25,0.001,0.011838021211144401,0.009201075518276633,14.777444397530905,0.010547783295882159,0.017792834124217432
341,0.25,0.001,0.01178466583170542,0.009264857667248423,14.121005825880097,0.010079233280428335,0.013716725554938117
342,0.25,0.001,0.011865573685343673,0.009415716591586427,13.72899734683153,0.009799427085532855,0.014337436606486639
343,0.25,0.001,0.011825877196359925,0.009215491982858355,14.628599259911514,0.010441541227631345,0.016275770030915737
344,0.25,0.001,0.01177439879535175,0.009252069586115639,14.135134348055212,0.010089317878697511,0.01606221403926611
345,0.25,0.001,0.011736350951761735,0.009236109806451856,14.011351050400153,0.010000964347180695,0.015188153445099791
346,0.25,0.001,0.011754249881316976,0.009231477067237946,14.137618762690847,0.010091091193926371,0.015710315434262156
347,0.25,0.001,0.01174202595451256,0.009241844413847459,14.011016613099633,0.010000725633904093,0.017166603977481525
348,0.25,0.001,0.011619931654777468,0.009122504193971797,13.99558337141828,0.009989709758328537,0.014306068420410156
349,0.25,0.001,0.011718317548312792,0.00921103694453472,14.050801253900296,0.010029122950678298,0.013770449440926313
350,0.25,0.001,0.011661482566013568,0.00926079346639354,13.45346167029404,0.009602756367090678,0.013391499873250723
351,0.25,0.001,0.011738212415721358,0.009130399378879769,14.614183867849954,0.01043125186855814,0.012326521954188744
352,0.25,0.001,0.011649322128150522,0.009092069957859633,14.330841529660109,0.0102290089433691,0.01288322110970815
353,0.25,0.001,0.011615171369801208,0.00915403171192582,13.792226628559392,0.009844558621384291,0.015893068940689165
354,0.25,0.001,0.011660041878136193,0.00921567231871006,13.69824758390101,0.009777478646610285,0.015871133655309677
355,0.25,0.001,0.011681130065060243,0.009126812969220847,14.314395160209841,0.010217269921634433,0.011915712694947919
356,0.25,0.001,0.011710623710802415,0.009212128091149213,14.001569468800614,0.009993982490221709,0.016307469457387924
357,0.25,0.001,0.01176249996827143,0.009308342867326446,13.753097673741783,0.009816629317445955,0.025168498357137043
358,0.25,0.001,0.011633023301639208,0.009156307114697084,13.87951771805926,0.009906864895117246,0.01665594506387909
359,0.25,0.001,0.011766059642157904,0.009346998819127315,13.556417232606469,0.009676243563602048,0.02018355345353484
360,0.25,0.001,0.0116063584459991,0.00903549497356502,14.407119681195516,0.010283454447677028,0.01393418526276946
361,0.25,0.001,0.011619439166856975,0.009197302730526866,13.573652337237101,0.00968854556547973,0.017243062766889732
362,0.25,0.001,0.011769171122734139,0.00916670338909437,14.584229352997571,0.010409871058527888,0.02288581314496696
363,0.25,0.001,0.011709523023810328,0.009285500363969221,13.584223026182594,0.00969609066822455,0.01535783459742864
364,0.25,0.001,0.011682530115472108,0.009127552780072863,14.318093718552008,0.010219909863349043,0.013451205333694816
365,0.25,0.001,0.011588696299529657,0.009098660905005001,13.954158410793397,0.009960141620837543,0.012233718065544963
366,0.25,0.001,0.011615323765975674,0.009092434786441849,14.138269005752191,0.01009155532173604,0.012686109015097221
367,0.25,0.001,0.011658764103563821,0.009148812216774719,14.065771033124227,0.010039808017933067,0.009764179664974412
368,0.25,0.001,0.011700735404724029,0.009170791543111569,14.177804574733827,0.010119774857054837,0.015211657931407293
369,0.25,0.001,0.01175240191017709,0.009164072823051999,14.504996020619462,0.010353316217430023,0.018949170131236315
370,0.25,0.001,0.011775141218450011,0.009269976965719608,14.038940545989245,0.010020657063518377,0.015668817795813084
371,0.25,0.001,0.011653548083835986,0.009121074636534946,14.191982199506063,0.010129894503573206,0.01853584699953596
372,0.25,0.001,0.011672240568370355,0.00908703588676162,14.487487141678972,0.010340818802054941,0.015081495667497316
373,0.25,0.001,0.011668867408865836,0.009160804403264349,14.055186713614114,0.010032253186020067,0.01366357427711288
374,0.25,0.001,0.01164775191828972,0.009198453924732237,13.725866875997404,0.00979719263097602,0.01377082352216045
375,0.25,0.001,0.011684602308200627,0.009176374662940094,14.056107009329446,0.010032910070898963,0.01463542366400361
376,0.25,0.001,0.011585160862745308,0.009065896908684475,14.117954161108994,0.01007705507573804,0.01236905095477899
377,0.25,0.001,0.011539040246932971,0.009068948432530572,13.84239415424626,0.00988036699089669,0.010565913282334805
378,0.25,0.001,0.011480093956357094,0.009014457350642217,13.817427798015315,0.009862546608147976,0.008732949693997702
379,0.25,0.001,0.011540444999388078,0.009061426424035212,13.892421466548269,0.009916075279477708,0.016352781870712835
380,0.25,0.001,0.011542478576302528,0.009118818223658131,13.582192304657728,0.009694641188192524,0.020390575596441824
381,0.25,0.001,0.011631506018158867,0.009104385017985252,14.16198618819074,0.010108484074368837,0.01206945814192295
382,0.25,0.001,0.011473202896190852,0.008885682696794591,14.50046271812625,0.010350080455479123,0.011571627187853059
383,0.25,0.001,0.011496813377229178,0.009014878535597789,13.908763443551413,0.00992773978840215,0.011290558613836765
384,0.25,0.001,0.011506423649446266,0.009058136583828345,13.720201282966428,0.00979314866735648,0.015683939370016258
385,0.25,0.001,0.011634664360161235,0.009090856989709342,14.255497048540812,0.01017522987047881,0.019454186006138723
386,0.25,0.001,0.011638307921224979,0.009212326780870193,13.59519837542278,0.00970392460772504,0.017040050122886896
387,0.25,0.001,0.011580741350970617,0.009024524856813071,14.325037607332556,0.010224866243634943,0.016215002319465082
388,0.25,0.001,0.01159657033660063,0.009111918736158348,13.923987411871188,0.009938606289701063,0.01733765044870476
389,0.25,0.001,0.011591452673622748,0.009117436527115544,13.864387209822493,0.0098960651033708,0.015941132170458634
390,0.25,0.001,0.011556701825522795,0.009015345650656922,14.241760346947647,0.010165424944288114,0.01449510765572389
391,0.25,0.001,0.011520439350023502,0.00908650269323006,13.6397818588629,0.009735747222600214,0.015755855944007635
392,0.25,0.001,0.011458995161441768,0.008972441686726198,13.934646280800424,0.009946214333190881,0.010906653090690574
393,0.25,0.001,0.01144876703619957,0.008911439546997227,14.219183945074313,0.010149310453300723,0.012085166449348131
394,0.25,0.001,0.011502041276998637,0.009071319886460536,13.62176285720453,0.009722885693936138,0.013636969029903412
395,0.25,0.001,0.011518340784965492,0.008973478362327668,14.261408014995295,0.010179448975728263,0.014210877552007636
396,0.25,0.001,0.011595437439476572,0.009195346112658338,13.450112366094821,0.009600365714557331,0.01580967226376136
397,0.25,0.001,0.011658566867614665,0.009129570161060589,14.172497702807915,0.010115986939905721,0.02264613580579559
398,0.25,0.001,0.011643915051003782,0.009128196233111183,14.098089311181045,0.010062876025111382,0.01790576210866372
399,0.25,0.001,0.011798481615941698,0.009166704013761951,14.748480587470823,0.010527109627031279,0.028369738565136988
400,0.25,0.001,0.011858881496619888,0.009383973915402482,13.869382090684844,0.009899630328825728,0.027472668482611578
401,0.25,0.001,0.011627941324216564,0.008974618198940666,14.86922436225705,0.010613293620454711,0.020930695657928784
402,0.25,0.001,0.011634874384759403,0.009194654139985398,13.674995282801186,0.009760881715061518,0.016093732478717964
403,0.25,0.001,0.011655785188805766,0.009167506972827562,13.944312025861043,0.009953113508823015,0.018724301907544334
404,0.25,0.001,0.01160119030988071,0.009160594991976169,13.677095971456389,0.009762381135943176,0.014051065935442844
405,0.25,0.001,0.011532414840852342,0.009026460872009033,14.043366246107148,0.010023816021489756,0.011947172228246927
406,0.25,0.001,0.011545171302447959,0.009027467949724779,14.109210688893388,0.010070814196212268,0.01157804469888409
407,0.25,0.001,0.011513351689933277,0.00896160734999107,14.299974395007622,0.010206976727343057,0.011319644826774796
408,0.25,0.001,0.011585170766565858,0.009046929138826161,14.22430619960878,0.010152966595009836,0.011828198485697309
409,0.25,0.001,0.011569990208599626,0.00909827572361725,13.851488090142972,0.009886858022942879,0.013199528213590384
410,0.25,0.001,0.011635270514866201,0.00899039163458638,14.82190111206799,0.010579515426172727,0.016753569866220158
411,0.25,0.001,0.01154102834804756,0.00906219869488623,13.891362911317406,0.009915319708292224,0.016503344289958477
412,0.25,0.001,0.011501904168143505,0.009021601980415786,13.899612938485495,0.009921208378647748,0.015374237283443412
413,0.25,0.001,0.011722688449592126,0.009402164348923579,13.00421621741318,0.00928209580115145,0.01755413009474675
414,0.25,0.001,0.011562849008818953,0.00903349819524986,14.174481322125692,0.010117402799518695,0.01633540044228236
415,0.25,0.001,0.011641401547666004,0.009005295067298703,14.772740480376452,0.01054442575330225,0.013806093173722426
416,0.25,0.001,0.011520820238241336,0.008911190531784442,14.624365457674353,0.010438519241737582,0.01808541656161348
417,0.25,0.001,0.011536456212946555,0.009097372772308385,13.668624273160608,0.00975633424208466,0.016629827907308936
418,0.25,0.001,0.011497395930857194,0.009019274491725899,13.887393346646936,0.00991248632879867,0.014362562137345472
419,0.25,0.001,0.011530928586314364,0.009023320179705212,14.052637611947409,0.010030433698749043,0.017674533650279045
420,0.25,0.001,0.01146821893479039,0.008930444263103531,14.221690061615735,0.010151099258826363,0.014576455034936467
421,0.25,0.001,0.011446705156164924,0.009019036550165676,13.604655568192644,0.009710674923763487,0.01617064094170928
422,0.25,0.001,0.011476589571230295,0.009036608858079446,13.673651392866926,0.009759922478848626,0.010144594901551804
423,0.25,0.001,0.011510456548776568,0.008974536730930573,14.211293639206305,0.010143678543330696,0.01218148119126757
424,0.25,0.001,0.0115397606817324,0.00895387524875199,14.491301652861804,0.010343541508109781,0.014766457490622997
425,0.25,0.001,0.01155316166398002,0.008958494540576527,14.54051431795446,0.010378668321166637,0.018622390770663817
426,0.25,0.001,0.011471800324393482,0.008947613694500632,14.145541074799329,0.010096745949178679,0.017647663907458384
427,0.25,0.001,0.011482249854541406,0.00899629414127004,13.931294697086985,0.009943822053595279,0.014291532027224699
428,0.25,0.001,0.011511409132764107,0.008970831270988395,14.2373983801865,0.01016231147764918,0.010446744117264947
429,0.25,0.001,0.011461034349006851,0.008945581457782082,14.096597159781107,0.010061810963441189,0.011602328158915043
430,0.25,0.001,0.011413880646592232,0.009010114116457904,13.470708660963105,0.009615066852935835,0.012187064625322819
431,0.25,0.001,0.011470898463413483,0.008905823683229888,14.374678193069085,0.010260298496123544,0.010638455394655466
432,0.25,0.001,0.01142769345513931,0.008945803998447046,13.908508812508932,0.009927558038907162,0.01820935883248846
433,0.25,0.001,0.011593380057048507,0.009053383613141572,14.234140721763053,0.010159986239659566,0.017590792228778202
434,0.25,0.001,0.011747902713534309,0.009238999314242748,14.059894468726181,0.010035613468041528,0.031206858499596517
435,0.25,0.001,0.011615849236344419,0.009005780786094143,14.62682426266554,0.010440274277420086,0.01914493056635062
436,0.25,0.001,0.011573252972306275,0.008974216151528241,14.56500272053044,0.010396147552127366,0.013155671457449595
437,0.25,0.001,0.011584347477409898,0.009043619559123748,14.238239381371475,0.010162911764005335,0.017409040747831266
438,0.25,0.001,0.011578933222264779,0.009150002537885817,13.61172810996451,0.009715723133450756,0.012489446438848972
439,0.25,0.001,0.01155850638794463,0.008894135971076605,14.931131874642722,0.010657481709238203,0.01162484761637946
440,0.25,0.001,0.01154057933699067,0.008957632874115938,14.47483309303842,0.010331786647422141,0.011315395900358757
441,0.25,0.001,0.011523048529719434,0.009037352462367313,13.929841204387385,0.009942784585572724,0.01316501929735144
442,0.25,0.001,0.01152362688103827,0.009091607499413373,13.629037066203791,0.009728077848824975,0.015202779866134128
443,0.25,0.001,0.011605879178316129,0.009051201910507388,14.316411413797518,0.01021870907480194,0.01611458168675502
444,0.25,0.001,0.011495293345211483,0.008962171515677034,14.195614931060046,0.010132487459714522,0.013824258465319872
445,0.25,0.001,0.011378622727423179,0.008906795302542245,13.852122213782334,0.009887310645098025,0.011957920001198849
446,0.25,0.001,0.011525127287136346,0.009033181909017446,13.964861986113757,0.009967781574670776,0.013376214386274418
447,0.25,0.001,0.011419676017107033,0.008999208874273591,13.564298536719345,0.009681869048336435,0.014987971633672714
448,0.25,0.001,0.011524818565060452,0.009025268710967971,14.007477644013196,0.009998199603150033,0.01280522020533681
449,0.25,0.001,0.011516775776881998,0.008970289457044223,14.270509952452125,0.010185945719095021,0.016826386796310544
450,0.25,0.001,0.011430482811680654,0.008821268475092039,14.622036212828101,0.010436856682960814,0.01484486119200786
451,0.25,0.001,0.011429091824627504,0.008951669286300496,13.88347621080352,0.009909690371736989,0.01711389080931743
452,0.25,0.001,0.011384410079477764,0.008885739144028687,14.002552800062226,0.009994684368352767,0.016979625759025414
453,0.25,0.001,0.0115894301135729,0.009065766160081073,14.142613248127264,0.010094656137135805,0.018181149537364643
454,0.25,0.001,0.011424803288608062,0.008803268144952088,14.69108176812893,0.010486139734567402,0.013205849565565586
455,0.25,0.001,0.01141196248553148,0.008921457590853296,13.956788598037347,0.009962018985037364,0.012909088128556808
456,0.25,0.001,0.011542947735728287,0.009101820087469206,13.680079250800901,0.009764510528765811,0.015411851461976767
457,0.25,0.001,0.011617979920673661,0.008961383207905583,14.88756754340195,0.01062638654061524,0.014259778428822756
458,0.25,0.001,0.011443475465767267,0.008834054761725227,14.623193089554949,0.010437682433658065,0.013899144949391484
459,0.25,0.001,0.011519924873804174,0.009100694243410012,13.55736848784656,0.009676922546642798,0.019928569129357736
460,0.25,0.001,0.01136357205488333,0.008784091497612436,14.455410236265601,0.010317923080846253,0.01385863171890378
461,0.25,0.001,0.011474193278245809,0.008940047198315947,14.20135298007872,0.010136583140670036,0.01174134163496395
462,0.25,0.001,0.011443803404889456,0.008981034841115882,13.801356455174888,0.009851075271359663,0.012811406205097834
463,0.25,0.001,0.011388751382871373,0.008816544205041193,14.414648800361448,0.010288828551292968,0.011977974635859331
464,0.25,0.001,0.011271889662233794,0.008858497095544164,13.524652388037705,0.009653570583895578,0.016469981676588457
465,0.25,0.001,0.01149384425271575,0.00880855837518849,15.048342030222823,0.010741143490523072,0.018013662037750084
466,0.25,0.001,0.011385990488456517,0.008857432003246575,14.170041851881074,0.010114234012763079,0.015580814486990372
467,0.25,0.001,0.011324114915801257,0.00886435269537132,13.784507100175066,0.009839048608262003,0.01022684023094674
468,0.25,0.001,0.011325969247192872,0.00895121564134592,13.308118773669731,0.009499014113968402,0.010312395868822932
469,0.25,0.001,0.011358418070325038,0.008835763216200398,14.136958703762147,0.0100906200597874,0.012521264764169851
470,0.25,0.001,0.011377360921625683,0.008868915505888985,14.057329340678889,0.010033782541526688,0.014106359953681627
471,0.25,0.001,0.011339288159478001,0.00876229772026219,14.441454445443503,0.01030796177404961,0.014507361687719822
472,0.25,0.001,0.011385698802769184,0.008930574307536207,13.758517893349252,0.009820498139435583,0.01713899119446675
473,0.25,0.001,0.011311763783962262,0.008858042837279598,13.750653104084295,0.00981488444260121,0.01225189104055365
474,0.25,0.001,0.011365135223036858,0.008911407268719702,13.750690460205078,0.009814911106498986,0.013240523946781954
475,0.25,0.001,0.01139066220692745,0.008839848633037835,14.294759750366211,0.010203254639804576,0.012925472188120088
476,0.25,0.001,0.011454925031923666,0.008975594054634979,13.894171738043063,0.0099173245810443,0.015556650779520472
477,0.25,0.001,0.011413077414944404,0.008876018180716328,14.217680489144675,0.01014823732272996,0.01332373715316256
478,0.25,0.001,0.011493016216086178,0.008843975891245574,14.845222891830817,0.01059616194991493,0.014775338737914959
479,0.25,0.001,0.011384409193585559,0.008878197634547221,14.04480976011695,0.010024846366964275,0.012196256391083201
480,0.25,0.001,0.01130395923264143,0.00880266044561456,14.017278159536966,0.010005194974687341,0.01298437857379516
481,0.25,0.001,0.01131443420379627,0.0088867406110938,13.60479536289122,0.009710774705846695,0.01258399096938471
482,0.25,0.001,0.011312960533470643,0.008856261058188066,13.767345288904702,0.009826798921416632,0.010837492921079198
483,0.25,0.001,0.011323597327601619,0.008801308460533619,14.1349076061714,0.010089156035811134,0.01790082346027096
484,0.25,0.001,0.011297761235476994,0.008844921342665103,13.745714048059975,0.009811359063568862,0.016445263754576445
485,0.25,0.001,0.011250040721057392,0.008806053469548138,13.696104096203316,0.00977594867680465,0.011141501677532991
486,0.25,0.001,0.011298895858955093,0.008886088412709353,13.521373772039645,0.009651230386894822,0.012425318593159318
487,0.25,0.001,0.011281821831333928,0.008784839792585954,13.993088047678878,0.009987928656444595,0.015898567313949268
488,0.25,0.001,0.011394309697718156,0.00889634246733494,13.998609170681092,0.009991869500843036,0.017877320603777964
489,0.25,0.001,0.011397912803037865,0.008969931318083914,13.606407119006645,0.009711925138477262,0.023523804421226185
490,0.25,0.001,0.011513868233234418,0.008969711139798164,14.257457314468011,0.010176629061005004,0.025367830879986286
491,0.25,0.001,0.011545812188670403,0.009146697887378494,13.444636158826874,0.00959645692992639,0.02199003690232833
492,0.25,0.001,0.011384919830938665,0.00878518332568247,14.568923252384836,0.010398945933179755,0.012980195616061488
493,0.25,0.001,0.011341399127026884,0.008854498870943377,13.936589636453768,0.009947601453571568,0.015270786359906197
494,0.25,0.001,0.011379631894935922,0.008837505970604537,14.246074257827386,0.010168504109798276,0.013211168038348356
495,0.25,0.001,0.011268601934539109,0.008781644277183748,13.93691067579316,0.009947830603706753,0.013907013228163123
496,0.25,0.001,0.011257539571421902,0.008799744565494177,13.773481834225539,0.009831179039418656,0.013293195515871048
497,0.25,0.001,0.011339473469955166,0.008918839370513834,13.565233067768377,0.009682536094053089,0.018209135780731838
498,0.25,0.001,0.01135943700536722,0.008874397145629657,13.926164836418337,0.00994016048281109,0.01433020131662488
499,0.25,0.001,0.011395171420966707,0.008816797467993527,14.449207491990997,0.01031349571162812,0.01489448438708981
500,0.25,0.001,0.011376392028135498,0.008786356735338525,14.514558350167624,0.010360141577564328,0.012524397733310858
