epoch,beta,learning_rate,train_loss,train_reconstruction_loss,train_kl_unnormalized,train_kl_normalized,mean_unclipped_gradient_norm
1,0.0,0.001,0.06019847998714266,0.06019847998714266,69.78815657104376,0.04981310247754729,0.13495500054624346
2,0.02,0.001,0.048696304696254404,0.0445186631477831,292.64379215603094,0.20888207862671732,0.13495554112725788
3,0.04,0.001,0.04036919504913994,0.03881298835626573,54.50614000907869,0.03890516774381063,0.11116982210013601
4,0.06,0.001,0.03534428407030867,0.0325170885983982,66.01501891277589,0.04711992784637822,0.07816204863289992
5,0.08,0.001,0.034415288867266004,0.03154880943010515,50.19922297082473,0.0358309942689684,0.06459994324379498
6,0.1,0.001,0.03308508486377196,0.03095169639491083,29.888777141788612,0.021333888038393013,0.03782284011443456
7,0.12,0.001,0.03177994721969271,0.0297772843362374,23.38108755336515,0.01668885621225207,0.029765944927930832
8,0.14,0.001,0.029815474893373682,0.0273602591338833,24.5696900661454,0.017537252010096645,0.04395236695806185
9,0.16,0.001,0.02790887876920147,0.02484444217905119,26.832973922613455,0.019152729423706962,0.05014544145928489
10,0.18,0.001,0.026482568345539016,0.023174558125238002,25.747346994088176,0.0183778351135533,0.03443245113723808
11,0.2,0.001,0.025359102485864336,0.021943355552823826,23.92730807895443,0.017078735245506373,0.05746949132945803
12,0.22,0.001,0.024761769509814086,0.021067092641338197,23.52837540078979,0.01679398672433247,0.09605630797644456
13,0.24,0.001,0.024026012133112878,0.02033858199536574,21.52537543148142,0.015364293669865397,0.05863197189238337
14,0.25,0.001,0.02368123868317432,0.020015523822078687,20.542666837743027,0.01466285998411351,0.04958841308123536
15,0.25,0.001,0.02309845205212274,0.01938986925571137,20.782897398045762,0.014834330762345298,0.047132598546644054
16,0.25,0.001,0.022374099000098586,0.018935974142000704,19.267251859599646,0.013752499542897678,0.06742134276363584
17,0.25,0.001,0.02192669485061794,0.01833355957252671,20.135930550868974,0.01437254143530976,0.05614231444067425
18,0.25,0.001,0.02128995462770471,0.017944971913960498,18.74528313408333,0.013379930859445631,0.04739122910218106
19,0.25,0.001,0.0211631848614932,0.017796833946337718,18.86503119523081,0.013465404136495938,0.0538785345852375
20,0.25,0.001,0.02087741284259372,0.01759281145061717,18.406908347126194,0.013138407100018696,0.04597773268404934
21,0.25,0.001,0.020612955971589107,0.017220844638608256,19.0093920638806,0.013568445441742042,0.03217616967029042
22,0.25,0.001,0.02079425750038243,0.017428051644914958,18.8642178524583,0.013464823592047323,0.07732860505994824
23,0.25,0.001,0.020627732668426102,0.01741561661173409,18.00069871329536,0.012848464463451363,0.08026593085378408
24,0.25,0.001,0.020403201582030652,0.016978168307658383,19.193885469617953,0.013700132383738725,0.07881746472169955
25,0.25,0.001,0.020248746393184698,0.016961887082219577,18.419559765224676,0.01314743737703403,0.05298268712229199
26,0.0,0.001,0.01606437518569453,0.01606437518569453,24.43391818782676,0.017440341318934162,0.050834902044799596
27,0.02,0.001,0.015498907755026346,0.014814484212901656,47.94386791910962,0.03422117624490337,0.03659595631890827
28,0.04,0.001,0.015979479538000583,0.014137947290937484,64.49967957993424,0.04603831518910367,0.03496360540803936
29,0.06,0.001,0.01648001144055858,0.014126036273662582,54.96532284986837,0.039232921377493485,0.042816535052325994
30,0.08,0.001,0.016655931436941877,0.014445179839664538,38.71578454427393,0.02763439296522051,0.04151422344148159
31,0.1,0.001,0.016937654826634285,0.014634436414268986,32.268091484620996,0.023032185213862237,0.02740105065620608
32,0.12,0.001,0.01729748660110702,0.01471772482229163,30.11872174803295,0.021498016950772983,0.027709969836804602
33,0.14,0.001,0.017637492366446742,0.01470107318897211,29.38516696596327,0.020974423244798906,0.03636044900243481
34,0.16,0.001,0.01794293695642921,0.014933000021249396,26.355761176279742,0.01881210647842951,0.040616448037326336
35,0.18,0.001,0.018135304297161193,0.015034787378100389,24.132353387404756,0.017225091639832088,0.019848472128311794
36,0.2,0.001,0.018380453413486934,0.015074271096107851,23.1598089384942,0.01653091287544197,0.016865699138078425
37,0.22,0.001,0.018647528653645697,0.015296354344532517,21.340888802996155,0.015232611565307747,0.018539824626512
38,0.24,0.001,0.019011672302910582,0.01540118808585428,21.07620219676667,0.015043684651510828,0.05646695020712084
39,0.25,0.001,0.01898067824174243,0.01547770772285108,19.630647594031274,0.01401188265098592,0.05046865250915289
40,0.25,0.001,0.01869500581415887,0.015286970083307858,19.09863142731525,0.013632142346406317,0.023317119261870783
41,0.25,0.001,0.01858814032358815,0.015284726251015871,18.51233137152494,0.013213655511438216,0.040168957888252206
42,0.25,0.001,0.01859644631157583,0.015356538831451093,18.156439530985438,0.012959628501774045,0.023623534788688023
43,0.25,0.001,0.018672766744693876,0.015166352223250803,19.649947228087218,0.014025658264159328,0.018675366261353094
44,0.25,0.001,0.018436219911498263,0.014980196683692389,19.367555999030632,0.013824094217723506,0.021465003231747284
45,0.25,0.001,0.01854247577176801,0.01526053810400088,18.391981871862374,0.01312775294208592,0.03603315198173126
46,0.25,0.001,0.018448471732635915,0.015206923580838246,18.165636403479052,0.012966193007479695,0.04212577175348997
47,0.25,0.001,0.018397104250047598,0.015056875991164051,18.71863927224743,0.013360913113666974,0.022785430825832818
48,0.25,0.001,0.01835843699739913,0.01497720861842877,18.94840434839517,0.013524913881795267,0.020855482771164842
49,0.25,0.001,0.018180471494397284,0.014917103931336122,18.287910715255446,0.013053469461281546,0.023303914297786023
50,0.25,0.001,0.018307655214016883,0.015006812887811615,18.4979184444413,0.013203367911806782,0.019541450983120337
51,0.0,0.001,0.014182614417527111,0.014182614417527111,25.203504265034606,0.01798965329410036,0.028081274694866605
52,0.02,0.001,0.01366759472997583,0.012940644991261878,50.9228317202724,0.03634748873681114,0.02281411483676897
53,0.04,0.001,0.014304828114750947,0.012511188713231694,62.82222211134298,0.04484098651773232,0.018694989279740386
54,0.06,0.001,0.014668733200249563,0.012498548434969364,50.673817522172236,0.03616974840983029,0.009714777633133862
55,0.08,0.001,0.014892543818334209,0.012917951854236226,34.580040202847904,0.02468239843172584,0.017319429717544053
56,0.1,0.001,0.015256593357984105,0.013141519117378011,29.632190211190924,0.021150742477652338,0.013734495163791709
57,0.12,0.001,0.015625769739878496,0.013054005433398054,30.02535021531718,0.021431370603367007,0.015441280530972613
58,0.14,0.001,0.015992877268349262,0.013235583391479667,27.59263494803425,0.019694957136355638,0.022552088627384767
59,0.16,0.001,0.016260384245573793,0.013483241905136027,24.317352084605865,0.017357139246685128,0.01996720561550723
60,0.18,0.001,0.016560815182645513,0.013464146520333372,24.102402879258072,0.017203713689691702,0.016836083597607084
61,0.2,0.001,0.016786928901257624,0.013588879590308712,22.402335779748487,0.01599024680924232,0.020966388906041782
62,0.22,0.001,0.017074362831650577,0.013843910595111747,20.57210765592046,0.014683874129850434,0.025573169191678364
63,0.24,0.001,0.01732921839015339,0.01389673059034257,20.037150169053458,0.01430203438190825,0.029626271997888882
64,0.25,0.001,0.01743079799832953,0.014067733784280575,18.846614743366896,0.013452258917463879,0.020190284690923162
65,0.25,0.001,0.01739309420419623,0.014109877111680607,18.399150572802178,0.013132869787867365,0.02664941145728032
66,0.25,0.001,0.01735077622725483,0.014016074528598967,18.68766841235723,0.013338806861068687,0.027946901507675648
67,0.25,0.001,0.017435319045339022,0.014065738009579281,18.88313187573799,0.013478323965551743,0.016084681265056133
68,0.25,0.001,0.017362311801133047,0.014022347998908037,18.717157284116563,0.01335985530629305,0.023134104390111234
69,0.25,0.001,0.01710184524366951,0.013848052891290007,18.234251392204953,0.013015168731052787,0.019422757542795606
70,0.25,0.001,0.01704688888652243,0.013926300924880423,17.48777450445487,0.012482351537797908,0.018826574501064088
71,0.25,0.001,0.0169437391888846,0.013735033083041357,17.981589436984333,0.012834824723043778,0.01424004551437166
72,0.25,0.001,0.017031192694553405,0.013849749612292636,17.828806409364418,0.012725771883914645,0.017657196666631434
73,0.25,0.001,0.016918929832006588,0.01377821502279306,17.60056671171587,0.012562859894158366,0.019343286338779662
74,0.25,0.001,0.016877175850560002,0.013609747260723956,18.310669206394444,0.013069713923193749,0.020633115122715633
75,0.25,0.001,0.016986956394953873,0.0138401951208824,17.63444961431815,0.012587044692589686,0.023332398798730638
76,0.0,0.001,0.012935823081025833,0.012935823081025833,24.458494701312976,0.017457883441336884,0.017254227565394506
77,0.02,0.001,0.01263033024640931,0.011915718166320496,50.05857472002733,0.03573060294077611,0.018161615977684658
78,0.04,0.001,0.013241693409365166,0.011524632651033057,60.14005349162867,0.04292651926597336,0.014443945191386674
79,0.06,0.001,0.013597564438903286,0.01163296723037165,45.8733440007547,0.03274328622466431,0.0129437905529307
80,0.08,0.001,0.013753863830586804,0.011954422165487429,31.5127227333562,0.022493021222952318,0.01027132524177432
81,0.1,0.001,0.014065472302894629,0.012063177160833724,28.0521567094462,0.020022952683402,0.011754971308012804
82,0.12,0.001,0.014407998567071704,0.012087033448932062,27.09726970368012,0.019341377375931564,0.010985336835599609
83,0.14,0.001,0.014665752999881147,0.012136768765690888,25.307908003774433,0.018064174164007445,0.010801969716946283
84,0.16,0.001,0.015070618062984808,0.012419595921362533,23.213013638108404,0.016568889106429983,0.013937294379704528
85,0.18,0.001,0.015421451837844269,0.012556647754384084,22.29772233419092,0.015915576255668036,0.017195101413461897
86,0.2,0.001,0.015606806698492497,0.012687219614906682,20.451705787571665,0.014597934180993337,0.016461602360424068
87,0.22,0.001,0.015938859128396776,0.012884132638432001,19.453054464361966,0.013885120959573137,0.014793597006549438
88,0.24,0.001,0.016210303397516335,0.012889761718507049,19.383663463955145,0.013835591337583972,0.017106779851019382
89,0.25,0.001,0.016384576967857185,0.012947341788404341,19.26226605752575,0.01374894079766292,0.018028109851810668
90,0.25,0.001,0.016308981075372986,0.013139456234334086,17.762016383414032,0.01267809877474235,0.027104248706665304
91,0.25,0.001,0.016235985832125967,0.013093343461392723,17.611367584634642,0.01257056929666998,0.025152034126222134
92,0.25,0.001,0.016226551874395558,0.01295246430690411,18.347986692711427,0.013096350244619148,0.018322873964077897
93,0.25,0.001,0.01613982968712261,0.013065950813997154,17.226018383475765,0.012295516333672922,0.023293530154559348
94,0.25,0.001,0.016131248849199753,0.013010052613517405,17.491182972723088,0.012484784420216336,0.014623501079363955
95,0.25,0.001,0.016008201193333578,0.012938543856710536,17.202360029909546,0.012278629571669912,0.01468302614779936
96,0.25,0.001,0.01612118311481331,0.01295937497891174,17.718771350701047,0.012647231513705243,0.01191729534831312
97,0.25,0.001,0.016022862852356278,0.012855719562492443,17.748673123551864,0.012668574677767212,0.011709275293267436
98,0.25,0.001,0.015973817507520374,0.012967713623389093,16.84620727423026,0.012024416327073705,0.013236343601925505
99,0.25,0.001,0.015812953466641584,0.012704641845063112,17.418978651213557,0.012433246717497185,0.0134779528921677
100,0.25,0.001,0.015784507553613686,0.012777357819019161,16.85206589499354,0.01202859806923165,0.011101484350446198
101,0.25,0.001,0.01578626029561681,0.01271994554299592,17.183627357047772,0.01226525864171861,0.01693863726945387
102,0.25,0.001,0.015713551765159057,0.012760616881425843,16.548247282949237,0.011811739673768192,0.01605465594265196
103,0.25,0.001,0.015773371184251834,0.01269107842428376,17.273169027988448,0.012329171326187329,0.012638425092316337
104,0.25,0.001,0.015737940589171398,0.01268084561841796,17.131960408315912,0.012228380020211215,0.014845226166976823
105,0.25,0.001,0.015761056709538847,0.01276314919708233,16.800273967786435,0.011991630241103808,0.019161329087283876
106,0.25,0.001,0.015775077689453222,0.01271130586177564,17.169376978856075,0.01225508706556465,0.017740875896480348
107,0.25,0.001,0.015721553869318824,0.012731179410853766,16.758059693833268,0.01196149871080176,0.013324198209577136
108,0.25,0.001,0.015569830971978917,0.012534176275672342,17.011808486039193,0.012142618476830258,0.015423235379987292
109,0.25,0.001,0.015581908037340686,0.012647348537531189,16.445271582657845,0.01173823810325328,0.017151301830179162
110,0.25,0.001,0.015552724548704044,0.012546911552378434,16.844576810249357,0.012023252541220098,0.010687467228207324
111,0.25,0.001,0.015538626162781462,0.012572241762915038,16.623619021571635,0.011865538202406592,0.022292574867606163
112,0.25,0.001,0.015578368041281918,0.012602026708877358,16.67941711338754,0.011905365534180971,0.015675536563826933
113,0.25,0.001,0.015540225452569955,0.012531383798772845,16.86154785446341,0.012035366063143049,0.014635560464941792
114,0.25,0.001,0.015530053724467528,0.012523427938497112,16.849130246122527,0.012026502673891883,0.014760386509199938
115,0.25,0.001,0.01544951226831389,0.012540891515126473,16.29991204294415,0.011634483970695325,0.01197985073344575
116,0.25,0.001,0.015454979131826883,0.012377476050543242,17.246326370384303,0.01231001168478537,0.013756054660512341
117,0.25,0.001,0.015464314896995804,0.01252705837199783,16.4603852464219,0.011749025871821485,0.011143579975598387
118,0.25,0.001,0.01540268914412863,0.012451455722998531,16.538710916903536,0.011804932845755558,0.010492162572013007
119,0.25,0.001,0.015374270349231056,0.012408151818942208,16.62212752570671,0.011864473608641476,0.012915856722328398
120,0.25,0.001,0.015310373043945986,0.012410142232341685,16.252894086076278,0.011600923687420613,0.012629983998421166
121,0.25,0.001,0.015323682801493448,0.012394883684077417,16.41299102696176,0.01171519702138598,0.009974523137013117
122,0.25,0.001,0.015307408665437889,0.012311005869264159,16.791841949346853,0.011985611669769346,0.015871157662736043
123,0.25,0.001,0.015348485476220515,0.01250604334722907,15.92904618847053,0.01136976887114242,0.013290061356706752
124,0.25,0.001,0.01530401043933834,0.012348798351511077,16.561009657246984,0.011820849148641673,0.016262785531580448
125,0.25,0.001,0.015355844195832998,0.012367642658121685,16.74588250207357,0.011952806925106045,0.013117522415187623
126,0.25,0.001,0.015206903527303113,0.012271979168595697,16.447315897778413,0.011739697286065963,0.012646650740255913
127,0.25,0.001,0.015259223094231276,0.012390488818882764,16.07638636106774,0.011474936731668623,0.01419405685737729
128,0.25,0.001,0.01523792726685339,0.012287883119863022,16.53204870042692,0.011800177516364682,0.01231080935233169
129,0.25,0.001,0.015124242455333812,0.012270516630956203,15.992279669177849,0.011414903404124089,0.011764127088503705
130,0.25,0.001,0.015148514711754857,0.012254968852144684,16.215432315724883,0.011574184379532393,0.015503688818878598
131,0.25,0.001,0.015144375411389898,0.012247615295529592,16.23344367719875,0.011587040454817095,0.016001921147108078
132,0.25,0.001,0.015267135086734938,0.012327071194299728,16.476118334345944,0.011760255770411095,0.01569976331666112
133,0.25,0.001,0.015255024557501192,0.012298083747294465,16.570696373856112,0.01182776329325918,0.017987988475296233
134,0.25,0.001,0.01510416783973178,0.012274801748815371,15.85576803330686,0.011317464691867852,0.013313953454295794
135,0.25,0.001,0.015126631556241684,0.012128823068517015,16.799718889446766,0.011991234039576564,0.010854397796922259
136,0.25,0.001,0.015122689944143078,0.012204204855961265,16.355190897169223,0.0116739406832043,0.021004384900960658
137,0.25,0.001,0.015074494978264257,0.012198526383919408,16.116927183173,0.011503873792414705,0.014539803895685408
138,0.25,0.001,0.01503276400013115,0.012141080233250733,16.204996203288378,0.011566735334252946,0.013157500264545282
139,0.25,0.001,0.015097480217710194,0.012184021374770216,16.327022784563074,0.011653834963999339,0.010752275637868378
140,0.25,0.001,0.015128978135014667,0.012241110032133956,16.183612848869295,0.011551472411755385,0.01306684822258022
141,0.25,0.001,0.015180511378856665,0.012180183713143769,16.813837841889704,0.012001311807201787,0.012886235024780035
142,0.25,0.001,0.015071214229831677,0.01227433696573338,15.673700898319144,0.011187509563396963,0.015899694628185697
143,0.25,0.001,0.015033439594983149,0.012072932421311227,16.590681170329393,0.011842027958836113,0.011722119111153815
144,0.25,0.001,0.015059430541704362,0.012163459032972276,16.229025184428284,0.011583886641276435,0.011799296208967766
145,0.25,0.001,0.015010254740885002,0.012135475314445369,16.110264948565696,0.011499118450082581,0.014607904478907585
146,0.25,0.001,0.015129632451093469,0.012107370003434642,16.936760485398906,0.01208905102455311,0.013316852144069143
147,0.25,0.001,0.01508931224606223,0.012192828658642425,16.231894286413155,0.011585934537054358,0.011509062618845038
148,0.25,0.001,0.014929257836122024,0.01202666080298306,16.26615465548555,0.011610388761945431,0.01026378209806151
149,0.25,0.001,0.014982736177260885,0.012060441891220132,16.37653690236603,0.011689176946728073,0.010754533681190677
150,0.25,0.001,0.014902575309795572,0.012077160441660156,15.833624952192995,0.011301659494784436,0.009737164765182469
151,0.25,0.001,0.014933384707048818,0.012059994930748478,16.102475862539315,0.011493558788393515,0.017596008876959484
152,0.25,0.001,0.014921988824474494,0.012093541180509579,15.850620835452933,0.011313790746219082,0.01367150785194503
153,0.25,0.001,0.014970849374372923,0.012016611605769327,16.555549382256917,0.011816951736086307,0.01718848038257824
154,0.25,0.001,0.014961480715457252,0.012124953171797804,15.89590178515068,0.011346111195682141,0.01606373644123475
155,0.25,0.001,0.014954691823614414,0.012073910550812805,16.1438990473294,0.011523125658336473,0.01952396948925323
156,0.25,0.001,0.014929039070928051,0.011999302628687352,16.418244807892425,0.011718947043463544,0.016303549106750224
157,0.25,0.001,0.014982461971815094,0.012142115715225386,15.917299897951771,0.011361384652356725,0.0178189335597886
158,0.25,0.001,0.014960094468363565,0.01203636530460967,16.38457837122928,0.011694916753197202,0.013840731802499957
159,0.25,0.001,0.015038894184868598,0.012120449178969,16.354965304240526,0.011673779660414366,0.012818428998192152
160,0.25,0.001,0.01503379229002919,0.012120950265925646,16.323566520168754,0.011651367965859211,0.01922684773388836
161,0.25,0.001,0.0150354215946091,0.01212637177084222,16.302316005692283,0.01163619986130784,0.015561964466340013
162,0.25,0.001,0.014960372986930632,0.01204612474010358,16.33144858400178,0.011656993992863513,0.014989460301068094
163,0.25,0.001,0.014845527152569801,0.01199344968416165,15.983043083219927,0.011408310551905729,0.009804134412358204
164,0.25,0.001,0.014829273537481239,0.011993067445297205,15.89409961265303,0.011344824848431856,0.010906865820288658
165,0.25,0.001,0.01482868604999418,0.011912386758189238,16.342941342197896,0.01166519724639393,0.010600873372621007
166,0.25,0.001,0.014787693915201685,0.011958853947175774,15.852818978603349,0.011315359727768272,0.01035190973844793
167,0.25,0.001,0.014780826101738238,0.011900092499904306,16.14363023446087,0.011522933786196194,0.012027147277775738
168,0.25,0.001,0.01481391080148773,0.011964964432493135,15.965495323500253,0.011395785384368489,0.011801267974078655
169,0.25,0.001,0.01480885783472442,0.011884449251676013,16.388384431033987,0.011697633426862232,0.010791266130076515
170,0.25,0.001,0.014767465411823512,0.011964609442781587,15.707205406159956,0.011211424272776556,0.01550193451758888
171,0.25,0.001,0.014670914350637011,0.01175792428873791,16.324396126170576,0.011651960118608548,0.010053067416366603
172,0.25,0.001,0.014732648565402049,0.011928162024048344,15.716343201611885,0.01121794661071512,0.011850833427160978
173,0.25,0.001,0.014721064555667653,0.011853205404835735,16.07148273453513,0.011471436641352698,0.01113855331722233
174,0.25,0.001,0.014688580605013742,0.011850891287789145,15.90241073202271,0.011350757124926988,0.011481010768976476
175,0.25,0.001,0.014801875408384737,0.01191347425258205,16.186600162955745,0.011553604684479475,0.013978247944679525
176,0.25,0.001,0.014745089469810402,0.011807734684969082,16.460936713128035,0.011749419495451845,0.009384922476278411
177,0.25,0.001,0.014723597816811314,0.011885352847042419,15.905526092297224,0.011352980793930923,0.009816582262929942
178,0.25,0.001,0.014689217077235306,0.011783299510838188,16.284762023519654,0.0116236702523338,0.012861822731792927
179,0.25,0.001,0.01473764158757014,0.011912972464477608,15.829445907824846,0.011298676593736507,0.013183968452115854
180,0.25,0.001,0.014752009926016793,0.011924967021033338,15.842748467913145,0.011308171640194964,0.019318109843879938
181,0.25,0.001,0.014665938311826594,0.01186473372289663,15.697951218927768,0.011204818857193268,0.015908709520267114
182,0.25,0.001,0.01467074991377361,0.011793772360671155,16.12258095976971,0.011507909321748545,0.011543962431864606
183,0.25,0.001,0.014619658060173572,0.011825631011433248,15.657726563428291,0.011176107468542678,0.015164887222150961
184,0.25,0.001,0.014755337417635628,0.011856135813087339,16.247127641743127,0.01159680773857468,0.015201211596528688
185,0.25,0.001,0.014693729866281889,0.011796915485831722,16.233747460542975,0.01158725728803924,0.012745681632724073
186,0.25,0.001,0.014696905269029023,0.01188477006928549,15.759205256124867,0.011248540511152653,0.010124256006545491
187,0.25,0.001,0.014712122775359299,0.01180753998189258,16.277281173735062,0.011618330602237732,0.01095689439939128
188,0.25,0.001,0.014634920914476815,0.011802578833619905,15.872445305943943,0.011329368526726584,0.010543674127095275
189,0.25,0.001,0.01465372317700785,0.011810183875659346,15.93519537893085,0.011374158014939935,0.018146593848036394
190,0.25,0.001,0.014730296777596718,0.011827245935401083,16.268696045240976,0.01161220274464024,0.017009476717147563
191,0.25,0.001,0.01464041005890859,0.011856156050762297,15.602961043441251,0.011137017161628302,0.014159024951772558
192,0.25,0.001,0.014618718267167022,0.011757356135932439,16.035073806124494,0.011445448826641324,0.0127114395921429
193,0.25,0.001,0.014601726084947586,0.011804814928498105,15.673889537274611,0.011187644209332341,0.012958475905987952
194,0.25,0.001,0.014564211721117732,0.011663062462561937,16.258040623973077,0.011604597162007907,0.01136743975803256
195,0.25,0.001,0.014525988443751072,0.011720682281873299,15.720935705496784,0.011221224629191137,0.009874109023561081
196,0.25,0.001,0.01459631898188999,0.0117418059703855,15.996690024894454,0.011418051409632016,0.010407386554612054
197,0.25,0.001,0.014547441360105126,0.011703441220516262,15.937776775867766,0.011376000553795692,0.011184011792971028
198,0.25,0.001,0.014563550039445946,0.011685236983936096,16.130066969548796,0.011513252654924195,0.010023331010921134
199,0.25,0.001,0.014609076755525042,0.011794785721078798,15.771286474887862,0.011257163793638732,0.010956973923991123
200,0.25,0.001,0.014503616956505259,0.011585152502607257,16.355074218924056,0.011673857401087834,0.011615195466826359
201,0.25,0.001,0.01454376124780441,0.011660038493573666,16.16038253552107,0.01153489117453324,0.013188917810718218
202,0.25,0.001,0.014511195478868802,0.011691053727280505,15.804074871222783,0.011280567359902058,0.013717134069237445
203,0.25,0.001,0.01453502576784036,0.011721360458223992,15.767780427243773,0.01125466126141597,0.01190712551275889
204,0.25,0.001,0.014677311828494525,0.011711227456143147,16.621937929450787,0.011864338279408129,0.01752615399244759
205,0.25,0.001,0.014604774261240497,0.011749744903961969,15.999584219754876,0.011420117216099127,0.010484122671186924
206,0.25,0.001,0.014588919613411218,0.011636098634324146,16.54761013422629,0.011811284892381363,0.016657573998802237
207,0.25,0.001,0.014508024605253123,0.011733777158868856,15.54688342714491,0.011096990312023491,0.014025271042353578
208,0.25,0.001,0.014553622824242586,0.011627187049405883,16.39974656485786,0.011705743443867139,0.019947265688743856
209,0.25,0.001,0.014497226585736746,0.011624015747310998,16.101473630607806,0.011492843419420275,0.012450394841531912
210,0.25,0.001,0.014619504076786367,0.011773273037187048,15.950279286605777,0.011384924544329605,0.012685763753122754
211,0.25,0.001,0.014591616666928897,0.011653132177181117,16.467267816057678,0.011753938483981211,0.010395518762783872
212,0.25,0.001,0.014539178630811634,0.0116724235788271,16.065296778660763,0.011467021255289624,0.011686494211769767
213,0.25,0.001,0.014544440642310866,0.01171773493984013,15.840859366007178,0.011306823244830249,0.011591157462033961
214,0.25,0.001,0.014465174074691965,0.011642064902747312,15.820703238135508,0.011292436287034623,0.010461617002470626
215,0.25,0.001,0.014494938697991715,0.011627097334358629,16.07138359591988,0.011471365878600913,0.010195964585161872
216,0.25,0.001,0.014625103361621329,0.011679756826944224,16.505722597071426,0.011781386578923216,0.011927716330521636
217,0.25,0.001,0.014621775129902046,0.011778306233707262,15.934799629472508,0.011373875538524274,0.013926137756142352
218,0.25,0.001,0.014545373905435942,0.01162391204117822,16.371871723421627,0.011685847054547914,0.012541665385166803
219,0.25,0.001,0.014493014553682206,0.01167696333019339,15.781151329156565,0.01126420508861996,0.012272028459442986
220,0.25,0.001,0.014451713411017062,0.01160305053590595,15.963907615313511,0.011394652116569244,0.014677830247415436
221,0.25,0.001,0.01445605471985195,0.011661879817455893,15.65855678224745,0.011176700058706246,0.013795269653201103
222,0.25,0.001,0.014577760750661558,0.011652396241125046,16.393743217671325,0.01170145839947989,0.014859205422302088
223,0.25,0.001,0.014528681400157653,0.01157997460405523,16.524552290883808,0.01179482676008837,0.01328088084442748
224,0.25,0.001,0.014479167830241496,0.011669449851681751,15.74565962874844,0.011238871969128079,0.011769991057614485
225,0.25,0.001,0.014413601764877939,0.011560874835308287,15.986682130356705,0.011410908015957677,0.010599227208230231
226,0.25,0.001,0.014448314352747151,0.011684800129907892,15.486732997821765,0.011054056386739303,0.01087503543951445
227,0.25,0.001,0.014449883241758827,0.011541467379537826,16.2987626006848,0.011633663526541613,0.013498116802010272
228,0.25,0.001,0.014474331822685416,0.011607580177287639,16.065276943685436,0.011467007097562766,0.01597719422231118
229,0.25,0.001,0.01440667639001354,0.011511428685356002,16.224967622938266,0.011580990451776064,0.014098998262650438
230,0.25,0.001,0.014518376581455819,0.011671958586817232,15.951327030196389,0.011385672398427115,0.020017619141274028
231,0.25,0.001,0.014462169008364922,0.011575743980960701,16.17552584296397,0.011545700102044233,0.014558432416783439
232,0.25,0.001,0.014444311018395786,0.011598352133916131,15.94875419819763,0.01138383597301758,0.01031469191528029
233,0.25,0.001,0.014354990352610899,0.011546342548676997,15.739663011674192,0.011234591728532615,0.009752892630381716
234,0.25,0.001,0.014490218826006573,0.011575996918256745,16.33130047439169,0.011656888275797066,0.01330368872731924
235,0.25,0.001,0.014403725354560427,0.011546672470584341,16.010925307473304,0.011428212210901716,0.009667313347260157
236,0.25,0.001,0.014458310808065726,0.011581987185056672,16.118917457957686,0.01150529440253939,0.013643866301410727
237,0.25,0.001,0.014460136458815958,0.011542274995561787,16.351696855668333,0.011671446720676897,0.013567621923155256
238,0.25,0.001,0.014499610428036165,0.011586895609139943,16.322853276938087,0.0116508588700486,0.012389256204995844
239,0.25,0.001,0.01442548228576496,0.011613493838379365,15.758383022061773,0.011247953620315327,0.012629321879810758
240,0.25,0.001,0.014497170083139785,0.011531610254325794,16.618997559347985,0.011862239514167013,0.016773436011539564
241,0.25,0.001,0.014424800890508486,0.011573761255398902,15.977226913655212,0.011404159110389158,0.013245274312794209
242,0.25,0.001,0.014503198615611732,0.011641748713421505,16.035565343646496,0.011445799674265879,0.018046267330646515
243,0.25,0.001,0.014476754391006418,0.011536657335697018,16.476303122342767,0.011760387667625102,0.013729047237171067
244,0.25,0.001,0.014483077345352209,0.011604919208093287,16.12919903889355,0.011512633146961848,0.011271784806417095
245,0.25,0.001,0.014306976984010676,0.011501118827597044,15.724029192906368,0.011223432685871783,0.009757750926332341
246,0.25,0.001,0.014311968880092917,0.011454482251218744,16.01335615078306,0.011429947288210607,0.012391156361748775
247,0.25,0.001,0.014459830329898647,0.011668781197484681,15.641039884589018,0.011164196919763753,0.01250570122566488
248,0.25,0.001,0.014379206014365072,0.011444358725256567,16.44688337927989,0.011739388564796494,0.011175316241052415
249,0.25,0.001,0.014391605430654474,0.011544138455175629,15.957205029041594,0.01138986797219243,0.011257879642976655
250,0.25,0.001,0.01434524423184277,0.011453148908913136,16.207303326392807,0.011568382103064103,0.01168383016354508
251,0.25,0.001,0.01431083583942271,0.011466161797651774,15.941553761297305,0.011378696474873166,0.01265913936206036
252,0.25,0.001,0.0143381512791145,0.011496321808107678,15.92561242426303,0.011367317933092811,0.01466115533063809
253,0.25,0.001,0.014355666411353609,0.011560659529818329,15.663218755685785,0.011180027662873508,0.011022891021437116
254,0.25,0.001,0.01432315250610784,0.011462204923194623,16.03275021672702,0.011443790304587451,0.012071849985255135
255,0.25,0.001,0.014378199679599968,0.011572820070720217,15.721348338254051,0.011221519156498253,0.014840146423214011
256,0.25,0.001,0.014374577383663038,0.011446058937833563,16.41141757674997,0.011714073930585274,0.011583557041982809
257,0.25,0.001,0.014339444393950724,0.01152425002972436,15.776348708700318,0.01126077709400451,0.010763877226660648
258,0.25,0.001,0.014347468251397854,0.011475054894223412,16.09700531107391,0.011489654040737981,0.013229499571025372
259,0.25,0.001,0.01429904082315503,0.011494347322803033,15.717503188680787,0.011218774581499492,0.011313102725479338
260,0.25,0.001,0.014315744883207315,0.011443871508986325,16.093979019629185,0.011487493946915906,0.013855409911937185
261,0.25,0.001,0.014361437771313544,0.011457492523036981,16.273710069547587,0.01161578163422383,0.012342110327962372
262,0.25,0.001,0.014334167229868614,0.011523357787286375,15.751777228293763,0.011243238564092622,0.01315980621924003
263,0.25,0.001,0.014318383444001466,0.011448883986235118,16.080675585641607,0.011477998276689227,0.011373147057990233
264,0.25,0.001,0.014350577041563426,0.01145655173496715,16.2181169596915,0.011576100613627053,0.014708901341590617
265,0.25,0.001,0.01437033390265114,0.011473285526518813,16.235059172481638,0.011588193556375187,0.014008957478735182
266,0.25,0.001,0.014302396930810844,0.011547754639086841,15.437015167207319,0.011018568998720427,0.012513611310472092
267,0.25,0.001,0.014282947625724083,0.01141923141201866,16.048265957560375,0.011454865066067363,0.013599654659628868
268,0.25,0.001,0.014341394689656482,0.011525577610578147,15.77983888111187,0.011263268294869285,0.012054608565651707
269,0.25,0.001,0.01436648427901839,0.011415613471696812,16.536680410116798,0.011803483518998428,0.013363340662585365
270,0.25,0.001,0.0143867975079628,0.011493804375906634,16.2123335631628,0.01157197256471292,0.013021381054487493
271,0.25,0.001,0.01425875932643962,0.011392263281283043,16.063844945494214,0.011465984971801723,0.01112041643096341
272,0.25,0.001,0.014275021914803484,0.011383574590540204,16.203671060134248,0.011565789479039435,0.011069548781961203
273,0.25,0.001,0.014303908410691037,0.01143040522550562,16.103112557995,0.011494013246249109,0.014271108019683097
274,0.25,0.001,0.014268116218112267,0.011375936888469943,16.207774006368542,0.011568718063075334,0.010294812576224407
275,0.25,0.001,0.014286944954284243,0.01144647385089343,15.917999767985181,0.011361884202701771,0.014254700082043806
276,0.25,0.001,0.014214013441122303,0.011322525014725474,16.203901747786954,0.011565954138320452,0.012680029703511132
277,0.25,0.001,0.014188932771918438,0.011430777343762012,15.456703113512395,0.01103262177980899,0.011177572628690137
278,0.25,0.001,0.014244410935293586,0.011381384519994712,16.04440008823409,0.011452105701808773,0.012454931831194295
279,0.25,0.001,0.014268221110530452,0.011382449304989535,16.1718657170865,0.011543087592495718,0.012497430770761438
280,0.25,0.001,0.014217417835905978,0.011335378976630847,16.15094651196846,0.011528155968571348,0.010907601668602891
281,0.25,0.001,0.014279365079201219,0.011469715922900933,15.745274123130189,0.011238596804518336,0.01100322956012355
282,0.25,0.001,0.014271754396109074,0.011389935360831906,16.149714161687932,0.011527276346672327,0.011305289860400889
283,0.25,0.001,0.014218135938728263,0.011369779968046417,15.962186748084006,0.01139342380305782,0.010586105131854614
284,0.25,0.001,0.014253473100553447,0.01137378006578625,16.137800049872453,0.011518772341093829,0.010248324057708183
285,0.25,0.001,0.014198532108458275,0.011328546302003552,16.083400030099845,0.011479942919414593,0.01014026166457269
286,0.25,0.001,0.014242002255364743,0.01148921937217844,15.426595890929944,0.011011131970685185,0.011913413233641122
287,0.25,0.001,0.014302890496363884,0.011333669206488721,16.639515372736827,0.011876884634358906,0.0119600224101709
288,0.25,0.001,0.01420849687048011,0.011391139936282834,15.788468495067988,0.011269427905116336,0.013873377659668526
289,0.25,0.001,0.014271964506731287,0.011358821081146315,16.32525551364449,0.011652573528654168,0.015942041555212602
290,0.25,0.001,0.014313955589448998,0.011518153556739423,15.66767478623771,0.011183208269976952,0.02056666960318883
291,0.25,0.001,0.014258205702974543,0.011360982085928718,16.23604116331035,0.011588894477737581,0.018391845644348197
292,0.25,0.001,0.014240628628931344,0.011358060558882502,16.153911431026096,0.011530272256264166,0.0133846379402611
293,0.25,0.001,0.014216867519875442,0.011453178948492605,15.487709955570816,0.011054753715610861,0.009829056759675344
294,0.25,0.001,0.014199382827365806,0.011304873619016132,16.220830678033284,0.011578037600309267,0.01130365864891145
295,0.25,0.001,0.014240155857013886,0.011451305081437522,15.628720606234591,0.011155403716084648,0.011718477536406782
296,0.25,0.001,0.01419983321567112,0.011327401518878375,16.097107640690677,0.011489727081149662,0.011337771442615323
297,0.25,0.001,0.014171810519700947,0.011327795316057966,15.937862167793535,0.011376061504492174,0.009886132967140939
298,0.25,0.001,0.014145600103096817,0.011265526610663861,16.13993176217315,0.011520293905905173,0.014186113037996821
299,0.25,0.001,0.014237779606941081,0.01139967785546195,15.904723308838818,0.011352407786465965,0.013900805471671952
300,0.25,0.001,0.014148136933720157,0.011305107196842537,15.932338852392856,0.011372119095212603,0.014708543920682536
301,0.25,0.001,0.014221958136150592,0.011351278211085742,16.087290658696975,0.01148271995624338,0.012782070889241166
302,0.25,0.001,0.014212280157741031,0.011324426173427259,16.183533690274896,0.011551415910260454,0.011235148852898015
303,0.25,0.001,0.014113818050960625,0.011346422330593202,15.508485028952247,0.011069582461778906,0.01077246753912833
304,0.25,0.001,0.014164485526005579,0.011175430100057062,16.75066661472103,0.011956221709294097,0.011887477866063515
305,0.25,0.001,0.014226924351809596,0.01143613401729571,15.639588482932899,0.011163160944277587,0.012923105464627346
306,0.25,0.001,0.0142843744756491,0.011318181223544105,16.622546141591815,0.011864772406560897,0.012612990310622586
307,0.25,0.001,0.014273607713867957,0.011434920263182755,15.908003977496362,0.01135474944860554,0.010656485385778878
308,0.25,0.001,0.014185772203050638,0.011348953151884188,15.897533576298123,0.011347275928835205,0.010838841295076741
309,0.25,0.001,0.01422047020492105,0.011403841724328895,15.784384955924727,0.01126651317339381,0.012442312513788542
310,0.25,0.001,0.014215503312902306,0.011366603768540425,15.965233704889682,0.011395598647315977,0.011906055837041803
311,0.25,0.001,0.014200578879267544,0.011346810589413453,15.992518247307027,0.01141507369543685,0.015142156845993467
312,0.25,0.001,0.014184497009976961,0.011327147030558423,16.012588830955128,0.0114293995938295,0.01283227259086238
313,0.25,0.001,0.01409136854154642,0.011279868436516918,15.755647760833623,0.01124600125684056,0.011807474928597609
314,0.25,0.001,0.014241787785586296,0.011358063905269701,16.160388351846557,0.01153489532608605,0.014502099663433101
315,0.25,0.001,0.014210819911225893,0.011343799673105828,16.06678200493294,0.011468081373970693,0.013201370214422544
316,0.25,0.001,0.014130434212575847,0.011233395061140504,16.235007935150495,0.01158815698440435,0.010079933640857538
317,0.25,0.001,0.01398175129022435,0.011244409735325171,15.340062431509503,0.010949366475024628,0.009032888958851496
318,0.25,0.001,0.014097698939390509,0.011274362521196499,15.82197683211062,0.011293345347687809,0.009764589162336456
319,0.25,0.001,0.014074468893130016,0.011251348616137477,15.820766260415429,0.011292481270817578,0.010647345075590743
320,0.25,0.001,0.01413639215575425,0.011314428177708228,15.81428698985749,0.01128785652380977,0.015278301356981197
321,0.25,0.001,0.014153223215627127,0.01125160818954951,16.26065043895417,0.011606459984977993,0.015136571807993783
322,0.25,0.001,0.014139391573946286,0.011276237673689205,16.04511494147007,0.011452615946802336,0.011175358512749275
323,0.25,0.001,0.014111986734369635,0.011326567662929402,15.609488918754085,0.011141676601537535,0.011097353210465776
324,0.25,0.001,0.014091534005343461,0.011206340972518287,16.168621759450936,0.011540772133797955,0.009714329408274757
325,0.25,0.001,0.014071680470847812,0.01119553907190099,16.11789670733898,0.011504565815374004,0.012730987432102362
326,0.25,0.001,0.014123254409591056,0.011314391027498608,15.740869978988126,0.01123545323268246,0.010796028189361095
327,0.25,0.001,0.014040447573244798,0.011164045025073984,16.119360249305405,0.011505610456320774,0.009655168693926599
328,0.25,0.001,0.014160159628257552,0.011331509232181106,15.851755609983726,0.011314600720902018,0.011884110358854135
329,0.25,0.001,0.014118182348944389,0.011245437239087806,16.098863137538896,0.011490980112447462,0.01065088627446029
330,0.25,0.001,0.014114412277257035,0.011244158565063214,16.084902368117646,0.011481015252046856,0.009871587933351597
331,0.25,0.001,0.01411359650242238,0.011303974404052864,15.745121546117979,0.011238487898728037,0.010667119847817553
332,0.25,0.001,0.014027456228865644,0.011099413749071354,16.408749533243505,0.011712169545498577,0.011926215452452501
333,0.25,0.001,0.01404233345542344,0.011238092004176328,15.714968975052635,0.011216965720951202,0.011062995737625493
334,0.25,0.001,0.014030829334043732,0.011228620404016383,15.70358061337199,0.011208836983134896,0.009970692452043295
335,0.25,0.001,0.014129427130627994,0.011231941755280295,16.237508926101512,0.011589942131407217,0.014218260948028829
336,0.25,0.001,0.014136378260279789,0.01123069004711656,16.283477688923536,0.011622753525284467,0.010796668111450143
337,0.25,0.001,0.014112642633342698,0.01124764099263873,16.05546893275736,0.011460006375986695,0.010193489802380403
338,0.25,0.001,0.014098139947188218,0.011186373763551277,16.31753855513076,0.011647065349843512,0.012455009544889132
339,0.25,0.001,0.014148856523825642,0.011345681702512753,15.708993494737284,0.011212700567264299,0.014523430003060235
340,0.25,0.001,0.014118677720484172,0.011251362812609727,16.068432753530292,0.011469259638494142,0.014884449334608184
341,0.25,0.001,0.014114760535241534,0.011268744751556065,15.949073088033117,0.011384063588888734,0.012442907628913721
342,0.25,0.001,0.014127362703642465,0.011248204708382658,16.134801726830776,0.011516632210443096,0.013476180844008923
343,0.25,0.001,0.014120469365566402,0.01123074758727061,16.194000846079547,0.011558887113547143,0.011084989851547612
344,0.25,0.001,0.014153318437163368,0.011305018586634229,15.961873544033036,0.011393200245562481,0.012353614800506167
345,0.25,0.001,0.014067574234204827,0.011190449100115227,16.123409401781206,0.01150850064366967,0.010965810002138218
346,0.25,0.001,0.01400074280954246,0.011169162472646273,15.868175847448777,0.011326321090256086,0.017187363054189417
347,0.25,0.001,0.014127028107416494,0.011300772743674966,15.838335080745102,0.011305021470910137,0.013281865045428276
348,0.25,0.001,0.01403155605248512,0.011136117362959077,16.226038207572675,0.011581754609259582,0.011089963890198205
349,0.25,0.001,0.014080934332747423,0.011293500658308826,15.620778751010677,0.011149735011428035,0.013985021660725275
350,0.25,0.001,0.014013209475820508,0.011227723246461539,15.609865130580424,0.01114194513246283,0.011771624183489217
351,0.25,0.001,0.01404859579589657,0.011230670751387629,15.791651453808687,0.01127169982427458,0.01031435974356201
352,0.25,0.001,0.01398775606865892,0.011165644647730621,15.815111907262766,0.01128844532995201,0.010955432533389993
353,0.25,0.001,0.014056534495757106,0.011153470547763568,16.268770134494332,0.011612255627761836,0.012322323396801949
354,0.25,0.001,0.013990347372799998,0.011161521608328638,15.852739616945216,0.011315303081331347,0.012396088232182793
355,0.25,0.001,0.014026137507970342,0.011135498777088557,16.199139642171534,0.011562555062220939,0.010884715140693717
356,0.25,0.001,0.014011308933278907,0.011163346759776652,15.95998023580689,0.011391848847827901,0.011415166935573021
357,0.25,0.001,0.01393470590218845,0.011055705183585786,16.133920966898987,0.011516003545252668,0.009358390751812194
358,0.25,0.001,0.014052059349140061,0.011170583681518588,16.1477895780208,0.01152590262528251,0.011542513863080077
359,0.25,0.001,0.014015875664670658,0.011124363526730257,16.20403466025233,0.011566049008031641,0.010822080644882388
360,0.25,0.001,0.013937032976304624,0.011100294812097296,15.897079830387247,0.011346952055950925,0.010899160160786577
361,0.25,0.001,0.013979213266233302,0.011161277662013646,15.791710806436866,0.011271742188748655,0.012490033637732267
362,0.25,0.001,0.014051709858835196,0.011182315753836596,16.080085457051208,0.011477577057138621,0.012997706834640767
363,0.25,0.001,0.014013487909399965,0.01114632299049499,16.067592497560913,0.011468659884054898,0.013367431341773935
364,0.25,0.001,0.014000584587398137,0.011203136217174874,15.676899616255959,0.011189792731089193,0.009887161250743601
365,0.25,0.001,0.014017679657744591,0.011130482510808757,16.17985350460154,0.01154878908251359,0.011783752486937575
366,0.25,0.001,0.01396399752339596,0.011120417633380727,15.935422132223731,0.01137431986596983,0.010706479816387096
367,0.25,0.001,0.013998336594254345,0.011212634337010719,15.611076224439497,0.01114280958204104,0.011838034830159612
368,0.25,0.001,0.013988191662037554,0.011109306285788125,16.13327516258443,0.011515542585713369,0.011237560771405697
369,0.25,0.001,0.013965944210669387,0.011091891194591051,16.106192715720987,0.011496211788523189,0.012719068572753005
370,0.25,0.001,0.013953809941562863,0.01111364876674382,15.916263645592752,0.011360645000423091,0.0110179435254799
371,0.25,0.001,0.01401949781896157,0.01110109556891279,16.354727190257027,0.011673609700397592,0.012606619650291072
372,0.25,0.001,0.013945510260364176,0.011056058682472987,16.192487147371125,0.011557806671927998,0.012425051691631476
373,0.25,0.001,0.014010014394900192,0.011173661755744949,15.894919326550154,0.011345409940435513,0.011173652381532721
374,0.25,0.001,0.014011931453367604,0.011101573666720562,16.309645830451764,0.011641431713384557,0.011505311768915918
375,0.25,0.001,0.014014114508894006,0.011236443867758199,15.566065893427048,0.0111106822936667,0.014247920053700605
376,0.25,0.001,0.013998000454086768,0.011094503554412848,16.271196854885087,0.011613987762230611,0.011388560084419118
377,0.25,0.001,0.013987316728743083,0.011157930910077385,15.85587709666205,0.011317542538659565,0.012967107714050345
378,0.25,0.001,0.013910471677723493,0.011080593738294146,15.85863623238335,0.011319511943171556,0.010307877169301113
379,0.25,0.001,0.013946980025491787,0.011119848588205335,15.843243627947093,0.011308525073481152,0.011647061444818974
380,0.25,0.001,0.013975639353035293,0.011144905133321599,15.863434156990776,0.01132293658600341,0.012564844555324979
381,0.25,0.001,0.014001142311515464,0.011154283121398193,15.953799621233921,0.011387437274256904,0.013455721135768626
382,0.25,0.001,0.013980896835403071,0.011055233293414795,16.395418181618812,0.011702653948336054,0.012474258740743002
383,0.25,0.001,0.013964095808027361,0.011165032202215023,15.685952422283448,0.011196254405627016,0.013513407049079737
384,0.25,0.001,0.013976167306700586,0.01111234718147566,16.048848721464324,0.011455281028882458,0.013334957675801383
385,0.25,0.001,0.013942947434155207,0.011128548518559779,15.771891467018273,0.011257595622425605,0.0106884248347746
386,0.25,0.001,0.013943814403402262,0.011066261760380558,16.12580548855742,0.011510210912603439,0.011043592407885525
387,0.25,0.001,0.013947245229333072,0.01110691516288333,15.917208881885832,0.011361319687284677,0.015136386164360575
388,0.25,0.001,0.013984955379831474,0.011096390077539724,16.18752040065287,0.011554261527946372,0.015654284093115065
389,0.25,0.001,0.01399235905434922,0.01108434079604457,16.29653346130603,0.011632072420632427,0.011888404376804829
390,0.25,0.001,0.013985394779946867,0.011193991925553225,15.643020818441993,0.01116561086255674,0.01110237640225225
391,0.25,0.001,0.013975407722841652,0.011094474768400645,16.144748354139438,0.011523731873047421,0.010158070880505774
392,0.25,0.001,0.013937695040420662,0.011085142544382198,15.985705023935992,0.011410210580967875,0.01075025311567717
393,0.25,0.001,0.013944945312299882,0.01101645258938745,16.41127359731116,0.011713971161535445,0.010443648012975851
394,0.25,0.001,0.01396025549407921,0.011167957667020565,15.648037558726031,0.011169191690739494,0.011362156209846338
395,0.25,0.001,0.013926192119490964,0.011042794170205131,16.158562906794675,0.011533592367448019,0.01128463555748264
396,0.25,0.001,0.013825637568142478,0.011033181189612518,15.648924541110775,0.01116982479736672,0.0114463839886917
397,0.25,0.001,0.013852589423750516,0.011005980231774397,15.952396617642828,0.011386435844141918,0.011704068061792187
398,0.25,0.001,0.013951829921440027,0.011144121758243204,15.734397692372138,0.011230833470643924,0.01521753923346599
399,0.25,0.001,0.013985651761236752,0.011059265484601373,16.399468875203297,0.011705545235691147,0.01518194977607992
400,0.25,0.001,0.013952332509844475,0.011088731303853567,16.04762046871983,0.011454404331705803,0.01376308242066039
401,0.25,0.001,0.013883424161476554,0.011028317840833628,16.000016636721536,0.0114204258648976,0.010242268236147033
402,0.25,0.001,0.013946941179071089,0.011168448027832427,15.570675480048466,0.011113972505387914,0.011861364667614302
403,0.25,0.001,0.013983704390521285,0.011021942339355955,16.59771550834859,0.011847048899606416,0.011497881160014205
404,0.25,0.001,0.013918593384240516,0.011091780862965738,15.841457729557169,0.011307250342296337,0.011767655404077636
405,0.25,0.001,0.013885931228730162,0.011067727014082466,15.79321650951081,0.011272816923276809,0.010874601650155254
406,0.25,0.001,0.013972117770958989,0.011026529308422663,16.507077590594275,0.01178235374060976,0.010681164347463183
407,0.25,0.001,0.01390405439775253,0.011204336784043466,15.129218442358445,0.010798871122311524,0.01087882136926055
408,0.25,0.001,0.013953124396078034,0.01096429655987047,16.74939167907483,0.011955311690988457,0.011083805209232701
409,0.25,0.001,0.013913687318563461,0.011084818068764282,15.852982263601325,0.011315476276660474,0.011528081364101835
410,0.25,0.001,0.013882490777952363,0.011051694448229931,15.86378210669688,0.01132318494410912,0.010685212082333036
411,0.25,0.001,0.013850488611443867,0.010946707056389109,16.272792743639346,0.011615126869121589,0.010150780176950825
412,0.25,0.001,0.01386734033038861,0.011109753894290317,15.45351410637337,0.011030345543449943,0.010082164365384314
413,0.25,0.001,0.013931293497322403,0.011011946192117471,16.3600218268855,0.011677388884286582,0.011223207124405436
414,0.25,0.001,0.013845157080078533,0.011027518022423008,15.79004993366198,0.011270556697831535,0.012508299563907914
415,0.25,0.001,0.01381688124496674,0.011005449940949793,15.755261392194509,0.011245725476227344,0.012860565756758055
416,0.25,0.001,0.013849134464879226,0.011046272868949198,15.707236460406518,0.01121144643854855,0.01174709304339356
417,0.25,0.001,0.013861153593478094,0.010982036845539006,16.134570538771015,0.011516467193983594,0.014524933882057667
418,0.25,0.001,0.01388571194298707,0.011091380886478569,15.659431849142445,0.011177324660344358,0.015225609350535605
419,0.25,0.001,0.01394068849885645,0.011108684353530407,15.87055100415596,0.011328016419811534,0.012826600422461828
420,0.25,0.001,0.013836195090424426,0.010919356052923112,16.345965795190615,0.011667356027973315,0.010246275561965175
421,0.25,0.001,0.013848859324569711,0.011038644522598487,15.748444299734137,0.011240859600095745,0.01058001516179906
422,0.25,0.001,0.013902276035525726,0.011013878913093429,16.186577495966574,0.01155358850532946,0.012667659670114517
423,0.25,0.001,0.013902113634823847,0.011080207062368157,15.813965423932094,0.011287626997810203,0.0102951736189425
424,0.25,0.001,0.013861537227555827,0.011012869720619893,15.963933756142968,0.011394670775262647,0.011476051165825792
425,0.25,0.001,0.013808705500493484,0.011004976354567724,15.712098016485061,0.011214916499989337,0.011149806901812553
426,0.25,0.001,0.013868575784671669,0.010986234603215987,16.15264080323194,0.011529365312799385,0.01131688803434372
427,0.25,0.001,0.01386581125099056,0.011024463112632471,15.922914577527644,0.011365392275180332,0.013797565777268674
428,0.25,0.001,0.013927752325601677,0.011053858611718557,16.105299800974336,0.011495574447519155,0.011571477581229474
429,0.25,0.001,0.013942353250352603,0.01111512711916133,15.843775586030329,0.011308904772327145,0.015668164214326277
430,0.25,0.001,0.013877912258070684,0.01101898082209744,16.021451522188947,0.011435725569014238,0.012031623369289769
431,0.25,0.001,0.013930279287038647,0.011020831395464704,16.304546124128333,0.011637791666044492,0.012428965471271012
432,0.25,0.001,0.013884279650313773,0.01100564035569307,16.131894361836828,0.011514557003452412,0.010424429033365514
433,0.25,0.001,0.013857354919918363,0.011052313678589836,15.719449946182309,0.011220164130037336,0.009636112385325961
434,0.25,0.001,0.01386105289024092,0.010954687240827446,16.28727343236539,0.011625462835378578,0.011066691018640995
435,0.25,0.001,0.013798774259002037,0.010972428900462365,15.838839741260832,0.011305381685411016,0.009873322987308105
436,0.25,0.001,0.01384200246388468,0.011011986777243053,15.859408048622509,0.01132006284698252,0.012131957130299674
437,0.25,0.001,0.013927919648502715,0.011013004652617548,16.33518305658841,0.011659659569299364,0.014573600401894914
438,0.25,0.001,0.01389876124183488,0.011060741666293642,15.904262252633563,0.011352078695669924,0.013509957119822502
439,0.25,0.001,0.013833511670336071,0.010967154494936475,16.06306563765377,0.011465428720666504,0.011731073984669315
440,0.25,0.001,0.013806012689274073,0.010953202879077582,15.987146159995191,0.011411239229118623,0.009965406782511208
441,0.25,0.001,0.013801541933683615,0.010931363028293553,16.084483690588193,0.01148071641012719,0.010281102007461919
442,0.25,0.001,0.013843027534876939,0.010942971124933473,16.251916392221197,0.011600225833134331,0.01325854498686062
443,0.25,0.001,0.013859174522383584,0.010987957649131238,16.090299334362886,0.011484867476347527,0.01327560500552257
444,0.25,0.001,0.013718179473122262,0.010921903283905394,15.670331773649151,0.011185104763489759,0.010527529702004459
445,0.25,0.001,0.013790366491267437,0.010901191208100817,16.190938130077754,0.011556701020755,0.010134083063652119
446,0.25,0.001,0.01380115969836032,0.010928900629112023,16.096139110086536,0.011489035767370832,0.010513806974308358
447,0.25,0.001,0.013761591127305203,0.010862421237300557,16.24694801736694,0.011596679527028508,0.011204325490527682
448,0.25,0.001,0.013868525620734058,0.011018314062415874,15.97258625828268,0.011400846722542955,0.010646899644699361
449,0.25,0.001,0.013834964016544502,0.010871447775045501,16.607545301488145,0.011854065168799532,0.011710196319553588
450,0.25,0.001,0.013873280713001812,0.011053831245707696,15.800195150049014,0.011277798108528917,0.011794646374053426
451,0.25,0.001,0.013804802603793008,0.010885202382538935,16.361440303207804,0.011678401358463814,0.010477626385788122
452,0.25,0.001,0.013833516330490094,0.010924167212226318,16.303991593335518,0.011637395855342982,0.013078483649426036
453,0.25,0.001,0.013813170873535223,0.011016111923629567,15.674718849559246,0.011188236152433438,0.012715606846743159
454,0.25,0.001,0.013780372907821897,0.010938397544956706,15.926429908085233,0.011367901433322792,0.00939243540374769
455,0.25,0.001,0.013735008539327425,0.010930090427342023,15.718762314364938,0.011219673315035645,0.010957082009149922
456,0.25,0.001,0.013738768274396544,0.010892093475525597,15.952765950685219,0.011386699465157187,0.011393164181047015
457,0.25,0.001,0.013855740916649652,0.011006859474648995,15.965130969145452,0.011395525317020308,0.012346059497859743
458,0.25,0.001,0.013731714529286319,0.010866297897617174,16.057795314281158,0.011461666890992974,0.011873083810011545
459,0.25,0.001,0.0138211259299698,0.01097699109918151,15.938532281737817,0.011376539815658684,0.011662052737341987
460,0.25,0.001,0.013826742534571727,0.010926616335634723,16.252307565493275,0.01160050504317864,0.012340605983303653
461,0.25,0.001,0.01387308601346646,0.010961883396845127,16.314380341156355,0.011644811092902467,0.013749941976533996
462,0.25,0.001,0.013865974579473866,0.011016434129370029,15.968824219794328,0.011398161470231498,0.010672390771408876
463,0.25,0.001,0.013756667079666041,0.010877045027260092,16.13740206671305,0.011518488270316238,0.010302720798386468
464,0.25,0.001,0.013805909535560771,0.010998287861423121,15.733911978427901,0.01123048677974868,0.012283909031086497
465,0.25,0.001,0.013736057219169892,0.010931729647143259,15.715452665611819,0.011217310967603011,0.012911912157303758
466,0.25,0.001,0.01372194613822286,0.010880877394866581,15.921349249865166,0.011364274982059362,0.010420330800116062
467,0.25,0.001,0.01372923973253698,0.010954602791470947,15.54906561891389,0.01109854790786145,0.009886900583902994
468,0.25,0.001,0.013761237037045874,0.010866531075293574,16.221933190813537,0.011578824547333003,0.009687679974983135
469,0.25,0.001,0.013773419713679375,0.010970755175690914,15.706131851718453,0.011210657995516383,0.010928954359971814
470,0.25,0.001,0.013755403101415915,0.010784544943063431,16.648689092338763,0.011883432614089053,0.011066296758751074
471,0.25,0.001,0.01374841803337798,0.010934230345637739,15.770707496672076,0.011256750532956513,0.01245821350150638
472,0.25,0.001,0.013781998834144254,0.010932870205675922,15.966517386780945,0.01139651490848033,0.010746628356476625
473,0.25,0.001,0.013769603047534086,0.01090911690308624,16.03016426173453,0.011441944512301593,0.011568911477095552
474,0.25,0.001,0.013790675141483886,0.01093565028854876,15.999560294495788,0.0114201001388264,0.013024054881599214
475,0.25,0.001,0.013878431999808028,0.010961806263505507,16.34477112773707,0.011666503303167073,0.014679865394201543
476,0.25,0.001,0.013838234782473896,0.010940673105956937,16.237936404268098,0.011590247255009348,0.01294726071258386
477,0.25,0.001,0.013794959147421806,0.01086622499949352,16.41262602352824,0.011714936490741071,0.01266170603533586
478,0.25,0.001,0.013754237599019316,0.01093302646602288,15.810066912110768,0.011284844334126173,0.012043922001288997
479,0.25,0.001,0.013740706636425206,0.010949587831875671,15.641430303624375,0.011164475591452087,0.013029703146053685
480,0.25,0.001,0.013742912089728358,0.010845129838489535,16.239171321854393,0.011591128709389288,0.01111808212267028
481,0.25,0.001,0.013683766551570747,0.010846834275659046,15.898169027988448,0.011347729498921091,0.011591620122392973
482,0.25,0.001,0.013799683654772918,0.011021305913169348,15.570029030281328,0.011113511085140134,0.013940841063029237
483,0.25,0.001,0.013722041972378134,0.010788933604162455,16.437140428521335,0.011732434281599811,0.014865925535559654
484,0.25,0.001,0.01376455310491328,0.010873276414526734,16.202714586439242,0.011565106771191465,0.015341545765598616
485,0.25,0.001,0.013780988058776457,0.010958185812507973,15.818983824987376,0.011291209011411403,0.016526124854054716
486,0.25,0.001,0.01375962241761698,0.0108475618546,16.319187512415898,0.011648242335771518,0.01156615667665998
487,0.25,0.001,0.0137754841052534,0.010877789624970222,16.23867978433239,0.011590777861764733,0.01274795892337958
488,0.25,0.001,0.013720697999538805,0.010890213570808957,15.862034409671683,0.011321937480136818,0.01055832833258642
489,0.25,0.001,0.013670623614080958,0.010873775773401949,15.673535488404248,0.011187391497790328,0.010090336772716708
490,0.25,0.001,0.013760463681652745,0.010960117995229057,15.693137643908367,0.011201383043474922,0.011931696699725257
491,0.25,0.001,0.013737813215490302,0.01086809209409832,16.08191686710024,0.011478884273447709,0.012059379006839462
492,0.25,0.001,0.013713873334993881,0.010872048495811882,15.925587382153413,0.011367300058639123,0.010802006452447839
493,0.25,0.001,0.013720858087869424,0.010879827578314811,15.92113523156924,0.011364122220963054,0.011916665567292107
494,0.25,0.001,0.013677619199335802,0.010832198566187017,15.945737258563023,0.011381682554291951,0.01195645694517427
495,0.25,0.001,0.013756702388477416,0.010898224800513497,16.018909048218237,0.011433910812432717,0.013494645348853536
496,0.25,0.001,0.013684696755141813,0.010845584210589131,15.910386992044776,0.011356450386898484,0.013955336167580552
497,0.25,0.001,0.013789894236357946,0.010909600927009329,16.14116384411946,0.011521173336273706,0.011137823729465405
498,0.25,0.001,0.013716886145817009,0.010773376827287583,16.495426779917437,0.011774037673031718,0.011804355308413506
499,0.25,0.001,0.013726148166527313,0.010874625199789557,15.979934663373708,0.011406091836812068,0.011564746602541871
500,0.25,0.001,0.013699069941423465,0.010812646362349788,16.175517103971185,0.011545693864362017,0.012361246471603712
