epoch,beta,learning_rate,train_loss,train_reconstruction_loss,train_kl_unnormalized,train_kl_normalized,mean_unclipped_gradient_norm
1,0.0,0.001,0.08540536546818564,0.08540536546818564,17.323968975343437,0.012365431103028863,0.1012490349156516
2,0.02,0.001,0.06252082371126826,0.059912011236230904,182.74726625246421,0.1304405897590751,0.13507771172693797
3,0.04,0.001,0.05335758810984754,0.04386332791263812,332.5364616607951,0.23735650368365105,0.13170003039496286
4,0.06,0.001,0.04529455485187958,0.04095289615966449,101.37774608291198,0.07236098935254245,0.11938304773398808
5,0.08,0.001,0.03960153282942059,0.03620683408786203,59.449662395726854,0.04243373475783501,0.1043546838419778
6,0.1,0.001,0.03599523693740925,0.03244118604843862,49.792255758125094,0.03554051089088158,0.08057714572974614
7,0.12,0.001,0.035563318145887875,0.032206692045258584,39.18861845497773,0.02797189040326747,0.06334533835096019
8,0.14,0.001,0.034483529105086196,0.03200514748622881,24.801517647003458,0.01770272494432795,0.04264988723610129
9,0.16,0.001,0.03368515893816948,0.03138670213868685,20.125861872022398,0.014365354655262239,0.0511581569111773
10,0.18,0.001,0.033157463699022185,0.030915410910672115,17.450638878011258,0.01245584502356264,0.02530400481607233
11,0.2,0.001,0.03191105864733179,0.02964694817141395,15.860094836939162,0.011320553059913748,0.04188576101192406
12,0.22,0.001,0.029999207670443527,0.02752175352701517,15.776879034309744,0.011261155627630082,0.0785925281899316
13,0.24,0.001,0.027263015264941154,0.023811262692803533,20.149604886491723,0.01438230184617539,0.08461462972419602
14,0.25,0.001,0.025546747581841788,0.021711495278455388,21.492753198213666,0.015341008706790626,0.07763700000941753
15,0.25,0.001,0.025115910882704727,0.021485777902547444,20.34326441042891,0.01452053134220479,0.17115569300949574
16,0.25,0.001,0.023882277414341953,0.0204219958596976,19.391417654875283,0.013841126091988069,0.05209020764700004
17,0.25,0.001,0.023082191490124318,0.019751809520002838,18.663459367841202,0.013321527029151466,0.04249999299645424
18,0.25,0.001,0.022509530343324223,0.01921518331515455,18.461520506956866,0.013177387942153366,0.05046606343239546
19,0.25,0.001,0.021728459397487552,0.018564534451916952,17.73063668580813,0.012655700703646059,0.1001927289845688
20,0.25,0.001,0.020839489439380503,0.01745715258625623,18.95461701009875,0.01352934832983494,0.08683867486459869
21,0.25,0.001,0.02035504610878285,0.016943655821068264,19.11743394013877,0.01364556312643738,0.024930757071290697
22,0.25,0.001,0.01978530162057587,0.016417607717285645,18.872557559860088,0.01347077627399007,0.04960903152823448
23,0.25,0.001,0.019439532604312228,0.015955342885071985,19.52539960914683,0.013936759178548773,0.036258896214089224
24,0.25,0.001,0.01901219779991101,0.015500639643624563,19.678772863940658,0.014046233307595045,0.029963867805366005
25,0.25,0.001,0.018476596850658132,0.015089410783670773,18.981789793923635,0.013548743607368761,0.03468427128557648
26,0.0,0.001,0.0145648489575659,0.0145648489575659,23.98385559509848,0.017119097498285853,0.034762337537748475
27,0.02,0.001,0.013691784761776434,0.013005199937898422,48.095269960777784,0.03432924336957729,0.04487076521451984
28,0.04,0.001,0.014195897442367033,0.012227607316502902,68.93936513740326,0.04920725562983816,0.051495052341903956
29,0.06,0.001,0.01506719099375132,0.012125491765197192,68.68867874145508,0.04902832172837621,0.056204850652388165
30,0.08,0.001,0.015120186390372638,0.012133788743935456,52.299289311204,0.037329970957319054,0.04036071976380689
31,0.1,0.001,0.015294672207576092,0.012909697037990962,33.41350049170378,0.023849750529410265,0.05360646452754736
32,0.12,0.001,0.015479224499001682,0.013118201065982613,27.564953741626205,0.01967519895904797,0.029348634582545077
33,0.14,0.001,0.01584980330456083,0.013083899089039485,27.678799531170142,0.019756459337023656,0.016996648628264666
34,0.16,0.001,0.01601688452413149,0.012823875297174275,27.95878791809082,0.019956308292712933,0.03625520185700485
35,0.18,0.001,0.016308473109781185,0.013088940512214866,25.058697352899568,0.017886293613775566,0.033925353815512996
36,0.2,0.001,0.016457218624581802,0.013219415862983632,22.680807826674986,0.0161890134380264,0.029982090994183506
37,0.22,0.001,0.016742498413703153,0.013250652021754569,22.236713177689882,0.0158720293916416,0.04870405540402446
38,0.24,0.001,0.01688388742019083,0.013285391850867004,21.00621801002003,0.014993731627423292,0.03367672035736697
39,0.25,0.001,0.016649592250028503,0.013066524248047967,20.079512872428538,0.014332271857550705,0.019841906747647693
40,0.25,0.001,0.01669756970672964,0.013466162076132876,18.108809676125784,0.01292563146047522,0.064933822623321
41,0.25,0.001,0.016726944351864753,0.013229584573794192,19.59920380494305,0.013989438832935795,0.04656672431156039
42,0.25,0.001,0.016692642575112458,0.013270553584410765,19.17738625713598,0.013688355643922897,0.05764684094382184
43,0.25,0.001,0.016431069854542475,0.013115492127139434,18.580497135625823,0.013262310589311793,0.041123111067073684
44,0.25,0.001,0.016242183936394265,0.012926347858368237,18.58194524105464,0.013263344212030436,0.05115672520228794
45,0.25,0.001,0.016202259913226155,0.01287775232552368,18.630540241704924,0.013298030151109868,0.05920563478554998
46,0.25,0.001,0.016164329581867868,0.012924521038674306,18.155887247246003,0.012959234294965026,0.052885722901139944
47,0.25,0.001,0.015915146584962014,0.012619958441948222,18.466235847116632,0.01318075363819888,0.04875290407133954
48,0.25,0.001,0.016005114008124186,0.01277106432853458,18.123615104461386,0.012936199218030967,0.03146915909435068
49,0.25,0.001,0.01562845564194929,0.012388722022351261,18.155467577069718,0.012958934744518,0.024240010284951756
50,0.25,0.001,0.015610383440540216,0.012422154074378102,17.866837082622208,0.01275291726097231,0.03473148122429848
51,0.0,0.001,0.01202154041172188,0.01202154041172188,21.403885707676967,0.015277577236029242,0.028567128282572542
52,0.02,0.001,0.011234955644565765,0.010666040111785737,39.85253171831648,0.028445775673316544,0.02315653381603105
53,0.04,0.001,0.011696176908074696,0.01011281575415736,55.45722177095502,0.039584026959996445,0.020363869943789074
54,0.06,0.001,0.01229353565896783,0.009902152171898111,55.83880633060063,0.039856392812705664,0.01854771681662117
55,0.08,0.001,0.012567061147539416,0.010162143358769261,42.11612394814179,0.030061473196389573,0.012406459610377039
56,0.1,0.001,0.012703687927433264,0.01061875710838309,29.209880240609714,0.020849307809143264,0.012420494508530413
57,0.12,0.001,0.012987018815267867,0.010869124364630084,24.726418343659873,0.017649120873418897,0.0169939718076161
58,0.14,0.001,0.013407680745645661,0.01086354880619829,25.45949276362624,0.01817237170851266,0.021795094412352358
59,0.16,0.001,0.013508879919057694,0.010674373838597926,24.819643965391354,0.01771566307308448,0.014021499548107386
60,0.18,0.001,0.01371431706699534,0.010896803123580517,21.929650208660377,0.015652855252434244,0.01583875602643405
61,0.2,0.001,0.014118227089328743,0.011256083854796173,20.049312894589434,0.01431071584196248,0.01936498743348888
62,0.22,0.001,0.014289353686933206,0.011051892259410608,20.61674255299791,0.01471573344253955,0.015597486602408546
63,0.24,0.001,0.014603149337328482,0.011347223586777103,19.006466072296426,0.013566356939540633,0.02895211721105235
64,0.25,0.001,0.014811823188074839,0.011590790960972553,18.050665115641657,0.012884129275975487,0.030856375715562274
65,0.25,0.001,0.014660812809924099,0.011295449841663103,18.859494093422576,0.01346145188681126,0.018894995296640054
66,0.25,0.001,0.014341174511708946,0.01124500209100057,17.350951649318233,0.01238469068473821,0.011887095336403166
67,0.25,0.001,0.014226816960166548,0.01116666882777604,17.149070133672698,0.012240592529388078,0.013331847531454903
68,0.25,0.001,0.01451190216379745,0.011406501729006523,17.402664184570312,0.012421601844803934,0.024988781660795212
69,0.25,0.001,0.01432430812061947,0.011125544669263274,17.925870663651796,0.01279505400688922,0.02882066714976515
70,0.25,0.001,0.01420455499090881,0.011140870522255096,17.1688882702979,0.012254738237186223,0.024898105434009006
71,0.25,0.001,0.014204288075599715,0.011222446842171321,16.710237930868274,0.011927364690127248,0.02670435660651752
72,0.25,0.001,0.014139686719836475,0.011046163511471214,17.336105186248496,0.012374093637579226,0.024123109145356075
73,0.25,0.001,0.014090545040285476,0.010962273368490077,17.530834019741164,0.012513086380971566,0.018723996356129646
74,0.25,0.001,0.01389296720169972,0.010926595671433155,16.623545673406014,0.01186548584825554,0.020544597479913915
75,0.25,0.001,0.01395208523478185,0.010932120381393165,16.923883705495673,0.012079859889718539,0.023789382007505213
76,0.0,0.001,0.010415634035924885,0.010415634035924885,20.041444047589167,0.014305099248814537,0.018664904071816375
77,0.02,0.001,0.010048694168783236,0.009533057189503006,36.12038970662054,0.025781862745624943,0.01995253103918263
78,0.04,0.001,0.01058175413930249,0.00919222548847722,48.66825014631325,0.03473822280250767,0.018881977136645998
79,0.06,0.001,0.011017230217493026,0.009015846135808485,46.73231820079768,0.03335640128536594,0.014336411442075456
80,0.08,0.001,0.011189367639544968,0.009221960712119798,34.454211226133545,0.02459258474384978,0.01749507324504001
81,0.1,0.001,0.011497574344834435,0.009697027443516477,25.22566196405999,0.018005468925096354,0.024418795348278115
82,0.12,0.001,0.011612084772542258,0.00970896994956186,22.21886549263357,0.01585929014463495,0.01048427021929196
83,0.14,0.001,0.012002888901559549,0.009692606742485104,23.119322357890763,0.01650201453097128,0.015417198650538921
84,0.16,0.001,0.012271168267476224,0.009732239087608374,22.23149978780301,0.015868308199716637,0.015036159860236304
85,0.18,0.001,0.012540913761428026,0.009901960789461001,20.539851554086276,0.014660850502559797,0.016252515970596244
86,0.2,0.001,0.01276456670853022,0.010013711543005203,19.26974027401933,0.013754275713075897,0.020119080053908483
87,0.22,0.001,0.012903276387010222,0.01002751529286398,18.313369162728854,0.01307164108688712,0.01258216259468879
88,0.24,0.001,0.01319426749006053,0.010164491283907512,17.686318513388947,0.012624067461376835,0.01568301035357373
89,0.25,0.001,0.013378536850910321,0.010374855606982085,16.832629480094553,0.012014724825192401,0.022725515799330815
90,0.25,0.001,0.013355738666152285,0.010363987290135053,16.76577698181723,0.01196700712478032,0.01607690126235996
91,0.25,0.001,0.013324506876763896,0.010174099756317717,17.654881022800907,0.012601628139044188,0.021836824315999235
92,0.25,0.001,0.013308974670542179,0.010412528492928109,16.231684176721306,0.011585784565825343,0.023420154782278196
93,0.25,0.001,0.013319105510469352,0.010324095584730679,16.78403642244428,0.011980040272979501,0.026715992151626518
94,0.25,0.001,0.013117163485595,0.010167716697693984,16.5286997679238,0.011797787129139044,0.026063622507665838
95,0.25,0.001,0.01315734482361613,0.010229916216057037,16.40530912452769,0.011709713864759237,0.021423099828617915
96,0.25,0.001,0.013058418399332283,0.010092134021710013,16.623058354743172,0.011865138011950872,0.016359376987176284
97,0.25,0.001,0.013081080610994424,0.010191669783372189,16.19225761377923,0.011557642836387744,0.015633523730295047
98,0.25,0.001,0.012967618713242429,0.010068741130912415,16.24530933950549,0.011595509878305132,0.013076715437429292
99,0.25,0.001,0.012917277011498113,0.010092775137207218,15.828509125754097,0.011298007941294859,0.009857552791280406
100,0.25,0.001,0.012862524574744367,0.010014325032167346,15.961310359919183,0.011392798258329182,0.010801613463887147
101,0.25,0.001,0.012813012394183707,0.009936805396715057,16.118263725922485,0.011504827784384358,0.01259557091231857
102,0.25,0.001,0.012760051578352942,0.009964079665733832,15.668627382438874,0.011183888210163365,0.013446103914507799
103,0.25,0.001,0.01277623537092287,0.009960430369616668,15.77977141264443,0.011263220137504948,0.011998717074415513
104,0.25,0.001,0.012732959265394188,0.009929378734570797,15.711265100496952,0.011214321984651643,0.02228222501331142
105,0.25,0.001,0.01280433272890677,0.009994069845459171,15.748713136833405,0.01124105148953134,0.01692377177200147
106,0.25,0.001,0.012730818677032105,0.009871277340174279,16.024869883171867,0.011438165512613752,0.022895259050918475
107,0.25,0.001,0.012774570531725326,0.01004450268625656,15.29930001552974,0.010920271245917016,0.022552340690578734
108,0.25,0.001,0.01274063298043525,0.00984466791361849,16.22898891484626,0.01158386075292381,0.02479614443810923
109,0.25,0.001,0.012691919213143464,0.009905362423404913,15.615864691333236,0.011146227474185037,0.027444918639957905
110,0.25,0.001,0.012621318712552017,0.00983845924732284,15.595144254024898,0.011131437725927836,0.01748938831899847
111,0.25,0.001,0.012542161272368698,0.009811436888004574,15.302980512102074,0.010922898295576071,0.017018473174955164
112,0.25,0.001,0.012540746515042315,0.009809901946546318,15.303652932710737,0.010923378253183966,0.01593949818717582
113,0.25,0.001,0.01248452564370688,0.009702197119384725,15.592169387318263,0.011129314337843157,0.014985374041966029
114,0.25,0.001,0.012551872947505701,0.009825462640794081,15.27880308561236,0.010905641031843227,0.014717671887150832
115,0.25,0.001,0.012487973530437345,0.009675391444884171,15.761709391513717,0.011250327902579384,0.014627380296587944
116,0.25,0.001,0.012475287289332563,0.009749800576088584,15.273627290101809,0.010901946673877094,0.010152060205915145
117,0.25,0.001,0.012416564519995841,0.009685160069961413,15.306790752945659,0.01092561795356578,0.00792362620787961
118,0.25,0.001,0.012414922972566614,0.009638557471683093,15.558751863853955,0.011105461715812958,0.012040261312254838
119,0.25,0.001,0.012491798202428862,0.009707885820453411,15.601045162878304,0.011135649652304286,0.019909008938286985
120,0.25,0.001,0.012311207809459383,0.00959054697479043,15.246582886883031,0.010882643031322648,0.015875510538795164
121,0.25,0.001,0.012286718708471717,0.009559316125428565,15.284364094243985,0.010909610345641673,0.012056945756609951
122,0.25,0.001,0.012212294980744335,0.009539338829709547,14.979246620819948,0.010691824854261204,0.01070592984823244
123,0.25,0.001,0.012249913954428423,0.009601395516264662,14.842297919442721,0.010594074175191093,0.015404654134597098
124,0.25,0.001,0.012313269505225053,0.009537029994007584,15.558047062882753,0.011104958645883478,0.01910075206043465
125,0.25,0.001,0.012289992733815007,0.00953039034295862,15.464812243096182,0.01103840988086808,0.019759432545730045
126,0.25,0.001,0.012264962934793155,0.009560106061050825,15.15801794283858,0.010819427510948307,0.013495216146111488
127,0.25,0.001,0.012159769223115154,0.009429861852359549,15.298400531305331,0.010919629215778251,0.018856723925897052
128,0.25,0.001,0.01220124350669228,0.009496952259094915,15.154848080929195,0.010817164939992288,0.01940384234434792
129,0.25,0.001,0.012298080347756916,0.009642701848436182,14.880741181774674,0.010621514048375927,0.02561019387628351
130,0.25,0.001,0.012264640723294187,0.009542905429604455,15.252604546948014,0.010886941147000723,0.027730136111910855
131,0.25,0.001,0.012153226977962757,0.00944410386347325,15.181925729056385,0.010836492311960303,0.02152862093810524
132,0.25,0.001,0.012179356451346495,0.009517824843038465,14.915222221445815,0.01064612578261657,0.02027856106204646
133,0.25,0.001,0.01210783404585357,0.00942174888381334,15.052822371509588,0.010744341450042532,0.015810825462852205
134,0.25,0.001,0.012075866468111488,0.00937287122115632,15.147585949051045,0.010811981405461132,0.02042008031691824
135,0.25,0.001,0.012143740099724208,0.009432119761254186,15.195920454007442,0.010846481408998888,0.011557153026972498
136,0.25,0.001,0.0120835883769198,0.009328512492302422,15.43944558473391,0.011020303772115568,0.013547369944197791
137,0.25,0.001,0.012064739748417774,0.009321133466872656,15.375170520532912,0.010974425781964963,0.012689350971153803
138,0.25,0.001,0.012094739441559694,0.00941130358760602,15.037976157999484,0.010733744581013194,0.016382413118013313
139,0.25,0.001,0.012039806232483031,0.009328012372079853,15.196892052053292,0.010847174912243606,0.01491328641506178
140,0.25,0.001,0.011995523933007896,0.009324011654009886,14.971154114910375,0.010686048618779712,0.010953074786812067
141,0.25,0.001,0.011955386654378097,0.009280796458718375,14.988404505720762,0.010698361531563713,0.011180674457656485
142,0.25,0.001,0.011929479366708025,0.009225595742464066,15.152564218111127,0.010815534773812368,0.01559031754732132
143,0.25,0.001,0.011946015294954598,0.009258428684253002,15.061234010714237,0.010750345475170762,0.02322183097047465
144,0.25,0.001,0.012093663398420142,0.009431690717481565,14.917693565939075,0.01064788976869313,0.02266665641218424
145,0.25,0.001,0.011975786370164323,0.009278128541588226,15.117674729534398,0.010790631498597,0.013379993648933513
146,0.25,0.001,0.011975225217849295,0.009234121843963583,15.36114488583859,0.010964414622297351,0.017890326545706818
147,0.25,0.001,0.012023871268415563,0.009369117451535763,14.877241722891263,0.01061901621905158,0.026482784189283848
148,0.25,0.001,0.01187989596173028,0.009218583710352394,14.913993995880412,0.010645249104839695,0.017407866261367286
149,0.25,0.001,0.0119684475743882,0.009307946104591137,14.90945068252421,0.010642006197376309,0.0211608716552811
150,0.25,0.001,0.011851106291619416,0.009154318466295148,15.112798833401405,0.01078715120157131,0.015668327121862342
151,0.25,0.001,0.011893067604679371,0.009259917607931333,14.756172625817985,0.010532600018428255,0.01894180423447064
152,0.25,0.001,0.01186590556438281,0.009227868352329062,14.783561243075077,0.01055214935265887,0.017325738444924355
153,0.25,0.001,0.011801700307944111,0.009222085805279072,14.456160866211508,0.010318458862392226,0.012984350057584899
154,0.25,0.001,0.011853910042582272,0.009159432689302435,15.099850975464438,0.010777909332951063,0.013338007698101657
155,0.25,0.001,0.011796853696561862,0.009096611978782115,15.13215470536847,0.010800966956008901,0.011119404541594642
156,0.25,0.001,0.011791998938283074,0.009100049882082739,15.085682316361186,0.010767796085910912,0.016250024549663067
157,0.25,0.001,0.01176523612202885,0.009098673805107023,14.943415588307603,0.010666249527699932,0.01705195608415774
158,0.25,0.001,0.011784641803285785,0.009177064723291687,14.612863585213635,0.010430309482664978,0.018556603097489903
159,0.25,0.001,0.011871404554172654,0.00924182812918291,14.736146481237679,0.010518305839570077,0.021908639131912162
160,0.25,0.001,0.011807251416982334,0.009003650588549185,15.711378240139686,0.011214402740999063,0.015062621661594935
161,0.25,0.001,0.011729311737640996,0.009082661489042167,14.831828233237578,0.010586601165765581,0.01203918137720653
162,0.25,0.001,0.011637780171270682,0.009002809630376156,14.76637488213655,0.01053988214285264,0.013639469032308884
163,0.25,0.001,0.011756209526036945,0.009096380662625638,14.905681601194578,0.01063931591805466,0.017263402031468495
164,0.25,0.001,0.011712709215478363,0.009085978407447582,14.72020052972241,0.010506924004084518,0.013880239799618721
165,0.25,0.001,0.011762295388311984,0.009023402843659168,15.348753501321667,0.010955569950979063,0.0112281275380935
166,0.25,0.001,0.011643246651809906,0.008967799543638095,14.993205783523132,0.01070178856782522,0.014077319896646909
167,0.25,0.001,0.011667057958858036,0.009102604256194328,14.371199055252788,0.010257815171486644,0.008870155151401247
168,0.25,0.001,0.011653009358201629,0.009005926027197703,14.834254487652645,0.010588332967632152,0.013926409317978792
169,0.25,0.001,0.011683146477998974,0.008983254772132245,15.130193130992284,0.010799566831543386,0.010494156141898461
170,0.25,0.001,0.011657721911356828,0.008996832114861948,14.911626236461034,0.010643559055289816,0.014020040830863374
171,0.25,0.001,0.01172529543079784,0.00904963753908594,14.99438712752868,0.010702631782675718,0.013087273176227297
172,0.25,0.001,0.01165080163627863,0.00897942574816608,14.970390569383852,0.010685503618403891,0.018476769062025205
173,0.25,0.001,0.011627450950931166,0.009026635812473632,14.57496780324205,0.010403260387753068,0.017679763758288964
174,0.25,0.001,0.011640459682061293,0.008971815206389004,14.955084114431221,0.01067457824013649,0.016224997783345834
175,0.25,0.001,0.011604397470636345,0.008984303206344631,14.683008497006425,0.010480377228412866,0.012374212965369225
176,0.25,0.001,0.011554192977948723,0.008892646546815043,14.91530719650126,0.010646186435761072,0.014510182397706168
177,0.25,0.001,0.011552733334355822,0.008932210766127177,14.685408289187423,0.010482090142175177,0.01060808463288205
178,0.25,0.001,0.01150581717630413,0.008873619234937931,14.75083794994889,0.010528792255495282,0.013236013906342643
179,0.25,0.001,0.011567731431432974,0.008919585222012806,14.840211422643929,0.010592584884114154,0.009891491117221969
180,0.25,0.001,0.011576098859936835,0.008908797273081597,14.947558046501374,0.010669206314419253,0.012133559212088585
181,0.25,0.001,0.011572430780697092,0.008863793407505918,15.179203407786718,0.010834549184715716,0.010366577388984817
182,0.25,0.001,0.011545050880549667,0.008876988098512744,14.951823591071868,0.010672250957224745,0.008136494151715721
183,0.25,0.001,0.01158256478015786,0.008938569749627158,14.816947892447498,0.010575979937507137,0.009212439547159843
184,0.25,0.001,0.011495592011678442,0.008840249511891994,14.880539698021435,0.010621370234133787,0.010649604057627065
185,0.25,0.001,0.011492567415410113,0.008910318958425076,14.4709199477579,0.010328993538727979,0.014822826587728091
186,0.25,0.001,0.011491226589429044,0.008795108533003063,15.109045759539738,0.010784472347994102,0.012021210576806749
187,0.25,0.001,0.011500673046527065,0.008909336970161611,14.521848099254003,0.010365344824592436,0.01229425413267953
188,0.25,0.001,0.011517556714955891,0.008899184892598156,14.673356421639987,0.010473487809878649,0.012984405138662882
189,0.25,0.001,0.011443451020831817,0.00879105452065156,14.864029501086083,0.010609585653880146,0.012475037282066686
190,0.25,0.001,0.011475868462193235,0.008840375545077791,14.769302234471402,0.010541971616325054,0.012168923392891884
191,0.25,0.001,0.0115596217529796,0.008880979895034682,15.01110811322649,0.01071456681886259,0.012614686441208636
192,0.25,0.001,0.011555247165471594,0.008853795224469956,15.138936987547117,0.010805807985401227,0.012683681944119079
193,0.25,0.001,0.011470126902040478,0.008818196715943725,14.861416460197663,0.010607720528335234,0.014881076557295663
194,0.25,0.001,0.011530829454276048,0.008915899260509237,14.654068617063148,0.010459720640302032,0.011922899101461683
195,0.25,0.001,0.011388158643287476,0.008651031947163778,15.33885785575225,0.010948506677910244,0.011880803188042981
196,0.25,0.001,0.011458573436416755,0.00887025615078545,14.504930478390133,0.010353269434967975,0.011171476383294379
197,0.25,0.001,0.011390606898849255,0.008746186480204636,14.819332728876132,0.010577682176214227,0.014301566407084465
198,0.25,0.001,0.01141810431101612,0.008799088518265809,14.676964510267027,0.010476063176493237,0.012512651937348502
199,0.25,0.001,0.011451948904127719,0.008872284249306838,14.456440729515576,0.010318658622066792,0.0129785757245762
200,0.25,0.001,0.011452573116555393,0.008811854531065883,14.79858697909061,0.010562874360521491,0.013413718568959407
201,0.25,0.001,0.01141816915543837,0.008713870265773523,15.154891201268846,0.010817195718250426,0.008881543164274521
202,0.25,0.001,0.011363606482187164,0.008732374953367164,14.745421739382165,0.010524926295062216,0.012875296774187259
203,0.25,0.001,0.011415211257533493,0.008811297243304341,14.592333820378668,0.010415655831819177,0.009420322187777077
204,0.25,0.001,0.011404166772752721,0.008776891358614525,14.723252055800964,0.010509102109779418,0.011270747653075628
205,0.25,0.001,0.011365296910995635,0.008759628920424208,14.602163858502825,0.010422672275876392,0.012298402642565114
206,0.25,0.001,0.011513849563687761,0.008896682559399405,14.6666040777046,0.010468668149682083,0.02078993365700756
207,0.25,0.001,0.01148317904846969,0.008824526079904253,14.899091025379217,0.010634611724039412,0.017213370384914533
208,0.25,0.001,0.011467882144813226,0.008769003918098511,15.124514151956433,0.010795513313316511,0.017767036466726234
209,0.25,0.001,0.011329381239261025,0.008742592972050482,14.496362436597593,0.010347153773445819,0.01118148204737476
210,0.25,0.001,0.01126334401909436,0.008602137564220161,14.913400186556522,0.010644825258070322,0.010039076475160462
211,0.25,0.001,0.011360036661831018,0.008781986902946624,14.447391144583158,0.01031219924666892,0.008779231991086687
212,0.25,0.001,0.011366748503435439,0.008728139137274752,14.786767701122248,0.010554438045055138,0.01131805032491684
213,0.25,0.001,0.011440451683424344,0.008801473069622695,14.788837058521876,0.010555915102442453,0.014720239410442966
214,0.25,0.001,0.011350883423376864,0.008690147634560818,14.910764337700105,0.010642943852748112,0.012751793089721884
215,0.25,0.001,0.011309656244920236,0.00867866860511147,14.744053216738122,0.010523949476615361,0.01518912280776671
216,0.25,0.001,0.011381336461717838,0.008744058442937436,14.779306295876191,0.010549112274001564,0.018712378107011318
217,0.25,0.001,0.011456993608691983,0.008837940719709775,14.677172455832222,0.010476211603020858,0.02435533077056919
218,0.25,0.001,0.011428522346454245,0.00869521050426726,15.317479802069263,0.010933247538950223,0.01932864316872188
219,0.25,0.001,0.01143137502231609,0.008798020613318849,14.757318478878414,0.010533417900698368,0.017462172279400483
220,0.25,0.001,0.011368039394859399,0.00868159013791619,15.054860525042097,0.01074579623486231,0.015250742036317076
221,0.25,0.001,0.011408070685498626,0.008818246215303367,14.513376877686687,0.010359298271011197,0.016802012122103145
222,0.25,0.001,0.011349535051071755,0.008710581034630816,14.78869890943866,0.010555816494959786,0.020142459044499055
223,0.25,0.001,0.011255535375431319,0.00863023792506657,14.712167062492014,0.010501189908987876,0.014909504114517145
224,0.25,0.001,0.011322068720707826,0.008755973696917574,14.38039782336939,0.01026438103024225,0.01243038515427283
225,0.25,0.001,0.011279788016228476,0.008621371838603622,14.897763688987661,0.01063366430334594,0.009819228069058486
226,0.25,0.001,0.011274600993389281,0.008651270213423767,14.701145617761345,0.01049332306763836,0.010026529098727874
227,0.25,0.001,0.01127441185657109,0.008666106316948606,14.616943983274085,0.010433221972358376,0.010315400348710162
228,0.25,0.001,0.011253409366184306,0.008582670981430006,14.966818871899186,0.01068295422690877,0.011963380234582084
229,0.25,0.001,0.011216948296282893,0.008582471217089724,14.763610322898794,0.01053790886716545,0.011787037099046367
230,0.25,0.001,0.011233428484438179,0.008640837638038341,14.52887939738336,0.010370363595562712,0.012948186602443457
231,0.25,0.001,0.01127148266429099,0.008652042466973034,14.679343125530492,0.01047776097468272,0.013155706492917878
232,0.25,0.001,0.011183868353820849,0.00855817594434892,14.714380326672135,0.010502769683563265,0.012830953912011214
233,0.25,0.001,0.011251547608837903,0.008674334142809716,14.442705118767568,0.010308854474495052,0.018480273096689155
234,0.25,0.001,0.011243894556972467,0.008641209453344345,14.585446714240813,0.010410739981613714,0.012488983172391142
235,0.25,0.001,0.011198374416644329,0.008638655314239387,14.344666525582287,0.01023887689192169,0.015130963376058
236,0.25,0.001,0.011251782467501742,0.00855966847146226,15.086606195039838,0.010768455528222583,0.012429395291422094
237,0.25,0.001,0.011245703864320417,0.008583697951703427,14.917879657210591,0.01064802259615317,0.009166078775056772
238,0.25,0.001,0.011194754026342775,0.008610805618428738,14.480446013334756,0.010335793014514458,0.011698499122368438
239,0.25,0.001,0.011283048506930609,0.008666498525607809,14.66314640223423,0.010466200144349914,0.012198437005281448
240,0.25,0.001,0.011163229740738311,0.008465644590138831,15.117266842137987,0.01079034035841398,0.01092146649690611
241,0.25,0.001,0.011175707887823337,0.00858448564170677,14.5212099039666,0.010364889296193149,0.010251679391201054
242,0.25,0.001,0.011234717121539272,0.00856620387531051,14.954348127418589,0.01067405291036302,0.010515392292290926
243,0.25,0.001,0.011222683641815855,0.008623994164447361,14.563055626699857,0.01039475776352595,0.011006180197000504
244,0.25,0.001,0.011258223816473907,0.008594040019072104,14.930085690222054,0.010656734968038583,0.01608512523983206
245,0.25,0.001,0.011204476468265057,0.008601059815106548,14.589546934466496,0.010413666619890433,0.012105417038713182
246,0.25,0.001,0.011246720346334938,0.008572132143879606,14.98839200100052,0.010698352605996088,0.010783311644835132
247,0.25,0.001,0.011142355302853561,0.008502703943402967,14.792606977658851,0.010558605979770772,0.008199124264397792
248,0.25,0.001,0.011149614605460769,0.00856674056082407,14.474426492352352,0.010331496425661921,0.01202667923644185
249,0.25,0.001,0.01117833412174031,0.00858004587032249,14.560807878725997,0.010393153375250534,0.016321770048567226
250,0.25,0.001,0.011080921140159959,0.008476050178929467,14.597698363188272,0.010419484913053728,0.011390657962432929
251,0.25,0.001,0.011173489451338755,0.008627148397336496,14.26969587023013,0.010185364646845203,0.01008518020223294
252,0.25,0.001,0.01114063548951227,0.008515832858664966,14.709394365827613,0.010499210825001866,0.010531443836433547
253,0.25,0.001,0.011198423167464331,0.008576282065048397,14.694477616069474,0.010488563608900409,0.010012241346495492
254,0.25,0.001,0.01118417078994702,0.008569126426477298,14.654708372098263,0.010460177282011608,0.011210843521569456
255,0.25,0.001,0.011130618088156264,0.008487930016539922,14.80962293393144,0.010570751558837573,0.009997318964451551
256,0.25,0.001,0.011205057900781943,0.008631230749746907,14.423727311820628,0.010295308573747771,0.017590757991586412
257,0.25,0.001,0.011204059453350361,0.008525929030762098,15.008243382534134,0.010712522043207804,0.014914391429296561
258,0.25,0.001,0.011187420374600687,0.008593279859660385,14.537564037002136,0.01037656248180024,0.011737909966281481
259,0.25,0.001,0.011130296520749542,0.008450911702396714,15.015272479191005,0.010717539242820132,0.010559805535844393
260,0.25,0.001,0.011053856914845582,0.008536515631234256,14.107180657787858,0.01006936520898491,0.014631824102252722
261,0.25,0.001,0.011077708555994747,0.008506599404614106,14.408495769322476,0.010284436666183066,0.009704457396375281
262,0.25,0.001,0.011167218081792381,0.00852707794336515,14.795344735974464,0.010560560125606328,0.012903329118021898
263,0.25,0.001,0.011147738660677014,0.008545434755212236,14.58331076007023,0.01040921538905798,0.010260414997381824
264,0.25,0.001,0.011109339569425471,0.008477100101517183,14.751069692807777,0.010528957667957015,0.0114889174167599
265,0.25,0.001,0.011144528174163582,0.008509295035118812,14.767846847248968,0.010540932796037808,0.01288405992090702
266,0.25,0.001,0.011197686500011761,0.008515411439551928,15.031469505523967,0.010729100289453224,0.012691086690340723
267,0.25,0.001,0.011157469919699932,0.008504532643149947,14.867059475907656,0.010611748376807749,0.009600866519446884
268,0.25,0.001,0.011169247999439172,0.008559318555292681,14.626043961426921,0.010439717317221214,0.011289631482213736
269,0.25,0.001,0.01109718841230758,0.008388383383645075,15.180143837616823,0.010835220440839987,0.009626623509185655
270,0.25,0.001,0.011159823206470949,0.008612708937133028,14.274028091787178,0.010188456882075073,0.012011542650205749
271,0.25,0.001,0.01113174347398437,0.00845539845769929,14.99823747617062,0.01070538006864427,0.01295730538134064
272,0.25,0.001,0.011061815692930022,0.008449710235347815,14.638238514695212,0.010448421495142907,0.014707209010209357
273,0.25,0.001,0.011134598578248068,0.008561296945559644,14.420781768371011,0.01029320611589651,0.021587237316582884
274,0.25,0.001,0.0111577705018849,0.008497506867502337,14.908116714976659,0.010641054043523668,0.014960573320942265
275,0.25,0.001,0.011196918132775855,0.00856619473616375,14.742574130263284,0.010522893740373507,0.015785319797162498
276,0.25,0.001,0.011106896544937218,0.008481821915674433,14.710918479990736,0.010500298700921297,0.016391065237777575
277,0.25,0.001,0.011121964456391669,0.00852451590977818,14.556101638580037,0.010389794174575329,0.018846478180161545
278,0.25,0.001,0.011192953849437639,0.008534258527454928,14.899329283527125,0.010634781786957263,0.017811831486012255
279,0.25,0.001,0.01115401160563821,0.008525668782678164,14.729233394159335,0.0105133714447961,0.01363973246355142
280,0.25,0.001,0.0110841586959557,0.008465200279639146,14.676643309192123,0.01047583391091515,0.012845592307192939
281,0.25,0.001,0.011079290585818692,0.00847755290707138,14.580137190417709,0.01040695017160436,0.009625090552227837
282,0.25,0.001,0.011119290020003498,0.008535557182801662,14.479238073402476,0.010334930816133101,0.01171693844454629
283,0.25,0.001,0.011040489528780785,0.008422445706048302,14.671518067333185,0.0104721756369259,0.013047026071165289
284,0.25,0.001,0.011003938129293584,0.008422840874050265,14.46446886686521,0.010324388912823133,0.010812720017773765
285,0.25,0.001,0.01105683235991224,0.008476471101917396,14.46034377980455,0.010321444525199536,0.011222838357623135
286,0.25,0.001,0.011092442801552955,0.008527896201638418,14.371719547521288,0.010258186686310698,0.013214463767196451
287,0.25,0.001,0.011041793188898363,0.00840681852233187,14.766398260526568,0.010539898829783418,0.012963970590915
288,0.25,0.001,0.01104109927524473,0.008437247424621448,14.591986852271534,0.010415408174355127,0.011848396089460169
289,0.25,0.001,0.01095858309417963,0.008368535593987625,14.514627224931093,0.010360190738708846,0.013228341804019042
290,0.25,0.001,0.01107607861963388,0.008483369673698027,14.52954033824885,0.010370835359206888,0.01708007843366691
291,0.25,0.001,0.011069943449486083,0.008448467763993784,14.690749712079485,0.010485902720970369,0.020502341778150628
292,0.25,0.001,0.011083005997134703,0.008440451652995336,14.808874887840771,0.010570217621585132,0.015503762289881706
293,0.25,0.001,0.011102300659518376,0.008453692109367557,14.842801700128573,0.010594433761690631,0.016038163165960993
294,0.25,0.001,0.011052111111511694,0.008430468954285172,14.691682967070108,0.010486568855867314,0.014875267233167375
295,0.25,0.001,0.010987740871714098,0.00840532353200088,14.471866429409134,0.010329669114496171,0.014402200002223253
296,0.25,0.001,0.011061196903062759,0.008474616638480504,14.495195825523306,0.010346321074606214,0.012946247522320067
297,0.25,0.001,0.01101617153002837,0.00839250224041883,14.703043777251912,0.010494677928088446,0.011482907725231988
298,0.25,0.001,0.011022470082008393,0.008422903794899721,14.567969099383488,0.010398264881786929,0.011699006094464235
299,0.25,0.001,0.01100054248366679,0.008425323301316978,14.431527895348095,0.010300876442075729,0.011219482336725508
300,0.25,0.001,0.011013783740802346,0.008374501833535521,14.790536247681235,0.010557127942670403,0.011356121860444546
301,0.25,0.001,0.011052305827561382,0.008450689655946237,14.57945616891451,0.010406464074885446,0.01168866056416716
302,0.25,0.001,0.01100327672489057,0.008346859531076712,14.886561661123116,0.010625668566112145,0.01157492638698646
303,0.25,0.001,0.010947987733182505,0.008404991615598446,14.250949939834737,0.01017198425398625,0.008627419359982014
304,0.25,0.001,0.010981019455765453,0.008393868951945105,14.498391026648406,0.010348601732083088,0.010881143622100353
305,0.25,0.001,0.010976092054325844,0.008346465764410584,14.736425845422477,0.010518505242985351,0.010218679106661252
306,0.25,0.001,0.010926238365610626,0.008358813308736432,14.387849816652102,0.010269700083263457,0.012620872684887477
307,0.25,0.001,0.010972434620016088,0.008393812968143236,14.450595107033989,0.010314486157768728,0.01310410157644323
308,0.25,0.001,0.010948701726847162,0.008383237704565035,14.376860609678465,0.010261856252447155,0.015398444474807807
309,0.25,0.001,0.01094100959424939,0.008327840953612718,14.644196109236958,0.010452673882396115,0.012285889791590827
310,0.25,0.001,0.011084841868935902,0.008539408671660958,14.26460824948605,0.010181733225900108,0.016509720589965582
311,0.25,0.001,0.011095042236010048,0.008459601472958784,14.769011034029667,0.010541763764475137,0.018483698035457304
312,0.25,0.001,0.011079614494587773,0.008451463802604475,14.728156205649688,0.010512602573625759,0.020133565845234052
313,0.25,0.001,0.011068636812617846,0.008501166469095467,14.388103912923938,0.010269881451052062,0.015728617885283062
314,0.25,0.001,0.011037148361172632,0.008423176759453577,14.648695660528736,0.010455885553553701,0.015321941114962101
315,0.25,0.001,0.011071533939548742,0.0084528712573174,14.674984807165984,0.010474650112181287,0.015124715066381864
316,0.25,0.001,0.011034913683118664,0.008477010598806577,14.334488530025304,0.010231612084243615,0.010695124909813915
317,0.25,0.001,0.010987881414383371,0.008368191178714004,14.680743288771014,0.010478760377423993,0.010749027798218387
318,0.25,0.001,0.010921700265711156,0.008328697330831924,14.531188973756594,0.010372012115457954,0.01005408533715776
319,0.25,0.001,0.010953013202018826,0.008405101111280584,14.278499050675151,0.010191648144664634,0.011571125726082496
320,0.25,0.001,0.011002487398544761,0.008368698470990792,14.759753949174257,0.0105351562806383,0.010789058836443084
321,0.25,0.001,0.010985142098757152,0.00840909789516547,14.436151451039537,0.01030417662458211,0.012782047901834761
322,0.25,0.001,0.010957577553029372,0.008373694476958748,14.480081576053227,0.01033553288797518,0.01393859474254506
323,0.25,0.001,0.011011002707147152,0.0083899576408423,14.688336408026865,0.010484180162760075,0.0119948904030025
324,0.25,0.001,0.010995289519707734,0.008370174660791303,14.711142040858759,0.010500458273275346,0.011005981692246028
325,0.25,0.001,0.010953331575076157,0.008341435961007514,14.637062999689691,0.010447582440891999,0.00988335202315024
326,0.25,0.001,0.011022045781888137,0.008394374259721452,14.725470721164596,0.010510685739589291,0.01164994781304683
327,0.25,0.001,0.010977859208447354,0.008411204233487075,14.383534538411649,0.010266619941764202,0.011125430464744568
328,0.25,0.001,0.011000640794774082,0.00836331894290503,14.779552201244318,0.010549287795320713,0.010744359344244003
329,0.25,0.001,0.010962809340279793,0.008363665064152714,14.565604726844859,0.01039657724971082,0.01336166581937245
330,0.25,0.001,0.010950919902213266,0.008358657560267739,14.527038315746271,0.010369049475907402,0.011144360660442285
331,0.25,0.001,0.010975567876387423,0.008388134694405806,14.499975641197134,0.010349732791718153,0.011015766965491431
332,0.25,0.001,0.010953880585381917,0.008318658652671866,14.76778347692757,0.010540887563831243,0.01158405574304717
333,0.25,0.001,0.010950151064964098,0.008317215498710904,14.754970318803164,0.010531741840687482,0.009106643963605165
334,0.25,0.001,0.01094114315635133,0.008262794386491041,15.00946774883805,0.010713395966336938,0.011297149317605155
335,0.25,0.001,0.010914194963385011,0.008315070575782072,14.565492736959012,0.010396497314032128,0.01494870348168271
336,0.25,0.001,0.010915851716613658,0.008369617077095486,14.269099030539254,0.010184938637072986,0.012185792704778058
337,0.25,0.001,0.010944855930370706,0.0083320332760705,14.642259018443456,0.010451291233721238,0.011681330257228442
338,0.25,0.001,0.01090012455933562,0.008295407153178598,14.596836624858536,0.010418869825023937,0.009792252909392118
339,0.25,0.001,0.010963125302343169,0.008359138644953197,14.592741012573242,0.010415946475783899,0.012184251565486193
340,0.25,0.001,0.010951839370008942,0.008284828912849738,14.94592864491115,0.010668043286874483,0.011833694497389453
341,0.25,0.001,0.01095399890686864,0.008367293227080987,14.495897319829352,0.01034682178431788,0.008907400271190065
342,0.25,0.001,0.010852525506830104,0.008294780064095682,14.333606532800978,0.010230982535903625,0.009209332788097007
343,0.25,0.001,0.010871005314184683,0.008227980382322708,14.811511226903612,0.010572099376804861,0.008661222378058093
344,0.25,0.001,0.010902396960305833,0.008321511332885684,14.463282790139457,0.010323542319871133,0.008910883284573044
345,0.25,0.001,0.010915176934240578,0.008302731900780557,14.640142217974796,0.010449780312615843,0.0107478726921337
346,0.25,0.001,0.010940444777571709,0.008314140262865574,14.717810826880909,0.010505218291849328,0.010298964035298144
347,0.25,0.001,0.010947038080090675,0.008367587081113152,14.455243315652153,0.010317803936939438,0.012953547627798148
348,0.25,0.001,0.010908380472841107,0.008303764633068415,14.596267281291642,0.010418463441321657,0.010686792765877076
349,0.25,0.001,0.010913431592216001,0.008315416000713812,14.559279869650013,0.010392062719236268,0.010198828897305898
350,0.25,0.001,0.010902731722899687,0.008316754702931252,14.491813632929437,0.01034390694713022,0.011535406777901309
351,0.25,0.001,0.010887305469852742,0.008341473109463107,14.266844722712152,0.010183329566532586,0.011201849606420313
352,0.25,0.001,0.01092410127623616,0.008291342887574825,14.753977784486574,0.010531033393637812,0.012760619499853678
353,0.25,0.001,0.010972943966424911,0.00834899239033182,14.704624211676768,0.01049580600405194,0.014459010612751757
354,0.25,0.001,0.010967995275125325,0.008390813243410018,14.442529740734635,0.01030872929388625,0.013907752398933684
355,0.25,0.001,0.010960121752224236,0.008273161643088977,15.057724587271146,0.010747840533384116,0.011343927521790777
356,0.25,0.001,0.010944730436829763,0.008331731632003717,14.643245037471022,0.010451995030314791,0.014283149636217527
357,0.25,0.001,0.010888833369816019,0.008311673446131922,14.442403802247805,0.010308639402032695,0.011535589516695057
358,0.25,0.001,0.01091402979724318,0.008294133077784677,14.681901735680126,0.010479587248879462,0.011291278725756066
359,0.25,0.001,0.010893508095607579,0.008282761603036773,14.630622257696134,0.010442985194643921,0.01130554492452315
360,0.25,0.001,0.01089147283373592,0.008350044127692965,14.242166831114583,0.010165715082879787,0.010122090045894896
361,0.25,0.001,0.010965726799636243,0.008275961803672748,15.073442013464241,0.010759059253008024,0.010774889029562473
362,0.25,0.001,0.010869875228223956,0.00828409380340409,14.490718271130714,0.010343125104304579,0.01242478477901646
363,0.25,0.001,0.0109877877860008,0.0083317868063383,14.884228581580047,0.010624003270221304,0.010338372151766504
364,0.25,0.001,0.01102249618515233,0.008331183178750711,15.08211874739032,0.010765252496352833,0.01393381053847926
365,0.25,0.001,0.01090460805065721,0.008255964932771765,14.842996846849672,0.010594573052712114,0.010587169855300869
366,0.25,0.001,0.010914205147005687,0.008269346353954802,14.821789046314276,0.010579435436341381,0.01122253155335784
367,0.25,0.001,0.010938274787268906,0.008302279634871216,14.772116696723154,0.010543980511579697,0.013831042418522494
368,0.25,0.001,0.010893312700649846,0.008279354807650931,14.648620623294438,0.010455831993786179,0.017117118729012355
369,0.25,0.001,0.010977777843929339,0.008417362286317571,14.348568996536397,0.010241662381539184,0.019580407600317682
370,0.25,0.001,0.010937962446048438,0.008315641180586034,14.695489081266885,0.010489285568356092,0.013859187385865621
371,0.25,0.001,0.01089025348007122,0.008222825825214386,14.948264879601025,0.010669710834832995,0.012311390601098537
372,0.25,0.001,0.010861934676209342,0.008372447470847134,13.95108559866932,0.009957948321676888,0.016548849376184598
373,0.25,0.001,0.011002953521141383,0.008368467294097504,14.763659682229301,0.01053794409866474,0.017597666875060116
374,0.25,0.001,0.010927149016305666,0.008265542554033695,14.915644155484493,0.010646426948953956,0.016737823906753744
375,0.25,0.001,0.010849468984475759,0.008327973993477698,14.13045737008068,0.010085979564654304,0.010648353424455439
376,0.25,0.001,0.010841296219797892,0.008219157441336418,14.694465280693269,0.010488554804206473,0.009934282329465662
377,0.25,0.001,0.010890959178872197,0.008274659383867946,14.661743761223054,0.010465198973035727,0.012691790238022804
378,0.25,0.001,0.010879631667772185,0.008239218677942441,14.7968741711055,0.010561651799504282,0.011793516177151884
379,0.25,0.001,0.010883124014275653,0.008287021359341723,14.548559206668461,0.010384410568642727,0.008833752346358128
380,0.25,0.001,0.01079181076036157,0.008128072082926737,14.92759078016905,0.010654954161434011,0.012655558796333415
381,0.25,0.001,0.010830879777182485,0.008272785201633924,14.335562073181723,0.010232378353448767,0.011367702257952519
382,0.25,0.001,0.010861527374902062,0.008271616552825843,14.513859347762349,0.010359642646511312,0.010173404256680183
383,0.25,0.001,0.01085372431047052,0.008183813118593437,14.96218248171227,0.010679644883449158,0.010136297903954983
384,0.25,0.001,0.010873192277188613,0.008296842242930537,14.437864437281528,0.01030539931283478,0.012484042240040643
385,0.25,0.001,0.010862971403609926,0.00822958986440273,14.757470166571787,0.010533526171714337,0.011403542011976242
386,0.25,0.001,0.01090786872414228,0.00831238032431803,14.545117877354132,0.010381954230802378,0.010570178739726543
387,0.25,0.001,0.010840457455020085,0.008220466680685493,14.682428279769756,0.010479963083347435,0.00873008110959615
388,0.25,0.001,0.010923649819794103,0.00832905022375216,14.540135356867426,0.010378397827885386,0.011195270278091942
389,0.25,0.001,0.010909385674537342,0.008282641984661606,14.720272376158528,0.010506975286337279,0.01240523811429739
390,0.25,0.001,0.010874164177574844,0.00823442781535543,14.793081194440894,0.010558944464269018,0.012087475841066666
391,0.25,0.001,0.010916583884124444,0.008324058769949686,14.528510690849519,0.010370100421734132,0.013442830182611942
392,0.25,0.001,0.010834548927007992,0.008214559157979544,14.682421969476147,0.010479958579212096,0.01072282250970602
393,0.25,0.001,0.010919338509997475,0.008309528714689974,14.625373920547627,0.010439239058206729,0.012821542232164316
394,0.25,0.001,0.01084272154371872,0.008302312875253575,14.23645135398223,0.01016163551319217,0.015967169776558876
395,0.25,0.001,0.010939265993014674,0.008361121478586276,14.447920834906748,0.010312577326842789,0.020179032614188536
396,0.25,0.001,0.010947750080550942,0.008326351982062665,14.690314061173769,0.010485591763864217,0.017056597928915705
397,0.25,0.001,0.010853059720422062,0.0082366377393776,14.662428811331775,0.01046568794527607,0.01675534261656659
398,0.25,0.001,0.010845300489079172,0.00827019633812325,14.430883871060665,0.010300416753076849,0.011949519161134958
399,0.25,0.001,0.010842812569620454,0.008258631413750281,14.481749971336294,0.010336723748277155,0.014358454650001866
400,0.25,0.001,0.01083030103418593,0.008173809604388531,14.88697764138195,0.010625965482785119,0.01272338003452335
401,0.25,0.001,0.010879295817184671,0.008228741063971385,14.853708178083473,0.010602218542529246,0.012915503632809435
402,0.25,0.001,0.010780190596374396,0.008175134998267499,14.598731709417896,0.01042022249066231,0.010940683872572013
403,0.25,0.001,0.010831766683503847,0.008282526065464889,14.285945482343157,0.010196963227939441,0.010533376530344998
404,0.25,0.001,0.010744099052640323,0.008230256047273907,14.087575404443474,0.010055371452136669,0.009728015333946263
405,0.25,0.001,0.010806622323101369,0.008225291897760374,14.465776719779612,0.010325322426680664,0.011547233244138104
406,0.25,0.001,0.010854175766912576,0.008200698667075311,14.87008628666958,0.01061390884130591,0.014015803313148873
407,0.25,0.001,0.010858077312184272,0.008258497055236982,14.568048815860926,0.010398321781485314,0.016474352218210697
408,0.25,0.001,0.01080765240938864,0.008259086456219448,14.282163940857505,0.010194264054859032,0.010533453896641731
409,0.25,0.001,0.010725388677668906,0.008074309267799989,14.856648552083524,0.010604317310552122,0.012378575612923928
410,0.25,0.001,0.010808007016986887,0.008283392012676347,14.147943024323366,0.010098460402800404,0.016442729027143548
411,0.25,0.001,0.010790204133176915,0.00821726459348313,14.418752563333957,0.0102917577182969,0.012864099948533944
412,0.25,0.001,0.010793825010899628,0.008154791962599085,14.789142082784778,0.01055613282140241,0.013227427777435099
413,0.25,0.001,0.010824988126128076,0.008254661903690511,14.404109143765174,0.010281305598690345,0.009681042616388627
414,0.25,0.001,0.010791694345039743,0.008189066113016315,14.58513001415217,0.010410513928731028,0.008045236779642957
415,0.25,0.001,0.010734958704735073,0.008166481357798955,14.393747115803656,0.01027390943312181,0.00985250628686377
416,0.25,0.001,0.010774922008826354,0.00823193892105439,14.250877335806873,0.010171932430982779,0.010329476158533777
417,0.25,0.001,0.010806919345371077,0.008114189083609625,15.090060002335878,0.010770920772545238,0.009590227689061846
418,0.25,0.001,0.01077060695633153,0.008252365462412344,14.112224694724395,0.010072965520859668,0.0097510684946818
419,0.25,0.001,0.010726981778916355,0.008144434141082185,14.47259608830247,0.010330189927410758,0.011407426824527127
420,0.25,0.001,0.010767843487246014,0.008189663195234035,14.44812258604531,0.010312721331938123,0.010436398908495903
421,0.25,0.001,0.010794552626244933,0.008185541814314985,14.620896981141277,0.010436043526867436,0.009613414494586843
422,0.25,0.001,0.010816511254165774,0.008246262026863677,14.403678136451221,0.010280997956067966,0.014696106181613036
423,0.25,0.001,0.010826663801742492,0.008265354992630326,14.353574414119542,0.010245235127851207,0.018520362276051725
424,0.25,0.001,0.010794033104919385,0.008194890064753104,14.565598113514552,0.010396572529275198,0.014380075503140688
425,0.25,0.001,0.01075172883884929,0.008155618446104438,14.548602041797103,0.010384441143324128,0.013907331441129957
426,0.25,0.001,0.010794588155765956,0.008298556085362613,13.987762647254444,0.009984127514100246,0.011958696147693055
427,0.25,0.001,0.010782326858873679,0.008118200028820015,14.929765719119633,0.010656506580385177,0.010375012976250477
428,0.25,0.001,0.010757229282198666,0.008159980338902395,14.554983281643592,0.010388995918375155,0.009423003398946353
429,0.25,0.001,0.010760638967295674,0.008185624858695213,14.430379457562884,0.010300056714891424,0.009025944995560817
430,0.25,0.001,0.010721830424861373,0.008139947063733484,14.468875519583158,0.010327534275219956,0.0108635989683015
431,0.25,0.001,0.010759065963467148,0.008211331307087268,14.277504359450296,0.010190938158065878,0.0120624341070652
432,0.25,0.001,0.010747242658007368,0.008125775215155054,14.690703739629727,0.010485869906944844,0.010111435183456965
433,0.25,0.001,0.010745415986280576,0.008106726709161407,14.787214386128934,0.010554756878036356,0.010924479724573237
434,0.25,0.001,0.010681082242142374,0.008112090108829123,14.396632773853907,0.010275969146219777,0.010099771698670728
435,0.25,0.001,0.010756498124345999,0.008223083096547661,14.197258102559598,0.010133660315888363,0.011530407039182526
436,0.25,0.001,0.01075820892909977,0.008122457913775867,14.77074933274884,0.010543004520163341,0.010509681355740343
437,0.25,0.001,0.010716529066944234,0.008116364766295268,14.57132064070657,0.010400657131125318,0.00865379867276975
438,0.25,0.001,0.01072054080421401,0.008126978457809608,14.534323727973154,0.010374249627389831,0.009790172002145223
439,0.25,0.001,0.010780123323550292,0.008167331811980667,14.642083881057312,0.010451166224880308,0.0115806855527418
440,0.25,0.001,0.010749154019160805,0.008180984060898006,14.392024673034097,0.010272679995027907,0.011241709281291281
441,0.25,0.001,0.010771947059884806,0.008206901593116399,14.374514731291299,0.010260181821050178,0.011118034566087382
442,0.25,0.001,0.01077141181922683,0.008119503053549294,14.861297259820956,0.010607635445982125,0.012219451567424195
443,0.25,0.001,0.010733744495104407,0.008156301344910237,14.443990841090121,0.010309772192070037,0.010841471209589924
444,0.25,0.001,0.010785014516560831,0.00817702864688412,14.615154159403293,0.010431944439260023,0.009390267809586865
445,0.25,0.001,0.010752114597882065,0.008121280774265249,14.743192877724907,0.010523335387383944,0.009392205758818559
446,0.25,0.001,0.010765365916783008,0.008200410326995025,14.374010094972414,0.010259821623820425,0.00882058238078441
447,0.25,0.001,0.010750995548529046,0.008129478554093392,14.690980153663135,0.01048606720461323,0.011183841153979301
448,0.25,0.001,0.010773854190918886,0.008195922370547446,14.446729606557115,0.010311727056785949,0.012210769578814507
449,0.25,0.001,0.010779312420114179,0.008208013439951378,14.409559597478848,0.010285196001055567,0.011102938359337193
450,0.25,0.001,0.010754732336744528,0.008147812457145931,14.609179265031191,0.010427679703805275,0.013022556501839842
451,0.25,0.001,0.010773462330417656,0.008204020507564054,14.39915115142537,0.010277766703372855,0.012042897287756205
452,0.25,0.001,0.010772520458656494,0.008174874071275519,14.557211127236625,0.010390586100811295,0.009260047426713365
453,0.25,0.001,0.010802616034503852,0.008148576185176863,14.873239962854118,0.010616159859282026,0.014661977200635843
454,0.25,0.001,0.010867011176300383,0.008283186103347863,14.479755829427845,0.010335300377892823,0.018800455145537853
455,0.25,0.001,0.01086172320505726,0.00822647535633818,14.767928221515406,0.010540990879025986,0.01727747903870685
456,0.25,0.001,0.010782427850797355,0.008153552676890498,14.732217280664177,0.010515501270995129,0.014367012174001761
457,0.25,0.001,0.010779025677208589,0.008201650004381332,14.443613818872755,0.010309503082707177,0.015310272907039948
458,0.25,0.001,0.010815644488783083,0.008224375145596879,14.52147325177059,0.010365077267502206,0.012916626009557928
459,0.25,0.001,0.010723636624899424,0.008123809062640801,14.56943390748211,0.010399310426468316,0.01587843509124858
460,0.25,0.001,0.010810987762758665,0.0082301733597556,14.462884867302725,0.01032325829215041,0.017787933283086334
461,0.25,0.001,0.01079485582831864,0.008230473767861585,14.370797469237141,0.010257528529077188,0.018910820595920086
462,0.25,0.001,0.010814178386859805,0.008189014811939168,14.711416699061884,0.010500654317674435,0.015373689920774527
463,0.25,0.001,0.010734136930066291,0.008142167558702075,14.525396560954157,0.010367877630945151,0.01370133286608117
464,0.25,0.001,0.01082620150888356,0.008287477193870277,14.227012589713123,0.010154898350972965,0.011903173955423492
465,0.25,0.001,0.010806832993490117,0.008130246555763427,14.999591488704503,0.010706346530124556,0.010826392631445612
466,0.25,0.001,0.010800818451375606,0.008210777113579702,14.514592553967628,0.010360165991411582,0.012911169390593256
467,0.25,0.001,0.010712750978489345,0.008121679293287692,14.520365857632362,0.010364286836282913,0.011151000724307128
468,0.25,0.001,0.010702614933600493,0.008120294242540252,14.4713258921543,0.010329283292044468,0.00945210357063583
469,0.25,0.001,0.010665540757510706,0.008123931823141663,14.24317662961015,0.010166435852683904,0.011962975508400373
470,0.25,0.001,0.010772361324351524,0.008229236736475864,14.251669625255548,0.010172497948076765,0.011658626741596631
471,0.25,0.001,0.010723821871052279,0.008031363015837758,15.088538927452587,0.010769835065990427,0.011790486318724496
472,0.25,0.001,0.010684135631074973,0.008162234326667874,14.132735956495054,0.010087605964664565,0.01079620301191296
473,0.25,0.001,0.010725978901174582,0.008187857108347327,14.223634710935789,0.010152487302595138,0.015780498938901082
474,0.25,0.001,0.010736173123260525,0.008123872183681092,14.639336425567341,0.010449205157435647,0.014956314249762468
475,0.25,0.001,0.010739931619125549,0.008147430410347531,14.52837680210577,0.010370004855178994,0.013216022535094194
476,0.25,0.001,0.010632541248244103,0.008045150689502185,14.499737552393263,0.010349562849673992,0.012086591483759028
477,0.25,0.001,0.010703275859286295,0.008135958835830756,14.387244964314398,0.010269268354257243,0.01479799220604556
478,0.25,0.001,0.010701641196680961,0.008128597070332443,14.419340267359653,0.010292177207251715,0.01327822171151638
479,0.25,0.001,0.01071251716429942,0.008110816007323354,14.57993289020574,0.010406804347041927,0.013700607365795545
480,0.25,0.001,0.010694396690787556,0.008129878439635875,14.37155987391962,0.010258072715146054,0.012771886307746172
481,0.25,0.001,0.010734515795571225,0.008160930614326602,14.422370883906,0.01029434038822698,0.008832563779183797
482,0.25,0.001,0.010699049186692617,0.00810772081332229,14.52180416784554,0.010365313467412948,0.009339649895472186
483,0.25,0.001,0.01069970404572576,0.00810954048707385,14.515277042567172,0.010360654562860222,0.01007777452468872
484,0.25,0.001,0.010667915281918005,0.00804142274449919,14.718865171771183,0.010505970857795277,0.009365044268114226
485,0.25,0.001,0.010646551377444623,0.008104718507868107,14.244430978721548,0.010167331176817665,0.013352222541081054
486,0.25,0.001,0.010671759546499387,0.008062671426091796,14.6213300651479,0.010436352651782941,0.01159268371494753
487,0.25,0.001,0.010701282141364623,0.008125883892665957,14.432532123316115,0.010301593235771674,0.00871669574241553
488,0.25,0.001,0.010690329666031855,0.008087500886312712,14.586251971877624,0.010411314755087527,0.01256018624241863
489,0.25,0.001,0.010742758130915811,0.008161928696192313,14.462969066940735,0.010323318391820654,0.013228645814316613
490,0.25,0.001,0.010644271229959536,0.008039716056713435,14.595928316918489,0.010418221496729827,0.012704541108437948
491,0.25,0.001,0.010704233781129958,0.00811804665652948,14.492992267430386,0.010344748228001703,0.014657660121364253
492,0.25,0.001,0.010676140766416755,0.008088453281148572,14.501399886942355,0.010350749383970275,0.01503302822155612
493,0.25,0.001,0.010656963337526143,0.008135093658918811,14.132558733503394,0.010087479467168732,0.012103853348110403
494,0.25,0.001,0.010632538027782863,0.008032372299686213,14.571327717504769,0.010400662182373139,0.011270463865782534
495,0.25,0.001,0.010666746646165848,0.008170557408550076,13.988643824497116,0.009984756477157113,0.011332700960338116
496,0.25,0.001,0.010684168810529686,0.008121770841426382,14.359677787139036,0.010249591568264837,0.009009716167513813
497,0.25,0.001,0.010671726488899962,0.008064627116458995,14.610185453824908,0.010428397897091298,0.010346584155091218
498,0.25,0.001,0.010664659691539324,0.008099548031236524,14.374886414715062,0.010260447119710966,0.009626880687262331
499,0.25,0.001,0.010611864390008361,0.008005096046166999,14.608330307719864,0.010427073738558076,0.011804774270526
500,0.25,0.001,0.010705579420394986,0.008140519322287813,14.374596907713704,0.010260240476597933,0.014748109105442251
