365.286	209.445
368.238	225.304
371.189	221.794
374.139	232.514
377.087	241.293
380.034	245.535
382.979	229.905
385.923	215.375
388.866	205.457
391.806	204.776
394.745	192.682
397.684	207.895
400.62	209.33
403.555	210.086
406.49	214.409
409.421	219.435
412.353	220.462
415.282	210.349
418.209	216.736
421.137	204.256
424.062	212.46
426.985	215.564
429.908	221.484
432.829	223.202
435.748	219.86
438.666	226.6
441.583	218.544
444.498	213.758
447.412	210.067
450.324	212.853
453.235	215.815
456.145	213.873
459.052	212.344
461.959	211.811
464.865	196.721
467.769	196.867
470.671	199.898
473.572	197.399
476.471	198.869
479.37	198.471
482.266	201.351
485.162	200.192
488.056	200.303
490.948	207.097
493.839	209.817
496.73	229.235
499.618	253.92
502.505	274.651
505.39	282.667
508.275	292.971
511.157	289.153
514.039	293.697
516.919	289.784
519.798	303.811
522.674	310.145
525.55	323.009
528.425	331.277
531.297	320.54
534.169	328.717
537.039	299.127
539.908	270.445
542.775	244.178
545.642	228.586
548.506	208.586
551.369	197.778
554.231	193.751
557.092	190.299
559.951	184.319
562.808	176.529
565.664	175.875
568.519	171.344
571.373	165.51
574.225	163.292
577.076	164.739
579.925	168.621
582.773	163.054
585.62	156.931
588.466	161.165
591.309	153.493
594.152	157.621
596.993	159.346
599.832	156.644
602.671	158.393
605.508	146.597
608.343	156.736
611.178	156.314
614.011	153.899
616.842	149.847
619.672	154.163
622.501	154.575
625.329	162.877
628.155	165.695
630.98	162.92
633.802	153.559
636.624	158.703
639.445	161.031
642.264	156.762
645.082	156.436
647.898	152.375
650.714	155.219
653.527	152.136
656.34	153.017
659.151	145.699
661.961	146.142
664.769	149.569
667.576	148.226
670.382	153.433
673.186	151.593
675.989	148.262
678.791	155.709
681.591	164.46
684.39	180.976
687.187	201.239
689.983	223.033
692.779	215.407
695.572	205.14
698.363	194.107
701.155	180.889
703.944	161.379
706.733	152.214
709.519	148.096
712.305	151.74
715.089	150.686
717.871	148.28
720.653	143.726
723.433	151.337
726.212	146.775
728.989	138.673
731.765	136.339
734.54	141.234
737.313	144.664
740.085	137.37
742.856	137.964
745.625	140.981
748.394	147.811
751.16	137.389
753.926	138.589
756.689	147.182
759.452	145.278
762.214	145.37
764.974	143.486
767.733	151.475
770.49	145.77
773.246	145.292
776.001	150.644
778.755	151.704
781.507	150.866
784.258	155.46
787.007	162.102
789.756	182.445
792.502	200.859
795.247	220.657
797.992	229.949
800.735	233.788
803.477	215.924
806.217	205.081
808.956	177.846
811.694	163.491
814.43	155.203
817.165	152.791
819.899	143.427
822.631	154.353
825.362	133.832
828.092	146.111
830.82	142.471
833.548	140.427
836.274	134.486
838.998	138.971
841.721	140.671
844.444	141.319
847.165	134.768
849.884	144.133
852.601	138.117
855.318	137.541
858.034	134.027
860.749	136.23
863.461	127.519
866.173	129.665
868.883	127.887
871.592	131.237
874.3	135.896
877.006	135.586
879.712	128.278
882.415	126.067
885.118	134.244
887.819	131.054
890.519	133.154
893.218	142.276
895.914	136.128
898.611	134.668
901.306	136.957
903.999	135.748
906.692	134.935
909.382	134.464
912.072	133.512
914.761	130.044
917.447	132.59
920.133	130.129
922.818	130.177
925.501	132.571
928.183	129.91
930.864	136.843
933.543	129.368
936.221	128.239
938.898	126.952
941.574	121.814
944.248	130.313
946.921	127.782
949.593	128.858
952.263	120.722
954.932	127.393
957.6	130.511
960.267	129.847
962.932	130.127
965.597	128.797
968.26	128.605
970.922	131.773
973.581	126.504
976.241	128.984
978.898	128.571
981.555	132
984.21	131.767
986.864	133.788
989.517	135.795
992.169	146.259
994.819	163.942
997.468	160.591
1000.12	147.664
1002.76	135.298
1005.41	139.201
1008.05	138.226
1010.69	150.132
1013.34	155.166
1015.98	153.983
1018.61	160.811
1021.25	146.516
1023.89	147.976
1026.52	146.898
1029.16	147.775
1031.79	153.074
1034.42	151.171
1037.05	148.944
1039.68	147.351
1042.31	162.757
1044.93	157.989
1047.56	165.217
1050.18	173.004
1052.81	182.45
1055.43	193.326
1058.05	211.06
1060.67	223.324
1063.28	250.501
1065.9	308.652
1068.52	406.33
1071.13	506.367
1073.74	617.726
1076.35	752.682
1078.96	830.692
1081.57	832.586
1084.18	761.4
1086.79	637.439
1089.39	516.793
1092	422.182
1094.6	348.202
1097.2	287.682
1099.8	251.74
1102.4	228.34
1105	201.223
1107.6	195.869
1110.19	184.832
1112.79	186.493
1115.38	187.527
1117.97	192
1120.56	184.826
1123.15	191.082
1125.74	185.714
1128.33	175.46
1130.91	169.88
1133.5	167.031
1136.08	157.548
1138.66	151.889
1141.24	143.961
1143.82	143.244
1146.4	147.568
1148.98	147.183
1151.55	148.316
1154.13	139.271
1156.7	132.866
1159.27	142.391
1161.85	132.889
1164.42	134.141
1166.98	136.778
1169.55	135.895
1172.12	147.045
1174.68	150.091
1177.25	157.593
1179.81	180.673
1182.37	181.15
1184.93	168.918
1187.49	161.071
1190.05	152.228
1192.6	130.895
1195.16	128.125
1197.71	117.06
1200.27	122.855
1202.82	116.393
1205.37	115.414
1207.92	119
1210.47	113.575
1213.01	110.293
1215.56	116.445
1218.1	114.521
1220.65	110.849
1223.19	117.052
1225.73	121.339
1228.27	125.063
1230.81	121.59
1233.35	123.379
1235.88	121.298
1238.42	122.113
1240.95	124.755
1243.48	119.115
1246.02	132.525
1248.55	127.945
1251.07	132.874
1253.6	130.271
1256.13	131.124
1258.66	132.036
1261.18	132.198
1263.7	142.289
1266.22	146.878
1268.75	140.801
1271.27	145.837
1273.78	152.412
1276.3	162.054
1278.82	163.46
1281.33	159.983
1283.85	162.293
1286.36	175.389
1288.87	168.114
1291.38	171.326
1293.89	169.96
1296.4	170.111
1298.9	167.889
1301.41	164.48
1303.91	168.65
1306.41	161.271
1308.92	167.59
1311.42	158.114
1313.92	165.02
1316.42	154.181
1318.91	148.244
1321.41	149.705
1323.9	146.964
1326.4	145.6
1328.89	150.356
1331.38	137.615
1333.87	132.778
1336.36	139.404
1338.85	140.705
1341.34	134.241
1343.82	133.889
1346.31	125.36
1348.79	126.557
1351.27	119.228
1353.75	121.264
1356.23	124.415
1358.71	123.039
1361.19	121.143
1363.66	126.504
1366.14	129.177
1368.61	132.129
1371.09	133.821
1373.56	137.612
1376.03	138.375
1378.5	143.25
1380.96	138.916
1383.43	140.738
1385.9	138.524
1388.36	137.956
1390.83	133.815
1393.29	129.571
1395.75	133.918
1398.21	130.034
1400.67	131.748
1403.13	122.738
1405.58	125.033
1408.04	122.399
1410.49	123.182
1412.95	119.676
1415.4	122.022
1417.85	123.152
1420.3	118.208
1422.75	122.433
1425.2	114.188
1427.64	116.942
1430.09	116.622
1432.53	118.815
1434.97	110.841
1437.42	113.192
1439.86	108.81
1442.3	112.215
1444.73	102.479
1447.17	104.253
1449.61	100.605
1452.04	102.743
1454.48	102.944
1456.91	98.8981
1459.34	99.5214
1461.77	99.9224
1464.2	102.997
1466.63	105.394
1469.06	101.889
1471.48	103.64
1473.91	106.256
1476.33	121.87
1478.75	115.111
1481.17	119.816
1483.6	119.879
1486.01	112.096
1488.43	106.907
1490.85	98.0307
1493.27	95.4654
1495.68	91.9464
1498.09	90.2833
1500.51	87.4053
1502.92	90.0137
1505.33	87.1864
1507.74	89.4144
1510.14	87.0908
1512.55	94.1381
1514.96	94.3426
1517.36	87.9555
1519.77	89.6075
1522.17	90.6215
1524.57	86.4242
1526.97	91.5226
1529.37	94.3593
1531.77	92.1171
1534.16	89.0398
1536.56	89.8535
1538.95	88.6883
1541.35	95.3103
1543.74	91.8444
1546.13	96.635
1548.52	95.4708
1550.91	91.8768
1553.3	99.7935
1555.68	99.8197
1558.07	103.622
1560.45	103.922
1562.84	110.073
1565.22	110.79
1567.6	122.61
1569.98	127.548
1572.36	141.593
1574.74	162.069
1577.12	190.077
1579.49	232.734
1581.87	292.32
1584.24	361.023
1586.61	455.095
1588.98	506.407
1591.35	524.509
1593.72	492.435
1596.09	440.835
1598.46	379.611
1600.82	305.163
1603.19	250.544
1605.55	220.103
1607.92	186.303
1610.28	171.981
1612.64	155.261
1615	152.038
1617.36	150.139
1619.71	147
1622.07	139.484
1624.42	134.707
1626.78	139.313
1629.13	138.213
1631.48	135.985
1633.83	139.383
1636.18	141.222
1638.53	150.092
1640.88	148.093
1643.22	149.176
1645.57	153.798
1647.91	147.013
1650.26	150.314
1652.6	158.268
1654.94	159.239
1657.28	150.968
1659.62	157.774
1661.96	152.148
1664.29	138.155
1666.63	141.952
1668.96	135.97
1671.3	120.81
1673.63	118.619
1675.96	119.941
1678.29	110.193
1680.62	107.464
1682.95	99.3908
1685.27	109.506
1687.6	94.4731
1689.92	98.9346
1692.25	95.5226
1694.57	100.228
1696.89	95.2492
1699.21	96.4135
1701.53	90.5668
1703.85	88.2033
1706.17	89.9159
1708.48	87.1459
1710.8	81.6759
1713.11	85.2613
1715.43	85.9457
1717.74	82.3676
1720.05	85.9612
1722.36	86.4715
1724.67	81.4092
1726.97	82.9223
1729.28	74.6911
1731.59	75.685
1733.89	76.2126
1736.19	70.2254
1738.5	70.4752
1740.8	71.0122
1743.1	73.3553
1745.4	63.3237
1747.7	70.0956
1749.99	64.6392
1752.29	60.8707
1754.58	64.6788
1756.88	67.7361
1759.17	62.2742
1761.46	62.011
1763.75	63.415
1766.04	61.6139
1768.33	62.224
1770.62	67.9072
1772.91	61.2415
1775.19	62.95
1777.48	61.5435
1779.76	58.5026
1782.04	59.7681
1784.32	66.6258
1786.6	58.5783
1788.88	60.2272
1791.16	53.228
1793.44	55.5487
1795.71	53.0307
1797.99	57.9672
1800.26	53.9231
1802.54	56.2966
1804.81	55.2426
1807.08	56.64
1809.35	56.3813
1811.62	57.1433
1813.88	54.9824
1816.15	54.9409
1818.42	56.5167
1820.68	55.8566
1822.95	56.9172
1825.21	53.6075
1827.47	54.3908
1829.73	54.7186
1831.99	51.005
1834.25	54.9558
1836.51	53.2679
1838.76	54.4936
1841.02	50.8566
1843.27	49.2126
1845.52	55.657
1847.78	52.7735
1850.03	52.5989
1852.28	52.5212
1854.53	50.6783
1856.78	53.7186
1859.02	50.1568
1861.27	51.4383
1863.51	47.6649
1865.76	51.5309
1868	51.1701
1870.24	53.7508
1872.48	48.5897
1874.72	53.8981
1876.96	50.8976
1879.2	47.5587
1881.44	48.1568
1883.67	51.3074
1885.91	48.5048
1888.14	51.2408
1890.37	49.9019
1892.61	52.4086
1894.84	43.8535
1897.07	46.6159
1899.29	48.9117
1901.52	48.6886
1903.75	56.3122
1905.97	48.4212
1908.2	49.7348
1910.42	48.7271
1912.64	46.1453
1914.87	48.9824
1917.09	51.9278
1919.31	49.9642
1921.52	51.9103
1923.74	50.7843
1925.96	46.9306
1928.17	43.9768
1930.39	47.5672
1932.6	49.3715
1934.81	45.7566
1937.03	44.889
1939.24	51.892
1941.45	45.7602
1943.65	42.5613
1945.86	43.9108
1948.07	44.9287
1950.27	47.0788
1952.48	46.5058
1954.68	43.2046
1956.88	44.1297
1959.08	47.1892
1961.29	47.5756
1963.48	45.8535
1965.68	45.3732
1967.88	46.362
1970.08	45.0935
1972.27	40.9788
1974.47	43.7963
1976.66	43.95
1978.85	45.2604
1981.04	46.184
1983.23	44.2296
1985.42	45.168
1987.61	43.5684
1989.8	44.357
1991.99	46.8686
1994.17	50.9548
1996.36	46.0072
1998.54	44.5055
2000.72	42.938
2002.9	43.3704
2005.08	44.0482
2007.26	44.0556
2009.44	41.71
2011.62	42.7448
2013.8	43.4577
2015.97	44.8659
2018.15	44.4808
2020.32	44.3291
2022.49	38.58
2024.66	41.5226
2026.83	43.538
2029	44.2892
2031.17	40.8531
2033.34	40.2791
2035.51	39.4023
2037.67	37.8651
2039.84	43.1617
2042	41.0865
2044.16	39.4462
2046.32	39.4999
2048.48	42.0343
2050.64	34.7008
2052.8	42.2126
2054.96	38.8946
2057.12	39.4056
2059.27	40.052
2061.43	38.9646
2063.58	39.742
2065.73	40.8283
2067.89	39.2791
2070.04	40.4269
2072.19	41.2046
2074.34	40.2426
2076.48	43.0116
2078.63	36.4364
2080.78	38.8468
2082.92	39.0666
2085.07	42.2477
2087.21	40.0956
2089.35	39.9168
2091.49	38.7602
2093.63	40.7242
2095.77	39.7221
2097.91	39.8161
2100.05	35.262
2102.19	36.0781
2104.32	37.5167
2106.45	39.4091
2108.59	38.0669
2110.72	37.1077
2112.85	39.1035
2114.98	36.1185
2117.11	36.7256
2119.24	35.6546
2121.37	39.224
2123.5	34.3178
2125.62	39.2963
2127.75	37.9938
2129.87	38.5167
2131.99	37.5473
2134.11	34.7389
2136.24	37.6724
2138.36	38.3537
2140.47	35.3878
2142.59	37.2783
2144.71	39.4015
2146.83	36.0349
2148.94	35.9271
2151.06	35.4212
2153.17	33.8811
2155.28	34.0632
2157.39	34.611
2159.5	35.1913
2161.61	39.1169
2163.72	32.3122
2165.83	38.1227
2167.94	36.1781
2170.04	36.0666
2172.15	37.576
2174.25	33.8061
2176.35	35.812
2178.45	36.0753
2180.56	33.2655
2182.66	34.2564
2184.75	34.6437
2186.85	31.8318
2188.95	36.2604
2191.05	30.4091
2193.14	35.2254
2195.24	32.4672
2197.33	34.1169
2199.42	31.5954
2201.51	36.0031
2203.6	33.362
2205.69	33.5954
2207.78	32.0921
2209.87	33.9322
2211.96	33.5494
2214.04	33.41
2216.13	33.4674
2218.21	32.538
2220.29	36.5571
2222.38	37.0132
2224.46	33.967
2226.54	33.7434
2228.62	32.5557
2230.69	34.6605
2232.77	34.2368
2234.85	34.5739
2236.92	33.7566
2239	34.3449
2241.07	29.2564
2243.15	34.4924
2245.22	35.8407
2247.29	30.8535
2249.36	30.7448
2251.43	29.5202
2253.49	28.0935
2255.56	32.0204
2257.63	32.61
2259.69	29.9492
2261.76	34.088
2263.82	33.7802
2265.88	31.3659
2267.95	29.2767
2270.01	31.097
2272.07	31.6246
2274.12	29.0611
2276.18	30.3853
2278.24	28.0603
2280.3	30.7159
2282.35	32.1355
2284.41	28.7038
2286.46	28.9159
2288.51	26.6313
2290.56	29.9642
2292.61	30.8235
2294.66	31.4102
2296.71	32.315
2298.76	27.4115
2300.8	27.2742
2302.85	27.5135
2304.9	29.8298
2306.94	30.0935
2308.98	28.1781
2311.03	27.2254
2313.07	25.8048
2315.11	30.4648
2317.15	28.7123
2319.19	29.6836
2321.22	28.576
2323.26	29.2868
2325.3	28.1892
2327.33	30.174
2329.36	27.9824
2331.4	28.0017
2333.43	26.0971
2335.46	27.1868
2337.49	26.8713
2339.52	26.4744
2341.55	28.611
2343.58	29.5771
2345.6	30.0001
2347.63	37.5202
2349.65	24.2833
2351.68	29.4574
2353.7	28.8274
2355.72	26.3577
2357.74	27.1603
2359.76	31.3188
2361.78	26.494
2363.8	25.1892
2365.82	27.2679
2367.84	24.5685
2369.85	27.4628
2371.87	28.4269
2373.88	22.5834
2375.9	22.7982
2377.91	26.1834
2379.92	24.967
2381.93	25.1493
2383.94	26.8559
2385.95	25.2492
2387.96	25.6871
2389.96	26.4462
2391.97	23.9824
2393.97	25.6201
2395.98	26.3228
2397.98	22.2466
2399.98	23.0781
2401.98	28.2714
2403.99	26.6117
2405.99	24.9018
2407.98	25.7123
2409.98	27.0879
2411.98	26.3561
2413.98	24.0666
2415.97	24.7835
2417.96	20.4689
2419.96	23.4269
2421.95	21.7602
2423.94	24.0267
2425.93	23.9845
2427.92	24.9464
2429.91	24.7035
2431.9	23.6434
2433.89	22.3253
2435.87	22.3766
2437.86	23.7434
2439.84	25.657
2441.83	24.0781
2443.81	21.5834
2445.79	21.7894
2447.77	25.3363
2449.75	19.5834
2451.73	22.7808
2453.71	23.0031
2455.69	23.3561
2457.67	20.8677
2459.64	21.7979
2461.62	25.3122
2463.59	22.0342
2465.56	24.0492
2467.54	21.1339
2469.51	19.5013
2471.48	21.7221
2473.45	21.6051
2475.42	24.7123
2477.38	23.5091
2479.35	23.2564
2481.32	22.3878
2483.28	23.9021
2485.25	24.4275
2487.21	21.8559
2489.17	20.3659
2491.13	21.741
2493.09	19.5268
2495.05	23.9824
2497.01	19.3937
2498.97	23.0058
2500.93	21.7424
2502.89	21.9271
2504.84	21.7511
2506.8	21.2564
2508.75	22.052
2510.7	23.0603
2512.65	20.9366
2514.61	20.1509
2516.56	20.7389
2518.51	22.8048
2520.45	21.1112
2522.4	20.1509
2524.35	19.7632
2526.29	21.1607
2528.24	18.7424
2530.18	20.052
2532.13	23.4212
2534.07	20.2679
2536.01	20.7008
2537.95	20.7424
2539.89	19.7992
2541.83	24.858
2543.77	20.5648
2545.71	19.4786
2547.64	20.5881
2549.58	25.301
2551.51	23.6229
2553.45	18.5113
2555.38	19.6649
2557.31	25.4964
2559.25	21.2813
2561.18	17.0935
2563.11	21.6124
2565.03	19.1714
2566.96	20.2742
2568.89	17.9646
2570.82	18.6434
2572.74	20.0408
2574.67	20.5807
2576.59	18.1339
2578.51	23.0457
2580.43	20.8468
2582.36	18.6497
2584.28	18.5226
2586.2	21.0788
2588.11	19.9824
2590.03	20.6159
2591.95	20.023
2593.86	20.6159
2595.78	19.464
2597.69	18.8699
2599.61	21.6337
2601.52	17.9231
2603.43	20.1714
2605.34	22.2142
2607.25	20.0757
2609.16	20.4826
2611.07	22.9263
2612.98	18.7716
2614.89	20.2505
2616.79	19.7891
2618.7	18.7795
2620.6	20.2492
2622.5	18.1955
2624.41	19.5202
2626.31	19.4835
2628.21	17.8566
2630.11	19.2081
2632.01	17.4348
2633.91	20.2975
2635.8	22.7454
2637.7	16.8298
2639.6	18.3529
2641.49	20.3188
2643.39	23.4001
2645.28	22.4689
2647.17	28.9214
2649.06	24.928
2650.95	22.1519
2652.84	21.2797
2654.73	21.3902
2656.62	21.3604
2658.51	21.0398
2660.4	19.1631
2662.28	21.6313
2664.17	19.052
2666.05	21.2011
2667.93	19.2046
2669.82	26.0841
2671.7	32.5034
2673.58	42.2314
2675.46	53.1509
2677.34	58.4518
2679.21	52.8713
2681.09	38.1868
2682.97	34.812
2684.84	27.858
2686.72	27.2564
2688.59	40.364
2690.47	53.7123
2692.34	73.7278
2694.21	159.952
2696.08	298.202
2697.95	292.726
2699.82	258.268
2701.69	169.608
2703.56	103.802
2705.42	71.1714
2707.29	52.0935
2709.15	41.3517
2711.02	30.5826
2712.88	25.967
2714.75	22.7396
2716.61	24.8657
2718.47	20.6455
2720.33	21.9231
2722.19	18.8559
2724.05	18.3383
2725.9	20.3003
2727.76	18.4989
2729.62	21.727
2731.47	19.7008
2733.33	18.0611
2735.18	21.052
2737.03	19.2046
2738.88	20.7049
2740.73	16.7424
2742.59	17.8535
2744.43	16.8872
2746.28	18.5826
2748.13	15.4826
2749.98	15.7065
2751.82	17.6159
2753.67	21.6035
2755.51	18.6096
2757.36	14.9646
2759.2	15.5897
2761.04	13.8531
2762.88	16.8713
