365.286	210.516
368.238	215.098
371.189	225.006
374.139	225.395
377.087	238.084
380.034	247.999
382.979	231.416
385.923	214.58
388.866	194.859
391.806	189.951
394.745	180.579
397.684	179.201
400.62	184.582
403.555	184.708
406.49	192.436
409.421	187.685
412.353	188.231
415.282	184.527
418.209	190.35
421.137	186.664
424.062	191.68
426.985	201.63
429.908	206.532
432.829	213.342
435.748	210.092
438.666	212.343
441.583	205.089
444.498	191.475
447.412	192.616
450.324	196.678
453.235	204.697
456.145	207.806
459.052	203.313
461.959	200.653
464.865	182.051
467.769	177.979
470.671	171.011
473.572	169.455
476.471	173.415
479.37	170.488
482.266	176.007
485.162	172.574
488.056	180.824
490.948	172.334
493.839	178.611
496.73	189.675
499.618	201.209
502.505	222.821
505.39	235.799
508.275	249.032
511.157	250.133
514.039	258.909
516.919	253.661
519.798	265.048
522.674	261.495
525.55	268.279
528.425	265.764
531.297	262.591
534.169	255.452
537.039	248.45
539.908	230.461
542.775	219.246
545.642	195.084
548.506	182.129
551.369	167.286
554.231	170.488
557.092	164.661
559.951	164.579
562.808	154.597
565.664	157.632
568.519	153.789
571.373	155.941
574.225	150.292
577.076	150.425
579.925	145.461
582.773	143.346
585.62	141.792
588.466	142.595
591.309	138.603
594.152	142.601
596.993	140.75
599.832	145.255
602.671	142.683
605.508	144.909
608.343	139.741
611.178	144.628
614.011	142.48
616.842	145.662
619.672	141.19
622.501	145.049
625.329	145.675
628.155	141.498
630.98	151.399
633.802	144.552
636.624	145.607
639.445	136.14
642.264	141.589
645.082	145.903
647.898	139.246
650.714	143.524
653.527	137.768
656.34	136.05
659.151	134.734
661.961	134.571
664.769	134.541
667.576	138.367
670.382	139.271
673.186	136.981
675.989	138.646
678.791	133.135
681.591	145.556
684.39	149.757
687.187	161.199
689.983	179.425
692.779	186.527
695.572	183.019
698.363	170.882
701.155	158.043
703.944	142.339
706.733	141.413
709.519	139.887
712.305	139.275
715.089	140.187
717.871	134.571
720.653	138.848
723.433	133.737
726.212	134.603
728.989	134.995
731.765	129.986
734.54	131.314
737.313	130.225
740.085	129.445
742.856	130.103
745.625	122.373
748.394	130.294
751.16	126.853
753.926	128.936
756.689	131.683
759.452	137.837
762.214	131.023
764.974	137.226
767.733	130.843
770.49	131.31
773.246	133.527
776.001	133.051
778.755	132.711
781.507	136.364
784.258	138.488
787.007	146.66
789.756	150.637
792.502	158.699
795.247	169.207
797.992	189.064
800.735	198.897
803.477	186.074
806.217	171.549
808.956	167.463
811.694	140.177
814.43	139.912
817.165	133.444
819.899	128.921
822.631	132.13
825.362	128.535
828.092	131.395
830.82	128.799
833.548	128.97
836.274	134.646
838.998	133.103
841.721	126.93
844.444	126.621
847.165	122.647
849.884	127.738
852.601	123.161
855.318	124.484
858.034	119.043
860.749	121.139
863.461	119.542
866.173	123.298
868.883	119.924
871.592	118.422
874.3	120.684
877.006	123.344
879.712	121.186
882.415	116.688
885.118	119.708
887.819	124.686
890.519	126.197
893.218	122.191
895.914	123.418
898.611	125.71
901.306	124.604
903.999	121.733
906.692	126.205
909.382	129.817
912.072	124.74
914.761	120.683
917.447	123.472
920.133	130.229
922.818	122.407
925.501	124.227
928.183	118.251
930.864	116.97
933.543	116.693
936.221	115.51
938.898	112.039
941.574	118.63
944.248	114.374
946.921	110.703
949.593	115.679
952.263	115.276
954.932	120.539
957.6	119.031
960.267	118.572
962.932	119.091
965.597	120.9
968.26	119.635
970.922	121.51
973.581	115.849
976.241	115.662
978.898	120.665
981.555	118.002
984.21	120.085
986.864	117.561
989.517	123.175
992.169	124.43
994.819	128.733
997.468	124.986
1000.12	121.736
1002.76	127.953
1005.41	118.517
1008.05	120.634
1010.69	122.725
1013.34	127.548
1015.98	130.894
1018.61	131.71
1021.25	129.262
1023.89	134.93
1026.52	138.728
1029.16	138.619
1031.79	134.857
1034.42	137.346
1037.05	150.546
1039.68	143.017
1042.31	139.07
1044.93	145.276
1047.56	150.838
1050.18	156.645
1052.81	170.897
1055.43	174.373
1058.05	186.121
1060.67	203.733
1063.28	226.452
1065.9	272.973
1068.52	329.064
1071.13	418.448
1073.74	504.488
1076.35	579.653
1078.96	651.233
1081.57	670.45
1084.18	653.975
1086.79	579.67
1089.39	480.298
1092	398.627
1094.6	342.699
1097.2	288.47
1099.8	250.206
1102.4	218.315
1105	204.312
1107.6	184.558
1110.19	185.008
1112.79	176.629
1115.38	186.912
1117.97	186.544
1120.56	184.035
1123.15	186.466
1125.74	181.045
1128.33	173.976
1130.91	164.622
1133.5	163.364
1136.08	153.364
1138.66	147.473
1141.24	140.503
1143.82	135.167
1146.4	135.849
1148.98	136.869
1151.55	142.343
1154.13	134.001
1156.7	132.171
1159.27	128.981
1161.85	122.852
1164.42	122.639
1166.98	125.119
1169.55	121.777
1172.12	136.574
1174.68	130.048
1177.25	135.115
1179.81	147.53
1182.37	155.452
1184.93	160.683
1187.49	152.32
1190.05	134.315
1192.6	125.64
1195.16	111.541
1197.71	108.207
1200.27	103.471
1202.82	101.727
1205.37	109.34
1207.92	104.805
1210.47	100.546
1213.01	105.041
1215.56	105.693
1218.1	107.653
1220.65	106.721
1223.19	111.037
1225.73	108.412
1228.27	102.31
1230.81	108.63
1233.35	115.689
1235.88	113.707
1238.42	110.996
1240.95	109.43
1243.48	117.991
1246.02	116.048
1248.55	119.583
1251.07	112.252
1253.6	123.563
1256.13	121.301
1258.66	125.661
1261.18	117.766
1263.7	124.031
1266.22	126.187
1268.75	129.059
1271.27	129.286
1273.78	132.745
1276.3	141.274
1278.82	142.301
1281.33	140.991
1283.85	145.09
1286.36	147.623
1288.87	153.109
1291.38	159.079
1293.89	151.395
1296.4	149.346
1298.9	149.524
1301.41	151.746
1303.91	155.521
1306.41	145.565
1308.92	144.393
1311.42	152.008
1313.92	150.69
1316.42	148.092
1318.91	142.376
1321.41	148.183
1323.9	138.862
1326.4	139.974
1328.89	135.192
1331.38	137.471
1333.87	133.074
1336.36	138.246
1338.85	129.532
1341.34	126.899
1343.82	126.639
1346.31	125.655
1348.79	123.516
1351.27	119.318
1353.75	116.06
1356.23	116.371
1358.71	116.207
1361.19	124.821
1363.66	128.921
1366.14	121.484
1368.61	129.965
1371.09	133.632
1373.56	134.387
1376.03	136.773
1378.5	146.337
1380.96	137.411
1383.43	139.725
1385.9	135.315
1388.36	135.274
1390.83	123.596
1393.29	129.638
1395.75	123.722
1398.21	119.985
1400.67	119.683
1403.13	113.088
1405.58	116.102
1408.04	117.196
1410.49	114.447
1412.95	112.589
1415.4	111.541
1417.85	111.893
1420.3	109.999
1422.75	111.262
1425.2	111.853
1427.64	106.546
1430.09	114.327
1432.53	106.17
1434.97	106.928
1437.42	103.37
1439.86	102.527
1442.3	104.497
1444.73	96.6146
1447.17	99.7742
1449.61	96.0293
1452.04	94.4194
1454.48	91.965
1456.91	91.5219
1459.34	97.7818
1461.77	90.6417
1464.2	96.6394
1466.63	89.6047
1469.06	97.653
1471.48	98.2828
1473.91	97.5228
1476.33	101.405
1478.75	101.874
1481.17	112.784
1483.6	113.844
1486.01	106.72
1488.43	100.295
1490.85	94.5269
1493.27	84.8046
1495.68	79.5332
1498.09	80.4353
1500.51	82.2161
1502.92	80.2644
1505.33	73.7061
1507.74	79.6662
1510.14	76.2567
1512.55	81.8929
1514.96	80.4959
1517.36	82.6237
1519.77	78.8625
1522.17	79.9504
1524.57	81.2153
1526.97	79.1258
1529.37	78.1076
1531.77	83.9843
1534.16	80.8089
1536.56	77.5162
1538.95	82.408
1541.35	81.2938
1543.74	79.4128
1546.13	87.2301
1548.52	79.9369
1550.91	82.3689
1553.3	81.0572
1555.68	80.7563
1558.07	84.6719
1560.45	91.0775
1562.84	85.8618
1565.22	87.6654
1567.6	93.3342
1569.98	98.3699
1572.36	104.172
1574.74	120.784
1577.12	148.373
1579.49	168.887
1581.87	226.993
1584.24	287.741
1586.61	350.842
1588.98	433.135
1591.35	488.35
1593.72	486.492
1596.09	449.727
1598.46	365.159
1600.82	284.262
1603.19	229.965
1605.55	186.999
1607.92	169.723
1610.28	154.408
1612.64	137.394
1615	143.079
1617.36	133.463
1619.71	124.714
1622.07	125.632
1624.42	121.167
1626.78	122.201
1629.13	124.523
1631.48	121.576
1633.83	126.002
1636.18	124.424
1638.53	124.726
1640.88	124.479
1643.22	125.022
1645.57	128.807
1647.91	131.245
1650.26	125.959
1652.6	135.079
1654.94	142.563
1657.28	136.579
1659.62	135.787
1661.96	132.669
1664.29	125.031
1666.63	119.521
1668.96	110.754
1671.3	115.627
1673.63	107.306
1675.96	100.008
1678.29	101.507
1680.62	101.59
1682.95	94.8752
1685.27	93.532
1687.6	92.5842
1689.92	89.65
1692.25	88.7413
1694.57	81.2131
1696.89	92.3658
1699.21	88.5613
1701.53	84.2388
1703.85	79.8244
1706.17	83.2547
1708.48	79.2446
1710.8	78.2218
1713.11	74.4731
1715.43	75.9501
1717.74	75.463
1720.05	77.6168
1722.36	75.8704
1724.67	69.653
1726.97	75.4452
1729.28	69.5292
1731.59	69.3945
1733.89	71.1173
1736.19	67.9481
1738.5	62.8761
1740.8	67.4857
1743.1	63.3052
1745.4	60.894
1747.7	58.763
1749.99	60.5867
1752.29	60.3312
1754.58	59.5845
1756.88	57.3139
1759.17	55.7483
1761.46	56.2737
1763.75	59.552
1766.04	57.8695
1768.33	55.7573
1770.62	55.8067
1772.91	57.0424
1775.19	53.5987
1777.48	49.5713
1779.76	54.7677
1782.04	54.179
1784.32	54.6842
1786.6	57.1314
1788.88	55.6375
1791.16	54.5292
1793.44	52.839
1795.71	51.9795
1797.99	50.444
1800.26	52.784
1802.54	52.1155
1804.81	51.8257
1807.08	52.71
1809.35	49.536
1811.62	54.2369
1813.88	50.5047
1816.15	51.3186
1818.42	50.0962
1820.68	51.4488
1822.95	49.5332
1825.21	51.3109
1827.47	52.9499
1829.73	50.1592
1831.99	47.2447
1834.25	48.5157
1836.51	50.9103
1838.76	49.662
1841.02	52.5534
1843.27	50.8703
1845.52	44.7756
1847.78	47.4308
1850.03	46.9348
1852.28	49.1861
1854.53	46.7576
1856.78	48.2675
1859.02	47.7743
1861.27	42.102
1863.51	47.0558
1865.76	48.4316
1868	46.7061
1870.24	47.0326
1872.48	49.3236
1874.72	45.8192
1876.96	47.7452
1879.2	45.7764
1881.44	45.2921
1883.67	48.0144
1885.91	48.4669
1888.14	48.0149
1890.37	47.2654
1892.61	46.5824
1894.84	48.5308
1897.07	48.5046
1899.29	44.9038
1901.52	46.635
1903.75	53.1491
1905.97	48.1669
1908.2	46.5455
1910.42	42.4125
1912.64	45.46
1914.87	44.3959
1917.09	44.936
1919.31	42.6056
1921.52	47.9145
1923.74	49.6109
1925.96	43.7079
1928.17	39.3678
1930.39	45.1107
1932.6	42.9833
1934.81	44.6139
1937.03	41.8424
1939.24	45.3519
1941.45	46.6956
1943.65	43.1221
1945.86	42.821
1948.07	39.6746
1950.27	45.1064
1952.48	41.2164
1954.68	38.8334
1956.88	42.3866
1959.08	42.325
1961.29	42.4173
1963.48	44.8575
1965.68	43.3924
1967.88	45.8608
1970.08	41.8722
1972.27	41.2882
1974.47	43.0007
1976.66	40.8899
1978.85	44.1704
1981.04	39.8284
1983.23	40.3365
1985.42	43.05
1987.61	41.3786
1989.8	39.9736
1991.99	39.1238
1994.17	38.4641
1996.36	37.7004
1998.54	41.6921
2000.72	39.4384
2002.9	41.42
2005.08	38.461
2007.26	41.3312
2009.44	41.5488
2011.62	37.9627
2013.8	41.8911
2015.97	39.461
2018.15	38.6834
2020.32	40.1277
2022.49	42.4934
2024.66	38.2891
2026.83	39.1491
2029	40.2588
2031.17	36.3166
2033.34	42.6291
2035.51	40.462
2037.67	34.9235
2039.84	40.0514
2042	39.6204
2044.16	41.2813
2046.32	38.11
2048.48	39.2625
2050.64	31.9863
2052.8	37.2761
2054.96	35.0214
2057.12	39.6576
2059.27	35.3736
2061.43	39.4089
2063.58	38.408
2065.73	37.1316
2067.89	37.2442
2070.04	36.9951
2072.19	38.7584
2074.34	39.1353
2076.48	36.2556
2078.63	35.0452
2080.78	35.6056
2082.92	34.7659
2085.07	36.7554
2087.21	36.7013
2089.35	37.0716
2091.49	37.1603
2093.63	37.0401
2095.77	35.2738
2097.91	35.2544
2100.05	38.0962
2102.19	34.0944
2104.32	36.3205
2106.45	35.5598
2108.59	35.5704
2110.72	33.7944
2112.85	36.3186
2114.98	35.1893
2117.11	37.8701
2119.24	35.3945
2121.37	34.0167
2123.5	36.2055
2125.62	32.9664
2127.75	33.5472
2129.87	34.8741
2131.99	35.3657
2134.11	35.2581
2136.24	36.552
2138.36	31.4791
2140.47	32.0129
2142.59	35.4876
2144.71	31.8761
2146.83	33.5722
2148.94	33.3993
2151.06	32.5497
2153.17	34.5221
2155.28	32.6056
2157.39	37.7866
2159.5	35.4149
2161.61	32.9447
2163.72	27.5408
2165.83	33.6168
2167.94	29.6586
2170.04	32.5617
2172.15	32.3512
2174.25	32.9122
2176.35	34.2589
2178.45	33.8625
2180.56	29.6022
2182.66	30.784
2184.75	30.3804
2186.85	31.5174
2188.95	30.8158
2191.05	30.5486
2193.14	32.9094
2195.24	30.2578
2197.33	27.6168
2199.42	33.3253
2201.51	28.9728
2203.6	30.2834
2205.69	29.9351
2207.78	28.2265
2209.87	31.296
2211.96	31.2882
2214.04	30.7326
2216.13	30.8698
2218.21	29.8447
2220.29	32.5417
2222.38	33.466
2224.46	30.8334
2226.54	31.6842
2228.62	31.5023
2230.69	29.0514
2232.77	26.8258
2234.85	28.4107
2236.92	27.6606
2239	26.4094
2241.07	28.7786
2243.15	31.0324
2245.22	30.9776
2247.29	30.3253
2249.36	30.0764
2251.43	28.1683
2253.49	28.8244
2255.56	26.8516
2257.63	28.8988
2259.69	29.0433
2261.76	34.1915
2263.82	28.3726
2265.88	26.8752
2267.95	27.9672
2270.01	27.3014
2272.07	25.2882
2274.12	29.2447
2276.18	29.083
2278.24	26.5464
2280.3	28.8507
2282.35	30.0884
2284.41	26.8867
2286.46	27.1751
2288.51	25.414
2290.56	26.3196
2292.61	29.6417
2294.66	30.3377
2296.71	23.5104
2298.76	25.0492
2300.8	27.782
2302.85	29.3365
2304.9	25.6617
2306.94	24.653
2308.98	24.1827
2311.03	27.7413
2313.07	26.1404
2315.11	29.4149
2317.15	29.9732
2319.19	23.6224
2321.22	27.2759
2323.26	26.444
2325.3	27.646
2327.33	26.9653
2329.36	26.3342
2331.4	26.5503
2333.43	26.7459
2335.46	27.766
2337.49	24.451
2339.52	24.6518
2341.55	24.1886
2343.58	26.4665
2345.6	31.223
2347.63	41.4506
2349.65	25.7944
2351.68	26.9683
2353.7	22.2436
2355.72	26.9872
2357.74	26.2824
2359.76	25.2958
2361.78	25.5989
2363.8	24.7348
2365.82	27.8538
2367.84	26.9557
2369.85	26.2958
2371.87	27.5643
2373.88	24.5161
2375.9	26.2161
2377.91	22.1828
2379.92	25.7997
2381.93	27.3253
2383.94	21.6113
2385.95	24.8485
2387.96	26.2589
2389.96	26.3521
2391.97	23.9291
2393.97	26.8347
2395.98	23.0944
2397.98	22.8761
2399.98	22.874
2401.98	24.5047
2403.99	23.837
2405.99	24.5437
2407.98	23.518
2409.98	23.8427
2411.98	23.937
2413.98	23.2161
2415.97	21.3533
2417.96	23.3185
2419.96	25.8335
2421.95	26.0847
2423.94	22.1895
2425.93	24.0761
2427.92	22.2085
2429.91	22.6168
2431.9	22.992
2433.89	22.874
2435.87	24.5788
2437.86	22.991
2439.84	22.747
2441.83	20.3197
2443.81	25.2541
2445.79	23.5792
2447.77	22.9179
2449.75	24.1713
2451.73	24.4593
2453.71	23.2893
2455.69	23.9549
2457.67	21.304
2459.64	21.5417
2461.62	23.7963
2463.59	21.9234
2465.56	20.5319
2467.54	18.7572
2469.51	22.179
2471.48	20.1118
2473.45	24.426
2475.42	25.3992
2477.38	19.9635
2479.35	22.8224
2481.32	22.3398
2483.28	20.4097
2485.25	25.0539
2487.21	22.5228
2489.17	22.745
2491.13	20.4838
2493.09	21.2761
2495.05	19.3186
2497.01	20.2689
2498.97	20.7483
2500.93	22.965
2502.89	19.6452
2504.84	21.1335
2506.8	21.4554
2508.75	23.047
2510.7	21.311
2512.65	22.4347
2514.61	19.5534
2516.56	18.9736
2518.51	21.4641
2520.45	18.9182
2522.4	18.8054
2524.35	23.7874
2526.29	18.8416
2528.24	21.3727
2530.18	18.461
2532.13	24.2301
2534.07	21.6606
2536.01	21.1592
2537.95	22.765
2539.89	20.7081
2541.83	18.7167
2543.77	22.7326
2545.71	19.1893
2547.64	23.1437
2549.58	20.0214
2551.51	20.0727
2553.45	19.7431
2555.38	22.4307
2557.31	21.481
2559.25	20.3186
2561.18	18.195
2563.11	19.5271
2565.03	21.8752
2566.96	20.4398
2568.89	21.4249
2570.82	23.8158
2572.74	20.6631
2574.67	18.7584
2576.59	18.4049
2578.51	20.7126
2580.43	20.5104
2582.36	18.9736
2584.28	20.4149
2586.2	19.4071
2588.11	18.7663
2590.03	17.1311
2591.95	19.4423
2593.86	22.2703
2595.78	19.202
2597.69	19.5047
2599.61	18.965
2601.52	21.9089
2603.43	21.7099
2605.34	17.2986
2607.25	17.6922
2609.16	18.296
2611.07	23.6431
2612.98	17.4384
2614.89	18.598
2616.79	19.4307
2618.7	21.2038
2620.6	17.9234
2622.5	19.5646
2624.41	20.3232
2626.31	20.4353
2628.21	18.4755
2630.11	18.0394
2632.01	22.105
2633.91	23.5732
2635.8	22.6528
2637.7	19.7326
2639.6	19.4041
2641.49	19.5037
2643.39	22.4133
2645.28	24.8001
2647.17	27.6815
2649.06	26.1107
2650.95	20.965
2652.84	20.3194
2654.73	23.6226
2656.62	20.2512
2658.51	19.9732
2660.4	19.9077
2662.28	22.9819
2664.17	22.0034
2666.05	22.6654
2667.93	23.0862
2669.82	27.0043
2671.7	32.2823
2673.58	43.9085
2675.46	53.5332
2677.34	52.6386
2679.21	43.1897
2681.09	34.7337
2682.97	30.6472
2684.84	28.3052
2686.72	28.9653
2688.59	38.066
2690.47	58.5935
2692.34	77.653
2694.21	161.195
2696.08	315.977
2697.95	324.627
2699.82	271.366
2701.69	173.658
2703.56	108.062
2705.42	79.7133
2707.29	53.7032
2709.15	41.5365
2711.02	30.7032
2712.88	26.5143
2714.75	25.6936
2716.61	26.5455
2718.47	20.7402
2720.33	22.9851
2722.19	21.3406
2724.05	22.2225
2725.9	20.8538
2727.76	20.7413
2729.62	22.124
2731.47	20.5587
2733.33	18.0088
2735.18	17.5621
2737.03	19.3097
2738.88	22.6776
2740.73	20.2172
2742.59	17.3098
2744.43	19.7896
2746.28	16.8123
2748.13	16.496
2749.98	13.3312
2751.82	16.2121
2753.67	17.3273
2755.51	17.8621
2757.36	17.662
2759.2	17.992
2761.04	16.2074
2762.88	17.3285
