365.286	633.43
368.238	626.986
371.189	633.678
374.139	644.011
377.087	673.744
380.034	658.189
382.979	636.097
385.923	633.011
388.866	606.522
391.806	626.456
394.745	612.963
397.684	643.986
400.62	658.585
403.555	683.9
406.49	681.163
409.421	675.344
412.353	675.789
415.282	674.376
418.209	669.411
421.137	654.875
424.062	646.456
426.985	633.251
429.908	638.986
432.829	617.522
435.748	610.652
438.666	598.344
441.583	592.855
444.498	588.744
447.412	584.029
450.324	586.233
453.235	602.454
456.145	592.052
459.052	582.097
461.959	574.274
464.865	563.54
467.769	563.567
470.671	562.031
473.572	562.163
476.471	561.652
479.37	565.052
482.266	564.941
485.162	560.163
488.056	554.923
490.948	579.744
493.839	582.319
496.73	593.696
499.618	626.719
502.505	672.274
505.39	712.9
508.275	713.344
511.157	719.319
514.039	707.319
516.919	715.344
519.798	743.052
522.674	753.189
525.55	755.567
528.425	776.011
531.297	779.122
534.169	767.165
537.039	731.696
539.908	687.875
542.775	646.83
545.642	603.163
548.506	565.274
551.369	556.608
554.231	540.411
557.092	511.43
559.951	508.122
562.808	493.545
565.664	505.411
568.519	484.14
571.373	489.011
574.225	485.763
577.076	487.385
579.925	475.011
582.773	470.19
585.62	470.385
588.466	469.789
591.309	474.274
594.152	455.319
596.993	458.208
599.832	458.763
602.671	467.652
605.508	454.233
608.343	454.612
611.178	466.878
614.011	455.608
616.842	465.479
619.672	464.097
622.501	468.923
625.329	461.251
628.155	473.82
630.98	489.541
633.802	478.274
636.624	464.119
639.445	459.652
642.264	451.456
645.082	457.541
647.898	442.3
650.714	443.807
653.527	457.456
656.34	451.923
659.151	444.344
661.961	455.719
664.769	450.789
667.576	440.029
670.382	441.163
673.186	449.567
675.989	459.479
678.791	453.479
681.591	460.43
684.39	489.808
687.187	529.264
689.983	563.631
692.779	571.206
695.572	561.274
698.363	529.652
701.155	488.59
703.944	474.233
706.733	455.873
709.519	454.029
712.305	463.763
715.089	471.319
717.871	457.319
720.653	442.719
723.433	453.319
726.212	449.83
728.989	450.052
731.765	426.257
734.54	449.43
737.313	445.163
740.085	435.097
742.856	439.097
745.625	428.163
748.394	439.318
751.16	437.497
753.926	447.83
756.689	441.289
759.452	449.122
762.214	449.034
764.974	450.941
767.733	438.344
770.49	426.029
773.246	429.787
776.001	441.875
778.755	448.855
781.507	453.453
784.258	459.43
787.007	474.652
789.756	480.678
792.502	516.623
795.247	547.385
797.992	563.59
800.735	583.656
803.477	563.875
806.217	548.14
808.956	495.567
811.694	479.344
814.43	475.642
817.165	466.541
819.899	460.875
822.631	461.984
825.362	454.388
828.092	441.545
830.82	440.479
833.548	466.122
836.274	449.43
838.998	431.652
841.721	447.598
844.444	432.701
847.165	434.034
849.884	432.233
852.601	420.812
855.318	413.43
858.034	411.342
860.749	408.564
863.461	405.479
866.173	397.506
868.883	402.411
871.592	404.452
874.3	413.366
877.006	398.101
879.712	388.062
882.415	391.541
885.118	395.456
887.819	398.875
890.519	406.034
893.218	403.034
895.914	401.274
898.611	406.274
901.306	393.289
903.999	397.319
906.692	395.742
909.382	403.257
912.072	400.411
914.761	401.429
917.447	397.744
920.133	399.357
922.818	393.875
925.501	388.385
928.183	392.368
930.864	387.918
933.543	399.861
936.221	388.017
938.898	394.001
941.574	392.608
944.248	386.251
946.921	396.163
949.593	394.284
952.263	395.708
954.932	395.151
957.6	394.411
960.267	387.208
962.932	385.541
965.597	389.385
968.26	396.564
970.922	390.53
973.581	382.906
976.241	387.585
978.898	391.574
981.555	383.362
984.21	385.14
986.864	397.06
989.517	416.986
992.169	438.032
994.819	487.171
997.468	555.949
1000.12	546.75
1002.76	488.949
1005.41	457.732
1008.05	463.684
1010.69	464.265
1013.34	477.122
1015.98	483.479
1018.61	500.855
1021.25	509.621
1023.89	503.949
1026.52	478.572
1029.16	464.949
1031.79	454.75
1034.42	465.479
1037.05	456.298
1039.68	452.368
1042.31	467.553
1044.93	478.541
1047.56	484.066
1050.18	516.553
1052.81	542.362
1055.43	580.931
1058.05	614.417
1060.67	666.233
1063.28	747.473
1065.9	890.762
1068.52	1062.58
1071.13	1293.48
1073.74	1516.7
1076.35	1722.46
1078.96	1923.15
1081.57	1935.39
1084.18	1843.68
1086.79	1617.08
1089.39	1337.14
1092	1057.92
1094.6	854.341
1097.2	717.362
1099.8	630.789
1102.4	576.306
1105	531.83
1107.6	511.274
1110.19	498.06
1112.79	502.399
1115.38	492.411
1117.97	480.062
1120.56	488.257
1123.15	476.153
1125.74	463.3
1128.33	469.621
1130.91	456.807
1133.5	451.955
1136.08	439.017
1138.66	431.564
1141.24	422.807
1143.82	414.596
1146.4	411.288
1148.98	404.719
1151.55	405.505
1154.13	397.522
1156.7	403.251
1159.27	406.177
1161.85	398.132
1164.42	389.807
1166.98	402.288
1169.55	416.843
1172.12	426.017
1174.68	438.43
1177.25	467.487
1179.81	493.128
1182.37	518.656
1184.93	519.719
1187.49	491.505
1190.05	454.667
1192.6	428.684
1195.16	394.701
1197.71	392.477
1200.27	382.863
1202.82	383.034
1205.37	375.017
1207.92	370.796
1210.47	373.979
1213.01	366.966
1215.56	364.951
1218.1	368.616
1220.65	367.949
1223.19	371.023
1225.73	373.487
1228.27	372.661
1230.81	381.206
1233.35	380.029
1235.88	401.807
1238.42	392.918
1240.95	409.572
1243.48	412.04
1246.02	406.54
1248.55	409.616
1251.07	411.163
1253.6	415.274
1256.13	419.206
1258.66	422.795
1261.18	438.75
1263.7	445.838
1266.22	436.222
1268.75	463.842
1271.27	472.793
1273.78	488.672
1276.3	506.505
1278.82	507.277
1281.33	522.811
1283.85	510.399
1286.36	514.984
1288.87	517.444
1291.38	510.532
1293.89	496.861
1296.4	480.998
1298.9	468.062
1301.41	473.53
1303.91	452.843
1306.41	463.633
1308.92	460.444
1311.42	453.684
1313.92	450.189
1316.42	440.923
1318.91	427.473
1321.41	431.04
1323.9	415.999
1326.4	413.873
1328.89	417.395
1331.38	409.386
1333.87	404.785
1336.36	405.906
1338.85	402.53
1341.34	392.662
1343.82	398.399
1346.31	378.674
1348.79	375.083
1351.27	376.707
1353.75	383.765
1356.23	379.631
1358.71	374.666
1361.19	379.553
1363.66	388.966
1366.14	380.674
1368.61	379.553
1371.09	383.161
1373.56	387.274
1376.03	390.673
1378.5	398.717
1380.96	389.605
1383.43	388.128
1385.9	385.696
1388.36	384.929
1390.83	374.572
1393.29	381.767
1395.75	376.887
1398.21	379.497
1400.67	371.765
1403.13	364.358
1405.58	359.019
1408.04	356.155
1410.49	347.929
1412.95	356.596
1415.4	351.691
1417.85	358.073
1420.3	352.04
1422.75	350.63
1425.2	350.886
1427.64	354.274
1430.09	346.319
1432.53	344.518
1434.97	347.451
1437.42	335.202
1439.86	320.773
1442.3	320.807
1444.73	320.697
1447.17	315.477
1449.61	314.441
1452.04	308.74
1454.48	314.052
1456.91	309.563
1459.34	312.075
1461.77	309.919
1464.2	309.79
1466.63	312.785
1469.06	319.429
1471.48	316.901
1473.91	322.263
1476.33	337.254
1478.75	349.528
1481.17	349.75
1483.6	351.412
1486.01	328.279
1488.43	325.018
1490.85	318.507
1493.27	291.533
1495.68	286.552
1498.09	295.589
1500.51	280.262
1502.92	286.706
1505.33	274.997
1507.74	272.934
1510.14	289.341
1512.55	287.796
1514.96	288.574
1517.36	282.441
1519.77	285.196
1522.17	284.145
1524.57	286.219
1526.97	295.954
1529.37	288.964
1531.77	294.634
1534.16	289.829
1536.56	297.04
1538.95	298.096
1541.35	305.129
1543.74	297.798
1546.13	320.408
1548.52	312.533
1550.91	326.765
1553.3	341.106
1555.68	344.373
1558.07	359.853
1560.45	372.418
1562.84	379.196
1565.22	399.061
1567.6	445.773
1569.98	496.576
1572.36	555.217
1574.74	632.576
1577.12	734.465
1579.49	836.576
1581.87	983.488
1584.24	1145.85
1586.61	1326.99
1588.98	1430.88
1591.35	1470.52
1593.72	1421.43
1596.09	1230.79
1598.46	1017.62
1600.82	821.234
1603.19	655.207
1605.55	580.745
1607.92	517.246
1610.28	479.546
1612.64	453.776
1615	436.131
1617.36	418.363
1619.71	393.901
1622.07	394.977
1624.42	371.522
1626.78	380.78
1629.13	369.355
1631.48	376.954
1633.83	384.798
1636.18	379.891
1638.53	379.101
1640.88	394.579
1643.22	384.546
1645.57	389.332
1647.91	398.101
1650.26	386.335
1652.6	399.224
1654.94	415.557
1657.28	402.667
1659.62	414.546
1661.96	403.799
1664.29	381.224
1666.63	375.49
1668.96	360.799
1671.3	348.507
1673.63	338.368
1675.96	321.497
1678.29	312.39
1680.62	310.743
1682.95	306.763
1685.27	288.91
1687.6	281.035
1689.92	268.287
1692.25	263.448
1694.57	267.479
1696.89	267.421
1699.21	254.252
1701.53	262.712
1703.85	262.108
1706.17	251.008
1708.48	254.83
1710.8	251.546
1713.11	243.879
1715.43	251.323
1717.74	254.008
1720.05	245.585
1722.36	241.131
1724.67	241.131
1726.97	238.043
1729.28	233.101
1731.59	236.3
1733.89	240.763
1736.19	218.509
1738.5	226.698
1740.8	223.357
1743.1	216.256
1745.4	216.267
1747.7	212.367
1749.99	203.435
1752.29	209.113
1754.58	202.998
1756.88	192.558
1759.17	202.445
1761.46	195.879
1763.75	193.076
1766.04	193.78
1768.33	190.657
1770.62	196.474
1772.91	187.488
1775.19	190.053
1777.48	188.54
1779.76	187.985
1782.04	184.078
1784.32	181.452
1786.6	179.479
1788.88	180.874
1791.16	173.745
1793.44	177.353
1795.71	171.646
1797.99	170.866
1800.26	173.277
1802.54	177.078
1804.81	163.589
1807.08	165.167
1809.35	157.474
1811.62	168.131
1813.88	157.452
1816.15	161.479
1818.42	164.768
1820.68	160.985
1822.95	157.54
1825.21	157.608
1827.47	161.99
1829.73	157.509
1831.99	155.61
1834.25	150.768
1836.51	154.651
1838.76	153.154
1841.02	150.078
1843.27	152.343
1845.52	145.967
1847.78	148.386
1850.03	147.478
1852.28	151.799
1854.53	151.435
1856.78	151.608
1859.02	144.967
1861.27	141.323
1863.51	143.033
1865.76	146.318
1868	140.096
1870.24	145.967
1872.48	148.891
1874.72	146.398
1876.96	146.435
1879.2	147.874
1881.44	146.002
1883.67	141.745
1885.91	144.363
1888.14	143.875
1890.37	144.745
1892.61	149.897
1894.84	143.232
1897.07	145.146
1899.29	144.275
1901.52	141.033
1903.75	144.54
1905.97	137.678
1908.2	128.447
1910.42	129.879
1912.64	144.786
1914.87	138.096
1917.09	142.431
1919.31	131.164
1921.52	131.922
1923.74	133.856
1925.96	132.275
1928.17	136.121
1930.39	131.651
1932.6	140.497
1934.81	140.522
1937.03	130.768
1939.24	134.409
1941.45	130.564
1943.65	131.848
1945.86	134.078
1948.07	132.421
1950.27	132.907
1952.48	136.452
1954.68	135.585
1956.88	123.811
1959.08	124.78
1961.29	125.088
1963.48	134.466
1965.68	122.164
1967.88	125.954
1970.08	126.763
1972.27	130.675
1974.47	124.033
1976.66	121.631
1978.85	127.23
1981.04	121.811
1983.23	124.207
1985.42	122.913
1987.61	122.842
1989.8	116.564
1991.99	115.256
1994.17	121.856
1996.36	118.257
1998.54	121.136
2000.72	117.922
2002.9	124.546
2005.08	106.589
2007.26	118.388
2009.44	112.189
2011.62	113.546
2013.8	115.651
2015.97	118.232
2018.15	110.874
2020.32	111.99
2022.49	111.497
2024.66	114.745
2026.83	113.675
2029	105.811
2031.17	109.985
2033.34	106.065
2035.51	109.119
2037.67	111.657
2039.84	108.977
2042	108.141
2044.16	103.879
2046.32	100.589
2048.48	110.523
2050.64	100.786
2052.8	106.879
2054.96	101.008
2057.12	98.9223
2059.27	101.54
2061.43	99.5457
2063.58	98.7858
2065.73	101.421
2067.89	98.3181
2070.04	109.942
2072.19	102.564
2074.34	96.5636
2076.48	105.207
2078.63	103.145
2080.78	99.8112
2082.92	109.599
2085.07	104.145
2087.21	95.4346
2089.35	104.226
2091.49	96.4971
2093.63	93.7679
2095.77	95.9223
2097.91	93.8991
2100.05	96.5457
2102.19	93.4546
2104.32	89.7001
2106.45	98.9005
2108.59	86.589
2110.72	93.6202
2112.85	94.1445
2114.98	94.7626
2117.11	93.6515
2119.24	86.9848
2121.37	88.0295
2123.5	88.7679
2125.62	89.7679
2127.75	90.0959
2129.87	88.4346
2131.99	90.589
2134.11	91.2556
2136.24	84.5457
2138.36	89.2556
2140.47	78.2556
2142.59	86.8112
2144.71	81.9901
2146.83	83.5457
2148.94	83.6568
2151.06	81.3414
2153.17	84.6568
2155.28	89.2556
2157.39	79.2303
2159.5	89.9223
2161.61	92.3861
2163.72	82.6337
2165.83	81.6962
2167.94	73.7001
2170.04	71.9901
2172.15	80.5904
2174.25	88.5577
2176.35	80.2691
2178.45	72.386
2180.56	72.7001
2182.66	77.7001
2184.75	74.879
2186.85	71.3235
2188.95	74.788
2191.05	79.589
2193.14	73.5225
2195.24	77.4525
2197.33	78.7001
2199.42	75.6082
2201.51	77.3414
2203.6	75.3355
2205.69	75.0022
2207.78	73.008
2209.87	70.207
2211.96	73.8559
2214.04	75.4115
2216.13	76.9223
2218.21	73.1445
2220.29	64.3002
2222.38	78.166
2224.46	77.8304
2226.54	64.3414
2228.62	71.9184
2230.69	69.4293
2232.77	73.3668
2234.85	65.3414
2236.92	70.1191
2239	71.967
2241.07	70.8112
2243.15	65.4466
2245.22	67.6456
2247.29	67.8737
2249.36	70.4346
2251.43	66.1892
2253.49	66.1206
2255.56	61.8112
2257.63	69.3002
2259.69	68.2303
2261.76	57.6747
2263.82	64.7134
2265.88	64.4971
2267.95	58.9901
2270.01	62.008
2272.07	61.1213
2274.12	67.5636
2276.18	61.589
2278.24	59.7001
2280.3	55.9223
2282.35	61.008
2284.41	63.7858
2286.46	62.207
2288.51	62.4293
2290.56	63.1012
2292.61	57.6568
2294.66	53.3235
2296.71	58.7679
2298.76	55.1892
2300.8	58.5636
2302.85	57.7679
2304.9	57.2748
2306.94	52.9223
2308.98	54.008
2311.03	56.4793
2313.07	58.0094
2315.11	56.6337
2317.15	52.0334
2319.19	54.5658
2321.22	52.1191
2323.26	58.3861
2325.3	56.1191
2327.33	53.1191
2329.36	50.4779
2331.4	50.6515
2333.43	45.0334
2335.46	49.9848
2337.49	48.0334
2339.52	50.7015
2341.55	56.1638
2343.58	52.8991
2345.6	52.2556
2347.63	62.008
2349.65	49.0334
2351.68	49.2556
2353.7	48.6747
2355.72	46.4525
2357.74	49.4793
2359.76	50.979
2361.78	45.788
2363.8	45.9415
2365.82	44.9223
2367.84	45.008
2369.85	46.5904
2371.87	44.6337
2373.88	48.7001
2375.9	42.2244
2377.91	42.008
2379.92	47.7001
2381.93	41.4525
2383.94	40.6769
2385.95	41.3668
2387.96	47.2123
2389.96	44.4779
2391.97	33.7626
2393.97	41.4779
2395.98	46.3668
2397.98	39.4779
2399.98	38.4779
2401.98	42.3628
2403.99	40.3668
2405.99	39.6747
2407.98	42.4293
2409.98	45.8112
2411.98	37.6747
2413.98	33.5636
2415.97	37.0334
2417.96	32.2303
2419.96	39.589
2421.95	39.1213
2423.94	42.5904
2425.93	34.879
2427.92	36.7001
2429.91	39.8911
2431.9	36.589
2433.89	34.4779
2435.87	37.7001
2437.86	36.9223
2439.84	36.7858
2441.83	33.6747
2443.81	39.4293
2445.79	35.008
2447.77	36.8737
2449.75	31.9223
2451.73	34.589
2453.71	36.9901
2455.69	36.7679
2457.67	40.4779
2459.64	34.4779
2461.62	32.2303
2463.59	29.3414
2465.56	35.4779
2467.54	36.4779
2469.51	34.3668
2471.48	31.5457
2473.45	31.3435
2475.42	35.2556
2477.38	31.2123
2479.35	27.1012
2481.32	31.2556
2483.28	35.0781
2485.25	26.1445
2487.21	27.1012
2489.17	26.207
2491.13	29.3235
2493.09	30.1445
2495.05	33.3235
2497.01	36.7799
2498.97	31.1191
2500.93	25.4779
2502.89	25.4546
2504.84	28.8112
2506.8	28.0334
2508.75	21.4779
2510.7	23.9223
2512.65	28.4293
2514.61	25.9223
2516.56	27.7001
2518.51	28.0334
2520.45	29.589
2522.4	28.1445
2524.35	23.879
2526.29	21.8112
2528.24	25.4779
2530.18	29.2556
2532.13	23.7001
2534.07	26.3668
2536.01	25.8112
2537.95	28.3668
2539.89	22.9223
2541.83	27.5457
2543.77	25.5658
2545.71	26.207
2547.64	25.5457
2549.58	24.1213
2551.51	23.4546
2553.45	20.3355
2555.38	22.8112
2557.31	20.589
2559.25	26.1012
2561.18	19.7001
2563.11	23.4293
2565.03	18.879
2566.96	19.7001
2568.89	20.9223
2570.82	24.9223
2572.74	19.879
2574.67	22.0549
2576.59	20.4779
2578.51	22.1012
2580.43	22.4525
2582.36	17.8112
2584.28	24.1213
2586.2	22.2303
2588.11	17.8969
2590.03	19.1191
2591.95	17.5636
2593.86	17.1445
2595.78	15.1012
2597.69	18.1445
2599.61	13.5203
2601.52	19.4525
2603.43	19.3181
2605.34	19.9901
2607.25	15.2303
2609.16	17.6747
2611.07	18.4525
2612.98	14.9223
2614.89	17.7626
2616.79	14.589
2618.7	13.0102
2620.6	17.4346
2622.5	12.589
2624.41	11.4525
2626.31	11.9223
2628.21	17.2556
2630.11	13.2556
2632.01	17.9223
2633.91	11.9223
2635.8	14.9223
2637.7	15.8558
2639.6	18.5636
2641.49	11.4779
2643.39	12.1012
2645.28	15.5457
2647.17	21.2324
2649.06	15.7001
2650.95	15.0334
2652.84	18.0334
2654.73	19.589
2656.62	12.2556
2658.51	15.8112
2660.4	8.47786
2662.28	16.4525
2664.17	13.2981
2666.05	17.8112
2667.93	12.4346
2669.82	16.4779
2671.7	22.4779
2673.58	35.7001
2675.46	52.008
2677.34	45.0334
2679.21	34.9669
2681.09	26.589
2682.97	22.2556
2684.84	20.3682
2686.72	14.0959
2688.59	33.1445
2690.47	49.4779
2692.34	63.3668
2694.21	156.589
2696.08	301.546
2697.95	278.323
2699.82	245.965
2701.69	150.897
2703.56	87.7799
2705.42	58.2303
2707.29	42.3414
2709.15	23.4346
2711.02	21.1191
2712.88	12.9223
2714.75	14.3668
2716.61	13.2303
2718.47	11.8112
2720.33	9.25564
2722.19	8.47786
2724.05	7.70009
2725.9	10.7626
2727.76	7.78581
2729.62	6.14453
2731.47	8.09592
2733.33	4.03342
2735.18	6.14453
2737.03	9.23025
2738.88	1.78581
2740.73	10.1445
2742.59	9.92231
2744.43	2.25564
2746.28	5.47786
2748.13	3.92231
2749.98	2.00803
2751.82	0.879015
2753.67	0.922309
2755.51	2.14453
2757.36	4.70009
2759.2	7.47786
2761.04	1.03342
2762.88	2.8112
