365.286	267.197
368.238	259.83
371.189	265.449
374.139	272.743
377.087	289.155
380.034	284.87
382.979	278.414
385.923	271.872
388.866	258.128
391.806	241.4
394.745	241.455
397.684	241.542
400.62	250.51
403.555	251.572
406.49	250.355
409.421	250.144
412.353	258.325
415.282	251.452
418.209	253.338
421.137	249.164
424.062	256.913
426.985	257.562
429.908	272.771
432.829	274.318
435.748	271.92
438.666	269.619
441.583	266.579
444.498	261.243
447.412	260.172
450.324	258.195
453.235	271.229
456.145	270.183
459.052	269.271
461.959	264.675
464.865	250.627
467.769	239.769
470.671	241.343
473.572	236.908
476.471	237.332
479.37	251.812
482.266	240.555
485.162	240.863
488.056	244.019
490.948	247.764
493.839	253.7
496.73	269.911
499.618	289.004
502.505	313.133
505.39	342.53
508.275	348.861
511.157	342.209
514.039	338.413
516.919	339.828
519.798	348.07
522.674	357.588
525.55	359.151
528.425	356.911
531.297	369.288
534.169	364.641
537.039	347.61
539.908	330.214
542.775	294.4
545.642	286.706
548.506	258.701
551.369	251.75
554.231	231.868
557.092	229.197
559.951	229.004
562.808	224.901
565.664	213.01
568.519	219.442
571.373	213.724
574.225	202.8
577.076	205.73
579.925	206.988
582.773	205.882
585.62	206.709
588.466	197.16
591.309	199.244
594.152	189.635
596.993	199.164
599.832	201.722
602.671	199.826
605.508	195.233
608.343	195.834
611.178	198.281
614.011	192.73
616.842	192.599
619.672	193.991
622.501	196.075
625.329	190.619
628.155	202.753
630.98	202.092
633.802	200.95
636.624	199.017
639.445	199.225
642.264	197.689
645.082	191.164
647.898	194.605
650.714	193.244
653.527	190.528
656.34	183.812
659.151	192.441
661.961	192.544
664.769	191.472
667.576	191.654
670.382	190.762
673.186	197.071
675.989	199.843
678.791	199.342
681.591	199.021
684.39	214.197
687.187	237.72
689.983	249.572
692.779	247.713
695.572	249.484
698.363	237.09
701.155	217.47
703.944	197.351
706.733	194.746
709.519	197.71
712.305	190.461
715.089	182.083
717.871	187.608
720.653	193.055
723.433	193.323
726.212	183.595
728.989	186.437
731.765	188.972
734.54	185.995
737.313	181.435
740.085	182.699
742.856	176.621
745.625	186.015
748.394	186.861
751.16	180.623
753.926	176.537
756.689	180.822
759.452	190.81
762.214	184.231
764.974	187.456
767.733	186.71
770.49	188.653
773.246	186.207
776.001	190.02
778.755	188.572
781.507	189.77
784.258	206.327
787.007	205.4
789.756	214.47
792.502	231.531
795.247	255.161
797.992	269.226
800.735	273.246
803.477	269.023
806.217	244.791
808.956	232.35
811.694	213.575
814.43	201.683
817.165	192.604
819.899	188.95
822.631	178.574
825.362	186.72
828.092	183.505
830.82	182.061
833.548	177.919
836.274	172.166
838.998	173.152
841.721	178.378
844.444	181.294
847.165	179.77
849.884	177.639
852.601	175.331
855.318	174.742
858.034	182.602
860.749	170.126
863.461	168.769
866.173	165.022
868.883	169.92
871.592	174.141
874.3	166.637
877.006	161.442
879.712	165.513
882.415	164.303
885.118	166.197
887.819	167.81
890.519	169.575
893.218	177.07
895.914	176.454
898.611	175.191
901.306	165.275
903.999	168.295
906.692	170.816
909.382	172.239
912.072	175.257
914.761	164.514
917.447	165.099
920.133	165.735
922.818	157.728
925.501	170.911
928.183	163.531
930.864	158.287
933.543	156.501
936.221	164.044
938.898	160.043
941.574	163.443
944.248	166.191
946.921	162.158
949.593	156.479
952.263	155.81
954.932	160.073
957.6	163.37
960.267	161.188
962.932	151.801
965.597	168.039
968.26	161.866
970.922	162.377
973.581	163.199
976.241	162.252
978.898	166.303
981.555	160.629
984.21	159.13
986.864	164.956
989.517	164.71
992.169	172.685
994.819	163.325
997.468	173.288
1000.12	173.718
1002.76	175.35
1005.41	164.079
1008.05	169.073
1010.69	173.98
1013.34	170.838
1015.98	176.428
1018.61	179.177
1021.25	175.172
1023.89	178.228
1026.52	176.869
1029.16	179.318
1031.79	183.514
1034.42	187.997
1037.05	189.067
1039.68	192.19
1042.31	194.503
1044.93	200.098
1047.56	201.148
1050.18	208.279
1052.81	216.425
1055.43	226.939
1058.05	238.806
1060.67	256.43
1063.28	289.197
1065.9	344.993
1068.52	396.635
1071.13	477.046
1073.74	584.992
1076.35	683.372
1078.96	766.611
1081.57	812.017
1084.18	815.248
1086.79	758.326
1089.39	649.931
1092	528.899
1094.6	427.031
1097.2	354.419
1099.8	305.284
1102.4	269.493
1105	250.853
1107.6	239.599
1110.19	221.869
1112.79	224.646
1115.38	224.817
1117.97	228.738
1120.56	228.625
1123.15	223.449
1125.74	225.662
1128.33	208.785
1130.91	207.797
1133.5	199.183
1136.08	190.772
1138.66	183.559
1141.24	184.282
1143.82	168.428
1146.4	173.404
1148.98	177.377
1151.55	167.868
1154.13	163.866
1156.7	171.631
1159.27	168.784
1161.85	164.373
1164.42	155.686
1166.98	164.125
1169.55	167.821
1172.12	161.22
1174.68	174.062
1177.25	182.724
1179.81	185.839
1182.37	203.617
1184.93	205.056
1187.49	191.914
1190.05	178.999
1192.6	160.283
1195.16	149.772
1197.71	152.191
1200.27	145.82
1202.82	142.091
1205.37	139.42
1207.92	146.192
1210.47	140.281
1213.01	142.981
1215.56	139.434
1218.1	148.447
1220.65	141.792
1223.19	143.55
1225.73	146.161
1228.27	148.944
1230.81	148.459
1233.35	144.628
1235.88	149.208
1238.42	149.269
1240.95	150.464
1243.48	152.325
1246.02	156.224
1248.55	156.032
1251.07	150.009
1253.6	155.233
1256.13	158.926
1258.66	160.214
1261.18	165.488
1263.7	158.797
1266.22	166.844
1268.75	165.622
1271.27	171.266
1273.78	174.968
1276.3	179.627
1278.82	184.986
1281.33	187.454
1283.85	191.434
1286.36	201.828
1288.87	196.947
1291.38	197.645
1293.89	196.659
1296.4	196.413
1298.9	193.132
1301.41	188.735
1303.91	191.066
1306.41	186.382
1308.92	194.477
1311.42	192.73
1313.92	187.478
1316.42	178.747
1318.91	178.982
1321.41	179.907
1323.9	170.78
1326.4	174.733
1328.89	173.375
1331.38	168.437
1333.87	168.725
1336.36	165.242
1338.85	167.883
1341.34	164.543
1343.82	157.504
1346.31	152.3
1348.79	149.084
1351.27	151.75
1353.75	147.424
1356.23	146.419
1358.71	150.112
1361.19	145.928
1363.66	155.437
1366.14	157.617
1368.61	160.925
1371.09	160.808
1373.56	159.781
1376.03	164.259
1378.5	165.759
1380.96	164.07
1383.43	166.222
1385.9	165.437
1388.36	159.769
1390.83	160.12
1393.29	154.669
1395.75	155.684
1398.21	154.491
1400.67	145.745
1403.13	146.103
1405.58	150.812
1408.04	145.977
1410.49	145.314
1412.95	151.875
1415.4	142.017
1417.85	144.302
1420.3	143.553
1422.75	144.576
1425.2	143.482
1427.64	137.794
1430.09	137.743
1432.53	140.161
1434.97	137.545
1437.42	136.136
1439.86	130.689
1442.3	128.143
1444.73	127.935
1447.17	126.317
1449.61	130.052
1452.04	124.959
1454.48	129.724
1456.91	123.608
1459.34	119.986
1461.77	118.635
1464.2	118.368
1466.63	123.065
1469.06	120.277
1471.48	123.441
1473.91	127.26
1476.33	129.07
1478.75	130.845
1481.17	140.401
1483.6	140.986
1486.01	136.736
1488.43	131.506
1490.85	108.535
1493.27	112.03
1495.68	113.3
1498.09	113.288
1500.51	104.131
1502.92	106.18
1505.33	106.326
1507.74	108.757
1510.14	107.864
1512.55	103.941
1514.96	102.272
1517.36	109.092
1519.77	100.794
1522.17	104.947
1524.57	104.604
1526.97	99.9414
1529.37	105.533
1531.77	105.612
1534.16	100.945
1536.56	104.724
1538.95	109.577
1541.35	104.634
1543.74	110.151
1546.13	109.241
1548.52	112.569
1550.91	109.711
1553.3	118.973
1555.68	109.158
1558.07	113.82
1560.45	115.252
1562.84	115.401
1565.22	119.326
1567.6	123.261
1569.98	125.792
1572.36	142.052
1574.74	156.067
1577.12	183.563
1579.49	219.245
1581.87	268.178
1584.24	336.437
1586.61	413.046
1588.98	486.323
1591.35	544.026
1593.72	530.516
1596.09	497.291
1598.46	436.363
1600.82	338.943
1603.19	276.042
1605.55	235.867
1607.92	205.039
1610.28	188.803
1612.64	178.419
1615	162.521
1617.36	167.629
1619.71	156.467
1622.07	156.106
1624.42	155.323
1626.78	144.202
1629.13	146.894
1631.48	158.672
1633.83	159.641
1636.18	155.237
1638.53	156.933
1640.88	157.51
1643.22	160.35
1645.57	158.513
1647.91	158.581
1650.26	163.683
1652.6	165.595
1654.94	167.916
1657.28	168.192
1659.62	176.531
1661.96	162.858
1664.29	155.41
1666.63	139.249
1668.96	146.459
1671.3	142.37
1673.63	135.161
1675.96	126.975
1678.29	125.655
1680.62	123.829
1682.95	112.466
1685.27	122.069
1687.6	112.437
1689.92	111.62
1692.25	112.558
1694.57	106.728
1696.89	118.616
1699.21	111.144
1701.53	104.35
1703.85	107.782
1706.17	103.893
1708.48	105.646
1710.8	102.623
1713.11	100.958
1715.43	107.706
1717.74	99.8411
1720.05	104.268
1722.36	102.97
1724.67	101.162
1726.97	94.7628
1729.28	95.7801
1731.59	90.834
1733.89	93.6814
1736.19	93.2413
1738.5	87.8499
1740.8	84.959
1743.1	84.782
1745.4	83.4221
1747.7	80.9501
1749.99	85.1086
1752.29	79.2755
1754.58	80.0972
1756.88	82.5615
1759.17	79.3457
1761.46	74.1909
1763.75	75.8226
1766.04	74.0659
1768.33	73.7282
1770.62	75.0064
1772.91	76.4189
1775.19	75.5707
1777.48	73.4243
1779.76	75.016
1782.04	70.0152
1784.32	70.7004
1786.6	75.5906
1788.88	75.8863
1791.16	71.9563
1793.44	72.5033
1795.71	69.0621
1797.99	73.4148
1800.26	69.1138
1802.54	72.1917
1804.81	72.5803
1807.08	66.8551
1809.35	69.2893
1811.62	73.2143
1813.88	67.0525
1816.15	70.1636
1818.42	72.2901
1820.68	69.9827
1822.95	68.6191
1825.21	71.0785
1827.47	67.9896
1829.73	67.0445
1831.99	67.3534
1834.25	67.3245
1836.51	69.5319
1838.76	68.8178
1841.02	65.9262
1843.27	67.6407
1845.52	65.2435
1847.78	65.5332
1850.03	65.0191
1852.28	65.8911
1854.53	65.1563
1856.78	65.128
1859.02	67.0739
1861.27	62.3194
1863.51	64.2249
1865.76	65.6917
1868	66.9328
1870.24	61.3503
1872.48	62.0397
1874.72	63.3343
1876.96	60.5515
1879.2	63.9563
1881.44	59.8763
1883.67	65.5155
1885.91	61.3684
1888.14	62.4131
1890.37	66.7231
1892.61	66.7752
1894.84	66.266
1897.07	61.7216
1899.29	60.9896
1901.52	61.8584
1903.75	65.248
1905.97	64.1272
1908.2	60.2265
1910.42	59.0859
1912.64	62.3949
1914.87	60.1893
1917.09	62.7427
1919.31	57.8926
1921.52	66.844
1923.74	64.276
1925.96	61.4681
1928.17	60.9189
1930.39	59.077
1932.6	61.5157
1934.81	57.0383
1937.03	57.3531
1939.24	57.5643
1941.45	59.4004
1943.65	57.1886
1945.86	55.0222
1948.07	60.0784
1950.27	62.231
1952.48	61.8801
1954.68	59.1576
1956.88	59.5703
1959.08	57.86
1961.29	54.9438
1963.48	56.5856
1965.68	57.8931
1967.88	57.8411
1970.08	57.0788
1972.27	54.9504
1974.47	57.3194
1976.66	55.5282
1978.85	55.5078
1981.04	54.2769
1983.23	53.352
1985.42	57.1199
1987.61	56.6967
1989.8	55.2008
1991.99	52.3647
1994.17	57.7166
1996.36	55.2297
1998.54	56.612
2000.72	53.5242
2002.9	52.1136
2005.08	54.7656
2007.26	57.1859
2009.44	51.7082
2011.62	51.4217
2013.8	52.7406
2015.97	54.0135
2018.15	55.3254
2020.32	51.7969
2022.49	48.7589
2024.66	50.6168
2026.83	53.8443
2029	49.3145
2031.17	47.8342
2033.34	47.6566
2035.51	49.5476
2037.67	47.4466
2039.84	52.0014
2042	50.1559
2044.16	48.7191
2046.32	49.3679
2048.48	54.3147
2050.64	52.0549
2052.8	48.7554
2054.96	46.5242
2057.12	52.6709
2059.27	46.3778
2061.43	47.9991
2063.58	50.8826
2065.73	51.0533
2067.89	51.7702
2070.04	53.0416
2072.19	49.6528
2074.34	53.7332
2076.48	47.0615
2078.63	47.564
2080.78	44.3326
2082.92	47.71
2085.07	49.0473
2087.21	50.5367
2089.35	52.5829
2091.49	44.7901
2093.63	49.0621
2095.77	44.0042
2097.91	45.7591
2100.05	45.9147
2102.19	47.1429
2104.32	44.9921
2106.45	48.9375
2108.59	43.6081
2110.72	46.3898
2112.85	49.0689
2114.98	43.5133
2117.11	49.6709
2119.24	44.5192
2121.37	45.6985
2123.5	43.9176
2125.62	46.0436
2127.75	45.0445
2129.87	44.9108
2131.99	43.8366
2134.11	44.5792
2136.24	40.5581
2138.36	44.4839
2140.47	45.0152
2142.59	43.6563
2144.71	45.5792
2146.83	44.4353
2148.94	43.6808
2151.06	43.1056
2153.17	43.6709
2155.28	43.6294
2157.39	46.6257
2159.5	44.5607
2161.61	44.4783
2163.72	41.101
2165.83	43.0725
2167.94	42.2064
2170.04	43.1148
2172.15	42.3701
2174.25	42.272
2176.35	42.8976
2178.45	44.826
2180.56	42.02
2182.66	37.4553
2184.75	42.9568
2186.85	42.0909
2188.95	42.3778
2191.05	39.0034
2193.14	40.4614
2195.24	40.9798
2197.33	38.2983
2199.42	39.9774
2201.51	41.5306
2203.6	41.7078
2205.69	42.2754
2207.78	41.2259
2209.87	39.4667
2211.96	39.4635
2214.04	42.834
2216.13	38.1429
2218.21	43.0169
2220.29	41.3092
2222.38	40.7943
2224.46	36.9227
2226.54	42.0385
2228.62	37.5806
2230.69	38.2413
2232.77	38.965
2234.85	39.9265
2236.92	43.7628
2239	39.0197
2241.07	36.9811
2243.15	39.1809
2245.22	35.483
2247.29	40.4108
2249.36	36.3893
2251.43	40.3599
2253.49	37.1785
2255.56	38.5405
2257.63	38.3057
2259.69	38.5056
2261.76	38.015
2263.82	38.4108
2265.88	41.0301
2267.95	37.5232
2270.01	38.6529
2272.07	35.1252
2274.12	39.0122
2276.18	34.9451
2278.24	37.3192
2280.3	37.0674
2282.35	34.0383
2284.41	35.6176
2286.46	34.3516
2288.51	34.7892
2290.56	37.04
2292.61	36.2167
2294.66	34.0674
2296.71	33.7578
2298.76	32.642
2300.8	33.1935
2302.85	35.4256
2304.9	35.8615
2306.94	33.2413
2308.98	32.3766
2311.03	33.9829
2313.07	32.0323
2315.11	30.8663
2317.15	34.2708
2319.19	34.4243
2321.22	32.2509
2323.26	33.653
2325.3	35.1795
2327.33	32.039
2329.36	36.6229
2331.4	31.5697
2333.43	34.3745
2335.46	31.0846
2337.49	31.4122
2339.52	29.1138
2341.55	31.3898
2343.58	31.6663
2345.6	31.6882
2347.63	41.2409
2349.65	31.5133
2351.68	31.0042
2353.7	30.1911
2355.72	32.4672
2357.74	33.2459
2359.76	33.4818
2361.78	31.1599
2363.8	35.0885
2365.82	32.6914
2367.84	34.1695
2369.85	31.2933
2371.87	34.4196
2373.88	30.6681
2375.9	31.0559
2377.91	32.8452
2379.92	29.7377
2381.93	28.5104
2383.94	30.793
2385.95	31.9689
2387.96	32.9486
2389.96	31.1924
2391.97	28.6903
2393.97	30.3192
2395.98	32.3607
2397.98	31.8881
2399.98	32.6917
2401.98	30.2561
2403.99	30.9842
2405.99	31.3421
2407.98	29.1412
2409.98	32.5492
2411.98	29.5095
2413.98	30.3162
2415.97	30.4135
2417.96	28.9034
2419.96	28.9222
2421.95	29.8864
2423.94	27.1475
2425.93	30.0587
2427.92	27.5747
2429.91	28.5229
2431.9	26.6415
2433.89	28.8077
2435.87	27.7591
2437.86	27.7537
2439.84	30.2972
2441.83	24.8615
2443.81	28.0679
2445.79	25.5169
2447.77	28.5133
2449.75	26.0724
2451.73	25.9226
2453.71	28.9111
2455.69	30.18
2457.67	29.1577
2459.64	27.0014
2461.62	29.1559
2463.59	27.1597
2465.56	25.2164
2467.54	26.8427
2469.51	29.3524
2471.48	27.4709
2473.45	28.5205
2475.42	29.9636
2477.38	22.7403
2479.35	29.1158
2481.32	28.2199
2483.28	27.9451
2485.25	26.2662
2487.21	24.0124
2489.17	26.6917
2491.13	27.4795
2493.09	28.0187
2495.05	26.7979
2497.01	27.256
2498.97	27.6185
2500.93	24.3949
2502.89	23.9563
2504.84	25.6788
2506.8	25.5118
2508.75	23.6495
2510.7	24.0972
2512.65	24.6751
2514.61	25.8717
2516.56	25.5971
2518.51	26.3971
2520.45	20.6627
2522.4	24.0266
2524.35	24.9325
2526.29	24.9202
2528.24	28.0499
2530.18	24.8238
2532.13	26.1274
2534.07	24.2733
2536.01	23.0758
2537.95	24.7916
2539.89	25.8864
2541.83	24.7112
2543.77	23.8685
2545.71	25.5841
2547.64	23.9263
2549.58	25.2911
2551.51	22.306
2553.45	26.7279
2555.38	24.7199
2557.31	25.6836
2559.25	22.8187
2561.18	21.4808
2563.11	24.8407
2565.03	24.6343
2566.96	23.0679
2568.89	25.6303
2570.82	20.4319
2572.74	23.2638
2574.67	21.1949
2576.59	22.039
2578.51	20.5118
2580.43	23.9274
2582.36	24.0044
2584.28	18.908
2586.2	22.4231
2588.11	21.2786
2590.03	23.3045
2591.95	24.533
2593.86	22.6303
2595.78	25.1511
2597.69	21.2488
2599.61	25.1438
2601.52	23.0101
2603.43	23.6836
2605.34	22.1319
2607.25	20.4436
2609.16	23.1108
2611.07	22.6814
2612.98	20.8091
2614.89	25.1675
2616.79	18.0437
2618.7	24.0629
2620.6	21.3719
2622.5	25.6692
2624.41	22.8094
2626.31	23.3007
2628.21	23.3078
2630.11	22.302
2632.01	23.0806
2633.91	22.8515
2635.8	25.5476
2637.7	18.7377
2639.6	22.7242
2641.49	25.0698
2643.39	23.0486
2645.28	27.0461
2647.17	25.9992
2649.06	29.0865
2650.95	25.7969
2652.84	24.4007
2654.73	24.0663
2656.62	26.3984
2658.51	24.0138
2660.4	23.7081
2662.28	21.9971
2664.17	23.6426
2666.05	23.9125
2667.93	26.6465
2669.82	26.8804
2671.7	36.8017
2673.58	42.2549
2675.46	52.2336
2677.34	57.9878
2679.21	48.2797
2681.09	40.8242
2682.97	34.197
2684.84	27.1334
2686.72	28.174
2688.59	40.8804
2690.47	53.9748
2692.34	72.9554
2694.21	134.086
2696.08	276.302
2697.95	303.368
2699.82	254.413
2701.69	157.224
2703.56	93.4832
2705.42	70.7529
2707.29	52.6709
2709.15	39.9936
2711.02	31.3943
2712.88	26.0333
2714.75	25.3792
2716.61	24.0327
2718.47	22.6365
2720.33	21.9647
2722.19	21.9702
2724.05	22.7943
2725.9	23.311
2727.76	20.7842
2729.62	21.5917
2731.47	19.497
2733.33	23.306
2735.18	20.7406
2737.03	21.9175
2738.88	18.9949
2740.73	20.205
2742.59	19.9623
2744.43	19.1035
2746.28	22.5756
2748.13	19.5725
2749.98	21.6702
2751.82	19.1909
2753.67	19.6302
2755.51	19.4859
2757.36	18.9326
2759.2	22.2148
2761.04	19.5205
2762.88	18.1522
