365.286	1334.03
368.238	1279.7
371.189	1289.12
374.139	1250.7
377.087	1272.53
380.034	1292.63
382.979	1279.09
385.923	1287.15
388.866	1296.04
391.806	1398.76
394.745	1547.88
397.684	1692.17
400.62	1818.59
403.555	1922.7
406.49	1965.48
409.421	1935.61
412.353	1925.39
415.282	1875.94
418.209	1720.52
421.137	1578.75
424.062	1413.51
426.985	1315.4
429.908	1275.61
432.829	1231.39
435.748	1239.04
438.666	1229.04
441.583	1220.59
444.498	1244.59
447.412	1208.37
450.324	1187.48
453.235	1148.28
456.145	1140.73
459.052	1138.51
461.959	1133.97
464.865	1135.95
467.769	1192.32
470.671	1188.76
473.572	1189.39
476.471	1181.27
479.37	1174.76
482.266	1151.32
485.162	1125.09
488.056	1108.4
490.948	1092.26
493.839	1063.81
496.73	1059.48
499.618	1086.87
502.505	1149.17
505.39	1191.26
508.275	1221.05
511.157	1225.18
514.039	1222.76
516.919	1258.53
519.798	1270.95
522.674	1304.58
525.55	1299.75
528.425	1307.73
531.297	1280.67
534.169	1218.12
537.039	1155.28
539.908	1091.2
542.775	1033.27
545.642	967.867
548.506	921.312
551.369	883
554.231	858.24
557.092	826.906
559.951	820.017
562.808	805.702
565.664	806.093
568.519	787.573
571.373	785.147
574.225	803.538
577.076	804.316
579.925	780.24
582.773	783.76
585.62	777.093
588.466	762.24
591.309	748.814
594.152	754.516
596.993	732.906
599.832	722.738
602.671	715.979
605.508	727.183
608.343	735.036
611.178	773.281
614.011	757.503
616.842	752.65
619.672	767.094
622.501	792.334
625.329	807.449
628.155	794.223
630.98	793.667
633.802	773.813
636.624	782.627
639.445	768.702
642.264	754.867
645.082	747.76
647.898	730.703
650.714	727.592
653.527	712.183
656.34	723.738
659.151	716.294
661.961	706.097
664.769	699.592
667.576	687.516
670.382	701.703
673.186	711.072
675.989	721.725
678.791	762.501
681.591	820.614
684.39	905.281
687.187	986.392
689.983	978.747
692.779	909.413
695.572	843.312
698.363	808.867
701.155	790.481
703.944	798.481
706.733	811.568
709.519	842.755
712.305	853.058
715.089	830.142
717.871	839.534
720.653	892.662
723.433	977.568
726.212	1017.96
728.989	1020.64
731.765	947.814
734.54	862.703
737.313	780.183
740.085	729.961
742.856	695.738
745.625	670.516
748.394	654.902
751.16	643.738
753.926	653.516
756.689	655.885
759.452	689.201
762.214	702.333
764.974	684.41
767.733	658.533
770.49	637.867
773.246	634.809
776.001	629.867
778.755	630.2
781.507	619.814
784.258	621.849
787.007	630.072
789.756	641.506
792.502	653.481
795.247	676.413
797.992	682.173
800.735	705.738
803.477	704.115
806.217	718.183
808.956	722.516
811.694	725.148
814.43	734.943
817.165	742.814
819.899	726.592
822.631	715.259
825.362	728.88
828.092	722.2
830.82	711.755
833.548	700.876
836.274	698.738
838.998	670.849
841.721	651.738
844.444	632.059
847.165	620.65
849.884	600.983
852.601	591.112
855.318	572.281
858.034	558.427
860.749	552.148
863.461	550.592
866.173	553.481
868.883	551.422
871.592	542.738
874.3	539.814
877.006	537.837
879.712	529.102
882.415	550
885.118	553.209
887.819	556.837
890.519	558.072
893.218	560.489
895.914	554.761
898.611	557.205
901.306	544.281
903.999	552.484
906.692	540.703
909.382	552.93
912.072	539.503
914.761	554.444
917.447	547.889
920.133	558
922.818	565.111
925.501	587.778
928.183	581.948
930.864	589.094
933.543	586.725
936.221	583.299
938.898	569.392
941.574	570.556
944.248	577.334
946.921	573.503
949.593	551.111
952.263	568.725
954.932	564.744
957.6	551.556
960.267	559.65
962.932	549.592
965.597	537.422
968.26	525.817
970.922	542.151
973.581	535.259
976.241	529.823
978.898	561.37
981.555	582.631
984.21	622.183
986.864	693.111
989.517	808.17
992.169	1036.75
994.819	1322.53
997.468	1173.88
1000.12	902.633
1002.76	861.831
1005.41	974.28
1008.05	1011.17
1010.69	939.551
1013.34	984.721
1015.98	1136.72
1018.61	1258.61
1021.25	1144.72
1023.89	996.055
1026.52	955.499
1029.16	921.277
1031.79	906.166
1034.42	895.533
1037.05	929.481
1039.68	970.783
1042.31	1037.54
1044.93	1098.39
1047.56	1156.75
1050.18	1267.71
1052.81	1374.17
1055.43	1497.89
1058.05	1688.44
1060.67	1910.4
1063.28	2206.77
1065.9	2551.77
1068.52	2872.55
1071.13	3101.84
1073.74	3213.34
1076.35	3147.91
1078.96	2962.24
1081.57	2739.45
1084.18	2420.42
1086.79	2077.72
1089.39	1766.44
1092	1506.7
1094.6	1291.93
1097.2	1131.72
1099.8	1006.93
1102.4	954.37
1105	884.205
1107.6	840.378
1110.19	809.093
1112.79	769.218
1115.38	746.885
1117.97	715.031
1120.56	693.533
1123.15	664.259
1125.74	649.978
1128.33	646.346
1130.91	619.902
1133.5	602.484
1136.08	591.537
1138.66	548.216
1141.24	547.336
1143.82	534.098
1146.4	542.356
1148.98	532.484
1151.55	547.644
1154.13	540.577
1156.7	533.155
1159.27	536.706
1161.85	541.209
1164.42	542.6
1166.98	547.889
1169.55	595.111
1172.12	652.556
1174.68	712.222
1177.25	735.556
1179.81	745.613
1182.37	720.84
1184.93	677.226
1187.49	636.164
1190.05	599
1192.6	565.653
1195.16	554.608
1197.71	518.832
1200.27	506.129
1202.82	483.836
1205.37	477.094
1207.92	469.317
1210.47	454.885
1213.01	458.112
1215.56	448.036
1218.1	472.036
1220.65	471.147
1223.19	476.961
1225.73	481.729
1228.27	469.154
1230.81	472.09
1233.35	483.351
1235.88	481.868
1238.42	493.774
1240.95	509.058
1243.48	512.329
1246.02	536.275
1248.55	540.951
1251.07	551.188
1253.6	562.299
1256.13	584.551
1258.66	585.885
1261.18	606.329
1263.7	622.996
1266.22	650.832
1268.75	674.166
1271.27	708.055
1273.78	719.61
1276.3	743.218
1278.82	744.48
1281.33	726.813
1283.85	681.259
1286.36	652.702
1288.87	615.058
1291.38	589.76
1293.89	568.649
1296.4	548.814
1298.9	531.76
1301.41	541.04
1303.91	535.224
1306.41	526.09
1308.92	516.814
1311.42	519.592
1313.92	507.996
1316.42	494.395
1318.91	485.703
1321.41	464.094
1323.9	460.983
1326.4	455.488
1328.89	450.485
1331.38	455.311
1333.87	447.27
1336.36	447.158
1338.85	442.362
1341.34	456.803
1343.82	447.795
1346.31	439.821
1348.79	441.99
1351.27	439.134
1353.75	444.907
1356.23	432.844
1358.71	430.674
1361.19	433.491
1363.66	428.151
1366.14	415.782
1368.61	421.798
1371.09	416.27
1373.56	424.911
1376.03	419.36
1378.5	418.461
1380.96	408.658
1383.43	395.653
1385.9	394.208
1388.36	379.045
1390.83	374.858
1393.29	372.831
1395.75	369.608
1398.21	371.058
1400.67	374.934
1403.13	364.327
1405.58	361.532
1408.04	372.91
1410.49	359.542
1412.95	352.884
1415.4	342.928
1417.85	352.586
1420.3	346.218
1422.75	345.955
1425.2	353.747
1427.64	352.142
1430.09	341.378
1432.53	349.875
1434.97	352.381
1437.42	352.942
1439.86	343.097
1442.3	357.08
1444.73	346.421
1447.17	350.657
1449.61	357.319
1452.04	345.541
1454.48	346.216
1456.91	348.599
1459.34	351.306
1461.77	356.431
1464.2	361.546
1466.63	377.023
1469.06	377.154
1471.48	370.172
1473.91	378.013
1476.33	377.176
1478.75	372.456
1481.17	377.098
1483.6	377.449
1486.01	363.919
1488.43	363.901
1490.85	357.115
1493.27	357.545
1495.68	357.653
1498.09	355.449
1500.51	354.208
1502.92	349.484
1505.33	349.782
1507.74	342.226
1510.14	349.782
1512.55	359.56
1514.96	368.893
1517.36	366.315
1519.77	385.952
1522.17	400.73
1524.57	413.339
1526.97	423.672
1529.37	430.712
1531.77	447.133
1534.16	466.795
1536.56	466.315
1538.95	504.391
1541.35	518.759
1543.74	564.017
1546.13	605.502
1548.52	644.262
1550.91	693.151
1553.3	755.444
1555.68	818.667
1558.07	842.031
1560.45	894.005
1562.84	940.557
1565.22	1047
1567.6	1152.89
1569.98	1296.63
1572.36	1425.55
1574.74	1561.88
1577.12	1698.43
1579.49	1756.59
1581.87	1766.32
1584.24	1670.04
1586.61	1539.34
1588.98	1369.62
1591.35	1215.84
1593.72	1044.62
1596.09	883.646
1598.46	763.509
1600.82	643.527
1603.19	570.029
1605.55	494.406
1607.92	455.509
1610.28	425.002
1612.64	400.686
1615	374.019
1617.36	359.184
1619.71	333.402
1622.07	320.531
1624.42	304.832
1626.78	295.243
1629.13	293.558
1631.48	280.07
1633.83	274.797
1636.18	276.962
1638.53	270.406
1640.88	257.61
1643.22	259.055
1645.57	250.184
1647.91	254.406
1650.26	260.832
1652.6	252.055
1654.94	247.499
1657.28	235.184
1659.62	246.943
1661.96	233.166
1664.29	242.61
1666.63	216.073
1668.96	219.442
1671.3	204.277
1673.63	204.517
1675.96	201.832
1678.29	196.61
1680.62	193.388
1682.95	191.295
1685.27	179.166
1687.6	181.943
1689.92	178.131
1692.25	184.943
1694.57	172.943
1696.89	178.832
1699.21	176.073
1701.53	175.721
1703.85	177.909
1706.17	173.628
1708.48	174.962
1710.8	169.406
1713.11	177.798
1715.43	168.277
1717.74	164.166
1720.05	172.002
1722.36	172.832
1724.67	172.132
1726.97	166.558
1729.28	165.908
1731.59	164.78
1733.89	164.61
1736.19	160.277
1738.5	152.336
1740.8	152.797
1743.1	156.962
1745.4	158.721
1747.7	145.406
1749.99	145.628
1752.29	148.943
1754.58	144.721
1756.88	141.406
1759.17	144.61
1761.46	144.832
1763.75	141.517
1766.04	144.184
1768.33	143.184
1770.62	147.628
1772.91	140.499
1775.19	139.277
1777.48	140.371
1779.76	142.019
1782.04	138.832
1784.32	140.295
1786.6	131.832
1788.88	128.499
1791.16	135.388
1793.44	132.797
1795.71	133.61
1797.99	130.61
1800.26	126.277
1802.54	131.943
1804.81	128.832
1807.08	126.943
1809.35	123.055
1811.62	125.388
1813.88	122.628
1816.15	121.832
1818.42	126.055
1820.68	115.739
1822.95	122.243
1825.21	128.406
1827.47	120.517
1829.73	118.517
1831.99	107.962
1834.25	114.166
1836.51	115.166
1838.76	115.517
1841.02	109.61
1843.27	119.832
1845.52	108.628
1847.78	98.499
1850.03	107.055
1852.28	104.499
1854.53	113.388
1856.78	107.962
1859.02	112.277
1861.27	109.073
1863.51	103.055
1865.76	111.721
1868	108.628
1870.24	112.406
1872.48	110.517
1874.72	106.113
1876.96	104.61
1879.2	103.832
1881.44	108.499
1883.67	97.8324
1885.91	103.406
1888.14	98.8505
1890.37	102.721
1892.61	102.721
1894.84	99.2768
1897.07	96.7394
1899.29	97.406
1901.52	97.7212
1903.75	99.1657
1905.97	98.5171
1908.2	100.832
1910.42	91.6101
1912.64	97.5171
1914.87	98.7394
1917.09	97.2768
1919.31	94.1657
1921.52	100.184
1923.74	94.7212
1925.96	93.8324
1928.17	91.499
1930.39	96.499
1932.6	94.9616
1934.81	95.2949
1937.03	90.3879
1939.24	95.406
1941.45	94.7394
1943.65	90.7212
1945.86	93.3879
1948.07	95.3879
1950.27	96.9435
1952.48	95.9435
1954.68	92.3879
1956.88	96.6283
1959.08	87.9435
1961.29	89.5171
1963.48	92.499
1965.68	90.0546
1967.88	91.6101
1970.08	93.1657
1972.27	84.7212
1974.47	83.9435
1976.66	84.6101
1978.85	89.406
1981.04	84.1838
1983.23	85.406
1985.42	78.0546
1987.61	85.0546
1989.8	85.2768
1991.99	82.406
1994.17	84.0546
1996.36	75.3879
1998.54	77.0546
2000.72	85.1657
2002.9	76.7394
2005.08	84.2768
2007.26	75.0727
2009.44	80.9616
2011.62	76.1838
2013.8	73.9435
2015.97	70.3879
2018.15	72.9616
2020.32	71.6101
2022.49	80.0546
2024.66	74.5171
2026.83	71.3879
2029	75.5171
2031.17	85.0546
2033.34	72.8505
2035.51	73.2949
2037.67	74.5171
2039.84	72.499
2042	69.8505
2044.16	77.2949
2046.32	76.499
2048.48	77.2768
2050.64	74.6283
2052.8	67.8505
2054.96	71.9435
2057.12	78.2768
2059.27	74.7212
2061.43	70.8324
2063.58	70.0546
2065.73	74.0727
2067.89	71.7394
2070.04	68.7394
2072.19	72.1657
2074.34	73.6101
2076.48	70.5171
2078.63	67.6101
2080.78	65.7212
2082.92	72.2768
2085.07	65.406
2087.21	67.3879
2089.35	70.5171
2091.49	65.3879
2093.63	69.9435
2095.77	65.499
2097.91	70.5171
2100.05	70.6101
2102.19	65.8324
2104.32	61.499
2106.45	66.9435
2108.59	63.6101
2110.72	62.7394
2112.85	63.8324
2114.98	65.499
2117.11	61.1838
2119.24	68.1657
2121.37	65.9616
2123.5	56.9435
2125.62	62.1657
2127.75	55.3879
2129.87	63.3879
2131.99	62.6101
2134.11	60.2768
2136.24	61.1838
2138.36	55.7212
2140.47	54.6101
2142.59	58.499
2144.71	62.2768
2146.83	53.6101
2148.94	58.2768
2151.06	57.0546
2153.17	61.5171
2155.28	56.2949
2157.39	55.5171
2159.5	56.1657
2161.61	59.5171
2163.72	57.2949
2165.83	54.7212
2167.94	55.0546
2170.04	51.1657
2172.15	54.499
2174.25	55.8324
2176.35	56.8324
2178.45	56.6283
2180.56	53.7394
2182.66	54.406
2184.75	51.2949
2186.85	51.9435
2188.95	50.7212
2191.05	49.6101
2193.14	51.9435
2195.24	51.0727
2197.33	52.7394
2199.42	48.3879
2201.51	50.8324
2203.6	43.0546
2205.69	46.0727
2207.78	48.6101
2209.87	45.406
2211.96	51.8505
2214.04	45.3879
2216.13	52.2768
2218.21	46.6283
2220.29	48.2768
2222.38	50.3879
2224.46	45.8505
2226.54	49.9616
2228.62	45.6101
2230.69	44.1657
2232.77	43.7394
2234.85	46.8505
2236.92	46.6283
2239	41.2768
2241.07	42.9435
2243.15	40.8324
2245.22	42.9435
2247.29	44.8324
2249.36	41.7394
2251.43	42.8324
2253.49	42.499
2255.56	45.3879
2257.63	41.7212
2259.69	41.8324
2261.76	37.406
2263.82	42.7212
2265.88	40.7212
2267.95	40.8324
2270.01	35.499
2272.07	38.2768
2274.12	43.9435
2276.18	39.2768
2278.24	35.2768
2280.3	38.2768
2282.35	36.6283
2284.41	40.0727
2286.46	40.9435
2288.51	44.2768
2290.56	36.406
2292.61	39.3528
2294.66	38.9435
2296.71	39.406
2298.76	32.499
2300.8	42.8505
2302.85	34.8324
2304.9	31.9616
2306.94	39.9616
2308.98	35.2768
2311.03	40.2949
2313.07	35.1838
2315.11	38.1657
2317.15	32.8324
2319.19	35.8505
2321.22	33.2768
2323.26	34.499
2325.3	32.2768
2327.33	34.9435
2329.36	32.7212
2331.4	29.499
2333.43	28.499
2335.46	27.3879
2337.49	30.0546
2339.52	27.8324
2341.55	27.6283
2343.58	30.0546
2345.6	39.8324
2347.63	40.8324
2349.65	27.7212
2351.68	26.406
2353.7	33.1838
2355.72	28.3879
2357.74	30.6283
2359.76	32.8505
2361.78	26.1657
2363.8	34.7394
2365.82	30.1838
2367.84	26.9435
2369.85	30.8505
2371.87	27.6101
2373.88	30.0546
2375.9	30.1657
2377.91	26.7394
2379.92	30.2768
2381.93	29.8324
2383.94	26.2768
2385.95	31.2768
2387.96	27.0546
2389.96	26.406
2391.97	28.1657
2393.97	29.7394
2395.98	28.9616
2397.98	30.499
2399.98	25.0546
2401.98	26.6101
2403.99	23.6283
2405.99	28.3879
2407.98	28.1657
2409.98	26.6101
2411.98	25.0727
2413.98	25.3879
2415.97	24.2768
2417.96	21.8324
2419.96	23.6101
2421.95	20.1657
2423.94	26.2949
2425.93	21.2768
2427.92	19.1838
2429.91	23.8324
2431.9	24.8324
2433.89	22.2768
2435.87	20.7394
2437.86	20.2768
2439.84	23.0727
2441.83	26.9435
2443.81	21.1657
2445.79	18.7212
2447.77	20.499
2449.75	22.9435
2451.73	17.9616
2453.71	18.0546
2455.69	22.2949
2457.67	19.3879
2459.64	16.1657
2461.62	21.0546
2463.59	19.6283
2465.56	16.8505
2467.54	16.0727
2469.51	18.7394
2471.48	12.6101
2473.45	15.9616
2475.42	25.0546
2477.38	17.8324
2479.35	20.8324
2481.32	22.8324
2483.28	18.2949
2485.25	16.8324
2487.21	19.1657
2489.17	17.3879
2491.13	20.9616
2493.09	17.8324
2495.05	17.0546
2497.01	16.3879
2498.97	15.8505
2500.93	18.406
2502.89	17.2768
2504.84	14.5171
2506.8	15.0546
2508.75	19.9435
2510.7	15.9435
2512.65	17.0727
2514.61	15.5171
2516.56	14.9616
2518.51	17.6283
2520.45	16.406
2522.4	18.406
2524.35	16.1657
2526.29	14.3879
2528.24	13.1838
2530.18	18.6283
2532.13	16.0546
2534.07	15.2768
2536.01	16.5171
2537.95	12.6101
2539.89	16.6101
2541.83	14.499
2543.77	11.7394
2545.71	13.9616
2547.64	12.406
2549.58	14.406
2551.51	13.9435
2553.45	11.9435
2555.38	15.8324
2557.31	17.9435
2559.25	17.2768
2561.18	12.8324
2563.11	11.9435
2565.03	15.6283
2566.96	12.9616
2568.89	9.61013
2570.82	12.1657
2572.74	10.8505
2574.67	14.0727
2576.59	8.72125
2578.51	12.0546
2580.43	12.7394
2582.36	14.6101
2584.28	8.72125
2586.2	11.1838
2588.11	13.406
2590.03	7.83236
2591.95	13.7212
2593.86	10.0727
2595.78	10.1838
2597.69	8.83236
2599.61	7.73937
2601.52	8.38791
2603.43	7.05458
2605.34	8.0727
2607.25	6.29492
2609.16	10.1657
2611.07	7.96159
2612.98	9.61013
2614.89	5.85048
2616.79	10.2768
2618.7	8.61013
2620.6	7.51714
2622.5	10.2949
2624.41	9.62825
2626.31	7.0727
2628.21	10.6101
2630.11	7.2768
2632.01	9.05458
2633.91	4.85048
2635.8	11.1838
2637.7	8.29492
2639.6	6.51714
2641.49	7.85048
2643.39	8.62825
2645.28	10.7212
2647.17	14.9435
2649.06	16.0546
2650.95	9.96159
2652.84	11.8505
2654.73	10.2949
2656.62	7.2768
2658.51	8.83236
2660.4	7.85048
2662.28	10.1838
2664.17	9.38791
2666.05	7.29492
2667.93	12.8324
2669.82	14.2949
2671.7	22.0727
2673.58	29.8324
2675.46	41.3879
2677.34	43.0546
2679.21	37.0546
2681.09	28.7212
2682.97	21.1657
2684.84	13.499
2686.72	11.3879
2688.59	19.9616
2690.47	47.1838
2692.34	66.6101
2694.21	151.628
2696.08	325.016
2697.95	327.295
2699.82	276.46
2701.69	153.184
2703.56	85.8324
2705.42	61.1838
2707.29	37.6101
2709.15	26.9435
2711.02	19.6101
2712.88	8.16569
2714.75	8.2768
2716.61	9.05458
2718.47	7.94347
2720.33	6.85048
2722.19	5.16569
2724.05	4.05458
2725.9	4.2768
2727.76	4.61013
2729.62	6.72125
2731.47	4.72125
2733.33	6.16569
2735.18	3.18381
2737.03	6.61013
2738.88	6.51714
2740.73	6.96159
2742.59	2.85048
2744.43	2.49902
2746.28	5.0727
2748.13	4.49902
2749.98	1.2768
2751.82	2.61013
2753.67	4.83236
2755.51	0.0726997
2757.36	3.13053
2759.2	4.16569
2761.04	6.05458
2762.88	1.85048
