365.286	298.262
368.238	290.792
371.189	293.602
374.139	295.226
377.087	312.914
380.034	304.004
382.979	300.153
385.923	281.441
388.866	270.886
391.806	248.023
394.745	255.349
397.684	262.918
400.62	265.055
403.555	269.165
406.49	271.943
409.421	267.531
412.353	273.101
415.282	257.989
418.209	261.657
421.137	267.606
424.062	267.615
426.985	274.153
429.908	285.661
432.829	276.441
435.748	282.556
438.666	279.981
441.583	270.779
444.498	267.087
447.412	266.975
450.324	271.558
453.235	279.667
456.145	284.4
459.052	286.206
461.959	268.984
464.865	258.08
467.769	250.205
470.671	252.16
473.572	253.8
476.471	253.82
479.37	258.456
482.266	255.98
485.162	265.134
488.056	261.964
490.948	265.127
493.839	275.898
496.73	287.454
499.618	309.95
502.505	353.162
505.39	396.119
508.275	418.187
511.157	422.354
514.039	408.956
516.919	411.788
519.798	416.025
522.674	431.743
525.55	435.805
528.425	456.299
531.297	449.886
534.169	456.162
537.039	428.16
539.908	384.919
542.775	342.678
545.642	319.384
548.506	288.739
551.369	264.061
554.231	258.673
557.092	242.232
559.951	234.941
562.808	233.931
565.664	226.191
568.519	216.495
571.373	212.856
574.225	211.768
577.076	208.641
579.925	201.188
582.773	207.814
585.62	203.036
588.466	209.703
591.309	202.547
594.152	205.141
596.993	204.935
599.832	202.382
602.671	208.694
605.508	194.42
608.343	202.298
611.178	195.028
614.011	202.375
616.842	196.591
619.672	203.845
622.501	202.899
625.329	215.296
628.155	214.546
630.98	207.514
633.802	214.214
636.624	207.734
639.445	205.118
642.264	204.044
645.082	197.158
647.898	198.521
650.714	196.06
653.527	203.701
656.34	191.965
659.151	195.01
661.961	194.893
664.769	192.557
667.576	198.618
670.382	199.879
673.186	198.772
675.989	206.015
678.791	202.468
681.591	223.677
684.39	228.443
687.187	255.836
689.983	277.774
692.779	305.748
695.572	299.146
698.363	269.444
701.155	235.449
703.944	211.518
706.733	200.552
709.519	201.335
712.305	196.891
715.089	191.879
717.871	198.686
720.653	184.061
723.433	189.141
726.212	196.613
728.989	194.213
731.765	179.413
734.54	187.825
737.313	182.5
740.085	186.93
742.856	185.467
745.625	182.65
748.394	174.638
751.16	181.619
753.926	187.187
756.689	194.179
759.452	187.323
762.214	182.638
764.974	184.382
767.733	178.657
770.49	183.42
773.246	179.645
776.001	194.952
778.755	189.373
781.507	194.998
784.258	197.016
787.007	204.722
789.756	227.878
792.502	246.729
795.247	276.016
797.992	305.429
800.735	315.73
803.477	309.188
806.217	281.238
808.956	251.423
811.694	227.308
814.43	214.736
817.165	197.426
819.899	196.581
822.631	191.089
825.362	186.716
828.092	186.65
830.82	190.302
833.548	190.985
836.274	186.402
838.998	187.551
841.721	185.264
844.444	183.434
847.165	186.945
849.884	184.126
852.601	196.431
855.318	183.434
858.034	188.071
860.749	180.853
863.461	177.914
866.173	168.995
868.883	172.617
871.592	164.666
874.3	175.33
877.006	167.188
879.712	171.64
882.415	177.121
885.118	168.683
887.819	175.537
890.519	174.323
893.218	175.905
895.914	178.769
898.611	178.962
901.306	182.872
903.999	181.751
906.692	184.136
909.382	178.139
912.072	172.495
914.761	168.24
917.447	166.419
920.133	171.042
922.818	176.35
925.501	167.193
928.183	174.335
930.864	179.126
933.543	171.59
936.221	169.243
938.898	166.695
941.574	166.146
944.248	171.331
946.921	173.521
949.593	172.015
952.263	171.431
954.932	180.301
957.6	173.545
960.267	173.524
962.932	177.207
965.597	174.484
968.26	179.813
970.922	169.419
973.581	181.591
976.241	171.383
978.898	171.063
981.555	163.531
984.21	171.211
986.864	173.65
989.517	174.413
992.169	187.426
994.819	179.768
997.468	189.125
1000.12	188.823
1002.76	191.055
1005.41	180.505
1008.05	187.999
1010.69	197.323
1013.34	197.926
1015.98	197.805
1018.61	201.911
1021.25	199.22
1023.89	200.678
1026.52	205.008
1029.16	205.283
1031.79	199.983
1034.42	208.42
1037.05	215.8
1039.68	212.874
1042.31	217.931
1044.93	230.923
1047.56	231.604
1050.18	240.173
1052.81	248.487
1055.43	268.433
1058.05	286.025
1060.67	330.37
1063.28	377.648
1065.9	449.971
1068.52	600.111
1071.13	767.648
1073.74	958.931
1076.35	1125.35
1078.96	1267.52
1081.57	1269.19
1084.18	1171.23
1086.79	989.553
1089.39	789.995
1092	617.505
1094.6	494.042
1097.2	412.663
1099.8	342.035
1102.4	304.555
1105	264.198
1107.6	259.023
1110.19	255.373
1112.79	248.207
1115.38	245.956
1117.97	247.793
1120.56	242.195
1123.15	243.223
1125.74	240.461
1128.33	238.219
1130.91	239.746
1133.5	224.296
1136.08	222.283
1138.66	208.938
1141.24	199.406
1143.82	197.114
1146.4	198.923
1148.98	192.349
1151.55	193.437
1154.13	192.495
1156.7	190.615
1159.27	185.196
1161.85	182.226
1164.42	186.399
1166.98	184.283
1169.55	199.271
1172.12	192.8
1174.68	203.323
1177.25	217.656
1179.81	243.471
1182.37	250.976
1184.93	266.45
1187.49	251.754
1190.05	233.192
1192.6	197
1195.16	183.505
1197.71	175.248
1200.27	162.772
1202.82	166.643
1205.37	160.656
1207.92	166.497
1210.47	164.938
1213.01	166.262
1215.56	166.022
1218.1	164.389
1220.65	161.145
1223.19	165.818
1225.73	165.262
1228.27	172.666
1230.81	169.858
1233.35	167.224
1235.88	172.212
1238.42	171.888
1240.95	178.761
1243.48	173.748
1246.02	173.807
1248.55	179.224
1251.07	191.231
1253.6	185.354
1256.13	205.074
1258.66	192.077
1261.18	192.78
1263.7	198.547
1266.22	195.971
1268.75	203.754
1271.27	214.085
1273.78	214.754
1276.3	231.368
1278.82	235.432
1281.33	238.931
1283.85	250.009
1286.36	243.219
1288.87	247.888
1291.38	256.826
1293.89	264.113
1296.4	252.584
1298.9	254.48
1301.41	247.406
1303.91	250.879
1306.41	244.205
1308.92	244.08
1311.42	245.151
1313.92	244.532
1316.42	241.728
1318.91	234.956
1321.41	219.997
1323.9	223.666
1326.4	209.937
1328.89	214.134
1331.38	205.945
1333.87	203.586
1336.36	205.162
1338.85	196.179
1341.34	194.91
1343.82	185.708
1346.31	183.858
1348.79	180.251
1351.27	179.892
1353.75	182.667
1356.23	177.537
1358.71	179.264
1361.19	173.368
1363.66	190.134
1366.14	179.838
1368.61	199.613
1371.09	192.888
1373.56	193.248
1376.03	192.335
1378.5	198.088
1380.96	198.611
1383.43	196.971
1385.9	201.2
1388.36	197.616
1390.83	189.375
1393.29	190.833
1395.75	192.221
1398.21	188.968
1400.67	187.879
1403.13	186.176
1405.58	185.857
1408.04	181.669
1410.49	174.989
1412.95	174.799
1415.4	176.523
1417.85	177.465
1420.3	172.672
1422.75	168.71
1425.2	179.506
1427.64	172.606
1430.09	178.222
1432.53	169.14
1434.97	171.649
1437.42	164.565
1439.86	161.935
1442.3	159.056
1444.73	159.864
1447.17	145.95
1449.61	151.342
1452.04	145.084
1454.48	139.971
1456.91	147.16
1459.34	141.418
1461.77	137.572
1464.2	145.753
1466.63	137.543
1469.06	146.472
1471.48	156.499
1473.91	156.086
1476.33	162.93
1478.75	172.782
1481.17	186.547
1483.6	189.474
1486.01	174.138
1488.43	161.605
1490.85	152.481
1493.27	134.709
1495.68	129.19
1498.09	129.298
1500.51	123.354
1502.92	133.311
1505.33	125.65
1507.74	125.581
1510.14	127.848
1512.55	122.531
1514.96	123.505
1517.36	127.671
1519.77	128.021
1522.17	128.047
1524.57	128.799
1526.97	129.035
1529.37	130.782
1531.77	132.404
1534.16	126.683
1536.56	129.127
1538.95	132.173
1541.35	128.621
1543.74	133.307
1546.13	138.112
1548.52	139.944
1550.91	138.108
1553.3	135.462
1555.68	139.382
1558.07	140.375
1560.45	142.219
1562.84	149.11
1565.22	145.239
1567.6	158.843
1569.98	170.425
1572.36	189.889
1574.74	222.827
1577.12	268.244
1579.49	342.359
1581.87	423.31
1584.24	536.724
1586.61	695.545
1588.98	851.36
1591.35	990.696
1593.72	977.47
1596.09	888.034
1598.46	720.048
1600.82	536.669
1603.19	433.282
1605.55	363.605
1607.92	320.644
1610.28	287.302
1612.64	271.299
1615	251.051
1617.36	235.725
1619.71	230.97
1622.07	221.423
1624.42	220.264
1626.78	209.876
1629.13	217.935
1631.48	220.923
1633.83	219.111
1636.18	227.369
1638.53	228.133
1640.88	228.919
1643.22	237.2
1645.57	244.35
1647.91	242.365
1650.26	242.057
1652.6	253.277
1654.94	252.249
1657.28	254.855
1659.62	251.181
1661.96	244.564
1664.29	229.593
1666.63	225.566
1668.96	218.891
1671.3	202.637
1673.63	193.034
1675.96	185.057
1678.29	181.239
1680.62	178.548
1682.95	161.604
1685.27	164.327
1687.6	157.196
1689.92	150.997
1692.25	143.152
1694.57	141.723
1696.89	141.508
1699.21	143.24
1701.53	137.938
1703.85	134.205
1706.17	140.975
1708.48	136.506
1710.8	131.909
1713.11	130.82
1715.43	124.08
1717.74	120.788
1720.05	124.543
1722.36	120.119
1724.67	121.859
1726.97	122.578
1729.28	120.733
1731.59	117.545
1733.89	115.593
1736.19	110.94
1738.5	109.311
1740.8	97.8573
1743.1	101.633
1745.4	96.3279
1747.7	99.5308
1749.99	97.2099
1752.29	84.6937
1754.58	89.4321
1756.88	90.344
1759.17	83.5505
1761.46	87.2223
1763.75	86.5124
1766.04	89.7403
1768.33	88.2823
1770.62	90.368
1772.91	89.465
1775.19	83.2831
1777.48	90.4179
1779.76	84.0158
1782.04	82.4262
1784.32	80.5456
1786.6	85.3114
1788.88	82.1522
1791.16	79.867
1793.44	80.7336
1795.71	75.373
1797.99	81.1268
1800.26	80.6419
1802.54	82.7744
1804.81	81.8695
1807.08	80.8866
1809.35	75.9096
1811.62	82.5507
1813.88	78.7469
1816.15	78.8388
1818.42	80.1191
1820.68	79.2556
1822.95	77.7744
1825.21	77.33
1827.47	74.4697
1829.73	75.0537
1831.99	78.0863
1834.25	73.6326
1836.51	77.2888
1838.76	70.5549
1841.02	74.2381
1843.27	78.3082
1845.52	77.077
1847.78	74.2247
1850.03	71.2171
1852.28	75.5142
1854.53	75.1032
1856.78	71.9825
1859.02	75.5522
1861.27	72.9448
1863.51	72.2171
1865.76	74.1434
1868	68.7584
1870.24	70.8523
1872.48	69.9612
1874.72	68.789
1876.96	73.0496
1879.2	69.534
1881.44	74.4677
1883.67	71.7669
1885.91	70.312
1888.14	72.1808
1890.37	72.2781
1892.61	69.4558
1894.84	71.5826
1897.07	67.7729
1899.29	70.0419
1901.52	75.8117
1903.75	72.1117
1905.97	71.3985
1908.2	70.027
1910.42	70.0677
1912.64	71.6585
1914.87	70.0763
1917.09	67.0341
1919.31	65.6112
1921.52	65.9286
1923.74	69.7008
1925.96	71.2477
1928.17	67.4058
1930.39	65.855
1932.6	63.1201
1934.81	67.5284
1937.03	66.6888
1939.24	67.9234
1941.45	64.4994
1943.65	63.3117
1945.86	63.5004
1948.07	63.5722
1950.27	66.8993
1952.48	63.4272
1954.68	64.9765
1956.88	63.949
1959.08	67.8168
1961.29	59.8521
1963.48	60.2947
1965.68	63.3555
1967.88	65.1852
1970.08	62.1456
1972.27	62.547
1974.47	64.4994
1976.66	62.5371
1978.85	65.3098
1981.04	63.0054
1983.23	58.94
1985.42	61.6402
1987.61	60.0875
1989.8	59.1986
1991.99	61.9474
1994.17	59.0892
1996.36	60.7267
1998.54	57.7884
2000.72	61.3438
2002.9	58.6635
2005.08	60.3944
2007.26	52.7464
2009.44	60.048
2011.62	60.7926
2013.8	59.9674
2015.97	57.1381
2018.15	57.2189
2020.32	61.7791
2022.49	54.7333
2024.66	57.1975
2026.83	55.1012
2029	57.3327
2031.17	57.1884
2033.34	58.6829
2035.51	54.9633
2037.67	54.4199
2039.84	57.0166
2042	56.5242
2044.16	57.0866
2046.32	57.5055
2048.48	51.4608
2050.64	56.7577
2052.8	58.2993
2054.96	53.0875
2057.12	58.7875
2059.27	56.4104
2061.43	54.629
2063.58	55.5589
2065.73	53.6733
2067.89	55.3356
2070.04	60.7153
2072.19	54.0423
2074.34	59.1238
2076.48	53.2094
2078.63	55.167
2080.78	56.4864
2082.92	57.2334
2085.07	48.1381
2087.21	50.7999
2089.35	55.5951
2091.49	52.6633
2093.63	53.4272
2095.77	54.1077
2097.91	54.7265
2100.05	49.7012
2102.19	54.6947
2104.32	52.6349
2106.45	52.7319
2108.59	49.8389
2110.72	51.5033
2112.85	50.4916
2114.98	53.5977
2117.11	51.6951
2119.24	50.7478
2121.37	52.8776
2123.5	51.7588
2125.62	49.1462
2127.75	51.5052
2129.87	52.0059
2131.99	48.807
2134.11	49.3951
2136.24	51.0509
2138.36	47.9686
2140.47	51.2243
2142.59	49.8471
2144.71	50.2461
2146.83	51.4508
2148.94	52.0958
2151.06	50.1906
2153.17	48.8882
2155.28	51.3045
2157.39	47.3482
2159.5	48.1636
2161.61	49.3627
2163.72	50.8789
2165.83	45.9375
2167.94	47.2575
2170.04	46.1248
2172.15	46.4736
2174.25	46.1381
2176.35	48.0824
2178.45	48.1317
2180.56	45.9419
2182.66	47.7276
2184.75	47.2833
2186.85	47.4183
2188.95	44.2094
2191.05	43.9977
2193.14	43.8783
2195.24	47.1079
2197.33	45.7491
2199.42	46.1913
2201.51	46.8257
2203.6	45.2139
2205.69	44.2747
2207.78	43.7533
2209.87	43.564
2211.96	45.7282
2214.04	41.3872
2216.13	45.4007
2218.21	43.604
2220.29	47.5524
2222.38	50.4092
2224.46	44.5215
2226.54	43.7676
2228.62	44.4756
2230.69	44.2358
2232.77	45.1854
2234.85	45.7033
2236.92	43.1105
2239	41.0983
2241.07	42.8128
2243.15	39.994
2245.22	38.0299
2247.29	41.1268
2249.36	46.2643
2251.43	40.9676
2253.49	41.9898
2255.56	44.1077
2257.63	44.0418
2259.69	39.5217
2261.76	41.8474
2263.82	41.3392
2265.88	40.2888
2267.95	40.5749
2270.01	42.4197
2272.07	40.9183
2274.12	38.5456
2276.18	40.7836
2278.24	37.5828
2280.3	38.3555
2282.35	40.4221
2284.41	38.6905
2286.46	37.3205
2288.51	38.1882
2290.56	41.5808
2292.61	38.1383
2294.66	38.7971
2296.71	39.8511
2298.76	40.0299
2300.8	39.8444
2302.85	39.1649
2304.9	39.7988
2306.94	39.1671
2308.98	38.1564
2311.03	35.576
2313.07	39.3858
2315.11	36.4148
2317.15	40.2139
2319.19	34.7678
2321.22	32.6815
2323.26	36.8995
2325.3	37.2492
2327.33	35.7595
2329.36	33.1622
2331.4	38.0369
2333.43	37.028
2335.46	38.5208
2337.49	38.3302
2339.52	34.3302
2341.55	38.1612
2343.58	38.035
2345.6	37.9449
2347.63	46.5409
2349.65	36.5456
2351.68	36.2276
2353.7	34.9235
2355.72	35.1722
2357.74	35.3892
2359.76	36.2216
2361.78	36.3594
2363.8	35.8129
2365.82	33.6635
2367.84	35.6658
2369.85	34.5508
2371.87	35.2951
2373.88	35.1077
2375.9	35.3512
2377.91	34.6329
2379.92	35.6115
2381.93	37.9498
2383.94	35.7727
2385.95	35.5055
2387.96	33.598
2389.96	36.9949
2391.97	33.7452
2393.97	33.0929
2395.98	35.1198
2397.98	35.0097
2399.98	31.0458
2401.98	34.5106
2403.99	33.373
2405.99	30.2094
2407.98	35.4867
2409.98	32.3604
2411.98	35.3537
2413.98	35.0206
2415.97	34.3397
2417.96	34.6042
2419.96	31.8955
2421.95	31.1318
2423.94	32.0588
2425.93	29.1906
2427.92	29.5826
2429.91	36.381
2431.9	29.223
2433.89	35.1383
2435.87	33.9661
2437.86	31.5507
2439.84	31.5622
2441.83	32.3088
2443.81	31.3286
2445.79	30.803
2447.77	29.6888
2449.75	30.3234
2451.73	32.3009
2453.71	30.7267
2455.69	32.238
2457.67	30.9748
2459.64	31.3949
2461.62	31.3062
2463.59	28.5843
2465.56	32.3282
2467.54	30.5711
2469.51	27.147
2471.48	31.1591
2473.45	33.2286
2475.42	31.5662
2477.38	33.7943
2479.35	26.9099
2481.32	29.6888
2483.28	30.911
2485.25	32.8366
2487.21	26.4956
2489.17	28.1925
2491.13	30.3865
2493.09	29.2832
2495.05	31.5355
2497.01	28.0205
2498.97	30.2699
2500.93	26.5563
2502.89	25.6353
2504.84	29.2579
2506.8	28.307
2508.75	28.4106
2510.7	34.1191
2512.65	27.1711
2514.61	28.5371
2516.56	30.82
2518.51	27.585
2520.45	28.7744
2522.4	26.9414
2524.35	26.106
2526.29	26.8648
2528.24	27.9208
2530.18	28.4272
2532.13	28.3878
2534.07	26.0345
2536.01	28.734
2537.95	25.5595
2539.89	26.5999
2541.83	28.7526
2543.77	27.7363
2545.71	30.6565
2547.64	26.0725
2549.58	29.6163
2551.51	28.6403
2553.45	28.2981
2555.38	28.3354
2557.31	32.6508
2559.25	27.0774
2561.18	27.2415
2563.11	25.7006
2565.03	27.6686
2566.96	28.7427
2568.89	25.6725
2570.82	23.4867
2572.74	26.289
2574.67	26.5033
2576.59	23.9361
2578.51	28.9633
2580.43	26.8959
2582.36	25.7836
2584.28	25.2573
2586.2	27.2882
2588.11	24.5826
2590.03	25.1105
2591.95	27.7997
2593.86	26.5029
2595.78	28.3036
2597.69	24.5807
2599.61	29.0725
2601.52	26.073
2603.43	24.3341
2605.34	24.7333
2607.25	26.4479
2609.16	26.212
2611.07	28.58
2612.98	24.8438
2614.89	25.1482
2616.79	25.4874
2618.7	25.5428
2620.6	23.9448
2622.5	20.4715
2624.41	22.6042
2626.31	23.347
2628.21	26.2485
2630.11	24.3223
2632.01	24.1712
2633.91	22.1053
2635.8	26.7646
2637.7	25.3541
2639.6	25.2091
2641.49	23.7278
2643.39	24.9027
2645.28	29.4131
2647.17	29.9291
2649.06	29.7745
2650.95	29.2164
2652.84	25.2831
2654.73	28.3819
2656.62	26.2813
2658.51	28.1035
2660.4	24.9169
2662.28	25.9894
2664.17	23.1909
2666.05	24.0344
2667.93	28.4106
2669.82	31.722
2671.7	34.7935
2673.58	50.8289
2675.46	61.204
2677.34	63.3939
2679.21	52.2699
2681.09	44.4436
2682.97	36.6822
2684.84	30.1321
2686.72	30.1885
2688.59	43.3469
2690.47	62.9052
2692.34	85.1665
2694.21	155.558
2696.08	303.255
2697.95	317.041
2699.82	266.844
2701.69	165.708
2703.56	107.41
2705.42	72.8841
2707.29	56.7791
2709.15	41.3813
2711.02	36.876
2712.88	27.5269
2714.75	26.686
2716.61	28.4436
2718.47	25.773
2720.33	24.4078
2722.19	25.6873
2724.05	21.9825
2725.9	23.5524
2727.76	23.1569
2729.62	24.2884
2731.47	19.6252
2733.33	21.3577
2735.18	23.5321
2737.03	22.9633
2738.88	23.4787
2740.73	21.8776
2742.59	20.9894
2744.43	22.0165
2746.28	20.7125
2748.13	21.8892
2749.98	21.7999
2751.82	18.5428
2753.67	21.7719
2755.51	23.1906
2757.36	20.6554
2759.2	22.2512
2761.04	18.3827
2762.88	16.9941
