365.286	224.918
368.238	222.898
371.189	238.802
374.139	241.391
377.087	251.585
380.034	261.459
382.979	257.46
385.923	234.816
388.866	219.63
391.806	202.295
394.745	207.701
397.684	209.687
400.62	205.888
403.555	204.72
406.49	210.739
409.421	200.329
412.353	202.773
415.282	210.114
418.209	209.594
421.137	213.998
424.062	209.34
426.985	218.773
429.908	234.903
432.829	234.896
435.748	238.684
438.666	236.779
441.583	234.145
444.498	215.657
447.412	220.568
450.324	230.616
453.235	230.647
456.145	232.178
459.052	230.349
461.959	226.131
464.865	210.374
467.769	205.965
470.671	200.969
473.572	198.657
476.471	196.491
479.37	198.108
482.266	196.207
485.162	201.733
488.056	198.008
490.948	203.34
493.839	213.267
496.73	214.203
499.618	222.475
502.505	236.135
505.39	261.411
508.275	273.681
511.157	274.737
514.039	272.03
516.919	284.044
519.798	282.766
522.674	280.576
525.55	277.449
528.425	277.4
531.297	285.319
534.169	285.381
537.039	267.015
539.908	250.572
542.775	242.811
545.642	225.048
548.506	207.203
551.369	203.007
554.231	201.96
557.092	197.588
559.951	183.398
562.808	179.353
565.664	172.782
568.519	176.915
571.373	169.632
574.225	178.158
577.076	176.653
579.925	161.81
582.773	163.239
585.62	159.49
588.466	160.015
591.309	156.859
594.152	168.4
596.993	165.743
599.832	163.898
602.671	158.981
605.508	158.844
608.343	161.062
611.178	166.943
614.011	163.366
616.842	155.998
619.672	159.357
622.501	158.361
625.329	167.511
628.155	171.352
630.98	167.088
633.802	179.186
636.624	174.675
639.445	168.765
642.264	164.721
645.082	165.222
647.898	162.858
650.714	162.808
653.527	160.575
656.34	152.211
659.151	158.579
661.961	150.828
664.769	155.338
667.576	154.147
670.382	159.89
673.186	160.857
675.989	159.023
678.791	162.602
681.591	177.605
684.39	177.202
687.187	184.011
689.983	196.337
692.779	202.682
695.572	207.982
698.363	199.474
701.155	179.446
703.944	174.916
706.733	161.713
709.519	156.878
712.305	151
715.089	153.894
717.871	149.666
720.653	152.592
723.433	155.522
726.212	156.469
728.989	151.706
731.765	148.45
734.54	150.465
737.313	154.297
740.085	152.248
742.856	149.131
745.625	149.319
748.394	148.721
751.16	151.957
753.926	146.224
756.689	154.221
759.452	150.893
762.214	158.309
764.974	159.204
767.733	154.504
770.49	157.813
773.246	151.488
776.001	149.909
778.755	155.067
781.507	155.335
784.258	162.204
787.007	170.023
789.756	179.61
792.502	192.193
795.247	201.79
797.992	219.826
800.735	221.415
803.477	221.912
806.217	219.843
808.956	195.612
811.694	179.379
814.43	165.448
817.165	166.818
819.899	149.943
822.631	153.133
825.362	152.128
828.092	145.105
830.82	147.205
833.548	146.379
836.274	142.044
838.998	143.017
841.721	146.567
844.444	145.759
847.165	146.765
849.884	143.763
852.601	147.405
855.318	145.113
858.034	141.895
860.749	139.43
863.461	144.924
866.173	139.277
868.883	145.613
871.592	141.683
874.3	138.024
877.006	136.009
879.712	135.345
882.415	139.102
885.118	151.639
887.819	143.253
890.519	145.027
893.218	151.499
895.914	145.65
898.611	149.203
901.306	145.989
903.999	148.262
906.692	145.387
909.382	151.791
912.072	144.592
914.761	144.131
917.447	150.674
920.133	143.261
922.818	141.581
925.501	142.184
928.183	137.305
930.864	137.683
933.543	143.225
936.221	141.54
938.898	138.38
941.574	133.583
944.248	140.912
946.921	143.993
949.593	142.002
952.263	139.424
954.932	138.126
957.6	139.604
960.267	146.241
962.932	139.957
965.597	145.357
968.26	139.966
970.922	137.878
973.581	138.288
976.241	138.579
978.898	140.798
981.555	133.45
984.21	141.521
986.864	144.702
989.517	145.128
992.169	154.333
994.819	145.006
997.468	142.367
1000.12	143.782
1002.76	144.146
1005.41	143.886
1008.05	144.663
1010.69	146.567
1013.34	150.004
1015.98	149.992
1018.61	149.034
1021.25	152.443
1023.89	157.179
1026.52	154.567
1029.16	159.234
1031.79	157.351
1034.42	160.665
1037.05	166.799
1039.68	166.359
1042.31	164.353
1044.93	173.41
1047.56	176.634
1050.18	176.179
1052.81	192.153
1055.43	199.178
1058.05	203.8
1060.67	218.683
1063.28	241.388
1065.9	271.369
1068.52	326.384
1071.13	396.298
1073.74	472.332
1076.35	547.212
1078.96	616.718
1081.57	648.684
1084.18	656.515
1086.79	627.645
1089.39	541.444
1092	460.269
1094.6	388.452
1097.2	344.092
1099.8	281.025
1102.4	249.238
1105	226.128
1107.6	212.03
1110.19	208.926
1112.79	199.197
1115.38	207.047
1117.97	210.168
1120.56	211.565
1123.15	209.562
1125.74	205.552
1128.33	196.887
1130.91	190.979
1133.5	182.43
1136.08	178.168
1138.66	166.56
1141.24	167.314
1143.82	160.917
1146.4	151.676
1148.98	157.94
1151.55	152.158
1154.13	158.825
1156.7	147.907
1159.27	150.788
1161.85	144.889
1164.42	139.538
1166.98	147.018
1169.55	141.75
1172.12	143.441
1174.68	151.666
1177.25	154.103
1179.81	164.549
1182.37	165.341
1184.93	166.151
1187.49	170.075
1190.05	157.308
1192.6	144.464
1195.16	131.911
1197.71	130.718
1200.27	122.681
1202.82	123.668
1205.37	129.005
1207.92	121.23
1210.47	122.446
1213.01	127.666
1215.56	124.454
1218.1	123.221
1220.65	124.616
1223.19	129.382
1225.73	127.811
1228.27	130.453
1230.81	124.586
1233.35	132.713
1235.88	131.042
1238.42	126.922
1240.95	131.429
1243.48	136.798
1246.02	138.621
1248.55	128.683
1251.07	140.866
1253.6	130.953
1256.13	136.255
1258.66	131.354
1261.18	136.947
1263.7	141.631
1266.22	142.336
1268.75	149.5
1271.27	147.037
1273.78	150.844
1276.3	163.08
1278.82	150.004
1281.33	161.145
1283.85	163.697
1286.36	164.113
1288.87	168.845
1291.38	174.747
1293.89	174.411
1296.4	166.586
1298.9	164.353
1301.41	161.811
1303.91	160.392
1306.41	160.045
1308.92	169.957
1311.42	165.931
1313.92	165.335
1316.42	161.141
1318.91	163.092
1321.41	158.716
1323.9	156.747
1326.4	156.024
1328.89	152.463
1331.38	149.422
1333.87	158.637
1336.36	152.953
1338.85	151.545
1341.34	150.845
1343.82	145.115
1346.31	135.169
1348.79	134.594
1351.27	131.015
1353.75	137.56
1356.23	133.684
1358.71	134.321
1361.19	130.427
1363.66	139.099
1366.14	142.43
1368.61	139.4
1371.09	147.473
1373.56	153.113
1376.03	157.908
1378.5	158.879
1380.96	157.803
1383.43	153.541
1385.9	149.614
1388.36	141.68
1390.83	137.628
1393.29	138.773
1395.75	134.262
1398.21	137.658
1400.67	134.332
1403.13	129.519
1405.58	138.062
1408.04	135.696
1410.49	132.857
1412.95	131.909
1415.4	133.117
1417.85	128.738
1420.3	123.573
1422.75	126.305
1425.2	130.05
1427.64	126.219
1430.09	123.051
1432.53	126.794
1434.97	119.423
1437.42	114.728
1439.86	116.991
1442.3	118.703
1444.73	113.367
1447.17	111.324
1449.61	112.034
1452.04	107.898
1454.48	108.557
1456.91	111.446
1459.34	116.04
1461.77	109.146
1464.2	112.348
1466.63	110.538
1469.06	109.992
1471.48	112.93
1473.91	114.032
1476.33	121.138
1478.75	117.665
1481.17	113.986
1483.6	130.854
1486.01	126.654
1488.43	117.805
1490.85	112.316
1493.27	106.833
1495.68	96.7875
1498.09	97.3415
1500.51	96.9133
1502.92	93.0667
1505.33	92.0335
1507.74	96.9411
1510.14	92.0047
1512.55	92.1344
1514.96	93.7859
1517.36	90.1672
1519.77	93.4219
1522.17	91.8537
1524.57	91.2121
1526.97	89.3663
1529.37	93.5914
1531.77	93.0436
1534.16	95.0317
1536.56	94.2005
1538.95	97.623
1541.35	98.4784
1543.74	97.8117
1546.13	91.4507
1548.52	93.3244
1550.91	95.6292
1553.3	95.3534
1555.68	91.0905
1558.07	96.0204
1560.45	100.989
1562.84	97.6558
1565.22	107.858
1567.6	103.888
1569.98	107.153
1572.36	114.09
1574.74	123.814
1577.12	144.039
1579.49	170.544
1581.87	207.036
1584.24	263.828
1586.61	322.671
1588.98	387.427
1591.35	450.126
1593.72	460.017
1596.09	448.71
1598.46	381.11
1600.82	313.017
1603.19	247.601
1605.55	203.663
1607.92	178.141
1610.28	169.169
1612.64	157.1
1615	152.169
1617.36	146.789
1619.71	136.161
1622.07	133.046
1624.42	134.134
1626.78	135.823
1629.13	130.657
1631.48	126.77
1633.83	133.77
1636.18	142.736
1638.53	134.509
1640.88	138.484
1643.22	138.239
1645.57	144.224
1647.91	144.963
1650.26	139.457
1652.6	149.604
1654.94	142.588
1657.28	140.506
1659.62	147.512
1661.96	148.19
1664.29	133.224
1666.63	129.571
1668.96	128.898
1671.3	119.798
1673.63	119.121
1675.96	115.843
1678.29	110.644
1680.62	109.086
1682.95	101.436
1685.27	103.544
1687.6	97.4966
1689.92	98.908
1692.25	93.6748
1694.57	97.7088
1696.89	103.731
1699.21	100.485
1701.53	99.9935
1703.85	94.8012
1706.17	92.5853
1708.48	91.1571
1710.8	91.4398
1713.11	88.6105
1715.43	85.4577
1717.74	82.0086
1720.05	84.9056
1722.36	87.554
1724.67	89.0403
1726.97	84.5106
1729.28	82.8325
1731.59	81.5151
1733.89	77.9298
1736.19	77.8176
1738.5	76.1126
1740.8	73.7768
1743.1	72.6997
1745.4	70.4253
1747.7	71.1767
1749.99	70.0672
1752.29	68.5423
1754.58	64.0273
1756.88	75.5298
1759.17	64.0015
1761.46	68.0866
1763.75	63.9392
1766.04	66.5619
1768.33	61.6753
1770.62	69.4865
1772.91	66.35
1775.19	65.5584
1777.48	66.1441
1779.76	66.8855
1782.04	67.0257
1784.32	60.2375
1786.6	64.2461
1788.88	59.262
1791.16	62.7638
1793.44	61.9996
1795.71	55.8017
1797.99	60.733
1800.26	61.1243
1802.54	59.7657
1804.81	56.167
1807.08	62.682
1809.35	60.5809
1811.62	56.4526
1813.88	60.5522
1816.15	59.0116
1818.42	58.3503
1820.68	63.9014
1822.95	55.9186
1825.21	56.6082
1827.47	58.5423
1829.73	57.8943
1831.99	56.3324
1834.25	59.7338
1836.51	57.3634
1838.76	57.0098
1841.02	59.8434
1843.27	59.8027
1845.52	57.8054
1847.78	57.8132
1850.03	58.5685
1852.28	55.9899
1854.53	53.338
1856.78	56.5906
1859.02	55.1541
1861.27	54.1983
1863.51	57.4718
1865.76	55.5656
1868	53.0301
1870.24	58.6924
1872.48	56.2344
1874.72	51.0177
1876.96	55.2008
1879.2	54.2451
1881.44	53.9501
1883.67	53.8007
1885.91	48.4698
1888.14	54.8325
1890.37	53.7294
1892.61	54.1927
1894.84	53.3534
1897.07	50.4673
1899.29	53.5703
1901.52	54.4441
1903.75	54.5276
1905.97	52.9868
1908.2	54.2574
1910.42	52.5805
1912.64	50.0219
1914.87	50.7342
1917.09	53.7747
1919.31	49.8983
1921.52	54.1637
1923.74	52.2281
1925.96	54.3462
1928.17	47.66
1930.39	53.3663
1932.6	53.5675
1934.81	51.4378
1937.03	49.5984
1939.24	51.6219
1941.45	48.8145
1943.65	53.1107
1945.86	49.8965
1948.07	48.9066
1950.27	50.0071
1952.48	49.7478
1954.68	52.1942
1956.88	52.8515
1959.08	50.9286
1961.29	48.8355
1963.48	43.2389
1965.68	49.2873
1967.88	47.4673
1970.08	47.8908
1972.27	47.232
1974.47	49.3415
1976.66	48.262
1978.85	49.9508
1981.04	51.8675
1983.23	50.1293
1985.42	49.5941
1987.61	49.4563
1989.8	48.3393
1991.99	44.6227
1994.17	46.1598
1996.36	45.5688
1998.54	46.3014
2000.72	43.9018
2002.9	49.5672
2005.08	46.6987
2007.26	48.7925
2009.44	48.188
2011.62	48.1286
2013.8	44.7072
2015.97	44.4187
2018.15	44.7645
2020.32	45.1645
2022.49	45.9134
2024.66	44.7907
2026.83	45.8491
2029	45.6942
2031.17	48.7622
2033.34	44.5618
2035.51	43.6683
2037.67	44.5384
2039.84	46.1965
2042	47.1711
2044.16	43.0076
2046.32	43.6695
2048.48	47.1267
2050.64	44.9645
2052.8	40.1871
2054.96	40.0143
2057.12	37.8245
2059.27	43.0063
2061.43	39.2375
2063.58	42.1259
2065.73	42.5298
2067.89	43.5781
2070.04	41.8879
2072.19	42.2016
2074.34	41.3631
2076.48	43.9319
2078.63	42.1288
2080.78	43.1416
2082.92	41.1002
2085.07	40.7824
2087.21	43.0081
2089.35	43.4526
2091.49	41.7521
2093.63	41.4673
2095.77	40.2759
2097.91	41.7232
2100.05	41.5965
2102.19	39.1547
2104.32	38.7049
2106.45	39.1225
2108.59	42.167
2110.72	38.1688
2112.85	38.6834
2114.98	42.3879
2117.11	41.3466
2119.24	42.1293
2121.37	35.8289
2123.5	40.2355
2125.62	41.2059
2127.75	40.2214
2129.87	35.7489
2131.99	39.5522
2134.11	36.4515
2136.24	36.5779
2138.36	39.6261
2140.47	38.8108
2142.59	39.078
2144.71	38.2304
2146.83	38.7521
2148.94	38.1377
2151.06	38.9844
2153.17	41.2668
2155.28	37.4683
2157.39	38.5112
2159.5	37.5699
2161.61	36.5107
2163.72	35.7414
2165.83	38.1552
2167.94	35.4784
2170.04	35.1478
2172.15	31.1077
2174.25	33.2527
2176.35	35.6948
2178.45	35.2344
2180.56	38.0553
2182.66	34.8525
2184.75	37.3329
2186.85	37.2793
2188.95	35.5486
2191.05	36.5984
2193.14	38.0086
2195.24	35.2214
2197.33	37.33
2199.42	39.2604
2201.51	36.0153
2203.6	33.0239
2205.69	36.3541
2207.78	37.5546
2209.87	35.7334
2211.96	36.6854
2214.04	34.4328
2216.13	34.4881
2218.21	36.6047
2220.29	37.2028
2222.38	34.6905
2224.46	39.2365
2226.54	37.4187
2228.62	34.2113
2230.69	32.2456
2232.77	31.2269
2234.85	34.6534
2236.92	34.2631
2239	34.188
2241.07	33.8434
2243.15	34.1177
2245.22	34.7903
2247.29	30.1278
2249.36	34.354
2251.43	33.7859
2253.49	30.9646
2255.56	28.9128
2257.63	32.2854
2259.69	32.9403
2261.76	34.7611
2263.82	31.1264
2265.88	33.6651
2267.95	30.0971
2270.01	37.0222
2272.07	30.4725
2274.12	32.0129
2276.18	31.4858
2278.24	32.796
2280.3	33.5298
2282.35	32.7068
2284.41	33.2479
2286.46	32.2005
2288.51	28.5423
2290.56	26.043
2292.61	34.9844
2294.66	32.2066
2296.71	29.2133
2298.76	30.1786
2300.8	30.7204
2302.85	29.5104
2304.9	28.7244
2306.94	31.1935
2308.98	33.154
2311.03	29.9875
2313.07	31.8547
2315.11	29.8879
2317.15	27.6047
2319.19	31.1475
2321.22	29.7426
2323.26	29.312
2325.3	30.1544
2327.33	29.0076
2329.36	25.6636
2331.4	30.6657
2333.43	29.2624
2335.46	29.431
2337.49	26.9143
2339.52	26.076
2341.55	28.2589
2343.58	26.4673
2345.6	31.7854
2347.63	40.7844
2349.65	28.189
2351.68	30.2113
2353.7	28.4435
2355.72	27.735
2357.74	30.5723
2359.76	26.9066
2361.78	24.1633
2363.8	28.5922
2365.82	29.2216
2367.84	26.5547
2369.85	27.1388
2371.87	28.0367
2373.88	25.4905
2375.9	25.1372
2377.91	27.1645
2379.92	25.897
2381.93	27.1868
2383.94	26.381
2385.95	28.8312
2387.96	28.1965
2389.96	29.2861
2391.97	26.0632
2393.97	26.6047
2395.98	27.9021
2397.98	29.3595
2399.98	28.388
2401.98	24.7096
2403.99	26.7018
2405.99	26.6776
2407.98	22.3038
2409.98	29.517
2411.98	23.3821
2413.98	25.0329
2415.97	25.0071
2417.96	26.3267
2419.96	28.0335
2421.95	23.5789
2423.94	28.3186
2425.93	24.2897
2427.92	25.5699
2429.91	25.8183
2431.9	24.7892
2433.89	24.7505
2435.87	23.8682
2437.86	26.4411
2439.84	26.734
2441.83	24.5003
2443.81	24.9701
2445.79	24.101
2447.77	21.9071
2449.75	26.002
2451.73	24.5522
2453.71	27.1645
2455.69	25.3124
2457.67	22.7584
2459.64	27.5891
2461.62	25.5232
2463.59	27.0982
2465.56	25.3431
2467.54	25.4102
2469.51	22.7088
2471.48	23.9335
2473.45	24.4109
2475.42	27.4103
2477.38	24.1412
2479.35	25.7622
2481.32	22.2144
2483.28	27.0514
2485.25	23.8429
2487.21	23.7696
2489.17	25.6534
2491.13	22.1225
2493.09	21.8325
2495.05	24.2879
2497.01	23.8749
2498.97	24.2445
2500.93	24.9923
2502.89	26.3053
2504.84	24.115
2506.8	23.6682
2508.75	26.4172
2510.7	20.6776
2512.65	22.1264
2514.61	21.7824
2516.56	23.473
2518.51	22.0176
2520.45	19.2484
2522.4	21.9003
2524.35	18.6008
2526.29	21.7931
2528.24	18.5732
2530.18	21.4854
2532.13	24.2869
2534.07	20.4153
2536.01	23.7391
2537.95	21.3506
2539.89	23.5832
2541.83	21.8011
2543.77	18.843
2545.71	21.77
2547.64	22.7564
2549.58	19.092
2551.51	20.6921
2553.45	22.1315
2555.38	23.4874
2557.31	21.681
2559.25	23.1965
2561.18	22.209
2563.11	23.8917
2565.03	21.1192
2566.96	21.8337
2568.89	20.5602
2570.82	21.5361
2572.74	20.4463
2574.67	20.6726
2576.59	21.8707
2578.51	20.5738
2580.43	21.0892
2582.36	18.3324
2584.28	19.5754
2586.2	24.1293
2588.11	19.3553
2590.03	19.7734
2591.95	21.0081
2593.86	21.7338
2595.78	21.6896
2597.69	21.6534
2599.61	25.2144
2601.52	21.1003
2603.43	22.5423
2605.34	20.8757
2607.25	22.9066
2609.16	21.4885
2611.07	19.1064
2612.98	20.8585
2614.89	24.3217
2616.79	22.3663
2618.7	22.1638
2620.6	23.1388
2622.5	20.0995
2624.41	23.5213
2626.31	22.1665
2628.21	18.4507
2630.11	23.0012
2632.01	20.7228
2633.91	18.7955
2635.8	24.5584
2637.7	22.1544
2639.6	18.3431
2641.49	22.4721
2643.39	23.0153
2645.28	24.8461
2647.17	26.1264
2649.06	24.0764
2650.95	25.3626
2652.84	24.0594
2654.73	24.7414
2656.62	21.5769
2658.51	22.6743
2660.4	24.2245
2662.28	23.134
2664.17	25.0433
2666.05	24.3658
2667.93	21.7552
2669.82	27.9774
2671.7	33.1682
2673.58	39.1385
2675.46	48.704
2677.34	50.4187
2679.21	43.7521
2681.09	38.8558
2682.97	35.5895
2684.84	28.2461
2686.72	30.4646
2688.59	39.1192
2690.47	57.1101
2692.34	85.5091
2694.21	156.43
2696.08	326.574
2697.95	354.123
2699.82	307.734
2701.69	193.724
2703.56	106.047
2705.42	78.6916
2707.29	58.1795
2709.15	43.5632
2711.02	35.588
2712.88	27.7916
2714.75	24.9436
2716.61	23.5552
2718.47	24.9454
2720.33	23.702
2722.19	24.7446
2724.05	21.6733
2725.9	20.5361
2727.76	22.2675
2729.62	23.0081
2731.47	19.8324
2733.33	20.9426
2735.18	20.1124
2737.03	21.7537
2738.88	19.4504
2740.73	19.7665
2742.59	18.2075
2744.43	20.1197
2746.28	21.6658
2748.13	19.1723
2749.98	18.0737
2751.82	17.8515
2753.67	14.3567
2755.51	18.4312
2757.36	18.1645
2759.2	19.4569
2761.04	17.8113
2762.88	17.1315
