365.286	303.485
368.238	310.389
371.189	304.982
374.139	307.569
377.087	321.204
380.034	316.446
382.979	318.5
385.923	316.537
388.866	301.631
391.806	301.05
394.745	295.278
397.684	308.093
400.62	301.68
403.555	300.072
406.49	297.845
409.421	310.405
412.353	307.685
415.282	308.824
418.209	298.093
421.137	295.331
424.062	304.015
426.985	294.501
429.908	301.793
432.829	301.107
435.748	307.881
438.666	292.943
441.583	297.808
444.498	296.135
447.412	290.485
450.324	292.627
453.235	306.943
456.145	303.134
459.052	316.335
461.959	299.721
464.865	295.721
467.769	296.003
470.671	293.536
473.572	290.187
476.471	302.013
479.37	307.081
482.266	298.852
485.162	306.982
488.056	299.902
490.948	318.574
493.839	330.734
496.73	348.204
499.618	388.649
502.505	423.98
505.39	440.664
508.275	449.085
511.157	442.697
514.039	450.325
516.919	444.586
519.798	468.512
522.674	469.109
525.55	473.537
528.425	497.257
531.297	490.475
534.169	467.76
537.039	437.666
539.908	403.331
542.775	374.453
545.642	352.795
548.506	332.478
551.369	310.425
554.231	303.707
557.092	292.356
559.951	288.686
562.808	284.94
565.664	276.683
568.519	274.774
571.373	274.002
574.225	263.013
577.076	270.885
579.925	263.068
582.773	265.742
585.62	261.187
588.466	258.311
591.309	252.588
594.152	258.666
596.993	248.409
599.832	261.294
602.671	251.198
605.508	263.656
608.343	255.054
611.178	263.214
614.011	255.738
616.842	257.68
619.672	264.738
622.501	265.2
625.329	267.586
628.155	272.183
630.98	277.325
633.802	268.918
636.624	272.808
639.445	255.319
642.264	252.627
645.082	251.009
647.898	249.294
650.714	261.294
653.527	254.109
656.34	249.796
659.151	249.384
661.961	253.721
664.769	257.314
667.576	252.923
670.382	249.692
673.186	254.961
675.989	262.03
678.791	269.132
681.591	275.271
684.39	303.442
687.187	321.31
689.983	336.232
692.779	350.717
695.572	332.845
698.363	313.097
701.155	279.668
703.944	278.89
706.733	263.325
709.519	257.69
712.305	251.922
715.089	252.058
717.871	249.865
720.653	249.241
723.433	247.137
726.212	251.721
728.989	243.76
731.765	251.649
734.54	238.871
737.313	246.364
740.085	248.103
742.856	249.401
745.625	257.132
748.394	243.828
751.16	247.401
753.926	244.664
756.689	247.745
759.452	250.986
762.214	246.288
764.974	250.775
767.733	257.29
770.49	250.856
773.246	247.109
776.001	251.893
778.755	268.721
781.507	263.13
784.258	270.553
787.007	288.832
789.756	306.643
792.502	335.53
795.247	356.786
797.992	373.754
800.735	369.039
803.477	343.259
806.217	332.44
808.956	303.784
811.694	286.811
814.43	267.366
817.165	261.46
819.899	263.942
822.631	256.016
825.362	252.054
828.092	245.109
830.82	252.845
833.548	246.589
836.274	259.808
838.998	263.204
841.721	262.013
844.444	257.928
847.165	255.009
849.884	248.44
852.601	257.473
855.318	250.348
858.034	248.214
860.749	245.389
863.461	234.13
866.173	240.343
868.883	236.146
871.592	226.294
874.3	236.516
877.006	228.668
879.712	226.263
882.415	232.706
885.118	235.214
887.819	232.103
890.519	234.902
893.218	245.999
895.914	248.9
898.611	235.787
901.306	243.496
903.999	234.896
906.692	240.426
909.382	236.183
912.072	241.828
914.761	242.38
917.447	235.745
920.133	232.978
922.818	230.584
925.501	234.668
928.183	241.033
930.864	234.411
933.543	231.996
936.221	228.606
938.898	229.251
941.574	236.82
944.248	229.405
946.921	237.887
949.593	235.422
952.263	225.808
954.932	226.516
957.6	236.314
960.267	239.431
962.932	232.383
965.597	232.929
968.26	230.695
970.922	230.978
973.581	225.494
976.241	232.161
978.898	235.47
981.555	231.507
984.21	241.309
986.864	226.881
989.517	240.858
992.169	245.117
994.819	248.986
997.468	248.39
1000.12	245.881
1002.76	243.895
1005.41	244.508
1008.05	259.569
1010.69	259.552
1013.34	262.085
1015.98	261.704
1018.61	261.509
1021.25	262.126
1023.89	255.236
1026.52	260.294
1029.16	254.272
1031.79	263.962
1034.42	256.095
1037.05	263.627
1039.68	275.206
1042.31	279.85
1044.93	286.499
1047.56	296.485
1050.18	302.888
1052.81	326.401
1055.43	339.736
1058.05	377.658
1060.67	420.569
1063.28	490.82
1065.9	594.514
1068.52	724.405
1071.13	881.319
1073.74	1026.04
1076.35	1169.15
1078.96	1256.32
1081.57	1271.47
1084.18	1171.46
1086.79	1013.64
1089.39	809.996
1092	657.528
1094.6	507.235
1097.2	424.183
1099.8	371.325
1102.4	338.696
1105	315.769
1107.6	298.52
1110.19	296.992
1112.79	284.547
1115.38	298.098
1117.97	291.286
1120.56	283.892
1123.15	290.209
1125.74	289.67
1128.33	281.415
1130.91	289.576
1133.5	282.277
1136.08	275.916
1138.66	265.076
1141.24	263.863
1143.82	259.735
1146.4	252.815
1148.98	251.67
1151.55	270.427
1154.13	252.035
1156.7	258.417
1159.27	256.409
1161.85	261.818
1164.42	257.693
1166.98	258.978
1169.55	260.992
1172.12	277.709
1174.68	289.135
1177.25	307.819
1179.81	330.724
1182.37	345.955
1184.93	334.573
1187.49	303.506
1190.05	283.644
1192.6	257.064
1195.16	253.072
1197.71	242.645
1200.27	245.855
1202.82	236.249
1205.37	239.687
1207.92	244.115
1210.47	239.448
1213.01	242.229
1215.56	238.402
1218.1	240.805
1220.65	241.093
1223.19	241.226
1225.73	242.003
1228.27	247.272
1230.81	246.493
1233.35	254.232
1235.88	259.769
1238.42	247.559
1240.95	237.974
1243.48	255.701
1246.02	243.865
1248.55	252.811
1251.07	256.47
1253.6	254.735
1256.13	259.161
1258.66	269.042
1261.18	263.446
1263.7	275.957
1266.22	281.382
1268.75	284.89
1271.27	290.042
1273.78	291.064
1276.3	314.736
1278.82	317.245
1281.33	310.939
1283.85	321.279
1286.36	324.512
1288.87	334.405
1291.38	324.846
1293.89	333.307
1296.4	324.308
1298.9	317.686
1301.41	310.05
1303.91	321.078
1306.41	317.557
1308.92	318.641
1311.42	315.949
1313.92	300.198
1316.42	298.738
1318.91	291.294
1321.41	279.968
1323.9	275.828
1326.4	277.603
1328.89	271.908
1331.38	256.984
1333.87	268.516
1336.36	257.348
1338.85	249.52
1341.34	245.653
1343.82	247.485
1346.31	240.409
1348.79	234.581
1351.27	236.209
1353.75	238.236
1356.23	228.187
1358.71	241.357
1361.19	242.409
1363.66	240.206
1366.14	243.788
1368.61	246.567
1371.09	244.035
1373.56	251.814
1376.03	253.859
1378.5	256.076
1380.96	253.454
1383.43	254.67
1385.9	255.845
1388.36	256.015
1390.83	259.931
1393.29	257.771
1395.75	260.353
1398.21	252.243
1400.67	244.055
1403.13	251.247
1405.58	255.524
1408.04	239.624
1410.49	245.602
1412.95	252.475
1415.4	236.29
1417.85	241.584
1420.3	236.931
1422.75	243.67
1425.2	252.431
1427.64	253.05
1430.09	240.193
1432.53	238.828
1434.97	243.388
1437.42	238.881
1439.86	226.294
1442.3	229.625
1444.73	223.992
1447.17	222.033
1449.61	210.201
1452.04	218.136
1454.48	221.892
1456.91	212.457
1459.34	204.179
1461.77	205.918
1464.2	203.674
1466.63	215.39
1469.06	216.298
1471.48	218.653
1473.91	224.255
1476.33	235.179
1478.75	247.01
1481.17	248.741
1483.6	237.829
1486.01	239.294
1488.43	222.456
1490.85	207.885
1493.27	209.003
1495.68	190.592
1498.09	192.973
1500.51	187.514
1502.92	196.456
1505.33	196.748
1507.74	194.55
1510.14	194.171
1512.55	190.201
1514.96	191.105
1517.36	191.306
1519.77	185.122
1522.17	191.179
1524.57	201.376
1526.97	191.461
1529.37	189.653
1531.77	195.522
1534.16	200.085
1536.56	208.426
1538.95	194.198
1541.35	209.574
1543.74	200.14
1546.13	199.468
1548.52	210.308
1550.91	213.609
1553.3	219.212
1555.68	221.848
1558.07	212.448
1560.45	226.875
1562.84	228.402
1565.22	239.448
1567.6	247.249
1569.98	274.651
1572.36	308.507
1574.74	364.533
1577.12	445.633
1579.49	538.58
1581.87	668.395
1584.24	843.463
1586.61	999.501
1588.98	1124.25
1591.35	1130.75
1593.72	1040.68
1596.09	882.726
1598.46	718.13
1600.82	576.994
1603.19	486.55
1605.55	427.141
1607.92	384.378
1610.28	356.951
1612.64	333.251
1615	319.233
1617.36	302.011
1619.71	301.943
1622.07	289.977
1624.42	291.448
1626.78	277.762
1629.13	285.596
1631.48	287.222
1633.83	290.313
1636.18	293.37
1638.53	300.173
1640.88	294.385
1643.22	301.527
1645.57	304.637
1647.91	315.292
1650.26	321.197
1652.6	317.688
1654.94	316.729
1657.28	317.497
1659.62	312.07
1661.96	302.672
1664.29	290.663
1666.63	286.2
1668.96	271.824
1671.3	266.009
1673.63	251.641
1675.96	238.423
1678.29	226.46
1680.62	229.555
1682.95	210.846
1685.27	212.179
1687.6	213.276
1689.92	208.071
1692.25	204.606
1694.57	201.967
1696.89	204.196
1699.21	199.37
1701.53	196.34
1703.85	192.947
1706.17	190.194
1708.48	199.012
1710.8	185.238
1713.11	177.664
1715.43	188.148
1717.74	180.883
1720.05	176.772
1722.36	182.936
1724.67	174.61
1726.97	177.107
1729.28	165.824
1731.59	156.631
1733.89	158.46
1736.19	154.741
1738.5	153.819
1740.8	152.483
1743.1	146.953
1745.4	148.835
1747.7	135.596
1749.99	135.343
1752.29	138.875
1754.58	136.197
1756.88	133.53
1759.17	131.857
1761.46	135.588
1763.75	128.756
1766.04	137.035
1768.33	133.926
1770.62	137.513
1772.91	134.179
1775.19	129.957
1777.48	124.37
1779.76	126.037
1782.04	129.221
1784.32	134.067
1786.6	119.481
1788.88	127.409
1791.16	123.359
1793.44	117.926
1795.71	124.76
1797.99	119.356
1800.26	118.052
1802.54	119.029
1804.81	116.567
1807.08	117.813
1809.35	116.345
1811.62	119.446
1813.88	116.76
1816.15	121.177
1818.42	122.352
1820.68	123.259
1822.95	120.142
1825.21	112.703
1827.47	113.777
1829.73	117.216
1831.99	117.212
1834.25	106.503
1836.51	114.298
1838.76	115.902
1841.02	116.192
1843.27	114.422
1845.52	112.783
1847.78	113.015
1850.03	112.37
1852.28	112.249
1854.53	110.53
1856.78	105.854
1859.02	111.263
1861.27	113.852
1863.51	109.499
1865.76	106.276
1868	112.857
1870.24	110.333
1872.48	106.655
1874.72	115.512
1876.96	108.235
1879.2	110.281
1881.44	109.464
1883.67	107.475
1885.91	111.152
1888.14	104.614
1890.37	106.704
1892.61	105.832
1894.84	105.83
1897.07	108.52
1899.29	106.127
1901.52	107.237
1903.75	110.259
1905.97	101.497
1908.2	103.725
1910.42	108.598
1912.64	109.651
1914.87	104.389
1917.09	108.67
1919.31	101.37
1921.52	101.895
1923.74	105.651
1925.96	100.812
1928.17	106.148
1930.39	98.569
1932.6	99.8363
1934.81	98.6407
1937.03	98.9995
1939.24	100.339
1941.45	97.1124
1943.65	100.29
1945.86	101.925
1948.07	99.1727
1950.27	99.4645
1952.48	97.1242
1954.68	96.4501
1956.88	98.8143
1959.08	101.604
1961.29	101.392
1963.48	99.5906
1965.68	95.668
1967.88	91.1047
1970.08	91.7617
1972.27	99.6779
1974.47	94.6582
1976.66	95.6553
1978.85	101.972
1981.04	97.4812
1983.23	97.7463
1985.42	91.0585
1987.61	101.054
1989.8	91.2062
1991.99	95.7834
1994.17	94.5442
1996.36	93.1224
1998.54	96.5344
2000.72	96.3615
2002.9	88.3858
2005.08	94.4733
2007.26	88.5442
2009.44	89.7973
2011.62	85.5517
2013.8	87.2418
2015.97	88.3872
2018.15	85.614
2020.32	87.0951
2022.49	89.4457
2024.66	87.5339
2026.83	91.2807
2029	90.9997
2031.17	81.9886
2033.34	85.1482
2035.51	84.0738
2037.67	83.3173
2039.84	80.0538
2042	87.8352
2044.16	81.6076
2046.32	85.5373
2048.48	85.3701
2050.64	88.1168
2052.8	85.3219
2054.96	80.8827
2057.12	78.2062
2059.27	85.2807
2061.43	85.3346
2063.58	85.9298
2065.73	80.2062
2067.89	83.4387
2070.04	86.8886
2072.19	77.2108
2074.34	84.2062
2076.48	80.2279
2078.63	79.4269
2080.78	82.7191
2082.92	79.3158
2085.07	73.3002
2087.21	76.8316
2089.35	78.926
2091.49	83.0355
2093.63	82.5489
2095.77	78.5726
2097.91	78.1891
2100.05	76.6997
2102.19	76.4812
2104.32	77.0951
2106.45	81.0486
2108.59	77.9997
2110.72	76.8146
2112.85	74.0056
2114.98	75.7933
2117.11	81.4113
2119.24	70.0585
2121.37	76.7992
2123.5	71.0539
2125.62	72.5885
2127.75	76.7447
2129.87	78.752
2131.99	71.7617
2134.11	70.4113
2136.24	78.6311
2138.36	73.8516
2140.47	76.2062
2142.59	77.1168
2144.71	73.5442
2146.83	72.9642
2148.94	74.339
2151.06	75.6311
2153.17	76.1479
2155.28	74.8728
2157.39	69.8775
2159.5	72.3918
2161.61	71.9843
2163.72	72.1495
2165.83	70.3429
2167.94	67.9414
2170.04	69.9839
2172.15	68.1636
2174.25	71.4331
2176.35	66.7038
2178.45	63.7293
2180.56	66.339
2182.66	68.0626
2184.75	67.5612
2186.85	69.6779
2188.95	62.3019
2191.05	70.4113
2193.14	67.259
2195.24	63.5514
2197.33	65.5612
2199.42	64.2282
2201.51	63.7034
2203.6	64.3918
2205.69	62.9474
2207.78	70.7834
2209.87	67.078
2211.96	67.4331
2214.04	66.5029
2216.13	63.477
2218.21	67.1908
2220.29	69.8357
2222.38	69.8143
2224.46	65.3959
2226.54	65.1171
2228.62	68.1636
2230.69	67.6553
2232.77	59.8574
2234.85	65.0585
2236.92	65.6663
2239	61.1325
2241.07	64.8673
2243.15	60.3489
2245.22	63.3219
2247.29	65.3019
2249.36	64.8303
2251.43	62.7188
2253.49	58.0951
2255.56	58.3704
2257.63	62.259
2259.69	60.3346
2261.76	58.7617
2263.82	60.5139
2265.88	59.8574
2267.95	59.0951
2270.01	55.7425
2272.07	60.0371
2274.12	56.7664
2276.18	59.4284
2278.24	62.2279
2280.3	56.7246
2282.35	60.5667
2284.41	56.5965
2286.46	57.0626
2288.51	62.0369
2290.56	56.8775
2292.61	54.8728
2294.66	57.1737
2296.71	57.2279
2298.76	55.8558
2300.8	53.4331
2302.85	58.5442
2304.9	57.6467
2306.94	53.0371
2308.98	50.6603
2311.03	53.3173
2313.07	54.9805
2315.11	54.4303
2317.15	53.0195
2319.19	47.1649
2321.22	55.152
2323.26	54.6663
2325.3	53.0997
2327.33	51.678
2329.36	55.625
2331.4	54.7361
2333.43	53.6352
2335.46	56.6798
2337.49	54.333
2339.52	49.5769
2341.55	49.9257
2343.58	50.1108
2345.6	58.0626
2347.63	64.7191
2349.65	54.152
2351.68	49.614
2353.7	51.9938
2355.72	48.3875
2357.74	51.1908
2359.76	53.8404
2361.78	54.353
2363.8	52.0013
2365.82	47.6336
2367.84	54.6076
2369.85	50.9474
2371.87	46.4812
2373.88	46.6336
2375.9	52.5297
2377.91	46.3742
2379.92	52.4854
2381.93	49.0585
2383.94	48.9642
2385.95	48.5395
2387.96	49.2108
2389.96	49.7361
2391.97	46.3173
2393.97	46.6506
2395.98	48.2807
2397.98	52.9839
2399.98	50.6484
2401.98	45.339
2403.99	46.8146
2405.99	46.413
2407.98	46.8775
2409.98	48.0951
2411.98	44.0951
2413.98	43.0585
2415.97	43.9257
2417.96	48.1479
2419.96	45.2807
2421.95	44.2436
2423.94	43.7034
2425.93	44.6506
2427.92	43.5923
2429.91	42.9997
2431.9	41.2848
2433.89	44.7076
2435.87	42.3874
2437.86	42.7617
2439.84	44.4854
2441.83	41.8728
2443.81	43.7617
2445.79	39.6352
2447.77	42.4812
2449.75	41.9468
2451.73	43.1891
2453.71	44.3019
2455.69	45.3002
2457.67	43.078
2459.64	42.5225
2461.62	44.7076
2463.59	44.6135
2465.56	39.6723
2467.54	43.0935
2469.51	40.4284
2471.48	39.3701
2473.45	38.4331
2475.42	39.7664
2477.38	39.4983
2479.35	41.6723
2481.32	38.8533
2483.28	39.4284
2485.25	40.4441
2487.21	40.5029
2489.17	40.5241
2491.13	43.7834
2493.09	41.9839
2495.05	38.7447
2497.01	39.5612
2498.97	36.2279
2500.93	39.0371
2502.89	36.5395
2504.84	38.2802
2506.8	37.4674
2508.75	41.5415
2510.7	39.4983
2512.65	33.1891
2514.61	39.1479
2516.56	38.2108
2518.51	35.4812
2520.45	35.0951
2522.4	35.4331
2524.35	38.9474
2526.29	38.35
2528.24	37.339
2530.18	37.3267
2532.13	40.3219
2534.07	36.7252
2536.01	40.7037
2537.95	36.7463
2539.89	39.6135
2541.83	35.6723
2543.77	35.614
2545.71	37.333
2547.64	39.1108
2549.58	37.8574
2551.51	32.8357
2553.45	38.0585
2555.38	37.0626
2557.31	38.5241
2559.25	35.259
2561.18	31.8886
2563.11	36.6506
2565.03	35.0951
2566.96	30.0368
2568.89	36.152
2570.82	37.2235
2572.74	33.333
2574.67	32.0585
2576.59	33.2206
2578.51	34.2279
2580.43	36.5965
2582.36	34.8902
2584.28	30.9474
2586.2	35.7834
2588.11	31.7038
2590.03	32.4114
2591.95	33.8146
2593.86	32.2279
2595.78	32.8574
2597.69	31.5615
2599.61	33.8574
2601.52	31.5923
2603.43	33.0214
2605.34	31.0997
2607.25	27.7617
2609.16	33.1479
2611.07	33.7447
2612.98	28.4501
2614.89	29.0626
2616.79	33.1891
2618.7	30.8945
2620.6	33.6135
2622.5	29.5395
2624.41	31.0997
2626.31	31.1891
2628.21	28.9298
2630.11	33.3563
2632.01	29.4501
2633.91	27.9103
2635.8	32.7834
2637.7	32.0056
2639.6	31.1168
2641.49	32.2062
2643.39	30.8558
2645.28	35.4501
2647.17	38.9685
2649.06	38.3019
2650.95	35.37
2652.84	31.4284
2654.73	32.7246
2656.62	30.0579
2658.51	32.6821
2660.4	28.2062
2662.28	30.7664
2664.17	31.8187
2666.05	33.8558
2667.93	31.6726
2669.82	35.7205
2671.7	46.9669
2673.58	58.6723
2675.46	74.7361
2677.34	72.2376
2679.21	60.4403
2681.09	57.413
2682.97	47.5923
2684.84	43.0056
2686.72	37.4441
2688.59	47.2219
2690.47	65.3918
2692.34	83.6723
2694.21	189.333
2696.08	323.09
2697.95	292.639
2699.82	257.666
2701.69	166.276
2703.56	106
2705.42	83.3036
2707.29	60.333
2709.15	47.3959
2711.02	42.0056
2712.88	34.5182
2714.75	35.1168
2716.61	32.7447
2718.47	26.8775
2720.33	27.9631
2722.19	30.0585
2724.05	30.1696
2725.9	29.4331
2727.76	27.8945
2729.62	25.8945
2731.47	25.4284
2733.33	24.7246
2735.18	27.3219
2737.03	25.7664
2738.88	27.8404
2740.73	28.2848
2742.59	27.7617
2744.43	24.5395
2746.28	26.5395
2748.13	26.3918
2749.98	25.7246
2751.82	23.2802
2753.67	25.6309
2755.51	26.2631
2757.36	20.4501
2759.2	24.9298
2761.04	24.4658
2762.88	22.5879
