365.286	185.998
368.238	186.748
371.189	188.925
374.139	192.697
377.087	217.889
380.034	221.353
382.979	206.357
385.923	192.343
388.866	187.847
391.806	170.974
394.745	160.548
397.684	157.256
400.62	162.865
403.555	169.809
406.49	166.958
409.421	170.847
412.353	156.513
415.282	169.579
418.209	168.554
421.137	169.068
424.062	168.701
426.985	179.75
429.908	182.837
432.829	186.221
435.748	193.28
438.666	188.8
441.583	193.703
444.498	187.402
447.412	178.783
450.324	177.304
453.235	188.629
456.145	186.09
459.052	179.22
461.959	181.93
464.865	159.847
467.769	161.634
470.671	154.355
473.572	149.258
476.471	151.836
479.37	151.941
482.266	155.91
485.162	156.665
488.056	151.237
490.948	158.232
493.839	153.785
496.73	165.086
499.618	169.764
502.505	185.812
505.39	191.428
508.275	195.733
511.157	206.069
514.039	209.457
516.919	214.61
519.798	215.019
522.674	213.334
525.55	205.097
528.425	206.331
531.297	209.762
534.169	201.765
537.039	199.126
539.908	199.685
542.775	185.317
545.642	167.33
548.506	157.835
551.369	151.729
554.231	141.625
557.092	141.662
559.951	144.677
562.808	138.646
565.664	139.845
568.519	136.255
571.373	139.308
574.225	136.559
577.076	135.788
579.925	125.643
582.773	126.106
585.62	129.157
588.466	133.835
591.309	128.147
594.152	125.788
596.993	126.84
599.832	129.941
602.671	132.044
605.508	128.618
608.343	127.111
611.178	134.394
614.011	125.192
616.842	127.031
619.672	121.823
622.501	126.315
625.329	122.79
628.155	129.6
630.98	133.725
633.802	129.725
636.624	130.686
639.445	130.965
642.264	128.958
645.082	129.868
647.898	126.847
650.714	123.743
653.527	125.934
656.34	130.369
659.151	120.454
661.961	125.738
664.769	119.836
667.576	123.022
670.382	120.329
673.186	118.32
675.989	123.344
678.791	123.268
681.591	127.008
684.39	131.008
687.187	132.981
689.983	145.007
692.779	147.724
695.572	148.17
698.363	146.725
701.155	142.282
703.944	132.331
706.733	119.747
709.519	124.031
712.305	124.317
715.089	122.512
717.871	116.948
720.653	117.047
723.433	124.365
726.212	115.194
728.989	115.691
731.765	112.601
734.54	122.677
737.313	119.174
740.085	113.575
742.856	113.63
745.625	117.341
748.394	118.334
751.16	118.466
753.926	107.306
756.689	118.232
759.452	118.251
762.214	117.897
764.974	119.007
767.733	111.542
770.49	114.528
773.246	110.748
776.001	113.791
778.755	115.294
781.507	119.171
784.258	117.043
787.007	121.961
789.756	123.434
792.502	138.627
795.247	144.15
797.992	148.963
800.735	154.448
803.477	151.556
806.217	158.312
808.956	139.074
811.694	133.608
814.43	125.354
817.165	117.504
819.899	114.559
822.631	117.031
825.362	118.961
828.092	113.022
830.82	116.391
833.548	114.986
836.274	108.425
838.998	114.856
841.721	111.596
844.444	110.908
847.165	108.282
849.884	109.178
852.601	110.814
855.318	109.05
858.034	108.329
860.749	108.872
863.461	107.315
866.173	114.358
868.883	103.135
871.592	102.244
874.3	103.02
877.006	111.679
879.712	108.084
882.415	106.515
885.118	109.468
887.819	116.562
890.519	116.49
893.218	112.18
895.914	115.135
898.611	111.377
901.306	109.601
903.999	109.303
906.692	110.131
909.382	113.655
912.072	115.512
914.761	107.353
917.447	107.624
920.133	109.133
922.818	111.794
925.501	103.741
928.183	104.298
930.864	104.258
933.543	106.656
936.221	103.194
938.898	102.873
941.574	103.957
944.248	101.393
946.921	96.879
949.593	103.278
952.263	105.713
954.932	108.348
957.6	102.823
960.267	102.434
962.932	109.725
965.597	103.307
968.26	111.27
970.922	109.654
973.581	109.077
976.241	102.998
978.898	105.63
981.555	100.194
984.21	104.887
986.864	107.825
989.517	106.235
992.169	102.466
994.819	109.578
997.468	119.279
1000.12	107.735
1002.76	110.739
1005.41	107.268
1008.05	106.394
1010.69	106.456
1013.34	112.339
1015.98	115.778
1018.61	113.63
1021.25	114.048
1023.89	112.452
1026.52	117.867
1029.16	112.158
1031.79	121.044
1034.42	122.431
1037.05	124.253
1039.68	123.378
1042.31	121.926
1044.93	127.617
1047.56	137.517
1050.18	134.263
1052.81	139.554
1055.43	143.006
1058.05	156.513
1060.67	154.963
1063.28	162.22
1065.9	190.194
1068.52	210.801
1071.13	260.355
1073.74	304.679
1076.35	354.118
1078.96	388.045
1081.57	426.343
1084.18	431.627
1086.79	409.377
1089.39	387.046
1092	352.724
1094.6	305.126
1097.2	270.934
1099.8	236.736
1102.4	208.963
1105	185.448
1107.6	168.494
1110.19	167.346
1112.79	156.072
1115.38	165.203
1117.97	166.145
1120.56	167.355
1123.15	174.58
1125.74	158.998
1128.33	152.674
1130.91	149.268
1133.5	131.852
1136.08	128.684
1138.66	126.847
1141.24	120.767
1143.82	121.828
1146.4	120.378
1148.98	117.92
1151.55	121.075
1154.13	118.96
1156.7	115.79
1159.27	116.724
1161.85	109.173
1164.42	110.147
1166.98	108.878
1169.55	105.847
1172.12	108.282
1174.68	111.957
1177.25	114.904
1179.81	115.245
1182.37	119.143
1184.93	114.814
1187.49	115.41
1190.05	114.679
1192.6	108.095
1195.16	103.244
1197.71	97.0716
1200.27	94.4715
1202.82	98.1327
1205.37	93.0078
1207.92	94.6762
1210.47	94.4436
1213.01	93.9184
1215.56	95.237
1218.1	93.5844
1220.65	91.8233
1223.19	88.5092
1225.73	96.6743
1228.27	93.1246
1230.81	103.326
1233.35	93.7005
1235.88	101.109
1238.42	99.1726
1240.95	100.371
1243.48	99.48
1246.02	97.5036
1248.55	99.2654
1251.07	98.7669
1253.6	98.8497
1256.13	103.624
1258.66	98.4872
1261.18	105.599
1263.7	107.112
1266.22	106.775
1268.75	111.322
1271.27	104.791
1273.78	110.648
1276.3	118.433
1278.82	117.823
1281.33	118.223
1283.85	122.415
1286.36	120.937
1288.87	124.982
1291.38	127.64
1293.89	123.192
1296.4	118.223
1298.9	126.393
1301.41	120.058
1303.91	114.946
1306.41	121.632
1308.92	121.744
1311.42	121.379
1313.92	122.887
1316.42	119.999
1318.91	117.918
1321.41	115.245
1323.9	122.05
1326.4	112.899
1328.89	119.267
1331.38	108.981
1333.87	115.887
1336.36	114.989
1338.85	122.543
1341.34	118.729
1343.82	110.39
1346.31	113.599
1348.79	110.171
1351.27	102.96
1353.75	101.799
1356.23	105.197
1358.71	100.727
1361.19	108.772
1363.66	113.183
1366.14	107.683
1368.61	113.272
1371.09	112.232
1373.56	108.528
1376.03	119.724
1378.5	119.773
1380.96	117.012
1383.43	121.235
1385.9	116.173
1388.36	119.592
1390.83	109.058
1393.29	107.856
1395.75	105.4
1398.21	102.653
1400.67	98.1774
1403.13	101.071
1405.58	98.1539
1408.04	97.8158
1410.49	102.431
1412.95	97.171
1415.4	99.488
1417.85	97.2174
1420.3	94.7282
1422.75	89.6817
1425.2	95.998
1427.64	90.6972
1430.09	92.8107
1432.53	90.2442
1434.97	91.0982
1437.42	84.1702
1439.86	85.5743
1442.3	87.7409
1444.73	87.2721
1447.17	84.516
1449.61	91.0076
1452.04	85.4449
1454.48	83.4188
1456.91	81.3554
1459.34	84.1707
1461.77	86.1867
1464.2	85.6034
1466.63	82.6801
1469.06	84.9089
1471.48	80.8039
1473.91	86.0363
1476.33	87.1699
1478.75	90.7762
1481.17	88.1945
1483.6	88.2913
1486.01	87.8784
1488.43	81.3932
1490.85	82.0135
1493.27	78.3225
1495.68	72.9054
1498.09	74.506
1500.51	75.6798
1502.92	71.4657
1505.33	71.0688
1507.74	69.4903
1510.14	69.8353
1512.55	68.9105
1514.96	69.7261
1517.36	69.3078
1519.77	68.3112
1522.17	71.0667
1524.57	67.3454
1526.97	67.8137
1529.37	69.9248
1531.77	67.9016
1534.16	70.4451
1536.56	68.622
1538.95	69.502
1541.35	67.5164
1543.74	71.8524
1546.13	70.4079
1548.52	66.4445
1550.91	70.353
1553.3	71.5679
1555.68	70.7905
1558.07	71.5687
1560.45	69.8494
1562.84	74.1478
1565.22	75.2422
1567.6	77.1713
1569.98	78.3881
1572.36	85.7734
1574.74	89.6032
1577.12	110.031
1579.49	120.112
1581.87	145.993
1584.24	172.482
1586.61	217.61
1588.98	262.568
1591.35	280.118
1593.72	277.241
1596.09	276.641
1598.46	247.812
1600.82	211.364
1603.19	183.559
1605.55	152.604
1607.92	129.566
1610.28	117.046
1612.64	113.556
1615	103.946
1617.36	107.738
1619.71	99.569
1622.07	101.66
1624.42	94.341
1626.78	96.7881
1629.13	101.673
1631.48	95.1467
1633.83	94.0237
1636.18	97.1324
1638.53	94.8466
1640.88	97.8116
1643.22	103.07
1645.57	98.958
1647.91	93.1802
1650.26	102.615
1652.6	108.391
1654.94	106.025
1657.28	98.0599
1659.62	103.718
1661.96	98.5536
1664.29	96.1112
1666.63	96.0688
1668.96	92.0124
1671.3	88.2438
1673.63	88.8523
1675.96	79.6035
1678.29	76.1478
1680.62	81.7669
1682.95	79.8233
1685.27	72.8869
1687.6	70.4072
1689.92	70.9892
1692.25	74.2446
1694.57	72.3721
1696.89	73.5511
1699.21	72.6
1701.53	66.1535
1703.85	69.4711
1706.17	71.8226
1708.48	71.5296
1710.8	67.3536
1713.11	66.2721
1715.43	61.8873
1717.74	63.4657
1720.05	62.4804
1722.36	65.9601
1724.67	66.823
1726.97	62.4783
1729.28	59.9745
1731.59	61.1491
1733.89	62.0035
1736.19	59.7074
1738.5	56.9348
1740.8	53.3997
1743.1	56.182
1745.4	56.7614
1747.7	52.61
1749.99	54.2796
1752.29	54.1118
1754.58	54.1491
1756.88	54.7382
1759.17	49.6765
1761.46	49.2745
1763.75	49.569
1766.04	47.5871
1768.33	45.8326
1770.62	54.5511
1772.91	49.6124
1775.19	51.9391
1777.48	47.8722
1779.76	49.1156
1782.04	52.2411
1784.32	45.9365
1786.6	48.8466
1788.88	48.4944
1791.16	52.9313
1793.44	52.4014
1795.71	46.4264
1797.99	47.5072
1800.26	48.1966
1802.54	46.5768
1804.81	42.6366
1807.08	45.5779
1809.35	47.5136
1811.62	51.1099
1813.88	45.9483
1816.15	47.027
1818.42	45.7447
1820.68	45.1535
1822.95	46.6391
1825.21	44.9464
1827.47	45.2291
1829.73	48.3457
1831.99	47.7498
1834.25	44.339
1836.51	46.2325
1838.76	46.0127
1841.02	46.665
1843.27	45.8113
1845.52	43.7026
1847.78	45.1259
1850.03	42.0814
1852.28	45.5255
1854.53	43.8469
1856.78	46.7994
1859.02	46.3078
1861.27	44.8134
1863.51	44.357
1865.76	44.6206
1868	43.3053
1870.24	45.5304
1872.48	44.6079
1874.72	46.6701
1876.96	43.185
1879.2	42.2354
1881.44	44.0035
1883.67	43.2178
1885.91	47.0523
1888.14	43.452
1890.37	44.1222
1892.61	46.7501
1894.84	43.5911
1897.07	40.7977
1899.29	45.889
1901.52	44.022
1903.75	44.8301
1905.97	47.9752
1908.2	42.1118
1910.42	37.1491
1912.64	40.1335
1914.87	42.5655
1917.09	44.0335
1919.31	40.9388
1921.52	46.1068
1923.74	43.4021
1925.96	42.0715
1928.17	41.7266
1930.39	37.9248
1932.6	40.2367
1934.81	42.9697
1937.03	39.051
1939.24	40.6479
1941.45	41.0713
1943.65	40.1831
1945.86	40.9512
1948.07	41.6183
1950.27	39.9089
1952.48	42.3484
1954.68	39.9629
1956.88	37.8848
1959.08	44.1778
1961.29	42.1467
1963.48	37.5758
1965.68	40.3549
1967.88	39.2114
1970.08	42.6174
1972.27	40.7122
1974.47	41.1335
1976.66	38.6625
1978.85	37.821
1981.04	37.9837
1983.23	37.8233
1985.42	37.1442
1987.61	39.0456
1989.8	38.6032
1991.99	39.9631
1994.17	36.8277
1996.36	38.4312
1998.54	39.2072
2000.72	38.9
2002.9	36.6504
2005.08	36.4665
2007.26	36.6533
2009.44	34.8869
2011.62	35.6267
2013.8	38.4992
2015.97	38.6387
2018.15	33.2294
2020.32	35.0671
2022.49	32.6134
2024.66	37.8094
2026.83	34.2205
2029	36.9248
2031.17	33.9601
2033.34	35.9482
2035.51	36.0476
2037.67	37.7423
2039.84	34.773
2042	38.7925
2044.16	35.9464
2046.32	35.1966
2048.48	33.4665
2050.64	38.23
2052.8	33.7925
2054.96	36.3338
2057.12	37.6504
2059.27	35.9112
2061.43	35.0982
2063.58	37.3721
2065.73	36.3928
2067.89	32.6863
2070.04	35.7258
2072.19	33.5276
2074.34	34.5164
2076.48	33.4592
2078.63	34.3692
2080.78	32.799
2082.92	34.1849
2085.07	32.639
2087.21	34.3311
2089.35	33.9132
2091.49	33.0745
2093.63	34.2203
2095.77	32.758
2097.91	33.8704
2100.05	33.998
2102.19	30.2578
2104.32	31.4691
2106.45	30.7498
2108.59	33.6147
2110.72	32.821
2112.85	33.4147
2114.98	35.1324
2117.11	31.4168
2119.24	36.3495
2121.37	32.1311
2123.5	30.1849
2125.62	31.9744
2127.75	31.8137
2129.87	33.4814
2131.99	30.1424
2134.11	32.5132
2136.24	30.9201
2138.36	32.7644
2140.47	32.8698
2142.59	32.3571
2144.71	31.8264
2146.83	33.261
2148.94	30.6385
2151.06	29.0691
2153.17	28.0595
2155.28	32.998
2157.39	27.8356
2159.5	30.5779
2161.61	26.889
2163.72	32.8588
2165.83	28.7737
2167.94	28.2721
2170.04	30.5512
2172.15	29.9516
2174.25	29.2321
2176.35	30.9556
2178.45	33.9723
2180.56	29.068
2182.66	32.9245
2184.75	32.1791
2186.85	33.4665
2188.95	30.5654
2191.05	28.1942
2193.14	30.958
2195.24	31.3546
2197.33	28.9648
2199.42	31.2514
2201.51	33.0767
2203.6	27.7122
2205.69	31.6418
2207.78	29.6701
2209.87	28.9799
2211.96	30.7816
2214.04	29.3549
2216.13	27.6765
2218.21	28.9125
2220.29	30.9656
2222.38	31.3311
2224.46	31.9631
2226.54	29.3573
2228.62	28.8903
2230.69	27.9256
2232.77	27.7769
2234.85	27.8818
2236.92	30.2349
2239	29.838
2241.07	26.5991
2243.15	28.2839
2245.22	27.4954
2247.29	28.4068
2249.36	27.2087
2251.43	28.0691
2253.49	26.1597
2255.56	28.1457
2257.63	29.9259
2259.69	28.0705
2261.76	27.4641
2263.82	28.3002
2265.88	25.4668
2267.95	28.5512
2270.01	25.7649
2272.07	26.6985
2274.12	27.502
2276.18	28.5457
2278.24	29.2875
2280.3	24.2678
2282.35	24.7407
2284.41	26.6841
2286.46	25.679
2288.51	24.5565
2290.56	22.9504
2292.61	22.5611
2294.66	24.4521
2296.71	23.9891
2298.76	25.8609
2300.8	27.6407
2302.85	24.6008
2304.9	21.2346
2306.94	25.6866
2308.98	25.5758
2311.03	24.9105
2313.07	24.7033
2315.11	25.8445
2317.15	27.1795
2319.19	24.5047
2321.22	23.1686
2323.26	21.0473
2325.3	24.2408
2327.33	25.7498
2329.36	24.3932
2331.4	21.0808
2333.43	23.7262
2335.46	24.0808
2337.49	24.8277
2339.52	23.9345
2341.55	25.3549
2343.58	24.5061
2345.6	26.0203
2347.63	36.3258
2349.65	28.1946
2351.68	25.0548
2353.7	25.6183
2355.72	21.3625
2357.74	24.077
2359.76	24.626
2361.78	21.7974
2363.8	23.4181
2365.82	20.5508
2367.84	22.1348
2369.85	23.9345
2371.87	25.1259
2373.88	25.0834
2375.9	26.1567
2377.91	21.174
2379.92	23.2821
2381.93	21.5533
2383.94	24.793
2385.95	22.3789
2387.96	22.6668
2389.96	22.7013
2391.97	22.5039
2393.97	21.6155
2395.98	21.4427
2397.98	20.0863
2399.98	19.5679
2401.98	19.5611
2403.99	22.615
2405.99	25.1878
2407.98	22.7173
2409.98	20.7388
2411.98	20.5098
2413.98	19.7023
2415.97	19.7523
2417.96	18.6298
2419.96	24.0811
2421.95	21.8637
2423.94	22.6509
2425.93	21.5255
2427.92	18.594
2429.91	21.8466
2431.9	20.9437
2433.89	22.3409
2435.87	19.0863
2437.86	23.8377
2439.84	20.8634
2441.83	18.8612
2443.81	18.8377
2445.79	24.0075
2447.77	20.8726
2449.75	20.1564
2451.73	21.4804
2453.71	22.0629
2455.69	21.5074
2457.67	19.6814
2459.64	20.5188
2461.62	22.2721
2463.59	16.8893
2465.56	21.3198
2467.54	19.1782
2469.51	19.3789
2471.48	19.2941
2473.45	21.5279
2475.42	23.8066
2477.38	19.8497
2479.35	21.1707
2481.32	19.7472
2483.28	23.33
2485.25	21.5115
2487.21	18.9036
2489.17	16.823
2491.13	21.44
2493.09	23.4425
2495.05	23.3163
2497.01	20.6151
2498.97	21.719
2500.93	18.2578
2502.89	18.9252
2504.84	16.0111
2506.8	19.8944
2508.75	19.862
2510.7	16.7501
2512.65	19.0923
2514.61	20.8844
2516.56	21.2926
2518.51	18.2229
2520.45	19.0889
2522.4	18.9703
2524.35	18.5939
2526.29	17.0502
2528.24	21.6742
2530.18	19.2374
2532.13	21.3669
2534.07	19.0052
2536.01	21.2459
2537.95	19.9313
2539.89	19.0124
2541.83	20.2732
2543.77	20.8466
2545.71	19.2465
2547.64	19.6476
2549.58	21.1478
2551.51	21.0359
2553.45	18.3311
2555.38	19.4804
2557.31	20.1882
2559.25	18.8752
2561.18	16.4336
2563.11	16.7498
2565.03	18.5535
2566.96	17.9116
2568.89	18.7358
2570.82	19.4336
2572.74	17.6794
2574.67	20.5851
2576.59	16.7358
2578.51	16.502
2580.43	17.0148
2582.36	19.011
2584.28	18.1778
2586.2	17.3368
2588.11	19.1621
2590.03	17.9601
2591.95	17.7929
2593.86	18.7784
2595.78	19.9484
2597.69	18.7498
2599.61	17.4068
2601.52	17.2745
2603.43	19.7046
2605.34	16.4253
2607.25	18.105
2609.16	20.2085
2611.07	20.277
2612.98	15.0124
2614.89	19.2984
2616.79	21.5658
2618.7	18.0356
2620.6	16.7033
2622.5	15.381
2624.41	17.5061
2626.31	16.6035
2628.21	16.2837
2630.11	14.8377
2632.01	18.9132
2633.91	16.8301
2635.8	18.9388
2637.7	17.3408
2639.6	19.5307
2641.49	17.1587
2643.39	22.6625
2645.28	20.5911
2647.17	26.6507
2649.06	23.5768
2650.95	22.0722
2652.84	20.4568
2654.73	17.6766
2656.62	19.3692
2658.51	19.0599
2660.4	19.1481
2662.28	20.4596
2664.17	17.4072
2666.05	21.7888
2667.93	19.2208
2669.82	28.1338
2671.7	31.4947
2673.58	44.5299
2675.46	51.7282
2677.34	51.8725
2679.21	51.8523
2681.09	37.7758
2682.97	34.3484
2684.84	26.948
2686.72	30.3481
2688.59	39.2449
2690.47	58.3051
2692.34	77.3813
2694.21	149.8
2696.08	287.556
2697.95	316.287
2699.82	258.681
2701.69	159.046
2703.56	97.2721
2705.42	69.9102
2707.29	51.4921
2709.15	41.5043
2711.02	30.6887
2712.88	23.8226
2714.75	23.4428
2716.61	22.5779
2718.47	22.7409
2720.33	19.639
2722.19	20.755
2724.05	17.5676
2725.9	20.9518
2727.76	18.4644
2729.62	20.9741
2731.47	18.8469
2733.33	20.4735
2735.18	19.0316
2737.03	17.3981
2738.88	19.8732
2740.73	17.7242
2742.59	17.8964
2744.43	17.1495
2746.28	17.091
2748.13	14.8558
2749.98	13.5562
2751.82	19.1275
2753.67	13.6292
2755.51	16.9699
2757.36	13.889
2759.2	16.6035
2761.04	16.4513
2762.88	15.793
