365.286	283.387
368.238	283.724
371.189	275.471
374.139	284.302
377.087	301.153
380.034	294.141
382.979	280.031
385.923	265.099
388.866	251.186
391.806	243.251
394.745	241.744
397.684	245.39
400.62	249.613
403.555	251.227
406.49	254.843
409.421	254.628
412.353	250.988
415.282	253.432
418.209	254.034
421.137	245.938
424.062	254.016
426.985	258.738
429.908	257.301
432.829	256.62
435.748	267.519
438.666	250.34
441.583	251.803
444.498	252.839
447.412	249.075
450.324	247.122
453.235	251.498
456.145	244.808
459.052	248.641
461.959	234.166
464.865	229.562
467.769	235.942
470.671	228.995
473.572	232.887
476.471	232.459
479.37	237.61
482.266	238.493
485.162	238.631
488.056	230.976
490.948	235.739
493.839	238.086
496.73	251.538
499.618	265.451
502.505	281.716
505.39	307.053
508.275	326.099
511.157	327.581
514.039	322.791
516.919	328.938
519.798	333.317
522.674	336.517
525.55	342.387
528.425	342.693
531.297	349.108
534.169	344.113
537.039	334.168
539.908	305.183
542.775	288.737
545.642	262.615
548.506	247.183
551.369	242.049
554.231	229.435
557.092	227.513
559.951	219.733
562.808	219.532
565.664	213.875
568.519	211.514
571.373	212.706
574.225	206.609
577.076	203.802
579.925	204.03
582.773	202.44
585.62	191.964
588.466	197.118
591.309	203.501
594.152	192.418
596.993	202.336
599.832	192.3
602.671	197.046
605.508	188.613
608.343	200.618
611.178	190.854
614.011	195.942
616.842	192.724
619.672	188.371
622.501	196.383
625.329	199.914
628.155	193.316
630.98	212.271
633.802	201.45
636.624	195.739
639.445	194.998
642.264	194.85
645.082	191.642
647.898	194.202
650.714	187.847
653.527	190.87
656.34	183.698
659.151	191.546
661.961	180.372
664.769	181.049
667.576	182.279
670.382	187.613
673.186	193.887
675.989	197.44
678.791	191.705
681.591	197.329
684.39	199.249
687.187	221.203
689.983	232.332
692.779	247.772
695.572	247.739
698.363	233.963
701.155	221.658
703.944	202.981
706.733	197.527
709.519	198.641
712.305	200.935
715.089	216.032
717.871	194.936
720.653	190.716
723.433	191.423
726.212	188.876
728.989	185.828
731.765	187.069
734.54	184.602
737.313	184.108
740.085	185.28
742.856	179.223
745.625	185.26
748.394	189.462
751.16	185.635
753.926	186.947
756.689	187.72
759.452	181.11
762.214	190.277
764.974	186.666
767.733	190.662
770.49	190.929
773.246	177.547
776.001	180.572
778.755	186.905
781.507	193.912
784.258	197.186
787.007	199.644
789.756	212.371
792.502	227.539
795.247	234.585
797.992	255.358
800.735	273.8
803.477	272.736
806.217	251.209
808.956	227.464
811.694	212.848
814.43	202.079
817.165	191.103
819.899	189.836
822.631	193.479
825.362	194.736
828.092	186.251
830.82	196.044
833.548	191.919
836.274	194.053
838.998	191.539
841.721	192.502
844.444	183.267
847.165	185.115
849.884	182.929
852.601	176.892
855.318	184.625
858.034	179.57
860.749	183.594
863.461	172.958
866.173	173.804
868.883	169.006
871.592	173.75
874.3	170.247
877.006	173.485
879.712	168.687
882.415	167.981
885.118	174.486
887.819	175.936
890.519	174.414
893.218	167.721
895.914	171.831
898.611	175.562
901.306	172.233
903.999	176.51
906.692	181.435
909.382	171.16
912.072	176.784
914.761	165.07
917.447	178.111
920.133	163.011
922.818	171.088
925.501	177.487
928.183	164.18
930.864	160.628
933.543	162.594
936.221	171.846
938.898	163.331
941.574	158.942
944.248	166.914
946.921	171.958
949.593	170.018
952.263	168.412
954.932	160.057
957.6	159.797
960.267	174.538
962.932	175.492
965.597	170.82
968.26	177.831
970.922	162.168
973.581	171.387
976.241	173.093
978.898	163.145
981.555	169.942
984.21	169.109
986.864	159.498
989.517	166.506
992.169	172.987
994.819	184.955
997.468	196.567
1000.12	194.315
1002.76	180.82
1005.41	175.863
1008.05	173.395
1010.69	179.245
1013.34	188.468
1015.98	186.038
1018.61	192.112
1021.25	194.356
1023.89	194.96
1026.52	188.839
1029.16	186.968
1031.79	181.533
1034.42	197.287
1037.05	190.069
1039.68	193.636
1042.31	203.606
1044.93	206.057
1047.56	211.722
1050.18	210.934
1052.81	218.417
1055.43	232.559
1058.05	246.429
1060.67	258.562
1063.28	288.164
1065.9	348.627
1068.52	406.566
1071.13	491.724
1073.74	593.681
1076.35	713.287
1078.96	807.628
1081.57	876.868
1084.18	872.418
1086.79	781.222
1089.39	646.602
1092	508.916
1094.6	414.006
1097.2	347.301
1099.8	297.56
1102.4	260.51
1105	231.628
1107.6	230.016
1110.19	221.952
1112.79	215.773
1115.38	222.798
1117.97	222.845
1120.56	221.808
1123.15	219.525
1125.74	203.634
1128.33	212.843
1130.91	197.412
1133.5	203.554
1136.08	199.347
1138.66	186.038
1141.24	188.654
1143.82	178.58
1146.4	181.57
1148.98	182.535
1151.55	178.372
1154.13	174.895
1156.7	168.634
1159.27	170.887
1161.85	166.613
1164.42	167.184
1166.98	171.141
1169.55	168.102
1172.12	178.381
1174.68	178.443
1177.25	196.037
1179.81	201.169
1182.37	214.29
1184.93	215.189
1187.49	202.898
1190.05	189.826
1192.6	171.21
1195.16	163.267
1197.71	159.893
1200.27	150.85
1202.82	146.798
1205.37	147.8
1207.92	150.308
1210.47	146.254
1213.01	147.929
1215.56	146.419
1218.1	149.038
1220.65	153.878
1223.19	146.316
1225.73	156.079
1228.27	155.841
1230.81	151.884
1233.35	156.803
1235.88	164.467
1238.42	168.24
1240.95	156.261
1243.48	163.213
1246.02	159.995
1248.55	169.204
1251.07	158.297
1253.6	164.103
1256.13	166.915
1258.66	176.858
1261.18	182.467
1263.7	176.224
1266.22	184.67
1268.75	178.268
1271.27	185.81
1273.78	192.497
1276.3	188.297
1278.82	187.022
1281.33	197.468
1283.85	203.211
1286.36	203.32
1288.87	211.365
1291.38	217.653
1293.89	198.494
1296.4	207.8
1298.9	202.433
1301.41	192.695
1303.91	201.248
1306.41	194.916
1308.92	200.977
1311.42	196.226
1313.92	197.848
1316.42	194.646
1318.91	187.121
1321.41	188.435
1323.9	189.543
1326.4	181.517
1328.89	178.773
1331.38	185.208
1333.87	178.011
1336.36	174.083
1338.85	172.72
1341.34	166.408
1343.82	168.247
1346.31	164.972
1348.79	164.906
1351.27	164.717
1353.75	166.467
1356.23	166.815
1358.71	164.116
1361.19	171.196
1363.66	183.886
1366.14	174.358
1368.61	174.35
1371.09	179.667
1373.56	182.654
1376.03	179.483
1378.5	181.894
1380.96	178.842
1383.43	178.397
1385.9	180.161
1388.36	179.229
1390.83	173.371
1393.29	170.462
1395.75	168.976
1398.21	158.261
1400.67	157.299
1403.13	157.628
1405.58	160.026
1408.04	148.966
1410.49	148.257
1412.95	153.381
1415.4	151.187
1417.85	146.352
1420.3	148.469
1422.75	147.735
1425.2	144.89
1427.64	143.562
1430.09	146.979
1432.53	143.49
1434.97	147.268
1437.42	145.18
1439.86	142.482
1442.3	142.238
1444.73	136.887
1447.17	135.057
1449.61	135.563
1452.04	135.16
1454.48	130.852
1456.91	136.646
1459.34	134.526
1461.77	132.446
1464.2	126.256
1466.63	130.683
1469.06	127.248
1471.48	135.263
1473.91	128.658
1476.33	140.815
1478.75	144.368
1481.17	149.8
1483.6	152.298
1486.01	145.371
1488.43	139.394
1490.85	134.179
1493.27	130.513
1495.68	120.416
1498.09	123.38
1500.51	123.646
1502.92	119.683
1505.33	118.712
1507.74	119.78
1510.14	116.092
1512.55	117.856
1514.96	118.483
1517.36	114.348
1519.77	118.422
1522.17	111.3
1524.57	121.108
1526.97	121.968
1529.37	120.987
1531.77	117.926
1534.16	119.006
1536.56	114.014
1538.95	115.757
1541.35	121.8
1543.74	121.797
1546.13	121.518
1548.52	120.685
1550.91	123.633
1553.3	124.04
1555.68	134.382
1558.07	138.647
1560.45	136.689
1562.84	136.503
1565.22	139.765
1567.6	142.975
1569.98	156.116
1572.36	182.706
1574.74	204.11
1577.12	235.997
1579.49	286.785
1581.87	334.598
1584.24	413.161
1586.61	505.219
1588.98	577.862
1591.35	640.496
1593.72	631.33
1596.09	576.824
1598.46	479.206
1600.82	390.061
1603.19	306.556
1605.55	257.172
1607.92	233.995
1610.28	212.2
1612.64	210.017
1615	188.484
1617.36	180.003
1619.71	177.691
1622.07	172.006
1624.42	170.914
1626.78	170.673
1629.13	168.391
1631.48	174.845
1633.83	162.964
1636.18	175.964
1638.53	173.316
1640.88	177.751
1643.22	177.76
1645.57	180.16
1647.91	184.394
1650.26	186.587
1652.6	187.313
1654.94	182.359
1657.28	189.401
1659.62	187.505
1661.96	178.482
1664.29	165.658
1666.63	167.488
1668.96	158.378
1671.3	153.023
1673.63	148.319
1675.96	145.329
1678.29	145.359
1680.62	139.513
1682.95	133.763
1685.27	131.722
1687.6	124.872
1689.92	125.387
1692.25	126.634
1694.57	127.076
1696.89	126.852
1699.21	123.794
1701.53	121.267
1703.85	114.775
1706.17	113.86
1708.48	118.285
1710.8	111.608
1713.11	110.581
1715.43	116.058
1717.74	109.845
1720.05	112.454
1722.36	112.363
1724.67	105.72
1726.97	108.149
1729.28	104.953
1731.59	102.708
1733.89	104.964
1736.19	99.1051
1738.5	98.1066
1740.8	97.8496
1743.1	95.8005
1745.4	90.2778
1747.7	90.0309
1749.99	88.4355
1752.29	86.4083
1754.58	89.9306
1756.88	85.7416
1759.17	85.6532
1761.46	87.3372
1763.75	88.6578
1766.04	83.6356
1768.33	82.628
1770.62	81.6305
1772.91	86.1489
1775.19	82.2796
1777.48	80.2255
1779.76	84.1805
1782.04	86.1793
1784.32	77.7042
1786.6	79.4079
1788.88	80.861
1791.16	77.6945
1793.44	78.975
1795.71	76.0458
1797.99	77.3199
1800.26	83.019
1802.54	75.305
1804.81	81.7125
1807.08	78.1697
1809.35	78.6013
1811.62	74.1026
1813.88	80.0689
1816.15	73.6043
1818.42	77.9911
1820.68	73.5467
1822.95	73.6427
1825.21	76.8907
1827.47	68.6726
1829.73	73.7769
1831.99	73.0375
1834.25	76.9806
1836.51	73.8579
1838.76	72.1763
1841.02	78.0446
1843.27	72.1886
1845.52	74.1912
1847.78	74.8557
1850.03	71.8149
1852.28	76.8102
1854.53	68.7652
1856.78	70.1742
1859.02	72.987
1861.27	74.1214
1863.51	69.9362
1865.76	71.0093
1868	71.7972
1870.24	70.4232
1872.48	68.6125
1874.72	71.4737
1876.96	66.7319
1879.2	69.843
1881.44	71.5413
1883.67	67.6621
1885.91	67.026
1888.14	69.861
1890.37	67.9717
1892.61	67.9079
1894.84	70.3959
1897.07	70.1762
1899.29	67.1891
1901.52	68.3946
1903.75	69.9188
1905.97	68.525
1908.2	66.0064
1910.42	66.4465
1912.64	70.4932
1914.87	70.3756
1917.09	68.9045
1919.31	70.1246
1921.52	70.3738
1923.74	71.1507
1925.96	68.969
1928.17	63.3862
1930.39	71.101
1932.6	66.6578
1934.81	67.5702
1937.03	65.6235
1939.24	62.6607
1941.45	67.3874
1943.65	60.6578
1945.86	63.241
1948.07	63.7442
1950.27	64.6607
1952.48	58.2126
1954.68	58.8194
1956.88	62.1491
1959.08	60.057
1961.29	62.9746
1963.48	61.3903
1965.68	61.2325
1967.88	62.0405
1970.08	63.7813
1972.27	60.4969
1974.47	60.7005
1976.66	57.8459
1978.85	67.336
1981.04	57.3779
1983.23	56.994
1985.42	62.9911
1987.61	58.2972
1989.8	56.201
1991.99	62.3274
1994.17	62.4667
1996.36	63.2798
1998.54	60.4618
2000.72	57.1276
2002.9	58.6619
2005.08	63.5965
2007.26	55.1219
2009.44	59.9102
2011.62	57.4104
2013.8	58.6495
2015.97	59.4897
2018.15	57.1204
2020.32	56.8471
2022.49	54.2788
2024.66	56.7154
2026.83	56.843
2029	57.5394
2031.17	53.9188
2033.34	53.8523
2035.51	59.5741
2037.67	53.8759
2039.84	61.861
2042	53.0101
2044.16	57.4099
2046.32	57.8183
2048.48	58.3779
2050.64	55.1214
2052.8	58.0849
2054.96	54.6208
2057.12	55.7755
2059.27	53.2092
2061.43	55.3738
2063.58	53.8814
2065.73	55.8608
2067.89	54.5659
2070.04	55.9376
2072.19	52.2531
2074.34	49.8759
2076.48	53.987
2078.63	55.1015
2080.78	52.4632
2082.92	53.6536
2085.07	56.101
2087.21	52.2398
2089.35	54.5384
2091.49	55.8352
2093.63	53.6611
2095.77	52.8553
2097.91	56.406
2100.05	55.6976
2102.19	50.2792
2104.32	48.7693
2106.45	51.5471
2108.59	48.987
2110.72	53.9422
2112.85	52.1718
2114.98	50.7554
2117.11	45.057
2119.24	50.843
2121.37	48.5467
2123.5	51.0524
2125.62	46.4426
2127.75	51.0458
2129.87	53.3386
2131.99	50.8034
2134.11	46.5277
2136.24	45.7689
2138.36	46.4316
2140.47	49.6086
2142.59	49.3244
2144.71	47.9306
2146.83	47.3709
2148.94	47.8183
2151.06	50.4605
2153.17	48.7046
2155.28	47.7648
2157.39	46.9422
2159.5	49.9783
2161.61	51.3821
2163.72	43.6208
2165.83	49.88
2167.94	46.4508
2170.04	50.3436
2172.15	42.8916
2174.25	46.2602
2176.35	47.8681
2178.45	46.9306
2180.56	43.8236
2182.66	46.8224
2184.75	43.7412
2186.85	45.5302
2188.95	43.9035
2191.05	45.8887
2193.14	45.7049
2195.24	44.4319
2197.33	43.4754
2199.42	45.8759
2201.51	44.1204
2203.6	42.6747
2205.69	47.4027
2207.78	45.4861
2209.87	46.5405
2211.96	43.7158
2214.04	40.728
2216.13	46.2291
2218.21	46.0458
2220.29	48.3023
2222.38	47.803
2224.46	44.179
2226.54	42.7995
2228.62	42.9172
2230.69	42.1297
2232.77	40.7297
2234.85	45.2668
2236.92	41.532
2239	43.3519
2241.07	39.3713
2243.15	43.8792
2245.22	39.8639
2247.29	44.8717
2249.36	43.5055
2251.43	41.5787
2253.49	38.7076
2255.56	39.4027
2257.63	43.4355
2259.69	40.2837
2261.76	36.6653
2263.82	42.6813
2265.88	44.3791
2267.95	42.7421
2270.01	39.4497
2272.07	41.3704
2274.12	39.5014
2276.18	42.1644
2278.24	38.6621
2280.3	37.562
2282.35	43.2874
2284.41	39.1912
2286.46	35.4902
2288.51	41.9979
2290.56	43.3473
2292.61	38.0027
2294.66	38.7954
2296.71	39.2782
2298.76	37.5741
2300.8	40.8459
2302.85	37.6475
2304.9	35.8116
2306.94	38.6274
2308.98	37.5496
2311.03	40.3738
2313.07	38.7032
2315.11	38.7581
2317.15	39.5962
2319.19	36.0093
2321.22	37.462
2323.26	35.1491
2325.3	35.8065
2327.33	37.0103
2329.36	36.1676
2331.4	35.9269
2333.43	33.1241
2335.46	39.7412
2337.49	36.551
2339.52	35.3166
2341.55	38.1022
2343.58	38.4314
2345.6	36.223
2347.63	47.4973
2349.65	35.5347
2351.68	30.7837
2353.7	34.2604
2355.72	34.247
2357.74	35.0779
2359.76	36.6043
2361.78	34.3765
2363.8	34.6274
2365.82	35.854
2367.84	30.2133
2369.85	35.0656
2371.87	36.0215
2373.88	37.9541
2375.9	34.3079
2377.91	32.5716
2379.92	34.9264
2381.93	33.9519
2383.94	34.5206
2385.95	32.8434
2387.96	37.4696
2389.96	37.6726
2391.97	35.0176
2393.97	34.8982
2395.98	35.2941
2397.98	32.7652
2399.98	31.657
2401.98	34.3713
2403.99	32.1491
2405.99	31.676
2407.98	34.4282
2409.98	29.1877
2411.98	32.1957
2413.98	30.8255
2415.97	30.7236
2417.96	29.8087
2419.96	33.2792
2421.95	32.0745
2423.94	30.0458
2425.93	29.6731
2427.92	32.1548
2429.91	30.2792
2431.9	31.1939
2433.89	30.1214
2435.87	28.6361
2437.86	32.6541
2439.84	28.6088
2441.83	33.4851
2443.81	32.0324
2445.79	34.8727
2447.77	28.6889
2449.75	33.4068
2451.73	31.6827
2453.71	30.1255
2455.69	27.765
2457.67	29.5812
2459.64	29.3213
2461.62	30.8763
2463.59	29.7441
2465.56	30.6182
2467.54	32.8896
2469.51	32.0263
2471.48	29.2096
2473.45	27.4015
2475.42	36.393
2477.38	29.6541
2479.35	27.9366
2481.32	29.3494
2483.28	27.7042
2485.25	30.1742
2487.21	27.4492
2489.17	30.9294
2491.13	28.4436
2493.09	26.7495
2495.05	28.6006
2497.01	27.3725
2498.97	28.957
2500.93	28.1758
2502.89	30.0578
2504.84	29.3866
2506.8	27.6536
2508.75	29.3088
2510.7	30.1502
2512.65	29.4836
2514.61	29.9264
2516.56	29.356
2518.51	30.5128
2520.45	25.2387
2522.4	27.6322
2524.35	30.3678
2526.29	27.8158
2528.24	25.5455
2530.18	24.7319
2532.13	30.142
2534.07	27.88
2536.01	24.543
2537.95	30.3713
2539.89	31.3385
2541.83	20.3713
2543.77	26.5807
2545.71	28.101
2547.64	28.2067
2549.58	27.7961
2551.51	26.9566
2553.45	26.85
2555.38	25.7652
2557.31	29.4079
2559.25	28.5812
2561.18	24.0256
2563.11	25.4977
2565.03	28.4314
2566.96	29.1324
2568.89	26.3596
2570.82	29.4973
2572.74	23.1287
2574.67	26.783
2576.59	25.4232
2578.51	23.6731
2580.43	25.2972
2582.36	23.6125
2584.28	23.8573
2586.2	23.7104
2588.11	21.994
2590.03	24.4911
2591.95	25.0229
2593.86	26.398
2595.78	25.2598
2597.69	24.2174
2599.61	24.3959
2601.52	21.075
2603.43	26.7446
2605.34	25.7125
2607.25	25.8185
2609.16	22.3205
2611.07	25.8992
2612.98	20.6923
2614.89	24.7803
2616.79	26.1258
2618.7	24.4492
2620.6	21.1681
2622.5	24.5716
2624.41	23.5508
2626.31	22.5277
2628.21	23.4836
2630.11	25.6388
2632.01	23.4199
2633.91	22.55
2635.8	26.5097
2637.7	24.5353
2639.6	22.7297
2641.49	24.6611
2643.39	27.4444
2645.28	27.7071
2647.17	28.8528
2649.06	28.9623
2650.95	27.5931
2652.84	26.2357
2654.73	25.596
2656.62	24.0288
2658.51	25.596
2660.4	26.268
2662.28	25.3589
2664.17	23.2286
2666.05	24.8311
2667.93	26.7495
2669.82	32.0334
2671.7	36.0793
2673.58	45.5286
2675.46	55.5382
2677.34	51.8639
2679.21	46.9227
2681.09	38.8153
2682.97	34.5014
2684.84	33.4686
2686.72	32.1163
2688.59	40.7581
2690.47	53.8598
2692.34	73.975
2694.21	135.01
2696.08	252.145
2697.95	256.412
2699.82	229.829
2701.69	143.128
2703.56	88.3583
2705.42	65.482
2707.29	54.3517
2709.15	37.6383
2711.02	34.7042
2712.88	28.785
2714.75	23.3932
2716.61	26.7076
2718.47	23.0801
2720.33	26.3738
2722.19	24.1561
2724.05	23.4277
2725.9	24.6955
2727.76	22.7195
2729.62	21.6237
2731.47	22.9145
2733.33	22.7005
2735.18	22.3199
2737.03	23.4465
2738.88	21.057
2740.73	17.773
2742.59	20.925
2744.43	21.3385
2746.28	21.19
2748.13	19.2687
2749.98	20.4127
2751.82	20.0409
2753.67	20.8804
2755.51	20.3494
2757.36	18.6331
2759.2	17.7689
2761.04	21.3207
2762.88	20.6566
