365.286	601.191
368.238	600.794
371.189	579.397
374.139	566.396
377.087	578.271
380.034	546.995
382.979	548.41
385.923	536.782
388.866	531.782
391.806	535.952
394.745	553.77
397.684	593.467
400.62	604.975
403.555	625.61
406.49	620.508
409.421	603.975
412.353	597.864
415.282	596.396
418.209	578.005
421.137	549.888
424.062	530.729
426.985	525.068
429.908	518.212
432.829	524.666
435.748	500.777
438.666	501.282
441.583	496.651
444.498	483.876
447.412	487.523
450.324	469.583
453.235	478.442
456.145	486.556
459.052	458.578
461.959	473.355
464.865	487.544
467.769	490.451
470.671	495.046
473.572	490.242
476.471	492.345
479.37	496.222
482.266	493.889
485.162	491.363
488.056	507.245
490.948	489.263
493.839	494.053
496.73	503.044
499.618	542.118
502.505	579.841
505.39	599.427
508.275	619.999
511.157	634.576
514.039	652.177
516.919	640.778
519.798	671.23
522.674	687.322
525.55	704.168
528.425	708.645
531.297	718.766
534.169	698.767
537.039	652.131
539.908	604.243
542.775	564.777
545.642	511.801
548.506	484.41
551.369	448.858
554.231	440.392
557.092	417.779
559.951	404.971
562.808	410.457
565.664	389.355
568.519	380.859
571.373	381.585
574.225	397.155
577.076	377.392
579.925	373.264
582.773	378.512
585.62	364.275
588.466	362.134
591.309	347.424
594.152	349.11
596.993	341.339
599.832	341.807
602.671	342.093
605.508	347.514
608.343	360.658
611.178	350.91
614.011	344.485
616.842	338.363
619.672	350.141
622.501	341.594
625.329	354.089
628.155	369.812
630.98	373.809
633.802	356.696
636.624	356.819
639.445	354.233
642.264	350.674
645.082	352.118
647.898	356.298
650.714	340.789
653.527	355.414
656.34	340.646
659.151	335.924
661.961	336.471
664.769	342.302
667.576	342.624
670.382	341.188
673.186	336.14
675.989	344.754
678.791	374.269
681.591	363.368
684.39	391.071
687.187	403.831
689.983	442.643
692.779	450.865
695.572	438.965
698.363	415.888
701.155	387.674
703.944	366.942
706.733	365.877
709.519	379.8
712.305	375.181
715.089	378.568
717.871	368.345
720.653	373.91
723.433	390.419
726.212	404.474
728.989	417.237
731.765	410.554
734.54	392.467
737.313	357.785
740.085	344.354
742.856	336.42
745.625	352.14
748.394	334.343
751.16	326.649
753.926	332.806
756.689	334.996
759.452	341.257
762.214	348.489
764.974	350.646
767.733	337.97
770.49	332.177
773.246	337.888
776.001	333.275
778.755	333.514
781.507	327.526
784.258	343.918
787.007	354.233
789.756	371.117
792.502	393.177
795.247	442
797.992	455.061
800.735	467.285
803.477	449.929
806.217	433.532
808.956	399.812
811.694	380.029
814.43	376.591
817.165	367.972
819.899	353.807
822.631	351.538
825.362	357.709
828.092	353.928
830.82	353.72
833.548	361.662
836.274	356.068
838.998	344.52
841.721	352.607
844.444	330.918
847.165	334.514
849.884	334.732
852.601	322.848
855.318	309.479
858.034	307.084
860.749	317.518
863.461	315.253
866.173	310.452
868.883	303.011
871.592	302.556
874.3	301.202
877.006	295.225
879.712	296.001
882.415	294.528
885.118	298.546
887.819	301.489
890.519	288.758
893.218	292.346
895.914	293.786
898.611	290.257
901.306	296.852
903.999	291.966
906.692	291.179
909.382	296.257
912.072	300.2
914.761	289.194
917.447	287.655
920.133	288.748
922.818	284.202
925.501	285.738
928.183	278.212
930.864	295.093
933.543	287.489
936.221	293.204
938.898	283.745
941.574	282.315
944.248	290.078
946.921	278.401
949.593	289.627
952.263	285.157
954.932	289.774
957.6	277.1
960.267	289.375
962.932	287.736
965.597	286.353
968.26	292.289
970.922	288.846
973.581	282.6
976.241	289.835
978.898	286.919
981.555	281.91
984.21	297.306
986.864	302.758
989.517	317.9
992.169	344.853
994.819	367.212
997.468	366.419
1000.12	344.607
1002.76	338.911
1005.41	348.103
1008.05	367.616
1010.69	366.331
1013.34	369.6
1015.98	382.001
1018.61	380.197
1021.25	373.369
1023.89	369.285
1026.52	360.387
1029.16	363.396
1031.79	353.852
1034.42	360.502
1037.05	366.929
1039.68	366.742
1042.31	393.624
1044.93	401.036
1047.56	434.28
1050.18	452.589
1052.81	486.649
1055.43	517.985
1058.05	555.221
1060.67	614.366
1063.28	695.144
1065.9	808.553
1068.52	972.94
1071.13	1189.84
1073.74	1393.24
1076.35	1595.95
1078.96	1744.93
1081.57	1755.7
1084.18	1620.56
1086.79	1420.09
1089.39	1132.12
1092	904.845
1094.6	712.964
1097.2	580.499
1099.8	502.741
1102.4	439.668
1105	395.615
1107.6	374.403
1110.19	368.573
1112.79	372.524
1115.38	355.514
1117.97	347.093
1120.56	345.152
1123.15	338.889
1125.74	343.082
1128.33	336.727
1130.91	339.561
1133.5	340.979
1136.08	331.107
1138.66	323.825
1141.24	310.991
1143.82	293.847
1146.4	292.908
1148.98	290.001
1151.55	280.557
1154.13	287.758
1156.7	270.859
1159.27	287.424
1161.85	288.919
1164.42	289.308
1166.98	300.393
1169.55	316.515
1172.12	336.757
1174.68	357.84
1177.25	376.657
1179.81	407.478
1182.37	424.852
1184.93	412.615
1187.49	381.91
1190.05	336.508
1192.6	321.111
1195.16	295.727
1197.71	279.791
1200.27	272.642
1202.82	271.85
1205.37	262.356
1207.92	265.084
1210.47	263.432
1213.01	264.526
1215.56	264.804
1218.1	264.528
1220.65	263.417
1223.19	263.808
1225.73	274.226
1228.27	269.932
1230.81	275.785
1233.35	279.392
1235.88	283.152
1238.42	275.891
1240.95	280.809
1243.48	287.075
1246.02	285.776
1248.55	280.924
1251.07	291.488
1253.6	299.563
1256.13	300.839
1258.66	299.498
1261.18	315.587
1263.7	308.428
1266.22	322.257
1268.75	323.639
1271.27	341.687
1273.78	357.593
1276.3	350.563
1278.82	366.638
1281.33	375.072
1283.85	371.879
1286.36	369.711
1288.87	370.924
1291.38	359.416
1293.89	369.854
1296.4	363.17
1298.9	348.002
1301.41	344.468
1303.91	338.491
1306.41	343.469
1308.92	341.657
1311.42	331.69
1313.92	331.476
1316.42	324.59
1318.91	313.871
1321.41	302.01
1323.9	310.991
1326.4	294.306
1328.89	285.276
1331.38	289.293
1333.87	279.68
1336.36	280.76
1338.85	279.305
1341.34	284.257
1343.82	279.459
1346.31	276.776
1348.79	269.889
1351.27	284.535
1353.75	271.045
1356.23	276.435
1358.71	278.609
1361.19	291.075
1363.66	286.609
1366.14	286.216
1368.61	287.393
1371.09	290.269
1373.56	292.333
1376.03	297.791
1378.5	290.172
1380.96	290.089
1383.43	285.901
1385.9	287.949
1388.36	281.322
1390.83	280.294
1393.29	273.861
1395.75	286.16
1398.21	271.545
1400.67	270.165
1403.13	272.948
1405.58	266.635
1408.04	254.194
1410.49	253.223
1412.95	254.048
1415.4	252.982
1417.85	249.845
1420.3	246.963
1422.75	245.668
1425.2	254.666
1427.64	251.337
1430.09	247.363
1432.53	246.34
1434.97	240.069
1437.42	237.195
1439.86	232.235
1442.3	226.313
1444.73	230.204
1447.17	230.71
1449.61	223.488
1452.04	222.133
1454.48	226.887
1456.91	224.736
1459.34	219.609
1461.77	225.688
1464.2	223.044
1466.63	216.368
1469.06	222.364
1471.48	228.341
1473.91	240.129
1476.33	248.142
1478.75	258.001
1481.17	257.276
1483.6	259.767
1486.01	253.444
1488.43	249.457
1490.85	235.031
1493.27	224.945
1495.68	216.403
1498.09	204.344
1500.51	204.879
1502.92	204.798
1505.33	200.629
1507.74	203.89
1510.14	196.599
1512.55	203.224
1514.96	201.971
1517.36	206.907
1519.77	201.616
1522.17	211.196
1524.57	210.685
1526.97	211.646
1529.37	213.06
1531.77	222.417
1534.16	217.405
1536.56	220.142
1538.95	220.022
1541.35	233.587
1543.74	234.161
1546.13	239.072
1548.52	262.031
1550.91	258.564
1553.3	270.956
1555.68	279.779
1558.07	282.989
1560.45	294.87
1562.84	300.031
1565.22	314.628
1567.6	333.896
1569.98	375.324
1572.36	413.229
1574.74	482.173
1577.12	573.822
1579.49	668.729
1581.87	810.297
1584.24	948.822
1586.61	1107.63
1588.98	1234.33
1591.35	1275.87
1593.72	1209.17
1596.09	1041.22
1598.46	851.84
1600.82	696.466
1603.19	554.522
1605.55	468.078
1607.92	408.628
1610.28	386.178
1612.64	354.276
1615	336.709
1617.36	325.403
1619.71	319.013
1622.07	306.069
1624.42	307.668
1626.78	306.596
1629.13	299.134
1631.48	301.085
1633.83	298.021
1636.18	306.745
1638.53	308.76
1640.88	317.03
1643.22	312.665
1645.57	316.996
1647.91	321.868
1650.26	328.619
1652.6	332
1654.94	333.364
1657.28	340.889
1659.62	331.101
1661.96	324.195
1664.29	307.919
1666.63	302.035
1668.96	289.536
1671.3	278.109
1673.63	266.798
1675.96	250.342
1678.29	245.668
1680.62	234.182
1682.95	233.133
1685.27	229.723
1687.6	224.31
1689.92	214.912
1692.25	206.477
1694.57	211.141
1696.89	208.869
1699.21	201.18
1701.53	206.733
1703.85	198.244
1706.17	200.143
1708.48	203.247
1710.8	196.509
1713.11	191.22
1715.43	196.417
1717.74	187.354
1720.05	186.285
1722.36	183.578
1724.67	179.139
1726.97	183.2
1729.28	169.235
1731.59	169.441
1733.89	164.703
1736.19	159.57
1738.5	161.629
1740.8	159.126
1743.1	161.221
1745.4	154.836
1747.7	144.16
1749.99	142.853
1752.29	143.424
1754.58	142.785
1756.88	142.537
1759.17	148.346
1761.46	142.737
1763.75	139.013
1766.04	143.525
1768.33	139.403
1770.62	139.525
1772.91	142.06
1775.19	140.949
1777.48	133.271
1779.76	135.386
1782.04	137.598
1784.32	129.426
1786.6	127.512
1788.88	134.008
1791.16	125.972
1793.44	126.091
1795.71	131.76
1797.99	127.174
1800.26	125.321
1802.54	119.426
1804.81	120.458
1807.08	131.083
1809.35	125.389
1811.62	124.407
1813.88	122.266
1816.15	124.563
1818.42	120.949
1820.68	119.829
1822.95	124.569
1825.21	126.569
1827.47	118.454
1829.73	117.163
1831.99	125.592
1834.25	116.586
1836.51	119.166
1838.76	119.022
1841.02	117.315
1843.27	116.791
1845.52	110.68
1847.78	114.719
1850.03	114.496
1852.28	114.126
1854.53	114.799
1856.78	111.741
1859.02	113.904
1861.27	122.235
1863.51	116.786
1865.76	113.737
1868	116.804
1870.24	113.682
1872.48	117.706
1874.72	108.688
1876.96	109.591
1879.2	107.776
1881.44	110.348
1883.67	113.45
1885.91	112.85
1888.14	105.918
1890.37	109.243
1892.61	106.515
1894.84	109.159
1897.07	108.063
1899.29	105.694
1901.52	106.687
1903.75	115.111
1905.97	111.084
1908.2	109.504
1910.42	109.214
1912.64	109.638
1914.87	102.417
1917.09	103.585
1919.31	102.096
1921.52	114.029
1923.74	102.55
1925.96	107.348
1928.17	106.743
1930.39	105.939
1932.6	105.82
1934.81	101.346
1937.03	105.483
1939.24	101.807
1941.45	103.404
1943.65	101.154
1945.86	98.0522
1948.07	100.235
1950.27	96.2371
1952.48	103.245
1954.68	100.049
1956.88	104.684
1959.08	100.237
1961.29	96.9744
1963.48	98.98
1965.68	99.8566
1967.88	99.5468
1970.08	99.8383
1972.27	100.081
1974.47	93.8878
1976.66	100.898
1978.85	101.298
1981.04	91.6468
1983.23	93.4593
1985.42	97.1459
1987.61	100.736
1989.8	95.0435
1991.99	102.163
1994.17	93.4614
1996.36	99.5393
1998.54	96.5755
2000.72	97.2846
2002.9	97.0321
2005.08	93.3332
2007.26	97.24
2009.44	96.4831
2011.62	97.4128
2013.8	95.3874
2015.97	91.7483
2018.15	87.7986
2020.32	86.2191
2022.49	88.1661
2024.66	90.0512
2026.83	89.2942
2029	83.8612
2031.17	93.8534
2033.34	86.0577
2035.51	90.3606
2037.67	83.5611
2039.84	83.8925
2042	86.4839
2044.16	89.5849
2046.32	87.185
2048.48	90.5176
2050.64	84.4245
2052.8	85.1633
2054.96	82.6684
2057.12	85.0739
2059.27	87.0131
2061.43	84.5774
2063.58	84.262
2065.73	91.2608
2067.89	82.4236
2070.04	88.1698
2072.19	87.4176
2074.34	85.9912
2076.48	84.0936
2078.63	85.6066
2080.78	81.4935
2082.92	84.6654
2085.07	86.0113
2087.21	89.1954
2089.35	87.6227
2091.49	85.1185
2093.63	77.9411
2095.77	85.506
2097.91	89.0133
2100.05	83.9961
2102.19	82.1775
2104.32	84.6077
2106.45	78.0208
2108.59	80.0577
2110.72	81.5762
2112.85	79.8225
2114.98	82.751
2117.11	77.5468
2119.24	80.1196
2121.37	76.3836
2123.5	81.4053
2125.62	86.2593
2127.75	77.0293
2129.87	80.3843
2131.99	79.4642
2134.11	84.1317
2136.24	76.3492
2138.36	74.2741
2140.47	78.9284
2142.59	80.5372
2144.71	79.4985
2146.83	78.6485
2148.94	84.4452
2151.06	81.7926
2153.17	79.9683
2155.28	78.187
2157.39	78.8963
2159.5	81.0209
2161.61	78.8213
2163.72	74.5649
2165.83	79.126
2167.94	72.7377
2170.04	74.6077
2172.15	77.376
2174.25	73.8971
2176.35	77.9315
2178.45	78.7671
2180.56	75.372
2182.66	71.1395
2184.75	73.9267
2186.85	78.0539
2188.95	75.9912
2191.05	69.1414
2193.14	75.6951
2195.24	73.7522
2197.33	76.5753
2199.42	71.3855
2201.51	70.8681
2203.6	72.9411
2205.69	70.3855
2207.78	70.6485
2209.87	71.9912
2211.96	75.3428
2214.04	71.4527
2216.13	71.4985
2218.21	70.2278
2220.29	71.5942
2222.38	76.79
2224.46	74.0415
2226.54	71.6579
2228.62	66.0577
2230.69	69.0218
2232.77	69.3768
2234.85	71.1497
2236.92	71.0701
2239	66.4261
2241.07	67.8974
2243.15	70.4357
2245.22	67.6531
2247.29	67.0701
2249.36	72.7747
2251.43	64.6616
2253.49	68.0328
2255.56	68.6275
2257.63	66.5555
2259.69	65.3134
2261.76	61.505
2263.82	66.3551
2265.88	66.1383
2267.95	65.1783
2270.01	57.9182
2272.07	63.5517
2274.12	66.9067
2276.18	64.9459
2278.24	69.0149
2280.3	64.2059
2282.35	62.8944
2284.41	60.5991
2286.46	65.4289
2288.51	62.5774
2290.56	64.959
2292.61	59.4393
2294.66	58.5641
2296.71	64.6951
2298.76	59.83
2300.8	62.4747
2302.85	61.2278
2304.9	61.2041
2306.94	58.2059
2308.98	60.8062
2311.03	58.7956
2313.07	60.5022
2315.11	59.3551
2317.15	58.1633
2319.19	57.6133
2321.22	55.0388
2323.26	58.185
2325.3	57.6836
2327.33	54.2942
2329.36	59.0303
2331.4	58.4737
2333.43	56.8783
2335.46	53.4737
2337.49	56.2059
2339.52	54.8288
2341.55	58.6168
2343.58	55.4614
2345.6	59.7984
2347.63	73.7102
2349.65	56.2704
2351.68	55.5638
2353.7	53.6978
2355.72	53.3711
2357.74	52.7871
2359.76	54.7386
2361.78	57.4831
2363.8	59.8091
2365.82	54.9825
2367.84	54.8993
2369.85	52.488
2371.87	52.2152
2373.88	52.8288
2375.9	53.9429
2377.91	49.4092
2379.92	54.2657
2381.93	52.8801
2383.94	52.3768
2385.95	52.7833
2387.96	50.597
2389.96	50.2383
2391.97	50.8204
2393.97	56.4861
2395.98	52.8621
2397.98	48.7044
2399.98	49.9466
2401.98	54.0794
2403.99	50.0454
2405.99	53.1423
2407.98	51.6381
2409.98	48.6266
2411.98	49.8944
2413.98	49.9275
2415.97	51.674
2417.96	47.1319
2419.96	47.8328
2421.95	46.4946
2423.94	49.8621
2425.93	50.5517
2427.92	51.5145
2429.91	47.4843
2431.9	45.4663
2433.89	48.885
2435.87	45.7282
2437.86	46.7282
2439.84	47.4859
2441.83	49.6978
2443.81	47.26
2445.79	44.9248
2447.77	42.8204
2449.75	45.3618
2451.73	46.2023
2453.71	50.6003
2455.69	45.9656
2457.67	51.0968
2459.64	45.8081
2461.62	46.7006
2463.59	47.6275
2465.56	48.0758
2467.54	42.5678
2469.51	43.9801
2471.48	43.7654
2473.45	42.7654
2475.42	47.5068
2477.38	48.0557
2479.35	46.0074
2481.32	46.7075
2483.28	47.9192
2485.25	43.997
2487.21	43.2041
2489.17	46.488
2491.13	44.9608
2493.09	44.841
2495.05	45.1234
2497.01	42.1831
2498.97	43.2089
2500.93	41.7006
2502.89	40.7027
2504.84	45.9098
2506.8	48.1329
2508.75	42.7567
2510.7	40.0435
2512.65	42.7282
2514.61	41.0426
2516.56	47.5525
2518.51	41.7406
2520.45	43.4954
2522.4	37.676
2524.35	46.3123
2526.29	42.488
2528.24	38.6316
2530.18	43.4414
2532.13	45.471
2534.07	42.6675
2536.01	41.3977
2537.95	42.7833
2539.89	40.9876
2541.83	40.1785
2543.77	39.1309
2545.71	39.6316
2547.64	37.869
2549.58	42.7784
2551.51	44.4935
2553.45	41.5933
2555.38	42.0643
2557.31	43.164
2559.25	37.8765
2561.18	37.5858
2563.11	39.9173
2565.03	40.1471
2566.96	37.6647
2568.89	40.7189
2570.82	40.1348
2572.74	38.001
2574.67	38.1423
2576.59	38.3352
2578.51	33.1899
2580.43	37.5183
2582.36	40.8077
2584.28	40.1872
2586.2	38.5432
2588.11	36.5432
2590.03	38.5183
2591.95	36.674
2593.86	37.0191
2595.78	34.8678
2597.69	35.6124
2599.61	35.1395
2601.52	38.6752
2603.43	35.1633
2605.34	35.0987
2607.25	32.8155
2609.16	34.2241
2611.07	39.8155
2612.98	35.8225
2614.89	33.8899
2616.79	35.0359
2618.7	38.3028
2620.6	33.322
2622.5	34.676
2624.41	31.0104
2626.31	34.2041
2628.21	32.1633
2630.11	34.9876
2632.01	34.7579
2633.91	36.0093
2635.8	32.3059
2637.7	34.5585
2639.6	33.1822
2641.49	32.8678
2643.39	38.1204
2645.28	39.2657
2647.17	42.26
2649.06	37.83
2650.95	37.4234
2652.84	35.2326
2654.73	34.1204
2656.62	36.0854
2658.51	33.7492
2660.4	34.6864
2662.28	35.9876
2664.17	34.3123
2666.05	33.054
2667.93	35.3692
2669.82	41.1538
2671.7	41.3883
2673.58	59.2989
2675.46	71.9336
2677.34	71.5443
2679.21	64.0435
2681.09	54.1329
2682.97	43.7093
2684.84	39.5668
2686.72	39.4995
2688.59	52.0975
2690.47	66.0777
2692.34	92.2117
2694.21	157.63
2696.08	317.152
2697.95	318.133
2699.82	269.048
2701.69	170.325
2703.56	107.608
2705.42	83.9249
2707.29	63.1045
2709.15	51.5933
2711.02	42.6543
2712.88	37.7747
2714.75	35.5747
2716.61	32.6332
2718.47	32.3645
2720.33	31.0266
2722.19	31.8442
2724.05	32.0987
2725.9	29.8594
2727.76	33.3407
2729.62	29.7081
2731.47	30.6294
2733.33	31.321
2735.18	31.8091
2737.03	29.321
2738.88	29.2109
2740.73	30.3475
2742.59	31.3427
2744.43	27.0284
2746.28	30.2575
2748.13	28.9411
2749.98	27.3531
2751.82	25.3618
2753.67	30.8794
2755.51	27.1377
2757.36	24.3599
2759.2	25.3711
2761.04	26.3531
2762.88	23.3768
