365.286	475.243
368.238	459.393
371.189	465.566
374.139	469.786
377.087	482.077
380.034	476.564
382.979	476.435
385.923	475.881
388.866	461.396
391.806	461.173
394.745	461.91
397.684	480.161
400.62	494.227
403.555	522.768
406.49	535.239
409.421	555.283
412.353	550.371
415.282	570.628
418.209	569.132
421.137	530.279
424.062	512.437
426.985	486.869
429.908	470.462
432.829	467.906
435.748	452.175
438.666	451.171
441.583	447.035
444.498	433.423
447.412	426.213
450.324	445.062
453.235	429.951
456.145	442.914
459.052	443.077
461.959	437.188
464.865	437.682
467.769	439.132
470.671	438.881
473.572	433.854
476.471	429.119
479.37	439.618
482.266	432.671
485.162	432.449
488.056	453.838
490.948	456.299
493.839	467.671
496.73	490.674
499.618	551.043
502.505	607.007
505.39	653.366
508.275	667.99
511.157	655.203
514.039	657.62
516.919	657.481
519.798	659.899
522.674	694.01
525.55	716.007
528.425	747.283
531.297	747.821
534.169	736.788
537.039	682.103
539.908	622.528
542.775	557.118
545.642	500.798
548.506	455.142
551.369	443.34
554.231	415.649
557.092	404.409
559.951	393.729
562.808	377.562
565.664	365.004
568.519	346.868
571.373	361.286
574.225	356.951
577.076	352.632
579.925	348.599
582.773	348.671
585.62	341.947
588.466	344.593
591.309	341.315
594.152	335.044
596.993	340.115
599.832	337.227
602.671	335.481
605.508	328.656
608.343	331.136
611.178	336.06
614.011	333.995
616.842	321.226
619.672	331.211
622.501	331.893
625.329	341.854
628.155	363.646
630.98	358.116
633.802	350.188
636.624	337.171
639.445	337.324
642.264	329.923
645.082	341.367
647.898	332.126
650.714	329.718
653.527	337.02
656.34	327.868
659.151	322.618
661.961	325.063
664.769	324.338
667.576	328.424
670.382	334.844
673.186	331.111
675.989	325.21
678.791	341.409
681.591	366.198
684.39	392.657
687.187	427.858
689.983	498.346
692.779	508.198
695.572	474.613
698.363	412.562
701.155	372.592
703.944	341.423
706.733	329.243
709.519	332.556
712.305	325.516
715.089	317.953
717.871	320.01
720.653	315.893
723.433	318.396
726.212	315.296
728.989	322.006
731.765	311.188
734.54	313.73
737.313	305.841
740.085	310.869
742.856	299.893
745.625	302.119
748.394	301.574
751.16	308.005
753.926	307.396
756.689	314.213
759.452	311.321
762.214	320.41
764.974	307.283
767.733	320.109
770.49	300.56
773.246	311.02
776.001	314.118
778.755	322.325
781.507	320.211
784.258	333.546
787.007	355.408
789.756	384.87
792.502	408.953
795.247	452.766
797.992	480.563
800.735	503.224
803.477	463.601
806.217	429.27
808.956	385.103
811.694	350.273
814.43	331.989
817.165	329.99
819.899	324.645
822.631	319.341
825.362	319.576
828.092	303.766
830.82	313.465
833.548	315.591
836.274	312.368
838.998	311.488
841.721	310.934
844.444	302.648
847.165	314.077
849.884	295.916
852.601	295.286
855.318	291.264
858.034	298.24
860.749	282.331
863.461	286.759
866.173	285.896
868.883	288.764
871.592	278.879
874.3	278.322
877.006	271.321
879.712	276.288
882.415	276.228
885.118	271.629
887.819	277.332
890.519	271.591
893.218	280.273
895.914	286.131
898.611	281.063
901.306	284.211
903.999	286.077
906.692	277.551
909.382	272.451
912.072	276.73
914.761	275.619
917.447	284.321
920.133	274.497
922.818	280.977
925.501	277.323
928.183	277.317
930.864	285.202
933.543	276.603
936.221	279.714
938.898	276.112
941.574	273.786
944.248	282.329
946.921	267.825
949.593	268.965
952.263	274.509
954.932	274.888
957.6	274.838
960.267	273.923
962.932	287.764
965.597	271.771
968.26	275.728
970.922	261.285
973.581	268.25
976.241	269.739
978.898	273.38
981.555	271.399
984.21	273.637
986.864	271.759
989.517	291.543
992.169	301.509
994.819	335.655
997.468	425.524
1000.12	435.516
1002.76	353.055
1005.41	326.157
1008.05	337.97
1010.69	344.557
1013.34	351.166
1015.98	366.843
1018.61	391.617
1021.25	415.724
1023.89	403.193
1026.52	363.435
1029.16	331.518
1031.79	335.727
1034.42	335.953
1037.05	345.197
1039.68	340.93
1042.31	354.325
1044.93	364.366
1047.56	366.506
1050.18	384.479
1052.81	418.988
1055.43	441.077
1058.05	491.41
1060.67	557.092
1063.28	686.51
1065.9	857.13
1068.52	1119.75
1071.13	1366.45
1073.74	1639.78
1076.35	1868.84
1078.96	1959.14
1081.57	1916.1
1084.18	1705.99
1086.79	1387.22
1089.39	1098.04
1092	857.508
1094.6	667.904
1097.2	552.153
1099.8	470.59
1102.4	417.285
1105	402.451
1107.6	386.166
1110.19	373.496
1112.79	366.796
1115.38	362.424
1117.97	351.425
1120.56	356.794
1123.15	347.427
1125.74	344.081
1128.33	337.449
1130.91	334.836
1133.5	327.025
1136.08	320.444
1138.66	307.671
1141.24	297.732
1143.82	290.211
1146.4	297.768
1148.98	293.952
1151.55	291.564
1154.13	293.479
1156.7	281.006
1159.27	286.002
1161.85	295.588
1164.42	301.279
1166.98	300.951
1169.55	302.528
1172.12	312.296
1174.68	331.669
1177.25	357.18
1179.81	391.328
1182.37	417.618
1184.93	426.395
1187.49	399.483
1190.05	346.45
1192.6	304.843
1195.16	285.146
1197.71	273.706
1200.27	259.433
1202.82	260.283
1205.37	261.85
1207.92	254.224
1210.47	266.917
1213.01	260.655
1215.56	256.446
1218.1	259.788
1220.65	261.951
1223.19	255.687
1225.73	263.191
1228.27	263.442
1230.81	275.063
1233.35	266.591
1235.88	274.46
1238.42	273.963
1240.95	271.612
1243.48	275.448
1246.02	284.794
1248.55	287.453
1251.07	284.321
1253.6	298.076
1256.13	292.23
1258.66	310.268
1261.18	309.663
1263.7	308.405
1266.22	319.302
1268.75	334.146
1271.27	349.257
1273.78	359.407
1276.3	367.539
1278.82	371.255
1281.33	384.303
1283.85	384.397
1286.36	384.013
1288.87	398.82
1291.38	385.926
1293.89	377.9
1296.4	372.853
1298.9	371.136
1301.41	357.508
1303.91	358.871
1306.41	362.339
1308.92	362.227
1311.42	358.041
1313.92	347.958
1316.42	336.171
1318.91	327.841
1321.41	320.51
1323.9	306.45
1326.4	298.209
1328.89	289.23
1331.38	286.583
1333.87	273.185
1336.36	280.905
1338.85	270.6
1341.34	267.381
1343.82	257.95
1346.31	259.576
1348.79	254.915
1351.27	251.729
1353.75	260.058
1356.23	250.99
1358.71	257.472
1361.19	255.991
1363.66	265.716
1366.14	262.37
1368.61	264.95
1371.09	275.202
1373.56	276.824
1376.03	273.508
1378.5	281.33
1380.96	280.234
1383.43	281.685
1385.9	272.917
1388.36	275.137
1390.83	279.37
1393.29	272.266
1395.75	268.88
1398.21	268.931
1400.67	261.825
1403.13	253.731
1405.58	249.493
1408.04	250.211
1410.49	245.405
1412.95	242.283
1415.4	240.488
1417.85	248.494
1420.3	247.553
1422.75	249.28
1425.2	252.335
1427.64	238.44
1430.09	242.117
1432.53	239.802
1434.97	239.358
1437.42	238.524
1439.86	228.025
1442.3	222.74
1444.73	227.114
1447.17	221.139
1449.61	220.802
1452.04	225.288
1454.48	202.055
1456.91	205.472
1459.34	206.064
1461.77	200.987
1464.2	213.64
1466.63	207.61
1469.06	213.895
1471.48	220.088
1473.91	229.508
1476.33	240.643
1478.75	256.388
1481.17	269.598
1483.6	257.841
1486.01	244.499
1488.43	222.623
1490.85	212.886
1493.27	202.253
1495.68	193.832
1498.09	189.017
1500.51	189.007
1502.92	191.698
1505.33	184.266
1507.74	183.123
1510.14	192.859
1512.55	191.266
1514.96	192.402
1517.36	190.567
1519.77	194.11
1522.17	197.168
1524.57	195.432
1526.97	193.914
1529.37	204.3
1531.77	194.332
1534.16	196.723
1536.56	205.003
1538.95	207.457
1541.35	202.487
1543.74	211.774
1546.13	208.285
1548.52	215.971
1550.91	218.259
1553.3	230.057
1555.68	243.628
1558.07	244.746
1560.45	252.192
1562.84	270.457
1565.22	301.492
1567.6	320.581
1569.98	366.9
1572.36	428.902
1574.74	498.574
1577.12	599.419
1579.49	710.023
1581.87	846.12
1584.24	1035.61
1586.61	1242.42
1588.98	1376.72
1591.35	1432.25
1593.72	1367.9
1596.09	1163.47
1598.46	927.266
1600.82	729.248
1603.19	587.001
1605.55	504.179
1607.92	446.166
1610.28	405.981
1612.64	372.591
1615	342.341
1617.36	338.168
1619.71	319.77
1622.07	311.888
1624.42	304.404
1626.78	289.988
1629.13	291.977
1631.48	296.538
1633.83	302.806
1636.18	314.16
1638.53	307.733
1640.88	315.841
1643.22	315.195
1645.57	321.685
1647.91	329.417
1650.26	329.988
1652.6	327.074
1654.94	334.974
1657.28	337.559
1659.62	334.051
1661.96	331.396
1664.29	311.264
1666.63	301.038
1668.96	294.878
1671.3	269.276
1673.63	271.907
1675.96	254.666
1678.29	247.744
1680.62	232.663
1682.95	220.302
1685.27	215.804
1687.6	207.774
1689.92	202.061
1692.25	201.052
1694.57	195.786
1696.89	200.48
1699.21	190.151
1701.53	186.387
1703.85	183.852
1706.17	190.899
1708.48	187.562
1710.8	179.08
1713.11	178.877
1715.43	182.812
1717.74	170.061
1720.05	164.701
1722.36	165.482
1724.67	168.894
1726.97	162.672
1729.28	158.57
1731.59	160.742
1733.89	151.425
1736.19	154.749
1738.5	153.129
1740.8	147.647
1743.1	144.018
1745.4	137.271
1747.7	135.536
1749.99	130.536
1752.29	128.247
1754.58	126.365
1756.88	127.81
1759.17	125.437
1761.46	121.203
1763.75	121.146
1766.04	124.998
1768.33	123.656
1770.62	121.094
1772.91	118.673
1775.19	115.997
1777.48	116.476
1779.76	117.927
1782.04	115.398
1784.32	111.238
1786.6	105.339
1788.88	112.202
1791.16	111.147
1793.44	110.837
1795.71	107.255
1797.99	112.061
1800.26	109.699
1802.54	105.701
1804.81	106.69
1807.08	104.502
1809.35	106.732
1811.62	103.475
1813.88	101.506
1816.15	101.573
1818.42	99.6726
1820.68	101.553
1822.95	104.384
1825.21	99.5324
1827.47	94.0911
1829.73	102.207
1831.99	101.979
1834.25	100.092
1836.51	103.517
1838.76	96.9621
1841.02	96.0492
1843.27	101.842
1845.52	99.2178
1847.78	98.4784
1850.03	97.4275
1852.28	96.2959
1854.53	94.0911
1856.78	94.2282
1859.02	90.2198
1861.27	93.8136
1863.51	97.3422
1865.76	95.0699
1868	94.2139
1870.24	97.2042
1872.48	90.2584
1874.72	94.9626
1876.96	91.3878
1879.2	91.0348
1881.44	92.0051
1883.67	90.3856
1885.91	93.6985
1888.14	89.8024
1890.37	89.897
1892.61	91.191
1894.84	88.1459
1897.07	96.1326
1899.29	94.441
1901.52	89.744
1903.75	96.7872
1905.97	85.5615
1908.2	91.1171
1910.42	94.5036
1912.64	90.5895
1914.87	91.5904
1917.09	87.7829
1919.31	89.1416
1921.52	91.3331
1923.74	88.2397
1925.96	86.2406
1928.17	88.2273
1930.39	85.894
1932.6	86.4967
1934.81	86.9247
1937.03	84.2899
1939.24	83.1469
1941.45	79.3393
1943.65	82.0327
1945.86	81.4068
1948.07	79.2023
1950.27	83.2658
1952.48	79.3825
1954.68	83.385
1956.88	81.8805
1959.08	78.366
1961.29	83.7578
1963.48	79.4504
1965.68	82.8677
1967.88	86.0483
1970.08	81.4066
1972.27	78.7465
1974.47	82.5079
1976.66	85.5543
1978.85	82.5607
1981.04	81.3393
1983.23	81.0635
1985.42	79.3508
1987.61	86.1526
1989.8	79.3517
1991.99	84.0635
1994.17	75.2282
1996.36	77.3
1998.54	77.1076
2000.72	81.1438
2002.9	76.7859
2005.08	75.4349
2007.26	75.7829
2009.44	75.619
2011.62	77.9696
2013.8	80.4539
2015.97	78.6479
2018.15	75.2311
2020.32	75.5873
2022.49	77.5472
2024.66	74.5346
2026.83	76.0051
2029	77.9138
2031.17	71.9809
2033.34	70.7765
2035.51	73.9104
2037.67	80.4154
2039.84	75.334
2042	73.2295
2044.16	80.622
2046.32	70.7837
2048.48	69.332
2050.64	73.0985
2052.8	71.8556
2054.96	72.006
2057.12	71.7881
2059.27	71.7029
2061.43	72.5356
2063.58	72.2959
2065.73	70.9237
2067.89	68.3134
2070.04	70.466
2072.19	72.037
2074.34	70.7829
2076.48	73.1349
2078.63	68.0051
2080.78	71.1746
2082.92	72.8248
2085.07	71.897
2087.21	71.0238
2089.35	72.7686
2091.49	72.3436
2093.63	67.6662
2095.77	71.1667
2097.91	72.3043
2100.05	69.2304
2102.19	71.0732
2104.32	70.7006
2106.45	65.4771
2108.59	64.4806
2110.72	67.4619
2112.85	70.8304
2114.98	66.7444
2117.11	68.9667
2119.24	69.3946
2121.37	70.7401
2123.5	65.9359
2125.62	68.1746
2127.75	67.4914
2129.87	66.203
2131.99	66.8356
2134.11	65.5771
2136.24	67.3289
2138.36	63.3134
2140.47	62.3155
2142.59	69.3703
2144.71	64.6718
2146.83	68.4066
2148.94	70.565
2151.06	70.9883
2153.17	66.7994
2155.28	67.8854
2157.39	67.9215
2159.5	65.4352
2161.61	64.9545
2163.72	59.1162
2165.83	67.0732
2167.94	66.0327
2170.04	64.3605
2172.15	62.1076
2174.25	62.5181
2176.35	63.037
2178.45	65.6324
2180.56	67.2304
2182.66	61.3508
2184.75	61.2295
2186.85	66.1184
2188.95	65.2044
2191.05	61.9502
2193.14	61.9524
2195.24	59.0778
2197.33	58.4429
2199.42	61.1854
2201.51	60.8024
2203.6	58.6169
2205.69	60.7686
2207.78	57.1162
2209.87	63.1162
2211.96	61.3406
2214.04	59.1184
2216.13	63.5895
2218.21	62.9072
2220.29	62.0183
2222.38	62.6334
2224.46	60.8515
2226.54	57.6453
2228.62	59.0327
2230.69	57.0073
2232.77	60.8096
2234.85	62.728
2236.92	59.5079
2239	60.6938
2241.07	57.2835
2243.15	58.1162
2245.22	56.3548
2247.29	55.573
2249.36	57.6324
2251.43	57.9844
2253.49	57.2835
2255.56	53.441
2257.63	57.8675
2259.69	56.1768
2261.76	57.3384
2263.82	57.0051
2265.88	53.3946
2267.95	55.5802
2270.01	57.7435
2272.07	60.9449
2274.12	52.3146
2276.18	52.5917
2278.24	49.9064
2280.3	54.4275
2282.35	53.6718
2284.41	57.5356
2286.46	55.2023
2288.51	52.619
2290.56	54.5615
2292.61	50.7445
2294.66	52.2835
2296.71	51.4771
2298.76	55.3549
2300.8	51.8895
2302.85	49.9502
2304.9	49.5607
2306.94	46.6904
2308.98	54.1889
2311.03	45.9502
2313.07	50.728
2315.11	52.006
2317.15	50.0778
2319.19	49.4691
2321.22	49.5771
2323.26	51.6212
2325.3	47.5181
2327.33	52.9072
2329.36	55.0081
2331.4	49.5046
2333.43	47.9114
2335.46	50.0318
2337.49	51.191
2339.52	53.2304
2341.55	48.2469
2343.58	47.0362
2345.6	55.6355
2347.63	58.5739
2349.65	49.862
2351.68	46.3134
2353.7	49.0073
2355.72	52.08
2357.74	46.7765
2359.76	50.2469
2361.78	50.275
2363.8	45.9663
2365.82	52.2801
2367.84	42.8876
2369.85	44.1581
2371.87	47.4154
2373.88	47.7547
2375.9	47.3946
2377.91	42.894
2379.92	43.6913
2381.93	45.5463
2383.94	46.7275
2385.95	47.0175
2387.96	46.9251
2389.96	42.6726
2391.97	43.4682
2393.97	46.0175
2395.98	43.3558
2397.98	42.8139
2399.98	43.8391
2401.98	41.7743
2403.99	40.2325
2405.99	43.1118
2407.98	44.1724
2409.98	44.1724
2411.98	39.9273
2413.98	44.5101
2415.97	36.1768
2417.96	39.1724
2419.96	42.565
2421.95	40.6292
2423.94	40.7733
2425.93	38.619
2427.92	41.728
2429.91	42.1724
2431.9	43.6094
2433.89	37.5607
2435.87	43.9064
2437.86	39.3946
2439.84	41.0327
2441.83	37.5218
2443.81	37.0348
2445.79	40.0955
2447.77	36.6841
2449.75	39.3946
2451.73	38.0613
2453.71	41.737
2455.69	36.728
2457.67	36.0318
2459.64	32.5926
2461.62	38.6069
2463.59	37.0842
2465.56	35.0613
2467.54	36.894
2469.51	35.1451
2471.48	38.565
2473.45	37.9105
2475.42	40.1991
2477.38	38.3289
2479.35	35.5378
2481.32	38.2549
2483.28	40.6212
2485.25	40.358
2487.21	39.3022
2489.17	42.1184
2491.13	36.0994
2493.09	38.9135
2495.05	39.4682
2497.01	37.6739
2498.97	40.8701
2500.93	36.4691
2502.89	36.246
2504.84	39.3571
2506.8	37.4495
2508.75	39.0656
2510.7	36.1162
2512.65	31.6739
2514.61	37.2282
2516.56	37.9791
2518.51	34.7743
2520.45	37.1656
2522.4	34.444
2524.35	31.4111
2526.29	35.6351
2528.24	33.7994
2530.18	35.8711
2532.13	33.9524
2534.07	33.399
2536.01	32.4762
2537.95	37.1889
2539.89	32.1889
2541.83	36.7829
2543.77	36.1746
2545.71	34.8413
2547.64	34.0635
2549.58	34.1911
2551.51	34.6913
2553.45	33.3289
2555.38	34.4495
2557.31	35.4539
2559.25	31.5222
2561.18	33.9689
2563.11	36.0216
2565.03	33.7578
2566.96	31.2438
2568.89	33.8983
2570.82	30.897
2572.74	34.0923
2574.67	32.5607
2576.59	28.2013
2578.51	30.0635
2580.43	28.728
2582.36	28.4539
2584.28	30.4213
2586.2	29.4504
2588.11	31.5053
2590.03	30.1162
2591.95	29.6169
2593.86	28.9502
2595.78	28.7466
2597.69	26.1162
2599.61	29.7301
2601.52	30.4682
2603.43	29.1889
2605.34	27.5615
2607.25	28.399
2609.16	28.0318
2611.07	25.6574
2612.98	26.407
2614.89	26.6047
2616.79	29.6985
2618.7	27.5917
2620.6	25.9808
2622.5	24.5615
2624.41	27.9127
2626.31	22.0613
2628.21	28.6883
2630.11	26.1889
2632.01	27.9908
2633.91	24.728
2635.8	28.5222
2637.7	26.7445
2639.6	24.2835
2641.49	26.2406
2643.39	31.2957
2645.28	29.5472
2647.17	32.677
2649.06	29.6904
2650.95	29.8962
2652.84	26.5628
2654.73	29.1624
2656.62	25.1349
2658.51	28.8046
2660.4	28.2625
2662.28	27.1724
2664.17	32.7859
2666.05	27.3707
2667.93	28.4526
2669.82	28.894
2671.7	33.8002
2673.58	50.7136
2675.46	60.7859
2677.34	58.2076
2679.21	47.7994
2681.09	42.4517
2682.97	37.0094
2684.84	33.1357
2686.72	32.1768
2688.59	40.6355
2690.47	62.0458
2692.34	80.1162
2694.21	168.254
2696.08	303.93
2697.95	302.825
2699.82	264.664
2701.69	166.479
2703.56	103.078
2705.42	81.0271
2707.29	52.7403
2709.15	43.4111
2711.02	40.2295
2712.88	29.0073
2714.75	28.5113
2716.61	27.5607
2718.47	26.6718
2720.33	24.325
2722.19	23.9689
2724.05	21.466
2725.9	24.1429
2727.76	22.1162
2729.62	23.7994
2731.47	22.4691
2733.33	22.7952
2735.18	22.8577
2737.03	22.4784
2738.88	22.3384
2740.73	23.3946
2742.59	21.6748
2744.43	19.0051
2746.28	17.1724
2748.13	21.0403
2749.98	18.1171
2751.82	22.3549
2753.67	19.5607
2755.51	18.5628
2757.36	19.4793
2759.2	18.0225
2761.04	19.0216
2762.88	17.9916
