176.074	202.222
178.677	199.778
181.279	190.222
183.879	186.667
186.48	182.778
189.08	172.444
191.677	170.667
194.275	166.556
196.871	164.889
199.467	157.333
202.061	158.889
204.656	154.444
207.249	157.556
209.841	153.222
212.433	152.556
215.022	151
217.613	149.667
220.201	154.444
222.789	153.111
225.375	149.556
227.962	153.889
230.547	152.444
233.132	152.333
235.714	150.556
238.296	154.222
240.879	151
243.459	147.556
246.04	147.444
248.618	134.889
251.198	133.889
253.774	130.111
256.35	123.444
258.927	117.889
261.501	118.778
264.074	114
266.648	110.667
269.22	111
271.791	107.222
274.362	105.111
276.931	102.667
279.5	105.556
282.069	103.222
284.635	101.667
287.201	104.444
289.766	106.111
292.331	106.778
294.894	110.667
297.457	114.444
300.018	117.333
302.58	123.667
305.14	124.333
307.699	135.444
310.257	146.556
312.814	162.333
315.372	180.222
317.928	194.778
320.482	195.111
323.036	197.778
325.589	182.556
328.142	173.222
330.693	162.222
333.243	149
335.795	149.556
338.343	150.333
340.891	151.667
343.439	169.333
345.985	180.222
348.53	204.889
351.075	226.778
353.619	247
356.162	265.333
358.704	267.667
361.245	263.556
363.786	259.889
366.325	237.889
368.864	227.333
371.402	205.556
373.939	186.889
376.475	175.111
379.011	157.111
381.545	151.111
384.079	142.667
386.611	142.889
389.143	138.556
391.674	148.333
394.204	162.556
396.734	187.333
399.263	231.111
401.791	283.667
404.318	339.889
406.843	373.778
409.368	342.444
411.893	281.667
414.417	228.222
416.94	175.444
419.46	144.444
421.982	123.222
424.502	103.444
427.022	94.2222
429.541	87.5556
432.057	79.4445
434.574	73.8889
437.091	71.7778
439.605	70.2222
442.12	67.4444
444.634	63.7778
447.145	62.8889
449.657	59.2222
452.169	61.7778
454.678	59.4444
457.188	56.8889
459.697	54.2222
462.204	56.8889
464.711	53.5556
467.217	52.3333
469.722	52.4444
472.227	51.8889
474.729	51.7778
477.232	51
479.735	50.6667
482.235	50.6667
484.736	47.3333
487.234	49.4444
489.734	49.3333
492.23	47.6667
494.728	48.3333
497.223	49.1111
499.719	48.3333
502.213	48.8889
504.707	46.2222
507.199	46.6667
509.69	47.7778
512.182	48
514.672	45.5556
517.162	46.8889
519.65	46.1111
522.139	45.6667
524.625	44.7778
527.111	44.5556
529.597	47
532.081	46.4444
534.564	44.2222
537.047	44.7778
539.529	46.3333
542.01	44.7778
544.491	46.4444
546.97	47.4444
549.448	45.2222
551.927	46
554.404	43.7778
556.88	45.5556
559.355	45.2222
561.831	45.5556
564.304	44.2222
566.777	44.7778
569.249	45.8889
571.72	46.4444
574.191	43.1111
576.661	46
579.129	48.3333
581.597	45.2222
584.064	46.1111
586.531	46.6667
588.997	45
591.462	47.3333
593.926	46.8889
596.389	46.3333
598.851	45.8889
601.313	46.2222
603.773	46.4444
606.233	45.4444
608.692	47.2222
611.151	47.6667
613.608	49.3333
616.065	47.6667
618.521	48.8889
620.976	47.6667
623.43	48.1111
625.883	49.6667
628.336	50.7778
630.788	51.5556
633.239	52.4444
635.69	54.4444
638.139	55.8889
640.588	61.5556
643.036	65.5556
645.483	74.6667
647.929	97.6667
650.375	124.444
652.818	186.444
655.262	347.778
657.706	661.667
660.148	907.778
662.59	839.889
665.031	571.889
667.471	326.889
669.909	184.667
672.347	115.667
674.785	86
677.222	75.7778
679.656	67.5556
682.092	60.7778
684.526	58.1111
686.96	55.7778
689.392	54
691.824	51.1111
694.256	53.5556
696.686	49.1111
699.115	49.3333
701.544	49.4444
703.972	48.7778
706.398	47.8889
708.825	51
711.25	46.3333
713.675	46.7778
716.099	46.6667
718.522	46
720.944	45.3333
723.366	45.5556
725.786	45.8889
728.207	42.2222
730.625	44.1111
733.044	44.5556
735.461	44.1111
737.879	44.8889
740.294	44.8889
742.71	42
745.123	44.4444
747.538	43.8889
749.95	42.4444
752.363	41.1111
754.773	43.8889
757.185	43.3333
759.594	43.3333
762.002	42.1111
764.411	43.5556
766.818	40.1111
769.225	40.7778
771.63	41.1111
774.035	42.6667
776.44	42.5556
778.843	42
781.245	43.7778
783.648	43.1111
786.048	42.5556
788.448	44.6667
790.848	44
793.247	45.2222
795.644	43.1111
798.042	42.6667
800.438	44
802.834	44.3333
805.228	43.7778
807.623	45.3333
810.016	45.7778
812.408	45
814.8	46.4444
817.191	45
819.58	46.6667
821.971	46.6667
824.359	45.3333
826.747	47.8889
829.134	46.4444
831.52	48.4444
833.905	50.4444
836.29	50.2222
838.675	51.3333
841.058	54
843.44	58.2222
845.822	62.5556
848.203	66.6667
850.583	78.2222
852.962	98.1111
855.341	122
857.718	165.778
860.095	265.222
862.471	516.222
864.847	910.889
867.222	1084.89
869.596	890
871.969	516.222
874.341	265.444
876.713	150.333
879.083	104.444
881.453	85.4444
883.822	73.3333
886.191	67
888.559	58.3333
890.926	57.1111
893.293	54.7778
895.658	53.5556
898.022	50.3333
900.386	49
902.75	48.5556
905.112	51.7778
907.474	45.8889
909.834	48.4444
912.194	46
914.554	46.1111
916.913	45.3333
919.27	46.2222
921.627	48.2222
923.984	45.1111
926.34	44.6667
928.694	45.6667
931.048	43.5556
933.402	44.3333
935.754	44.3333
938.106	44.8889
940.458	46.4444
942.807	44.4444
945.157	43
947.505	47.6667
949.853	43.7778
952.201	46.7778
954.547	46.1111
956.893	44.6667
959.237	45.6667
961.582	47.1111
963.925	45.8889
966.268	45.4444
968.609	48.2222
970.951	45
973.291	47.3333
975.631	49.1111
977.97	47.4444
980.309	49.2222
982.645	50.4444
984.983	48.7778
987.318	50.8889
989.653	50.4444
991.988	51.6667
994.321	53.8889
996.655	56.8889
998.987	58.1111
1001.32	64.8889
1003.65	69.3333
1005.98	72.6667
1008.31	77.4444
1010.64	80.5556
1012.96	77.6667
1015.29	78.6667
1017.62	77.2222
1019.94	75.2222
1022.27	73.5556
1024.59	69.3333
1026.91	67.1111
1029.24	65.3333
1031.56	61.5556
1033.88	62.7778
1036.2	64.7778
1038.52	62.1111
1040.84	60.6667
1043.16	62.8889
1045.47	63.6667
1047.79	64
1050.1	67.8889
1052.42	70.4444
1054.74	74.8889
1057.05	80.3333
1059.36	92
1061.67	98.8889
1063.98	101.222
1066.29	102.556
1068.6	100.222
1070.91	97.7778
1073.22	98.6667
1075.53	97.5556
1077.84	101.111
1080.14	107.556
1082.45	126.778
1084.75	148.111
1087.06	180.778
1089.36	217.556
1091.66	258.444
1093.96	289
1096.27	292.778
1098.57	287.333
1100.87	268.111
1103.16	243.667
1105.46	210.556
1107.76	179
1110.06	155.667
1112.35	130.222
1114.65	116.444
1116.94	100.889
1119.23	92.1111
1121.53	85.5556
1123.82	77.5556
1126.11	71.3333
1128.4	69.8889
1130.69	67.3333
1132.98	65.2222
1135.27	63.8889
1137.56	64
1139.85	61.4444
1142.13	58.8889
1144.42	59.5556
1146.7	60.4444
1148.99	58.3333
1151.27	59.3333
1153.55	56.2222
1155.84	58.4444
1158.12	59.2222
1160.4	56
1162.68	52.2222
1164.96	54.6667
1167.23	53.4444
1169.51	55.3333
1171.79	55
1174.06	53
1176.34	52.7778
1178.62	55.2222
1180.89	53.1111
1183.16	51.8889
1185.44	50
1187.71	50.7778
1189.98	51.5556
1192.25	52.3333
1194.52	50.5556
1196.79	53.1111
1199.06	53
1201.32	50.4444
1203.59	51.8889
1205.86	52.4444
1208.12	53.1111
1210.39	52.1111
1212.65	54.1111
1214.91	51.8889
1217.18	52.2222
1219.44	51.5556
1221.7	50.3333
1223.96	53.7778
1226.22	52.7778
1228.48	55.1111
1230.74	52.7778
1232.99	52.4444
1235.25	54.2222
1237.51	54.8889
1239.76	55.1111
1242.02	54.2222
1244.27	55.2222
1246.53	55.5556
1248.78	54.4444
1251.03	53.7778
1253.28	55.3333
1255.53	58.4444
1257.78	53.7778
1260.03	55.1111
1262.28	56.3333
1264.53	56.8889
1266.77	55.7778
1269.02	55.5556
1271.26	56.7778
1273.51	56.2222
1275.75	56.5556
1278	56.2222
1280.24	58.3333
1282.48	58.3333
1284.72	58.7778
1286.96	59.5556
1289.2	59.1111
1291.44	57.6667
1293.68	61.1111
1295.92	57.4444
1298.15	59.8889
1300.39	60.6667
1302.63	60
1304.86	61.4444
1307.1	61.2222
1309.33	60.4444
1311.56	60.3333
1313.79	65.2222
1316.02	64.5556
1318.26	64.1111
1320.49	62.7778
1322.71	66.2222
1324.94	63.4444
1327.17	67.6667
1329.4	68.2222
1331.62	67.6667
1333.85	70.1111
1336.08	70.6667
1338.3	70.1111
1340.52	70.8889
1342.75	71.6667
1344.97	73.2222
1347.19	76.4444
1349.41	76
1351.63	81.5556
1353.85	82
1356.07	83
1358.29	88.2222
1360.5	89.5556
1362.72	95.2222
1364.94	95.4444
1367.15	103.444
1369.37	106.667
1371.58	116
1373.79	122.889
1376.01	134.333
1378.22	147
1380.43	167.111
1382.64	194
1384.85	221.778
1387.06	257.333
1389.27	283.333
1391.47	308.667
1393.68	330
1395.89	349.889
1398.09	385.222
1400.3	441.778
1402.5	536.222
1404.71	650.778
1406.91	741.889
1409.11	807
1411.31	799.556
1413.51	743.333
1415.71	647.667
1417.91	532.667
1420.11	439.222
1422.31	372.556
1424.51	327.444
1426.7	315.556
1428.9	319.667
1431.1	347
1433.29	398.444
1435.48	492.333
1437.68	573.444
1439.87	627.778
1442.06	636
1444.25	593.111
1446.44	540.667
1448.63	462.444
1450.82	395.111
1453.01	352.778
1455.2	310.556
1457.39	278.111
1459.57	259.222
1461.76	241.556
1463.94	222.889
1466.13	210.333
1468.31	198.667
1470.49	192.556
1472.68	185.444
1474.86	177.889
1477.04	167.778
1479.22	161.111
1481.4	154.222
1483.58	151.667
1485.75	145.222
1487.93	146.444
1490.11	146.111
1492.29	150.444
1494.46	148.889
1496.64	151.667
1498.81	149.222
1500.98	146
1503.16	150.333
1505.33	143.444
1507.5	144.667
1509.67	139.778
1511.84	135.333
1514.01	129.889
1516.18	120.667
1518.35	115.889
1520.51	109.222
1522.68	101.333
1524.85	99.6667
1527.01	95.6667
1529.18	89.3333
1531.34	87.4444
1533.51	88.3333
1535.67	87.3333
1537.83	85.6667
1539.99	83.6667
1542.15	79.5556
1544.31	82.1111
1546.47	80.7778
1548.63	79.1111
1550.79	78
1552.95	77.3333
1555.1	78.1111
1557.26	78.6667
1559.41	78.8889
1561.57	76.4444
1563.72	75.8889
1565.88	77
1568.03	76.5556
1570.18	74.8889
1572.33	77.4444
1574.48	75.1111
1576.63	74.7778
1578.78	75.3333
1580.93	73.8889
1583.08	73.7778
1585.23	76
1587.37	70.8889
1589.52	74.4444
1591.66	76.4444
1593.81	73.2222
1595.95	74.7778
1598.1	72.2222
1600.24	73.1111
1602.38	70.8889
1604.52	76
1606.66	72.8889
1608.8	77
1610.94	72.6667
1613.08	72.8889
1615.22	75.1111
1617.36	78.6667
1619.49	78.5556
1621.63	81
1623.77	80.6667
1625.9	81.5556
1628.03	85
1630.17	83.5555
1632.3	89.4445
1634.43	88.2222
1636.56	92.6667
1638.7	98.1111
1640.83	100.444
1642.96	109
1645.08	119.889
1647.21	141.111
1649.34	168.444
1651.47	208.222
1653.59	243.333
1655.72	281.333
1657.84	293.222
1659.97	301.889
1662.09	290.444
1664.21	272.667
1666.34	253.778
1668.46	243.111
1670.58	222.444
1672.7	213.111
1674.82	198.889
1676.94	189.111
1679.06	176.444
1681.18	166.111
1683.29	150.111
1685.41	146.556
1687.52	131.778
1689.64	122.333
1691.76	112.222
1693.87	103.556
1695.98	95.2222
1698.09	90.1111
1700.21	85.7778
1702.32	79.2222
1704.43	80.1111
1706.54	72
1708.65	74.6667
1710.76	74.7778
1712.86	71.4444
1714.97	73.4444
1717.08	72.5556
1719.19	72.4444
1721.29	74.8889
1723.4	74.2222
1725.5	76.2222
1727.6	75.1111
1729.71	76.2222
1731.81	75.5556
1733.91	70.5556
1736.01	70.4445
1738.11	65.6667
1740.21	65.7778
1742.31	64
1744.41	63.2222
1746.51	63.3333
1748.6	61.8889
1750.7	60.2222
1752.8	59.5556
1754.89	60.1111
1756.99	61.4444
1759.08	62.8889
1761.17	60
1763.27	58.2222
1765.36	59.2222
1767.45	61.4444
1769.54	57.7778
1771.63	57.7778
1773.72	58.2222
1775.81	59.5556
1777.9	58.5556
1779.98	59.7778
1782.07	55.3333
1784.16	58.2222
1786.24	58.1111
1788.33	57.1111
1790.41	58.3333
1792.5	60.7778
1794.58	60.2222
1796.66	59.1111
1798.74	57.8889
1800.83	60.4444
1802.91	58.1111
1804.99	56.6667
1807.06	58.7778
1809.14	59.6667
1811.22	60.1111
1813.3	59.7778
1815.38	59.2222
1817.45	60.8889
1819.53	56.8889
1821.6	59.1111
1823.68	58.7778
1825.75	57.6667
1827.82	57.8889
1829.9	57.2222
1831.97	56.8889
1834.04	57.1111
1836.11	56.4444
1838.18	57.6667
1840.25	57.1111
1842.32	59.3333
1844.38	57.8889
1846.45	57.4444
1848.52	60.1111
1850.58	58.3333
1852.65	58.2222
1854.72	57
1856.78	56.6667
1858.84	57.4444
1860.91	55.5556
1862.97	55.1111
1865.03	57.8889
1867.09	59.2222
1869.15	57.4444
1871.21	57.3333
1873.27	58.1111
1875.33	58.6667
1877.39	57.4444
1879.44	56.7778
1881.5	59
1883.56	56.4444
1885.61	56.7778
1887.67	60
1889.72	58.3333
1891.78	59
1893.83	58
1895.88	55.5556
1897.93	58.6667
1899.98	58.1111
1902.03	56.6667
1904.08	58
1906.13	56.8889
1908.18	57.7778
1910.23	58.8889
1912.28	58.1111
1914.32	58.4444
1916.37	59.4444
1918.41	59.4444
1920.46	58.1111
1922.5	59.8889
1924.55	59
1926.59	58.6667
1928.63	57.8889
1930.68	60.4444
1932.72	58.3333
1934.76	59.4444
1936.8	56.8889
1938.84	59.8889
1940.87	59.6667
1942.91	58.2222
1944.95	58.7778
1946.99	56.5556
1949.02	61.1111
1951.06	59.6667
1953.09	59.3333
1955.13	59.3333
1957.16	59.5556
1959.2	58
1961.23	58.3333
1963.26	59.1111
1965.29	59.6667
1967.32	58.8889
1969.35	61.8889
1971.38	59.8889
1973.41	62.5556
1975.44	59.6667
1977.47	61
1979.5	61.4444
1981.52	60.4444
1983.55	62.7778
1985.57	60.6667
1987.6	61.2222
1989.62	62.5556
1991.64	62.3333
1993.67	64.5556
1995.69	63.7778
1997.71	64
1999.73	65.6667
2001.75	66.7778
2003.77	69.2222
2005.79	69.1111
2007.81	71.3333
2009.83	66.3333
2011.85	70.2222
2013.86	68.4444
2015.88	68
2017.89	68.5556
2019.91	65.6667
2021.92	67.4444
2023.94	68.3333
2025.95	65.5555
2027.96	67.7778
2029.97	69.2222
2031.99	68.1111
2034	67.5556
2036.01	66.1111
2038.02	65.1111
2040.03	67
2042.03	67.7778
2044.04	67.2222
2046.05	65.7778
2048.06	63.8889
2050.06	66.7778
2052.07	64.3333
2054.07	63.7778
2056.08	64.3333
2058.08	64.1111
2060.08	64.8889
2062.08	62.5556
2064.09	63.7778
2066.09	66.4444
2068.09	64.5556
2070.09	63.8889
2072.09	60.8889
2074.09	61.1111
2076.08	61.1111
2078.08	62.1111
2080.08	63.5556
2082.07	63
2084.07	61.1111
2086.07	62.3333
2088.06	61.6667
2090.05	63.4444
2092.05	61.2222
2094.04	62
2096.03	61.7778
2098.02	62.3333
2100.01	60.4444
2102	64
2103.99	61.6667
2105.98	62.6667
2107.97	62.3333
2109.96	64
2111.95	63.8889
2113.94	63.2222
2115.92	64.2222
2117.91	65.3333
2119.89	63
2121.88	64.4444
2123.86	62.3333
2125.84	61.3333
2127.83	64.1111
2129.81	62.5556
2131.79	63.8889
2133.77	62.6667
2135.75	61.1111
2137.73	64.4444
2139.71	61.8889
2141.69	62.1111
2143.67	63.6667
2145.64	60
2147.62	62.7778
2149.6	61.7778
2151.57	62.8889
2153.55	61.6667
2155.52	63
2157.5	63.4444
2159.47	62.5556
2161.44	60.8889
2163.41	61.4444
2165.39	62.3333
2167.36	60.8889
2169.33	61.7778
2171.3	60.6667
2173.27	62.1111
2175.24	60
2177.2	63.5556
2179.17	63.7778
2181.14	65
2183.1	62.5556
2185.07	63.2222
2187.03	63.1111
2189	63.5556
2190.96	62.8889
2192.93	64.5556
2194.89	62.7778
2196.85	64.7778
2198.81	63.5556
2200.77	62.5556
2202.73	63.2222
2204.69	63.8889
2206.65	62
2208.61	61.5556
2210.57	65.4444
2212.53	61.7778
2214.48	63
2216.44	63.8889
2218.4	64.6667
2220.35	61.5556
2222.31	62.6667
2224.26	61.4444
2226.21	65.1111
2228.17	63.3333
2230.12	62.2222
2232.07	63.4444
2234.02	62.3333
2235.97	62.4444
2237.92	63.3333
2239.87	63.1111
2241.82	64.4444
2243.77	63.5556
2245.72	64.6667
2247.66	67
2249.61	65.7778
2251.56	63.5556
2253.5	64.8889
2255.45	63.7778
2257.39	63.6667
2259.33	63.4444
2261.28	65.8889
2263.22	63.1111
2265.16	63.4444
2267.1	60.7778
2269.04	65.2222
2270.99	66.5556
2272.92	61.7778
2274.86	63.5556
2276.8	63.8889
2278.74	65.7778
2280.68	62.6667
2282.61	63.8889
2284.55	64.6667
2286.49	64.2222
2288.42	62.4444
2290.36	66.8889
2292.29	65.2222
2294.22	64.2222
2296.16	65.8889
2298.09	65.7778
2300.02	64.8889
2301.95	67.8889
2303.88	66.2222
2305.81	66.8889
2307.74	66
2309.67	66.7778
2311.6	66.2222
2313.53	65
2315.45	67.8889
2317.38	66
2319.31	65.4444
2321.23	63.7778
2323.16	66.8889
2325.08	65
2327	67.8889
2328.93	65.7778
2330.85	64.4444
2332.77	64.1111
2334.69	65.7778
2336.62	64.4444
2338.54	65.7778
2340.46	67
2342.38	63.2222
2344.29	66.2222
2346.21	66.5556
2348.13	66
2350.05	66.5556
2351.96	61.3333
2353.88	64.7778
2355.79	67.3333
2357.71	64.4444
2359.62	64.7778
2361.54	65.2222
2363.45	66.3333
2365.36	62.4444
2367.27	65.1111
2369.19	61.4444
2371.1	64.3333
2373.01	63.8889
2374.92	64.4444
2376.83	61.6667
2378.73	66.6667
2380.64	63.4444
2382.55	63.1111
2384.46	64.6667
2386.36	63.3333
2388.27	65.7778
2390.17	64.5556
2392.08	64.5556
2393.98	64.7778
2395.89	66
2397.79	64.5556
2399.69	64.7778
2401.59	65.3333
2403.5	64.3333
2405.4	64.3333
2407.3	64.8889
2409.2	64.8889
2411.09	65.5556
2412.99	66.1111
2414.89	66
2416.79	63.7778
2418.69	62.8889
2420.58	65.4444
2422.48	67.2222
2424.37	65.1111
2426.27	67.1111
2428.16	61.4444
2430.06	68.7778
2431.95	65.7778
2433.84	65.3333
2435.73	66.5556
2437.62	68
2439.52	65.8889
2441.41	71.4444
2443.3	68.3333
2445.19	65.8889
