176.074	199.778
178.677	194.222
181.279	189.667
183.879	177.444
186.48	176.333
189.08	172.778
191.677	171
194.275	165.778
196.871	160.444
199.467	158.444
202.061	150.778
204.656	150.778
207.249	154.778
209.841	148.667
212.433	148
215.022	147.333
217.613	149.889
220.201	148
222.789	149.778
225.375	150.333
227.962	150.333
230.547	154.111
233.132	153.111
235.714	149.556
238.296	151.222
240.879	148.222
243.459	141.778
246.04	145.111
248.618	135.333
251.198	132.556
253.774	123.333
256.35	124.667
258.927	119
261.501	116.667
264.074	111.889
266.648	111.889
269.22	104
271.791	103.333
274.362	102.111
276.931	102.556
279.5	101.667
282.069	102.444
284.635	100.333
287.201	103.111
289.766	103.667
292.331	106.222
294.894	108.556
297.457	107.111
300.018	112.667
302.58	121.667
305.14	127.667
307.699	131.778
310.257	151
312.814	162
315.372	174.667
317.928	190.667
320.482	197.444
323.036	194.444
325.589	182.556
328.142	167.444
330.693	158.111
333.243	146.667
335.795	145
338.343	146.889
340.891	155
343.439	166.778
345.985	179.444
348.53	203.222
351.075	220.889
353.619	244.556
356.162	257.444
358.704	263.889
361.245	264.667
363.786	253.556
366.325	243.111
368.864	224
371.402	201.667
373.939	183.667
376.475	171.444
379.011	156.222
381.545	149.556
384.079	143.444
386.611	138.778
389.143	138.222
391.674	145.556
394.204	163.444
396.734	185.222
399.263	223.444
401.791	283
404.318	336.222
406.843	360.444
409.368	337.667
411.893	288.333
414.417	221.222
416.94	175.222
419.46	137.556
421.982	117.556
424.502	104.222
427.022	91.8889
429.541	85.1111
432.057	80.6667
434.574	74
437.091	69.4444
439.605	67.1111
442.12	66.4444
444.634	61.8889
447.145	58.7778
449.657	57.7778
452.169	56.3333
454.678	55.3333
457.188	57.8889
459.697	54.3333
462.204	52
464.711	50.6667
467.217	50.1111
469.722	49.5556
472.227	49.3333
474.729	47.8889
477.232	47.7778
479.735	48.3333
482.235	47.8889
484.736	48.7778
487.234	47.4444
489.734	46.4444
492.23	48.2222
494.728	47
497.223	47.1111
499.719	44.7778
502.213	43.8889
504.707	45.8889
507.199	45
509.69	45
512.182	45.8889
514.672	45.4444
517.162	44.4444
519.65	44
522.139	43.5556
524.625	42.5556
527.111	44.1111
529.597	42.4444
532.081	43.1111
534.564	42.8889
537.047	44.4444
539.529	44
542.01	44.7778
544.491	44.8889
546.97	42.4444
549.448	42.8889
551.927	40.3333
554.404	43.5556
556.88	42.6667
559.355	41.1111
561.831	42.4444
564.304	41.3333
566.777	41
569.249	43
571.72	42.4444
574.191	41.7778
576.661	44.8889
579.129	43.6667
581.597	42.5556
584.064	43.3333
586.531	43.8889
588.997	44.6667
591.462	43.2222
593.926	44.1111
596.389	45.5556
598.851	45.3333
601.313	43.2222
603.773	43.5556
606.233	42.6667
608.692	43.4444
611.151	43.6667
613.608	44.1111
616.065	44.3333
618.521	44.3333
620.976	44.3333
623.43	47.8889
625.883	46.6667
628.336	48.2222
630.788	48.1111
633.239	50.4444
635.69	53.5556
638.139	56.8889
640.588	59.7778
643.036	64
645.483	76.7778
647.929	92
650.375	120.667
652.818	185
655.262	350.556
657.706	664.111
660.148	895.667
662.59	831.667
665.031	554.778
667.471	313
669.909	174.667
672.347	111.778
674.785	85.6667
677.222	69.3333
679.656	61.1111
682.092	58.4444
684.526	52.7778
686.96	53.3333
689.392	49.1111
691.824	50
694.256	47.7778
696.686	47.3333
699.115	47.5556
701.544	46.1111
703.972	44.4444
706.398	46.1111
708.825	45.3333
711.25	43.7778
713.675	44.2222
716.099	45.3333
718.522	44.7778
720.944	44
723.366	43.6667
725.786	43.7778
728.207	43.7778
730.625	42.3333
733.044	41.4444
735.461	41.6667
737.879	41.8889
740.294	42.8889
742.71	40.5556
745.123	40.6667
747.538	41.4444
749.95	38
752.363	40.1111
754.773	39.1111
757.185	39.4444
759.594	40.5556
762.002	40.8889
764.411	40.6667
766.818	39
769.225	39.3333
771.63	39.1111
774.035	39.8889
776.44	39.3333
778.843	40.7778
781.245	39
783.648	39.5556
786.048	42
788.448	39.8889
790.848	39.6667
793.247	39.4444
795.644	41.8889
798.042	40.3333
800.438	42.8889
802.834	41
805.228	39.8889
807.623	42
810.016	42.4444
812.408	41.3333
814.8	42
817.191	44.5556
819.58	43.8889
821.971	46
824.359	45.1111
826.747	46.4444
829.134	47
831.52	47.4444
833.905	46.4444
836.29	48.1111
838.675	49.7778
841.058	51.5556
843.44	54.5556
845.822	60.2222
848.203	64.2222
850.583	77.2222
852.962	95.3333
855.341	121.889
857.718	165.889
860.095	279.667
862.471	526.556
864.847	907.667
867.222	1095.89
869.596	863.444
871.969	495.889
874.341	246.778
876.713	144.889
879.083	104.111
881.453	83.3333
883.822	72
886.191	63.1111
888.559	58
890.926	54.7778
893.293	53.1111
895.658	50.7778
898.022	50.3333
900.386	48.7778
902.75	50.1111
905.112	46.1111
907.474	45.6667
909.834	46.3333
912.194	45.4444
914.554	44.7778
916.913	44.8889
919.27	42.6667
921.627	43.6667
923.984	43.6667
926.34	42.4444
928.694	43.3333
931.048	42.1111
933.402	44.1111
935.754	44.3333
938.106	42.4444
940.458	41.5556
942.807	42.2222
945.157	39.5556
947.505	41.7778
949.853	43.6667
952.201	43.4444
954.547	42.5556
956.893	42.6667
959.237	43.5556
961.582	43
963.925	44.3333
966.268	42.4444
968.609	43.1111
970.951	42.8889
973.291	44.5556
975.631	45.1111
977.97	46.2222
980.309	46.3333
982.645	48
984.983	47.8889
987.318	48.6667
989.653	50.2222
991.988	51.6667
994.321	52
996.655	57.4444
998.987	57.5556
1001.32	63
1003.65	68.7778
1005.98	71.8889
1008.31	78.3333
1010.64	77.7778
1012.96	76.5556
1015.29	76.5555
1017.62	77.4444
1019.94	73.4444
1022.27	72.8889
1024.59	69.5555
1026.91	68.5556
1029.24	64.8889
1031.56	61
1033.88	63.8889
1036.2	59.8889
1038.52	59.6667
1040.84	60.7778
1043.16	58.7778
1045.47	62.7778
1047.79	63
1050.1	65.7778
1052.42	69.6667
1054.74	72.8889
1057.05	79.5556
1059.36	86.3333
1061.67	95.3333
1063.98	100.444
1066.29	105.333
1068.6	99.2222
1070.91	94.3333
1073.22	93.8889
1075.53	94.6667
1077.84	100.889
1080.14	112.556
1082.45	125.222
1084.75	145.111
1087.06	176.222
1089.36	215.778
1091.66	255.556
1093.96	278.222
1096.27	294.222
1098.57	285.889
1100.87	259.778
1103.16	237.889
1105.46	206.333
1107.76	172
1110.06	152.333
1112.35	124.889
1114.65	111
1116.94	98.5555
1119.23	89.2222
1121.53	82.2222
1123.82	72.5556
1126.11	70.3333
1128.4	68.1111
1130.69	65.3333
1132.98	65
1135.27	63
1137.56	60.8889
1139.85	60.4444
1142.13	55.5556
1144.42	56.2222
1146.7	55.7778
1148.99	54.3333
1151.27	57.6667
1153.55	54.5556
1155.84	55.4444
1158.12	55.6667
1160.4	56.1111
1162.68	53.6667
1164.96	52
1167.23	51.4444
1169.51	52.4444
1171.79	51.8889
1174.06	50.8889
1176.34	51.6667
1178.62	49.8889
1180.89	51.3333
1183.16	49.4444
1185.44	52.5556
1187.71	49
1189.98	51.2222
1192.25	46.7778
1194.52	50.8889
1196.79	50.1111
1199.06	49.6667
1201.32	51.4444
1203.59	47.6667
1205.86	49
1208.12	49.3333
1210.39	48.6667
1212.65	49.5556
1214.91	50.1111
1217.18	49.8889
1219.44	52.2222
1221.7	51
1223.96	48.8889
1226.22	52.6667
1228.48	51.5556
1230.74	51.1111
1232.99	48.7778
1235.25	51.4444
1237.51	51
1239.76	51.4444
1242.02	51.4444
1244.27	53.4444
1246.53	52.6667
1248.78	52.7778
1251.03	51.7778
1253.28	53
1255.53	57
1257.78	54.3333
1260.03	54.1111
1262.28	52.8889
1264.53	52.5556
1266.77	53
1269.02	53.6667
1271.26	51.6667
1273.51	54.1111
1275.75	53.3333
1278	53.4444
1280.24	54.8889
1282.48	51.7778
1284.72	52.6667
1286.96	55.6667
1289.2	54.8889
1291.44	56.5556
1293.68	57
1295.92	53.8889
1298.15	56.7778
1300.39	57.7778
1302.63	58.2222
1304.86	58.1111
1307.1	56.5556
1309.33	59.1111
1311.56	59.1111
1313.79	63.2222
1316.02	60.4444
1318.26	61.5556
1320.49	62.7778
1322.71	62.7778
1324.94	62.2222
1327.17	64.7778
1329.4	64.1111
1331.62	66.2222
1333.85	67.7778
1336.08	66.2222
1338.3	69.2222
1340.52	70.4444
1342.75	71.6667
1344.97	70.3333
1347.19	74.1111
1349.41	72.3333
1351.63	78.6667
1353.85	80.6667
1356.07	81.4444
1358.29	88
1360.5	87.6667
1362.72	90.5555
1364.94	95.6667
1367.15	99.1111
1369.37	106
1371.58	112.111
1373.79	123
1376.01	128
1378.22	149.444
1380.43	166.556
1382.64	192.111
1384.85	219.889
1387.06	248
1389.27	281.778
1391.47	303.556
1393.68	322.222
1395.89	350.778
1398.09	380.222
1400.3	449.111
1402.5	539.889
1404.71	648.667
1406.91	743.111
1409.11	802.333
1411.31	801.222
1413.51	728.556
1415.71	636.444
1417.91	528.222
1420.11	434.889
1422.31	364.222
1424.51	328.556
1426.7	314.222
1428.9	316.444
1431.1	341.444
1433.29	403.889
1435.48	486.222
1437.68	570.556
1439.87	621.333
1442.06	632.778
1444.25	588.444
1446.44	524.667
1448.63	459.222
1450.82	394.444
1453.01	340.444
1455.2	306.667
1457.39	276.667
1459.57	256.889
1461.76	239
1463.94	219
1466.13	208.111
1468.31	201.667
1470.49	188.111
1472.68	177.111
1474.86	171.556
1477.04	162.889
1479.22	155.778
1481.4	150.111
1483.58	149.111
1485.75	142.778
1487.93	145.667
1490.11	147.333
1492.29	150.889
1494.46	153.111
1496.64	146
1498.81	150.889
1500.98	148.667
1503.16	146.778
1505.33	140.778
1507.5	143.444
1509.67	138.778
1511.84	135
1514.01	127.889
1516.18	118.667
1518.35	112.778
1520.51	105.222
1522.68	99
1524.85	96.4444
1527.01	92.7778
1529.18	88.7778
1531.34	86
1533.51	85.1111
1535.67	83.3333
1537.83	83
1539.99	81.2222
1542.15	81.4444
1544.31	80.1111
1546.47	80.6667
1548.63	79.5556
1550.79	77.3333
1552.95	77.6667
1555.1	76.7778
1557.26	75.7778
1559.41	76.3333
1561.57	75.6667
1563.72	75.6667
1565.88	73.2222
1568.03	77.7778
1570.18	75.1111
1572.33	74.6667
1574.48	75.2222
1576.63	74.5556
1578.78	73.2222
1580.93	74.6667
1583.08	72.5556
1585.23	73
1587.37	71.8889
1589.52	70
1591.66	74
1593.81	70.3333
1595.95	70.3333
1598.1	73
1600.24	72.1111
1602.38	70.6667
1604.52	71.3333
1606.66	72.3333
1608.8	73.5556
1610.94	72.1111
1613.08	71.6667
1615.22	73.4444
1617.36	74.5556
1619.49	73.5556
1621.63	76.2222
1623.77	79.2222
1625.9	79.3333
1628.03	82.1111
1630.17	83.2222
1632.3	84.3333
1634.43	85.1111
1636.56	90.8889
1638.7	92.3333
1640.83	100
1642.96	108.444
1645.08	121.556
1647.21	140.444
1649.34	167.889
1651.47	206.889
1653.59	240.889
1655.72	280.222
1657.84	292.444
1659.97	294.889
1662.09	287.889
1664.21	274.111
1666.34	251.889
1668.46	237.889
1670.58	221.667
1672.7	211.889
1674.82	197.222
1676.94	184.111
1679.06	172.444
1681.18	161.556
1683.29	152.889
1685.41	145.222
1687.52	131
1689.64	124.667
1691.76	111.444
1693.87	96.5556
1695.98	93
1698.09	88.3333
1700.21	85
1702.32	80.3333
1704.43	75.2222
1706.54	75.5556
1708.65	70.6667
1710.76	69.3333
1712.86	69.2222
1714.97	71.4444
1717.08	70.4444
1719.19	69.6667
1721.29	71.6667
1723.4	72.5556
1725.5	74.1111
1727.6	72.4444
1729.71	75
1731.81	73.3333
1733.91	70
1736.01	68.5556
1738.11	62.8889
1740.21	61.3333
1742.31	61.4444
1744.41	59.7778
1746.51	60.2222
1748.6	58.2222
1750.7	58.4444
1752.8	59.1111
1754.89	58.6667
1756.99	57
1759.08	57.4444
1761.17	60.4444
1763.27	57
1765.36	57.3333
1767.45	58.3333
1769.54	57.7778
1771.63	57.5556
1773.72	54.8889
1775.81	58.5556
1777.9	58.3333
1779.98	55.4444
1782.07	55.1111
1784.16	58.2222
1786.24	57.6667
1788.33	57.4444
1790.41	56.6667
1792.5	56.4444
1794.58	56.2222
1796.66	56.8889
1798.74	57.7778
1800.83	57.4444
1802.91	57
1804.99	57.6667
1807.06	56
1809.14	55.4444
1811.22	56.7778
1813.3	56.7778
1815.38	55
1817.45	57.4444
1819.53	59.2222
1821.6	55
1823.68	53.5556
1825.75	54.8889
1827.82	55.1111
1829.9	55.7778
1831.97	57.1111
1834.04	56.4444
1836.11	55.1111
1838.18	56.8889
1840.25	57.3333
1842.32	54.6667
1844.38	54.4444
1846.45	56.3333
1848.52	57.1111
1850.58	55.5556
1852.65	55.2222
1854.72	57.1111
1856.78	55.1111
1858.84	57.4444
1860.91	54.1111
1862.97	55.6667
1865.03	53
1867.09	56.3333
1869.15	57.6667
1871.21	55.2222
1873.27	56.1111
1875.33	56.6667
1877.39	55.2222
1879.44	55.1111
1881.5	55.8889
1883.56	56.2222
1885.61	57.3333
1887.67	55
1889.72	58
1891.78	58.6667
1893.83	56.8889
1895.88	55.3333
1897.93	58.7778
1899.98	56.8889
1902.03	58.5556
1904.08	55.4444
1906.13	58.5556
1908.18	58.5556
1910.23	55.2222
1912.28	58
1914.32	55.7778
1916.37	60.8889
1918.41	55.8889
1920.46	56.8889
1922.5	57.1111
1924.55	57.3333
1926.59	57.3333
1928.63	56.6667
1930.68	54.5556
1932.72	56.7778
1934.76	57.1111
1936.8	57.4444
1938.84	58.3333
1940.87	56.2222
1942.91	56.7778
1944.95	56.6667
1946.99	57
1949.02	56.7778
1951.06	58.8889
1953.09	56.6667
1955.13	57.5556
1957.16	59.1111
1959.2	56.4444
1961.23	58
1963.26	59.3333
1965.29	58.4444
1967.32	56.7778
1969.35	57.8889
1971.38	58.6667
1973.41	56.6667
1975.44	58.2222
1977.47	57.2222
1979.5	55.4444
1981.52	60.8889
1983.55	58.7778
1985.57	58
1987.6	59.7778
1989.62	61.2222
1991.64	61.5556
1993.67	61.8889
1995.69	64
1997.71	60.4444
1999.73	63.4444
2001.75	66.5556
2003.77	64.7778
2005.79	67.2222
2007.81	67.5556
2009.83	66.8889
2011.85	66.5556
2013.86	66.6667
2015.88	66.8889
2017.89	68.1111
2019.91	68.6667
2021.92	66.8889
2023.94	67.5556
2025.95	65.8889
2027.96	66.6667
2029.97	64.3333
2031.99	66.2222
2034	64.2222
2036.01	63.7778
2038.02	63.3333
2040.03	63.2222
2042.03	62.7778
2044.04	62
2046.05	63.5556
2048.06	63.7778
2050.06	66.2222
2052.07	59.5556
2054.07	64.1111
2056.08	60.5556
2058.08	62.1111
2060.08	61.1111
2062.08	62.3333
2064.09	61.4444
2066.09	65.2222
2068.09	62
2070.09	62.5556
2072.09	59.6667
2074.09	60.6667
2076.08	60
2078.08	63
2080.08	60.7778
2082.07	58.7778
2084.07	62.8889
2086.07	60.7778
2088.06	61.2222
2090.05	59.7778
2092.05	62.8889
2094.04	60.6667
2096.03	61.5556
2098.02	59.2222
2100.01	61.3333
2102	61.7778
2103.99	60.7778
2105.98	59.4444
2107.97	62.7778
2109.96	64
2111.95	61.3333
2113.94	61.8889
2115.92	62.8889
2117.91	63.1111
2119.89	61.7778
2121.88	62.6667
2123.86	61.2222
2125.84	62
2127.83	61.6667
2129.81	64.5556
2131.79	61
2133.77	60.1111
2135.75	63.4444
2137.73	62.4444
2139.71	60.8889
2141.69	58.3333
2143.67	64.1111
2145.64	61.1111
2147.62	61
2149.6	63.4444
2151.57	61.2222
2153.55	57.3333
2155.52	61.1111
2157.5	60.4444
2159.47	60.1111
2161.44	60.1111
2163.41	59.1111
2165.39	62.8889
2167.36	62
2169.33	61.8889
2171.3	61.5556
2173.27	60.4444
2175.24	60.7778
2177.2	60.6667
2179.17	61.6667
2181.14	61.8889
2183.1	61
2185.07	60.7778
2187.03	59.1111
2189	61
2190.96	60
2192.93	62.2222
2194.89	61.5556
2196.85	61.6667
2198.81	63.6667
2200.77	61.5556
2202.73	62.2222
2204.69	61.1111
2206.65	60.8889
2208.61	62.1111
2210.57	64.3333
2212.53	61.7778
2214.48	62.8889
2216.44	62.6667
2218.4	61.2222
2220.35	61.6667
2222.31	62
2224.26	60.5556
2226.21	62
2228.17	62.1111
2230.12	61.3333
2232.07	63
2234.02	61.4444
2235.97	60
2237.92	63.7778
2239.87	62.6667
2241.82	62.7778
2243.77	61.8889
2245.72	63.8889
2247.66	61.2222
2249.61	63.4444
2251.56	63.2222
2253.5	65.2222
2255.45	62.3333
2257.39	63.2222
2259.33	63
2261.28	64.1111
2263.22	63.6667
2265.16	62.3333
2267.1	63.6667
2269.04	63.6667
2270.99	64.1111
2272.92	64.4444
2274.86	61.1111
2276.8	62.6667
2278.74	63
2280.68	63
2282.61	65.6667
2284.55	63
2286.49	63.8889
2288.42	62.7778
2290.36	62.3333
2292.29	63.1111
2294.22	64.5556
2296.16	61.7778
2298.09	64.3333
2300.02	63.7778
2301.95	64.1111
2303.88	65.5556
2305.81	63.8889
2307.74	66.3333
2309.67	65.5556
2311.6	66.2222
2313.53	66
2315.45	66.1111
2317.38	64.8889
2319.31	64.5556
2321.23	65.8889
2323.16	64.5556
2325.08	66
2327	65.8889
2328.93	63.3333
2330.85	63.5556
2332.77	67.3333
2334.69	66
2336.62	62
2338.54	63.8889
2340.46	63.7778
2342.38	64.3333
2344.29	65.7778
2346.21	65.3333
2348.13	62
2350.05	65.1111
2351.96	63.4444
2353.88	63.5556
2355.79	63.4444
2357.71	61.8889
2359.62	64
2361.54	65.1111
2363.45	63.8889
2365.36	63.4444
2367.27	64.7778
2369.19	60.5556
2371.1	64.8889
2373.01	63
2374.92	64
2376.83	63.6667
2378.73	61.6667
2380.64	65
2382.55	62
2384.46	64.3333
2386.36	64.2222
2388.27	65.2222
2390.17	62.3333
2392.08	66.2222
2393.98	65.2222
2395.89	63.3333
2397.79	64
2399.69	63.7778
2401.59	66
2403.5	63.5556
2405.4	64.7778
2407.3	61.6667
2409.2	62.1111
2411.09	63.5556
2412.99	64.3333
2414.89	62.3333
2416.79	65.4444
2418.69	64.2222
2420.58	63.8889
2422.48	64.7778
2424.37	65.7778
2426.27	65.4444
2428.16	64.3333
2430.06	66.5556
2431.95	64
2433.84	65
2435.73	64.2222
2437.62	64
2439.52	65.1111
2441.41	65.6667
2443.3	66.8889
2445.19	66.3333
