364.259	500.764
367.212	509.676
370.164	506.587
373.114	523.534
376.063	512.907
379.009	517.534
381.955	522.282
384.9	521.511
387.843	540.962
390.784	535.749
393.724	544.261
396.662	538.249
399.6	532.12
402.536	551.422
405.469	555.505
408.403	543.139
411.334	558.412
414.264	551.125
417.192	551.602
420.12	555.001
423.045	554.028
425.969	560.389
428.893	553.762
431.814	550.958
434.734	557.413
437.652	553.486
440.569	566.799
443.485	557.928
446.399	562.427
449.312	557.771
452.224	556.289
455.134	547.019
458.043	559.587
460.949	541.56
463.855	545.487
466.76	553.014
469.663	543.559
472.564	555.766
475.465	534.567
478.363	547.924
481.261	544.638
484.156	547.835
487.05	551.87
489.944	544.567
492.835	553.759
495.725	555.373
498.614	567.961
501.502	562.605
504.388	575.394
507.273	554.723
510.156	548.416
513.038	553.694
515.919	543.835
518.797	544.808
521.675	532.826
524.551	529.285
527.426	533.196
530.299	545.241
533.172	544.073
536.043	532.53
538.912	537.388
541.78	524.974
544.646	525.474
547.511	525.553
550.375	523.749
553.237	512.138
556.098	529.012
558.958	537.364
561.816	527.168
564.673	522.302
567.529	526.289
570.382	519.706
573.234	522.692
576.086	525.076
578.936	521.177
581.785	513.698
584.632	513.402
587.477	508.887
590.322	504.451
593.164	511.524
596.006	517.013
598.846	506.119
601.686	498.91
604.523	493.991
607.359	500.574
610.194	508.243
613.027	508.151
615.859	510.644
618.69	507.43
621.519	515.799
624.347	552.658
627.174	582.488
629.999	613.853
632.823	600.572
635.645	558.32
638.466	519.599
641.286	504.501
644.104	494.259
646.921	494.774
649.736	486.806
652.551	489.409
655.364	490.762
658.175	480.147
660.985	471.741
663.795	469.027
666.602	468.155
669.408	456.266
672.213	465.641
675.016	463.955
677.818	459.796
680.619	454.585
683.418	455.92
686.216	481.945
689.013	473.219
691.808	462.527
694.602	459.371
697.395	467.628
700.186	467.583
702.976	464.393
705.765	466.505
708.552	461.188
711.338	467.634
714.122	463.123
716.906	473.743
719.687	472.428
722.468	464.709
725.247	463.979
728.025	473.475
730.802	476.346
733.577	470.252
736.351	469.514
739.124	461.812
741.894	466.999
744.665	463.155
747.433	460.996
750.201	464.415
752.966	467.024
755.731	462.656
758.494	457.918
761.256	460.292
764.016	456.588
766.776	444.67
769.534	447.766
772.29	446.336
775.046	445.168
777.8	455.361
780.552	448.097
783.304	452.789
786.053	455.277
788.802	459.946
791.549	492.144
794.296	523.093
797.04	564.372
799.784	587.632
802.526	588.152
805.266	601.944
808.006	577.907
810.744	561.599
813.481	559.289
816.217	503.455
818.951	475.652
821.683	455.629
824.415	436.441
827.145	429.709
829.874	437.254
832.602	428.634
835.329	430.139
838.053	420.205
840.777	440.463
843.499	416.41
846.22	418.664
848.94	411.215
851.659	416.948
854.376	416.041
857.092	412.969
859.807	404.103
862.52	407.955
865.232	405.566
867.943	396.033
870.653	403.466
873.361	398.211
876.068	408.035
878.773	384.196
881.477	396.905
884.18	395.663
886.882	392.068
889.582	392.184
892.282	394.502
894.98	400.121
897.676	394.817
900.371	393.832
903.065	414.286
905.758	414.171
908.45	416.144
911.139	411.241
913.828	417.34
916.516	391.707
919.202	403.737
921.887	402.243
924.571	400.205
927.253	401.204
929.934	383.41
932.615	389.039
935.292	388.743
937.97	381.741
940.646	380.048
943.321	382.828
945.994	380.491
948.667	387.319
951.337	380.3
954.007	377.09
956.675	381.568
959.342	360.587
962.008	361.269
964.673	358.771
967.336	364.415
969.998	354.329
972.66	361.393
975.319	356.598
977.977	360.951
980.634	373.945
983.29	367.442
985.944	361.342
988.597	358.909
991.249	358.914
993.9	363.327
996.549	354.579
999.197	356.157
1001.84	356.136
1004.49	355.127
1007.13	352.229
1009.78	348.437
1012.42	358.326
1015.06	355.24
1017.7	355.086
1020.34	359.559
1022.97	347.939
1025.61	341.606
1028.24	349.766
1030.88	334.66
1033.51	347.97
1036.14	342.533
1038.77	340.328
1041.4	343.97
1044.02	347.487
1046.65	339.771
1049.27	338.743
1051.9	339.747
1054.52	340.032
1057.14	335.219
1059.76	336.698
1062.38	340.258
1064.99	350.608
1067.61	347.143
1070.22	356.886
1072.84	351.752
1075.45	349.583
1078.06	353.077
1080.67	345.501
1083.28	341.018
1085.89	367.789
1088.49	388.44
1091.1	439.899
1093.7	509.148
1096.3	550.305
1098.9	522.782
1101.5	433.991
1104.1	375.567
1106.7	348.992
1109.29	328.216
1111.89	320.595
1114.48	326.379
1117.07	315.348
1119.66	318.587
1122.25	322.053
1124.84	312.943
1127.43	324.624
1130.02	322.975
1132.6	333.64
1135.18	339.333
1137.77	315.082
1140.35	315.107
1142.93	315.129
1145.51	303.924
1148.09	307.993
1150.66	303.027
1153.24	306.767
1155.81	307.104
1158.38	296.907
1160.95	309.641
1163.53	301.544
1166.09	307.566
1168.66	314.304
1171.23	312.409
1173.79	336.012
1176.36	359.51
1178.92	372.852
1181.48	384.176
1184.04	364.047
1186.6	338.082
1189.16	310.535
1191.72	305.114
1194.27	294.569
1196.83	287.619
1199.38	287.527
1201.93	283.478
1204.49	287.816
1207.04	290.386
1209.58	282.901
1212.13	289.276
1214.68	280.845
1217.22	286.165
1219.77	284.685
1222.31	283.329
1224.85	282.302
1227.39	287.089
1229.93	280.638
1232.47	287.332
1235	281.609
1237.54	293.616
1240.07	285.847
1242.61	278.031
1245.14	277.523
1247.67	275.011
1250.2	279.945
1252.73	278.656
1255.25	274.66
1257.78	280.283
1260.3	282.09
1262.83	287.605
1265.35	284.484
1267.87	281.558
1270.39	296.799
1272.91	290.177
1275.43	302.706
1277.95	312.692
1280.46	322.271
1282.97	334.169
1285.49	333.152
1288	340.759
1290.51	349.971
1293.02	343.205
1295.53	325.504
1298.03	304.115
1300.54	304.25
1303.04	283.239
1305.55	291.799
1308.05	278.698
1310.55	285.957
1313.05	284.101
1315.55	288.502
1318.05	278.644
1320.54	281.595
1323.04	271.809
1325.53	266.414
1328.03	262.07
1330.52	264.19
1333.01	258.148
1335.5	262.723
1337.99	261.263
1340.47	262.953
1342.96	267.46
1345.44	247.988
1347.93	252.903
1350.41	251.365
1352.89	243.556
1355.37	259.062
1357.85	253.955
1360.33	248.419
1362.81	248.685
1365.28	246.369
1367.76	247.737
1370.23	253.132
1372.7	240.437
1375.17	253.574
1377.64	252.106
1380.11	246.719
1382.58	237.927
1385.04	237.43
1387.51	242.433
1389.97	232.566
1392.44	241.863
1394.9	236.211
1397.36	247.767
1399.82	229.198
1402.28	240.392
1404.73	240.824
1407.19	240.817
1409.64	226.926
1412.1	238.134
1414.55	232.071
1417	234.617
1419.45	231.298
1421.9	235.694
1424.35	242.924
1426.79	226.704
1429.24	238.221
1431.68	233.294
1434.13	230.044
1436.57	232.17
1439.01	237.361
1441.45	240.529
1443.89	232.296
1446.33	236.216
1448.76	233.019
1451.2	243.138
1453.63	229.046
1456.07	228.936
1458.5	231.491
1460.93	226.559
1463.36	226.846
1465.79	220.13
1468.22	213.545
1470.64	212.542
1473.07	214.621
1475.49	209.279
1477.91	212.472
1480.34	216.409
1482.76	213.646
1485.18	209.877
1487.59	216.709
1490.01	219.418
1492.43	212.707
1494.84	207.814
1497.26	214.891
1499.67	210.62
1502.08	218.828
1504.49	191.631
1506.9	205.771
1509.31	209.89
1511.72	199.24
1514.12	204.92
1516.53	209.492
1518.93	204.777
1521.34	199.251
1523.74	205.547
1526.14	201.245
1528.54	203.472
1530.94	196.799
1533.33	207.776
1535.73	202.559
1538.12	198.999
1540.52	201.057
1542.91	199.057
1545.3	198.438
1547.69	196.527
1550.08	197.227
1552.47	193.811
1554.86	202.929
1557.24	199.082
1559.63	193.88
1562.01	201.266
1564.4	196.98
1566.78	200.83
1569.16	197.57
1571.54	195.228
1573.91	194.945
1576.29	191.216
1578.67	199.92
1581.04	207.19
1583.42	223.743
1585.79	250.677
1588.16	282.482
1590.53	335.498
1592.9	364.549
1595.27	380.352
1597.64	353
1600	328.588
1602.37	302.509
1604.73	282.411
1607.1	279.219
1609.46	262.483
1611.82	266.437
1614.18	273.995
1616.54	275.037
1618.9	273.812
1621.25	277.358
1623.61	286.255
1625.96	264.136
1628.31	265.817
1630.67	247.097
1633.02	243.591
1635.37	229.813
1637.72	232.036
1640.06	217.701
1642.41	224.656
1644.76	216.44
1647.1	204.591
1649.44	216.304
1651.79	200.706
1654.13	212.963
1656.47	206.781
1658.81	196.426
1661.15	189.556
1663.48	188.222
1665.82	179.332
1668.15	180.397
1670.49	176.055
1672.82	175.197
1675.15	175.414
1677.48	169.969
1679.81	162.402
1682.14	162.923
1684.47	160.736
1686.79	159.269
1689.12	164.063
1691.44	161.454
1693.76	158.057
1696.09	163.175
1698.41	160.14
1700.73	152.262
1703.05	152.061
1705.36	153.955
1707.68	156.001
1710	154.794
1712.31	152.753
1714.62	156.822
1716.94	153.491
1719.25	150.798
1721.56	150.551
1723.87	148.631
1726.17	144.254
1728.48	145.148
1730.79	154.037
1733.09	141.816
1735.4	138.276
1737.7	146.322
1740	140.484
1742.3	138.808
1744.6	146.632
1746.9	137.667
1749.2	141.291
1751.49	140.611
1753.79	138.573
1756.08	141.341
1758.38	138.44
1760.67	141.587
1762.96	141.136
1765.25	131.632
1767.54	136.559
1769.83	131.808
1772.11	134.313
1774.4	127.926
1776.68	135.522
1778.97	132.341
1781.25	134.063
1783.53	129.579
1785.81	134.15
1788.09	127.968
1790.37	125.578
1792.65	127.205
1794.92	127.088
1797.2	133.072
1799.47	127.134
1801.75	131.763
1804.02	128.022
1806.29	125.644
1808.56	129.83
1810.83	126.832
1813.1	127.703
1815.37	123.093
1817.63	121.983
1819.9	124.627
1822.16	119.246
1824.42	123.998
1826.68	125.636
1828.95	122.73
1831.21	124.606
1833.46	120.475
1835.72	125.071
1837.98	122.208
1840.23	113.93
1842.49	113.884
1844.74	120.211
1846.99	118.14
1849.25	113.784
1851.5	109.305
1853.75	111.92
1855.99	111.658
1858.24	105.593
1860.49	119.674
1862.73	112.596
1864.98	114.626
1867.22	113.634
1869.46	110.559
1871.71	107.777
1873.95	107.834
1876.18	103.916
1878.42	109.022
1880.66	108.67
1882.9	106.943
1885.13	106.044
1887.37	111.028
1889.6	111.477
1891.83	106.812
1894.06	111.738
1896.29	110.416
1898.52	105.716
1900.75	113.928
1902.98	103.747
1905.2	103.608
1907.43	98.8598
1909.65	106.208
1911.87	105.887
1914.1	104.471
1916.32	107.173
1918.54	101.75
1920.75	99.463
1922.97	100.843
1925.19	99.2887
1927.41	95.1148
1929.62	101.564
1931.83	102.732
1934.05	96.9582
1936.26	98.9757
1938.47	104.017
1940.68	99.327
1942.89	97.0435
1945.1	97.1535
1947.3	101.109
1949.51	92.3567
1951.71	93.3968
1953.92	93.0552
1956.12	92.4579
1958.32	98.1959
1960.52	95.8803
1962.72	93.0101
1964.92	91.9545
1967.12	101.299
1969.31	89.5636
1971.51	91.827
1973.7	91.7957
1975.9	91.1663
1978.09	90.0699
1980.28	86.3408
1982.47	92.469
1984.66	93.9937
1986.85	91.062
1989.04	87.7028
1991.23	88.6485
1993.41	88.0688
1995.6	92.2626
1997.78	86.7403
1999.96	91.0645
2002.14	90.6846
2004.33	90.2288
2006.51	86.1455
2008.68	85.8881
2010.86	88.2947
2013.04	82.9191
2015.22	84.5184
2017.39	86.7005
2019.56	89.6704
2021.74	85.1418
2023.91	83.1593
2026.08	85.7597
2028.25	83.399
2030.42	81.3695
2032.59	78.4298
2034.75	78.4155
2036.92	82.0788
2039.08	79.7409
2041.25	82.6377
2043.41	80.4678
2045.57	79.2984
2047.73	75.1964
2049.89	79.1848
2052.05	82.6468
2054.21	81.2879
2056.37	74.7286
2058.52	78.7762
2060.68	80.1911
2062.83	80.9429
2064.99	74.4678
2067.14	76.1444
2069.29	77.1322
2071.44	76.224
2073.59	74.4609
2075.74	75.6994
2077.89	73.2925
2080.03	71.3767
2082.18	75.3635
2084.32	75.2461
2086.47	73.2652
2088.61	74.9819
2090.75	66.6028
2092.89	69.5894
2095.03	72.7329
2097.17	74.4736
2099.31	71.6742
2101.44	69.9074
2103.58	70.1329
2105.71	67.0179
2107.85	67.7593
2109.98	71.1963
2112.11	73.7233
2114.24	68.2357
2116.37	63.5939
2118.5	66.9958
2120.63	67.7169
2122.76	65.2174
2124.88	68.4806
2127.01	65.9735
2129.13	67.3708
2131.25	63.2763
2133.38	66.208
2135.5	64.3191
2137.62	67.4697
2139.74	61.6459
2141.86	59.9709
2143.97	68.5513
2146.09	64.0821
2148.21	68.2916
2150.32	62.7761
2152.43	62.1831
2154.55	63.0075
2156.66	62.4731
2158.77	62.7943
2160.88	61.4081
2162.99	61.7128
2165.1	60.9333
2167.2	64.2026
2169.31	60.8057
2171.41	60.5224
2173.52	65.0097
2175.62	58.8598
2177.72	60.7332
2179.82	57.1332
2181.93	60.7297
2184.02	58.046
2186.12	58.4697
2188.22	59.2122
2190.32	61.5857
2192.41	59.0184
2194.51	54.297
2196.6	56.4049
2198.69	56.218
2200.79	59.6229
2202.88	56.7301
2204.97	54.4623
2207.06	61.971
2209.14	53.3635
2211.23	52.4428
2213.32	55.1472
2215.4	54.4081
2217.49	55.7597
2219.57	53.037
2221.65	59.0444
2223.73	56.7128
2225.81	53.1836
2227.89	49.9259
2229.97	56.194
2232.05	49.5552
2234.13	51.3359
2236.2	48.1959
2238.28	51.8079
2240.35	48.5789
2242.42	47.9094
2244.5	51.0097
2246.57	50.0017
2248.64	49.6402
2250.71	52.0999
2252.78	47.9382
2254.84	48.6155
2256.91	53.8191
2258.97	50.0847
2261.04	48.2763
2263.1	48.4181
2265.17	52.2461
2267.23	47.1663
2269.29	48.3507
2271.35	49.5139
2273.41	49.2704
2275.47	46.2229
2277.52	46.9222
2279.58	46.2361
2281.64	46.8534
2283.69	48.2461
2285.74	46.0205
2287.8	43.3672
2289.85	50.2496
2291.9	48.6925
2293.95	45.2847
2296	42.7275
2298.05	45.7127
2300.09	47.6827
2302.14	42.8624
2304.18	42.4926
2306.23	46.2466
2308.27	40.7005
2310.31	42.1318
2312.36	46.8111
2314.4	40.4814
2316.44	45.8233
2318.48	46.4709
2320.51	47.181
2322.55	43.6292
2324.59	43.1957
2326.62	43.3789
2328.66	40.8857
2330.69	44.6519
2332.72	43.3149
2334.75	41.9588
2336.78	39.4757
2338.81	37.9528
2340.84	41.1329
2342.87	41.0779
2344.9	42.1867
2346.92	51.4027
2348.95	41.5863
2350.97	36.4783
2353	39.1485
2355.02	40.5926
2357.04	39.1637
2359.06	38.8472
2361.08	38.647
2363.1	43.5582
2365.12	39.9181
2367.14	40.0063
2369.15	37.135
2371.17	33.9832
2373.18	35.7656
2375.19	37.0777
2377.21	39.8025
2379.22	37.1933
2381.23	36.1736
2383.24	37.4537
2385.25	37.2266
2387.26	35.9874
2389.26	34.8541
2391.27	34.8682
2393.28	36.364
2395.28	37.7656
2397.28	38.1848
2399.29	36.9196
2401.29	38.6759
2403.29	37.145
2405.29	36.7699
2407.29	32.5456
2409.29	35.3598
2411.28	33.8011
2413.28	36.2704
2415.28	32.9023
2417.27	36.4032
2419.26	33.0361
2421.26	33.8079
2423.25	32.7096
2425.24	29.2461
2427.23	33.9415
2429.22	33.1963
2431.21	34.779
2433.19	32.8031
2435.18	31.4511
2437.17	33.8625
2439.15	34.6931
2441.14	29.0179
2443.12	32.2984
2445.1	32.2689
2447.08	33.9159
2449.06	29.5169
2451.04	29.7344
2453.02	29.364
2455	27.582
2456.98	31.1874
2458.95	33.1885
2460.93	30.3572
2462.9	29.4723
2464.87	30.7513
2466.85	31.5197
2468.82	26.7821
2470.79	25.3873
2472.76	31.4718
2474.73	33.5917
2476.7	29.763
2478.66	30.9735
2480.63	27.4709
2482.6	30.5763
2484.56	26.3044
2486.52	28.1806
2488.49	30.2584
2490.45	28.6733
2492.41	29.5894
2494.37	25.3351
2496.33	30.7488
2498.29	27.0184
2500.25	28.8955
2502.2	25.925
2504.16	27.1933
2506.11	32.0012
2508.07	28.6303
2510.02	27.4832
2511.97	27.5153
2513.92	27.9554
2515.88	28.3572
2517.83	28.5456
2519.77	26.7005
2521.72	25.8304
2523.67	28.8832
2525.62	26.4323
2527.56	21.6233
2529.51	24.401
2531.45	23.9096
2533.39	26.7699
2535.33	28.3152
2537.28	30.0218
2539.22	30.4323
2541.16	25.1848
2543.09	28.1663
2545.03	28.8111
2546.97	30.2357
2548.9	30.3408
2550.84	28.4155
2552.77	36.2959
2554.71	31.135
2556.64	31.5573
2558.57	35.7392
2560.5	36.0265
2562.43	35.6402
2564.36	36.4752
2566.29	35.4683
2568.22	37.9181
2570.14	39.2964
2572.07	33.008
2573.99	31.8139
2575.92	31.364
2577.84	30.2466
2579.76	25.7084
2581.69	26.099
2583.61	26.4155
2585.53	24.971
2587.44	25.6914
2589.36	22.8927
2591.28	23.337
2593.2	23.0699
2595.11	24.334
2597.03	25.0842
2598.94	25.9997
2600.85	25.1329
2602.76	26.3967
2604.68	24.0265
2606.59	23.7488
2608.5	26.8494
2610.4	23.8139
2612.31	20.4058
2614.22	22.247
2616.13	22.3572
2618.03	22.9058
2619.94	24.9588
2621.84	23.2288
2623.74	24.4222
2625.64	22.8477
2627.54	24.0017
2629.45	26.0846
2631.34	24.7795
2633.24	26.1569
2635.14	26.6974
2637.04	26.0526
2638.93	25.1529
2640.83	24.5599
2642.72	27.1836
2644.62	37.4678
2646.51	36.7365
2648.4	36.0017
2650.29	36.3703
2652.18	31.582
2654.07	28.0302
2655.96	25.2584
2657.85	23.7581
2659.74	24.2984
2661.62	28.3737
2663.51	28.6545
2665.39	29.6885
2667.27	31.7513
2669.16	36.6195
2671.04	47.5197
2672.92	71.2689
2674.8	93.9642
2676.68	98.4002
2678.56	87.4155
2680.44	73.6704
2682.31	56.9705
2684.19	43.7037
2686.06	47.0244
2687.94	58.8901
2689.81	68.2206
2691.68	118.799
2693.56	242.4
2695.43	291.892
2697.3	188.018
2699.17	172.285
2701.04	122.923
2702.9	71.135
2704.77	60.2761
2706.64	47.4525
2708.5	37.5291
2710.37	29.4683
2712.23	25.3518
2714.09	24.0404
2715.96	21.9554
2717.82	26.1032
2719.68	25.8867
2721.54	22.8304
2723.4	19.9096
2725.25	23.8515
2727.11	21.8503
2728.97	20.3468
2730.82	21.3635
2732.68	20.0694
2734.53	20.8122
2736.38	22.1788
2738.24	19.145
2740.09	17.7403
2741.94	20.129
2743.79	19.3612
2745.64	21.2921
2747.48	20.0233
2749.33	19.1413
2751.18	17.6175
2753.02	17.1444
2754.87	16.337
2756.71	19.5181
2758.56	20.7028
2760.4	16.0075
2762.24	18.9878
