364.259	652.266
367.212	663.406
370.164	658.361
373.114	667.096
376.063	676.619
379.009	671.17
381.955	677.618
384.9	673.672
387.843	676.135
390.784	674.352
393.724	681.523
396.662	702.22
399.6	696.736
402.536	701.036
405.469	696.28
408.403	695.887
411.334	708.997
414.264	703.116
417.192	718.386
420.12	703.361
423.045	714.584
425.969	704.309
428.893	708.865
431.814	712.63
434.734	694.131
437.652	711.476
440.569	709.361
443.485	707.306
446.399	701.797
449.312	711.843
452.224	696.754
455.134	693.899
458.043	702.139
460.949	701.753
463.855	688.903
466.76	691.51
469.663	694.054
472.564	692.806
475.465	681.642
478.363	677.729
481.261	678.931
484.156	663.852
487.05	667.617
489.944	672.391
492.835	674.464
495.725	673.67
498.614	684.921
501.502	696.612
504.388	688.214
507.273	694.799
510.156	681.896
513.038	686.457
515.919	688.233
518.797	697.849
521.675	683.732
524.551	682.136
527.426	675.686
530.299	665.297
533.172	667.044
536.043	654.727
538.912	657.321
541.78	660.3
544.646	645.591
547.511	648.967
550.375	662.139
553.237	644.293
556.098	659.775
558.958	657.664
561.816	660.163
564.673	651.865
567.529	653.51
570.382	651.345
573.234	649.013
576.086	646.374
578.936	643.801
581.785	643.165
584.632	644.955
587.477	648.674
590.322	631.42
593.164	636.078
596.006	620.469
598.846	619.097
601.686	622.442
604.523	619.828
607.359	612.541
610.194	611.13
613.027	621.566
615.859	613.088
618.69	606.865
621.519	638.997
624.347	640.878
627.174	672.524
629.999	693.55
632.823	690.798
635.645	705.776
638.466	676.48
641.286	637.909
644.104	618.908
646.921	611.754
649.736	608.655
652.551	610.284
655.364	600.468
658.175	601.072
660.985	593.9
663.795	585.42
666.602	586.014
669.408	562.408
672.213	579.399
675.016	585.135
677.818	575.695
680.619	576.122
683.418	573.754
686.216	579.378
689.013	570.601
691.808	571.534
694.602	571.362
697.395	570.83
700.186	573.254
702.976	571.05
705.765	567.028
708.552	569.972
711.338	583.147
714.122	584.353
716.906	579.199
719.687	565.041
722.468	581.875
725.247	568.583
728.025	577.754
730.802	575.51
733.577	573.288
736.351	573.211
739.124	574.376
741.894	571.87
744.665	577.473
747.433	571.553
750.201	570.613
752.966	571.479
755.731	565.554
758.494	573.228
761.256	568.338
764.016	566.002
766.776	568.478
769.534	556.464
772.29	560.384
775.046	551.715
777.8	565.791
780.552	550.664
783.304	558.6
786.053	547.61
788.802	562.998
791.549	556.523
794.296	593.87
797.04	623.784
799.784	653.967
802.526	648.899
805.266	658.075
808.006	644.006
810.744	648.579
813.481	628.702
816.217	613.088
818.951	580.865
821.683	554.831
824.415	551.417
827.145	526.063
829.874	526.876
832.602	531.396
835.329	517.913
838.053	522.026
840.777	520.418
843.499	515.721
846.22	509.742
848.94	517.656
851.659	511.406
854.376	516.849
857.092	514.064
859.807	508.019
862.52	507.399
865.232	502.387
867.943	497.211
870.653	500.062
873.361	492.989
876.068	488.909
878.773	495.929
881.477	491.989
884.18	495.412
886.882	486.255
889.582	487.753
892.282	480.119
894.98	488.776
897.676	484.058
900.371	489.754
903.065	483.108
905.758	492.911
908.45	485.664
911.139	495.798
913.828	491.395
916.516	483.51
919.202	494.773
921.887	475.42
924.571	480.399
927.253	481.662
929.934	476.751
932.615	474.572
935.292	477.079
937.97	475.34
940.646	462.985
943.321	460.486
945.994	456.005
948.667	465.105
951.337	445.618
954.007	461.181
956.675	454.835
959.342	459.763
962.008	443.318
964.673	460.797
967.336	452.558
969.998	446.93
972.66	446.998
975.319	435.951
977.977	437.407
980.634	437.065
983.29	434.745
985.944	437.301
988.597	427.248
991.249	441.31
993.9	428.908
996.549	432.791
999.197	426.367
1001.84	433.782
1004.49	435.708
1007.13	420.575
1009.78	432.216
1012.42	428.754
1015.06	443.179
1017.7	429.242
1020.34	429.072
1022.97	419.399
1025.61	427.397
1028.24	412.677
1030.88	412.309
1033.51	419.942
1036.14	417.896
1038.77	419.087
1041.4	418.998
1044.02	421.418
1046.65	420.558
1049.27	415.997
1051.9	408.322
1054.52	418.958
1057.14	408.194
1059.76	413.318
1062.38	417.217
1064.99	416.121
1067.61	419.1
1070.22	429.139
1072.84	428.396
1075.45	437.618
1078.06	424.665
1080.67	426.72
1083.28	431.076
1085.89	429.421
1088.49	435.514
1091.1	459.403
1093.7	499.806
1096.3	538.413
1098.9	558.106
1101.5	546.802
1104.1	494.883
1106.7	438.207
1109.29	402.309
1111.89	396.336
1114.48	387.01
1117.07	379.943
1119.66	386.464
1122.25	380.571
1124.84	386.387
1127.43	383.434
1130.02	388.421
1132.6	379.391
1135.18	392.794
1137.77	383.661
1140.35	375.647
1142.93	377.146
1145.51	366.622
1148.09	359.361
1150.66	369.096
1153.24	370.792
1155.81	363.618
1158.38	374.119
1160.95	365.553
1163.53	359.507
1166.09	374.268
1168.66	377.9
1171.23	374.891
1173.79	378.941
1176.36	394.998
1178.92	405.81
1181.48	417.736
1184.04	413.823
1186.6	398.721
1189.16	379.006
1191.72	362.995
1194.27	354.395
1196.83	351.523
1199.38	352.407
1201.93	358.998
1204.49	351.324
1207.04	345.211
1209.58	345.852
1212.13	342.989
1214.68	337.054
1217.22	348.584
1219.77	332.621
1222.31	343.1
1224.85	345.821
1227.39	340.664
1229.93	346.647
1232.47	346.642
1235	331.767
1237.54	335.827
1240.07	340.887
1242.61	334.501
1245.14	343.34
1247.67	338.357
1250.2	342.229
1252.73	341.806
1255.25	343.908
1257.78	341.345
1260.3	339.024
1262.83	331.318
1265.35	347.417
1267.87	344.51
1270.39	348.592
1272.91	358.032
1275.43	349.293
1277.95	368.627
1280.46	360.819
1282.97	375.977
1285.49	371.068
1288	379.599
1290.51	391.797
1293.02	383.293
1295.53	390.514
1298.03	359.033
1300.54	339.501
1303.04	332.965
1305.55	326.84
1308.05	321.442
1310.55	334.523
1313.05	330.139
1315.55	331.917
1318.05	327.135
1320.54	318.553
1323.04	324.106
1325.53	326.314
1328.03	312.499
1330.52	311.72
1333.01	303.865
1335.5	311.501
1337.99	314.451
1340.47	309.587
1342.96	299.553
1345.44	306.198
1347.93	312.339
1350.41	309.973
1352.89	302.857
1355.37	300.54
1357.85	300.477
1360.33	297.4
1362.81	293.353
1365.28	304.553
1367.76	286.866
1370.23	292.832
1372.7	285.625
1375.17	292.721
1377.64	290.753
1380.11	283.353
1382.58	289.173
1385.04	284.998
1387.51	292.216
1389.97	286.027
1392.44	293.662
1394.9	289.177
1397.36	283.776
1399.82	289.665
1402.28	282.529
1404.73	283.218
1407.19	276.865
1409.64	275.736
1412.1	279.301
1414.55	278.965
1417	274.976
1419.45	271.263
1421.9	277.924
1424.35	284.455
1426.79	278.523
1429.24	277.486
1431.68	275.551
1434.13	266.841
1436.57	276.758
1439.01	275.976
1441.45	271.48
1443.89	269.109
1446.33	282.498
1448.76	269.643
1451.2	276.224
1453.63	270.562
1456.07	264.069
1458.5	272.545
1460.93	263.857
1463.36	262.994
1465.79	260.773
1468.22	264.891
1470.64	260.686
1473.07	252.019
1475.49	257.41
1477.91	255.706
1480.34	256.029
1482.76	260.788
1485.18	250.848
1487.59	248.212
1490.01	248.745
1492.43	245.631
1494.84	251.425
1497.26	247.032
1499.67	242.943
1502.08	247.575
1504.49	249.113
1506.9	249.865
1509.31	239.773
1511.72	245.527
1514.12	244.912
1516.53	241.84
1518.93	236.374
1521.34	233.032
1523.74	241.003
1526.14	239.572
1528.54	237.73
1530.94	235.588
1533.33	239.117
1535.73	234.302
1538.12	234.591
1540.52	233.736
1542.91	230.087
1545.3	232.847
1547.69	232.019
1550.08	232.272
1552.47	233.655
1554.86	235.335
1557.24	235.677
1559.63	223.152
1562.01	228.587
1564.4	230.708
1566.78	230.22
1569.16	229.863
1571.54	231.951
1573.91	233.139
1576.29	237.891
1578.67	236.877
1581.04	243.968
1583.42	257.405
1585.79	264.02
1588.16	304.998
1590.53	327.668
1592.9	351.664
1595.27	376.136
1597.64	383.257
1600	351.219
1602.37	331.242
1604.73	312.02
1607.1	294.699
1609.46	284.198
1611.82	288.061
1614.18	279.367
1616.54	272.523
1618.9	290.729
1621.25	290.511
1623.61	286.618
1625.96	288.084
1628.31	268.831
1630.67	272.886
1633.02	260.969
1635.37	262.232
1637.72	254.784
1640.06	245.589
1642.41	251.9
1644.76	245.319
1647.1	237.396
1649.44	240.506
1651.79	236.155
1654.13	233.336
1656.47	228.366
1658.81	232.805
1661.15	228.417
1663.48	216.589
1665.82	211.905
1668.15	207.805
1670.49	205.187
1672.82	200.32
1675.15	200.122
1677.48	204.044
1679.81	201.113
1682.14	196.952
1684.47	194.59
1686.79	188.447
1689.12	191.642
1691.44	193.986
1693.76	190.106
1696.09	194.789
1698.41	189.4
1700.73	180.601
1703.05	193.204
1705.36	190.085
1707.68	182.23
1710	183.835
1712.31	188.43
1714.62	192.403
1716.94	185.396
1719.25	177.447
1721.56	176.105
1723.87	175.775
1726.17	185.139
1728.48	178.098
1730.79	176.216
1733.09	183.58
1735.4	167.976
1737.7	165.775
1740	170.712
1742.3	174.041
1744.6	171.109
1746.9	165.514
1749.2	162.788
1751.49	167.455
1753.79	170.628
1756.08	166.544
1758.38	167.936
1760.67	163.443
1762.96	159.409
1765.25	160.153
1767.54	158.157
1769.83	158.523
1772.11	155.495
1774.4	162.455
1776.68	160.645
1778.97	152.258
1781.25	162.878
1783.53	157.915
1785.81	151.51
1788.09	160.828
1790.37	152.575
1792.65	148.344
1794.92	151.079
1797.2	145.451
1799.47	143.766
1801.75	147.56
1804.02	152.146
1806.29	148.298
1808.56	142.079
1810.83	149.366
1813.1	141.81
1815.37	147.121
1817.63	149.869
1819.9	142.122
1822.16	146.061
1824.42	149.686
1826.68	141.199
1828.95	141.639
1831.21	140.889
1833.46	138.186
1835.72	138.892
1837.98	137.032
1840.23	143.47
1842.49	142.072
1844.74	143.751
1846.99	133.98
1849.25	137.44
1851.5	132.72
1853.75	137.143
1855.99	134.265
1858.24	138.183
1860.49	129.254
1862.73	135.995
1864.98	135.609
1867.22	133.247
1869.46	124.771
1871.71	132.618
1873.95	128.32
1876.18	134.516
1878.42	134.424
1880.66	128.931
1882.9	127.917
1885.13	129.703
1887.37	127.532
1889.6	124.886
1891.83	122.396
1894.06	128.653
1896.29	126.041
1898.52	130.561
1900.75	121.285
1902.98	132.712
1905.2	125.729
1907.43	123.724
1909.65	114.751
1911.87	125.017
1914.1	125.759
1916.32	125.515
1918.54	115.662
1920.75	125.097
1922.97	114.434
1925.19	116.746
1927.41	117.934
1929.62	118.211
1931.83	119.455
1934.05	110.289
1936.26	115.198
1938.47	119.678
1940.68	114.291
1942.89	118.439
1945.1	112.187
1947.3	112.053
1949.51	110.315
1951.71	113.107
1953.92	107.342
1956.12	108.22
1958.32	109.934
1960.52	110.925
1962.72	106.263
1964.92	115.545
1967.12	113.374
1969.31	109.408
1971.51	106.879
1973.7	111.622
1975.9	115.19
1978.09	111.442
1980.28	106.515
1982.47	109.516
1984.66	110.359
1986.85	104.23
1989.04	101.13
1991.23	109.905
1993.41	103.497
1995.6	109.477
1997.78	104.969
1999.96	108.618
2002.14	100.828
2004.33	102.739
2006.51	97.4684
2008.68	101.175
2010.86	100.409
2013.04	102.44
2015.22	102.797
2017.39	100.366
2019.56	102.824
2021.74	97.9556
2023.91	96.4244
2026.08	96.6451
2028.25	100.117
2030.42	94.455
2032.59	92.1431
2034.75	89.601
2036.92	98.1368
2039.08	93.7206
2041.25	89.0235
2043.41	94.6986
2045.57	91.2854
2047.73	92.2542
2049.89	93.754
2052.05	91.6237
2054.21	92.0761
2056.37	89.9946
2058.52	93.7731
2060.68	92.5587
2062.83	88.3197
2064.99	87.9428
2067.14	88.6318
2069.29	91.3197
2071.44	82.618
2073.59	87.3573
2075.74	89.9001
2077.89	88.994
2080.03	90.4182
2082.18	87.3873
2084.32	86.2466
2086.47	83.5638
2088.61	85.1784
2090.75	86.6697
2092.89	85.4466
2095.03	80.1866
2097.17	80.3755
2099.31	87.2552
2101.44	78.3787
2103.58	81.3657
2105.71	83.5197
2107.85	84.8408
2109.98	84.9941
2112.11	79.9671
2114.24	79.2182
2116.37	85.1877
2118.5	82.2462
2120.63	81.6272
2122.76	84.6095
2124.88	79.9275
2127.01	79.4396
2129.13	77.6308
2131.25	77.0025
2133.38	77.6095
2135.5	70.5662
2137.62	73.2904
2139.74	76.9115
2141.86	74.2241
2143.97	73.662
2146.09	75.0031
2148.21	74.7424
2150.32	76.8018
2152.43	74.5339
2154.55	75.5334
2156.66	76.7499
2158.77	71.9863
2160.88	72.5595
2162.99	71.2325
2165.1	71.1441
2167.2	68.5199
2169.31	71.6265
2171.41	67.7662
2173.52	74.1809
2175.62	71.5233
2177.72	71.3096
2179.82	67.4229
2181.93	66.5795
2184.02	67.1247
2186.12	65.5165
2188.22	68.6484
2190.32	71.0277
2192.41	66.4635
2194.51	67.0757
2196.6	66.5197
2198.69	69.314
2200.79	66.6223
2202.88	62.913
2204.97	65.292
2207.06	66.3687
2209.14	68.9085
2211.23	64.8366
2213.32	61.5155
2215.4	64.2834
2217.49	64.3312
2219.57	63.8273
2221.65	64.0412
2223.73	67.5278
2225.81	62.0101
2227.89	60.7673
2229.97	60.5796
2232.05	62.2423
2234.13	61.1283
2236.2	69.3066
2238.28	64.4308
2240.35	59.4091
2242.42	62.6318
2244.5	58.0964
2246.57	61.8031
2248.64	55.4336
2250.71	59.6349
2252.78	58.0873
2254.84	58.0433
2256.91	56.2541
2258.97	58.6654
2261.04	61.0026
2263.1	61.207
2265.17	51.3663
2267.23	54.054
2269.29	57.5197
2271.35	53.4684
2273.41	50.8397
2275.47	52.9303
2277.52	56.2023
2279.58	50.9087
2281.64	57.3198
2283.69	58.657
2285.74	50.6223
2287.8	56.0843
2289.85	54.4641
2291.9	51.3056
2293.95	53.6357
2296	50.3877
2298.05	52.6247
2300.09	51.9435
2302.14	52.9146
2304.18	50.2092
2306.23	49.712
2308.27	50.1528
2310.31	50.4617
2312.36	50.333
2314.4	48.3663
2316.44	50.7566
2318.48	49.3792
2320.51	50.6316
2322.55	53.6621
2324.59	48.5876
2326.62	50.6168
2328.66	49.6551
2330.69	45.6992
2332.72	49.217
2334.75	45.8487
2336.78	49.1565
2338.81	49.6237
2340.84	46.8567
2342.87	48.6096
2344.9	46.062
2346.92	57.5251
2348.95	47.913
2350.97	45.9761
2353	44.2632
2355.02	46.9799
2357.04	45.4684
2359.06	46.0757
2361.08	43.4859
2363.1	46.4635
2365.12	47.1228
2367.14	42.3015
2369.15	43.6529
2371.17	45.1656
2373.18	41.6556
2375.19	42.0676
2377.21	42.662
2379.22	41.0838
2381.23	43.4645
2383.24	44.3787
2385.25	44.0324
2387.26	43.1351
2389.26	44.8321
2391.27	40.4551
2393.28	41.2419
2395.28	46.289
2397.28	39.9221
2399.29	39.7343
2401.29	39.1899
2403.29	40.7949
2405.29	39.7243
2407.29	42.1138
2409.29	42.653
2411.28	41.1057
2413.28	40.1436
2415.28	43.3369
2417.27	42.4086
2419.26	37.3956
2421.26	43.0419
2423.25	40.5972
2425.24	41.0625
2427.23	43.342
2429.22	39.6906
2431.21	36.8318
2433.19	39.2333
2435.18	39.763
2437.17	42.2027
2439.15	40.8672
2441.14	38.3355
2443.12	37.9799
2445.1	39.3122
2447.08	36.9783
2449.06	33.661
2451.04	34.276
2453.02	37.2722
2455	34.7505
2456.98	33.5838
2458.95	34.6687
2460.93	35.106
2462.9	33.969
2464.87	34.7719
2466.85	35.2248
2468.82	36.7048
2470.79	34.3804
2472.76	35.4171
2474.73	36.7424
2476.7	37.5318
2478.66	31.7974
2480.63	36.1198
2482.6	34.7359
2484.56	36.9642
2486.52	31.8976
2488.49	31.0761
2490.45	32.9124
2492.41	35.0535
2494.37	32.0623
2496.33	31.2467
2498.29	28.6175
2500.25	35.6184
2502.2	35.7297
2504.16	32.4685
2506.11	33.5197
2508.07	35.464
2510.02	31.1398
2511.97	30.6773
2513.92	32.7199
2515.88	29.5197
2517.83	29.4218
2519.77	33.3872
2521.72	31.2113
2523.67	30.2305
2525.62	31.4831
2527.56	31.1071
2529.51	30.5509
2531.45	32.4094
2533.39	30.2943
2535.33	33.8531
2537.28	32.7457
2539.22	32.1198
2541.16	29.2164
2543.09	30.4472
2545.03	33.913
2546.97	30.3096
2548.9	33.3117
2550.84	34.2176
2552.77	33.3116
2554.71	34.4212
2556.64	36.5972
2558.57	35.9519
2560.5	37.2107
2562.43	40.2249
2564.36	40.4988
2566.29	40.306
2568.22	38.5207
2570.14	39.3652
2572.07	32.4015
2573.99	35.2542
2575.92	34.5112
2577.84	32.4888
2579.76	33.1142
2581.69	31.3962
2583.61	29.2548
2585.53	30.4548
2587.44	30.3529
2589.36	28.7648
2591.28	27.3874
2593.2	29.9299
2595.11	30.7077
2597.03	29.4251
2598.94	29.2547
2600.85	28.2192
2602.76	32.9805
2604.68	30.2632
2606.59	28.9556
2608.5	26.5756
2610.4	24.8227
2612.31	26.952
2614.22	28.0276
2616.13	25.2085
2618.03	24.3787
2619.94	26.9812
2621.84	25.8779
2623.74	30.1062
2625.64	27.2005
2627.54	29.1864
2629.45	26.3005
2631.34	28.3116
2633.24	26.2766
2635.14	32.5583
2637.04	27.5339
2638.93	28.285
2640.83	25.9433
2642.72	31.512
2644.62	37.3957
2646.51	40.9587
2648.4	41.8327
2650.29	35.3572
2652.18	32.9354
2654.07	34.1649
2655.96	29.9438
2657.85	28.2677
2659.74	26.9897
2661.62	31.6912
2663.51	29.8188
2665.39	32.8916
2667.27	38.6398
2669.16	38.2461
2671.04	51.878
2672.92	76.4158
2674.8	89.7008
2676.68	99.8403
2678.56	86.2502
2680.44	73.699
2682.31	55.9451
2684.19	46.4555
2686.06	48.0538
2687.94	60.0268
2689.81	79.3217
2691.68	115.915
2693.56	236.745
2695.43	295.861
2697.3	207.39
2699.17	176.52
2701.04	118.13
2702.9	75.7207
2704.77	63.668
2706.64	44.3524
2708.5	41.276
2710.37	32.0319
2712.23	27.472
2714.09	28.5966
2715.96	23.6223
2717.82	25.6168
2719.68	24.6682
2721.54	21.2846
2723.4	23.1265
2725.25	26.862
2727.11	22.4685
2728.97	26.0324
2730.82	24.1655
2732.68	25.4441
2734.53	25.0534
2736.38	21.8741
2738.24	23.9048
2740.09	22.4307
2741.94	23.6534
2743.79	22.5643
2745.64	23.6522
2747.48	22.1071
2749.33	21.6997
2751.18	21.9084
2753.02	17.0027
2754.87	19.751
2756.71	23.157
2758.56	24.1356
2760.4	19.5642
2762.24	17.7359
