364.259	615.645
367.212	620.981
370.164	617.742
373.114	616.506
376.063	626.995
379.009	631.22
381.955	628.283
384.9	628.833
387.843	636.839
390.784	638.52
393.724	645.178
396.662	639.426
399.6	655.295
402.536	652.275
405.469	663.204
408.403	650.16
411.334	649.406
414.264	650.037
417.192	651.43
420.12	658.442
423.045	657
425.969	665.183
428.893	661.106
431.814	646.295
434.734	659.986
437.652	662.85
440.569	645.037
443.485	667.628
446.399	680.111
449.312	658.759
452.224	665.95
455.134	651.017
458.043	660.847
460.949	643.517
463.855	646.273
466.76	646.475
469.663	636.762
472.564	649.426
475.465	638.534
478.363	632.645
481.261	626.95
484.156	626.377
487.05	634.964
489.944	636.672
492.835	641.875
495.725	643.819
498.614	646.152
501.502	637.386
504.388	655.524
507.273	660.152
510.156	655.517
513.038	651.94
515.919	653.847
518.797	642.517
521.675	638.606
524.551	645.503
527.426	641.759
530.299	626.819
533.172	634.684
536.043	635.166
538.912	619.962
541.78	630.72
544.646	625.097
547.511	626.906
550.375	621.162
553.237	625.075
556.098	631.762
558.958	622.651
561.816	610.334
564.673	615.469
567.529	615.392
570.382	623.93
573.234	631.406
576.086	615.625
578.936	613.208
581.785	624.906
584.632	608.128
587.477	597.397
590.322	607.718
593.164	601.356
596.006	597.753
598.846	595.809
601.686	586.606
604.523	609.259
607.359	588.036
610.194	594.968
613.027	597.423
615.859	601.986
618.69	607.592
621.519	629.092
624.347	682.525
627.174	733.263
629.999	796.359
632.823	806.684
635.645	763.501
638.466	685.134
641.286	638.945
644.104	607.099
646.921	592.312
649.736	594.859
652.551	590.167
655.364	587.271
658.175	577.558
660.985	565.315
663.795	582.795
666.602	568.541
669.408	563.095
672.213	565.397
675.016	562.735
677.818	552.95
680.619	559.575
683.418	567.62
686.216	558.263
689.013	576.203
691.808	570.672
694.602	571.537
697.395	572.635
700.186	573.43
702.976	586.989
705.765	556.485
708.552	569.485
711.338	555.034
714.122	555.509
716.906	556.573
719.687	561.594
722.468	558.378
725.247	558.883
728.025	561.275
730.802	556.298
733.577	571.617
736.351	563.964
739.124	563.964
741.894	556.235
744.665	565.468
747.433	566.841
750.201	578.085
752.966	566.02
755.731	565.705
758.494	565.589
761.256	566.887
764.016	541.606
766.776	557.249
769.534	540.239
772.29	546.216
775.046	555.433
777.8	552.498
780.552	550.319
783.304	555.173
786.053	567.024
788.802	584.655
791.549	621.725
794.296	679.614
797.04	754.374
799.784	823.938
802.526	863.642
805.266	865.077
808.006	847.604
810.744	825.017
813.481	775.793
816.217	719.389
818.951	649.026
821.683	604.431
824.415	566.727
827.145	543.445
829.874	535.626
832.602	526.694
835.329	524.753
838.053	512.916
840.777	524.428
843.499	521.873
846.22	527.409
848.94	533.573
851.659	523.406
854.376	517.805
857.092	515.608
859.807	497.723
862.52	495.703
865.232	488.819
867.943	494.071
870.653	501.535
873.361	495.18
876.068	504.922
878.773	483.541
881.477	488.397
884.18	494.144
886.882	496.218
889.582	482.969
892.282	488.079
894.98	497.183
897.676	497.395
900.371	512.642
903.065	512.527
905.758	516.576
908.45	521.617
911.139	509.506
913.828	521.386
916.516	511.684
919.202	516.66
921.887	504.121
924.571	488.927
927.253	483.727
929.934	495.191
932.615	482.92
935.292	489.269
937.97	484.5
940.646	476.222
943.321	475.989
945.994	479.853
948.667	471.069
951.337	478.217
954.007	469.763
956.675	463.621
959.342	467.317
962.008	461.81
964.673	459.433
967.336	460.875
969.998	456.87
972.66	468.947
975.319	455.315
977.977	447.356
980.634	451.814
983.29	444.798
985.944	453.45
988.597	456.466
991.249	442.5
993.9	441.389
996.549	445.505
999.197	451.829
1001.84	440.846
1004.49	439.94
1007.13	441.073
1009.78	455.128
1012.42	447.046
1015.06	450.809
1017.7	439.686
1020.34	442.152
1022.97	444.891
1025.61	434.585
1028.24	428.246
1030.88	436.831
1033.51	435.617
1036.14	428.047
1038.77	437.969
1041.4	425.968
1044.02	431.394
1046.65	431.107
1049.27	415.606
1051.9	424.134
1054.52	424.739
1057.14	429.051
1059.76	419.508
1062.38	438.962
1064.99	435.855
1067.61	452.401
1070.22	451.148
1072.84	449.07
1075.45	448.122
1078.06	448.895
1080.67	451.715
1083.28	450.616
1085.89	470.404
1088.49	505.037
1091.1	608.493
1093.7	729.727
1096.3	845.474
1098.9	853.824
1101.5	753.617
1104.1	618.85
1106.7	511.709
1109.29	440.906
1111.89	414.286
1114.48	419.606
1117.07	406.52
1119.66	415.464
1122.25	410.207
1124.84	405.716
1127.43	409.353
1130.02	416.18
1132.6	434.263
1135.18	432.277
1137.77	416.871
1140.35	408.506
1142.93	401.628
1145.51	388.955
1148.09	383.317
1150.66	386.542
1153.24	390.778
1155.81	383.955
1158.38	389.148
1160.95	378.363
1163.53	383.302
1166.09	390.984
1168.66	389.839
1171.23	407.318
1173.79	418.131
1176.36	473.652
1178.92	511.128
1181.48	519.162
1184.04	518.411
1186.6	475.689
1189.16	436.692
1191.72	400.839
1194.27	377.8
1196.83	382.651
1199.38	360.365
1201.93	357.511
1204.49	362.053
1207.04	361.688
1209.58	362.759
1212.13	358.338
1214.68	354.825
1217.22	360.583
1219.77	365.46
1222.31	355.916
1224.85	367.214
1227.39	357.124
1229.93	364.386
1232.47	362.532
1235	366.38
1237.54	370.728
1240.07	362.134
1242.61	358.252
1245.14	366.494
1247.67	352.268
1250.2	361.742
1252.73	350.808
1255.25	352.827
1257.78	364.062
1260.3	363.047
1262.83	361.795
1265.35	355.421
1267.87	364.999
1270.39	374.372
1272.91	382.899
1275.43	407.539
1277.95	419.384
1280.46	434.083
1282.97	448.687
1285.49	468.365
1288	499.268
1290.51	498.02
1293.02	497.093
1295.53	477.943
1298.03	462.17
1300.54	417.18
1303.04	390.471
1305.55	383.899
1308.05	378.501
1310.55	367.889
1313.05	364.935
1315.55	376.829
1318.05	380.932
1320.54	365.776
1323.04	369.892
1325.53	354.037
1328.03	346.167
1330.52	345.327
1333.01	343.197
1335.5	333.034
1337.99	333.915
1340.47	333.021
1342.96	328.648
1345.44	323.766
1347.93	326.723
1350.41	321.599
1352.89	332.089
1355.37	329.333
1357.85	324.678
1360.33	310.455
1362.81	315.467
1365.28	318.044
1367.76	321.038
1370.23	324.376
1372.7	319.868
1375.17	323.762
1377.64	313.086
1380.11	316.466
1382.58	314.359
1385.04	310.678
1387.51	304.884
1389.97	306.228
1392.44	306.542
1394.9	302.13
1397.36	315.398
1399.82	313.812
1402.28	323.576
1404.73	324.466
1407.19	312.505
1409.64	308.714
1412.1	313.382
1414.55	293.655
1417	300.517
1419.45	305.053
1421.9	297.95
1424.35	304.667
1426.79	300.317
1429.24	299.389
1431.68	303.762
1434.13	299.571
1436.57	311.815
1439.01	311.655
1441.45	311.839
1443.89	314.798
1446.33	314.011
1448.76	315.805
1451.2	320.412
1453.63	323.175
1456.07	313.834
1458.5	303.936
1460.93	296.848
1463.36	296.229
1465.79	288.633
1468.22	280.373
1470.64	282.224
1473.07	277.093
1475.49	274.924
1477.91	277.778
1480.34	277.089
1482.76	270.177
1485.18	275.219
1487.59	270.555
1490.01	283.657
1492.43	272.67
1494.84	270.713
1497.26	268.94
1499.67	268.5
1502.08	267.353
1504.49	270.728
1506.9	273.977
1509.31	259.938
1511.72	267.463
1514.12	266.855
1516.53	270.333
1518.93	266.131
1521.34	258.422
1523.74	263.35
1526.14	264.337
1528.54	258.188
1530.94	266.96
1533.33	264.505
1535.73	265.313
1538.12	261.198
1540.52	263.106
1542.91	261.238
1545.3	255.034
1547.69	258.484
1550.08	258.451
1552.47	254.105
1554.86	259.572
1557.24	256.581
1559.63	252.019
1562.01	260.607
1564.4	250.288
1566.78	263.666
1569.16	260.846
1571.54	255.295
1573.91	255.724
1576.29	258.462
1578.67	267.809
1581.04	279.694
1583.42	304.568
1585.79	334.585
1588.16	396.812
1590.53	487.239
1592.9	568.232
1595.27	607.036
1597.64	594.596
1600	550.344
1602.37	505.172
1604.73	457.699
1607.1	430.914
1609.46	421.364
1611.82	414.52
1614.18	421.537
1616.54	424.621
1618.9	427.707
1621.25	419.464
1623.61	429.779
1625.96	423.655
1628.31	411.365
1630.67	395.452
1633.02	368.909
1635.37	347.933
1637.72	342.873
1640.06	331.47
1642.41	316.283
1644.76	311.813
1647.1	311.574
1649.44	301.776
1651.79	307.856
1654.13	300.325
1656.47	297.628
1658.81	279.943
1661.15	266.65
1663.48	263.404
1665.82	252.265
1668.15	251.662
1670.49	237.491
1672.82	235.61
1675.15	231.262
1677.48	230.452
1679.81	226.885
1682.14	222.384
1684.47	212.571
1686.79	217.17
1689.12	212.259
1691.44	215.242
1693.76	212.339
1696.09	220.469
1698.41	206.899
1700.73	210.554
1703.05	204.33
1705.36	204.697
1707.68	206.071
1710	197.295
1712.31	203.875
1714.62	199.783
1716.94	193.395
1719.25	202.945
1721.56	200.624
1723.87	196.743
1726.17	198.087
1728.48	191.74
1730.79	194.843
1733.09	192.587
1735.4	188.313
1737.7	187.511
1740	197.334
1742.3	187.187
1744.6	186.576
1746.9	183.907
1749.2	179.003
1751.49	178.964
1753.79	182.679
1756.08	175.111
1758.38	175.054
1760.67	175.402
1762.96	175.74
1765.25	180.561
1767.54	180.648
1769.83	178.126
1772.11	167.726
1774.4	175.893
1776.68	177.539
1778.97	170.54
1781.25	170.088
1783.53	177.552
1785.81	173.153
1788.09	169.327
1790.37	165.835
1792.65	173.252
1794.92	167.348
1797.2	166.755
1799.47	168.245
1801.75	171.563
1804.02	161.74
1806.29	167.69
1808.56	162.476
1810.83	161.944
1813.1	162.923
1815.37	162.886
1817.63	156.204
1819.9	154.655
1822.16	160.155
1824.42	164.704
1826.68	150.815
1828.95	158.45
1831.21	151.691
1833.46	151.206
1835.72	156.871
1837.98	150.716
1840.23	154.259
1842.49	147.652
1844.74	151.405
1846.99	152.905
1849.25	147.805
1851.5	153.225
1853.75	147.658
1855.99	148.54
1858.24	149.58
1860.49	143.673
1862.73	148.989
1864.98	143.692
1867.22	143.957
1869.46	146.704
1871.71	137.027
1873.95	144.659
1876.18	142.412
1878.42	140.889
1880.66	143.069
1882.9	143.006
1885.13	136.237
1887.37	141.134
1889.6	138.877
1891.83	139.228
1894.06	140.991
1896.29	139.707
1898.52	137.593
1900.75	134.385
1902.98	138.77
1905.2	135.45
1907.43	135.232
1909.65	130.047
1911.87	134.562
1914.1	135.49
1916.32	130.869
1918.54	131.313
1920.75	137.796
1922.97	135.853
1925.19	130.39
1927.41	127.926
1929.62	132.426
1931.83	125.488
1934.05	128.107
1936.26	129.479
1938.47	128.556
1940.68	122.228
1942.89	129.634
1945.1	126.925
1947.3	125.547
1949.51	127.967
1951.71	120.993
1953.92	117.631
1956.12	124.218
1958.32	123.127
1960.52	120.987
1962.72	127.182
1964.92	123.984
1967.12	122.69
1969.31	123.802
1971.51	118.268
1973.7	116.921
1975.9	123.278
1978.09	115.829
1980.28	115.791
1982.47	116.351
1984.66	116.273
1986.85	113.679
1989.04	114.124
1991.23	119.026
1993.41	110.533
1995.6	116.156
1997.78	113.83
1999.96	113.882
2002.14	113.098
2004.33	108.962
2006.51	112.999
2008.68	110.201
2010.86	115.562
2013.04	102.477
2015.22	106.993
2017.39	106.785
2019.56	100.866
2021.74	107.977
2023.91	108.779
2026.08	108.095
2028.25	102.757
2030.42	100.516
2032.59	102.098
2034.75	100.134
2036.92	97.5733
2039.08	107.853
2041.25	94.5256
2043.41	98.771
2045.57	103.299
2047.73	99.9149
2049.89	98.4837
2052.05	96.7451
2054.21	98.8799
2056.37	101.464
2058.52	96.001
2060.68	104.142
2062.83	96.7588
2064.99	94.6827
2067.14	93.0369
2069.29	96.0755
2071.44	95.4118
2073.59	95.8483
2075.74	94.3926
2077.89	95.4845
2080.03	93.3007
2082.18	89.7059
2084.32	90.7422
2086.47	92.484
2088.61	94.4548
2090.75	87.5397
2092.89	84.4313
2095.03	93.3147
2097.17	94.515
2099.31	89.6899
2101.44	88.4714
2103.58	86.2182
2105.71	93.2834
2107.85	84.2179
2109.98	89.3007
2112.11	86.7551
2114.24	84.7222
2116.37	87.6727
2118.5	88.8762
2120.63	88.4677
2122.76	82.0396
2124.88	84.2238
2127.01	84.5201
2129.13	85.8729
2131.25	81.9258
2133.38	85.9285
2135.5	80.885
2137.62	81.0396
2139.74	84.4045
2141.86	78.7732
2143.97	84.4289
2146.09	79.9988
2148.21	81.895
2150.32	82.1507
2152.43	79.8971
2154.55	79.2235
2156.66	71.7747
2158.77	77.3745
2160.88	74.5816
2162.99	73.8147
2165.1	75.5588
2167.2	76.3174
2169.31	77.3107
2171.41	72.9149
2173.52	75.2483
2175.62	76.5816
2177.72	73.6824
2179.82	71.5013
2181.93	76.54
2184.02	72.7378
2186.12	71.1923
2188.22	73.6267
2190.32	74.9601
2192.41	71.8893
2194.51	71.8599
2196.6	73.0756
2198.69	73.5716
2200.79	70.4289
2202.88	69.571
2204.97	72.0685
2207.06	67.6483
2209.14	71.4018
2211.23	69.8283
2213.32	69.7594
2215.4	72.1308
2217.49	70.9574
2219.57	69.2618
2221.65	70.8734
2223.73	73.5123
2225.81	71.0755
2227.89	67.5173
2229.97	65.7594
2232.05	67.7395
2234.13	68.644
2236.2	61.3729
2238.28	65.6577
2240.35	66.0369
2242.42	63.2591
2244.5	61.2979
2246.57	63.2255
2248.64	58.895
2250.71	60.1992
2252.78	61.2067
2254.84	61.3394
2256.91	61.8174
2258.97	62.3702
2261.04	63.0685
2263.1	59.8762
2265.17	62.9481
2267.23	56.5156
2269.29	60.7063
2271.35	59.8346
2273.41	57.7423
2275.47	55.6824
2277.52	57.8333
2279.58	54.9701
2281.64	55.7551
2283.69	57.7422
2285.74	53.7739
2287.8	52.3178
2289.85	58.634
2291.9	55.2454
2293.95	53.9841
2296	53.9817
2298.05	56.1866
2300.09	54.5129
2302.14	61.4289
2304.18	56.1839
2306.23	55.2067
2308.27	51.1272
2310.31	51.7259
2312.36	55.7591
2314.4	52.3366
2316.44	52.9285
2318.48	50.9021
2320.51	48.2235
2322.55	49.9149
2324.59	49.5588
2326.62	52.3006
2328.66	50.781
2330.69	48.4457
2332.72	48.7451
2334.75	49.9845
2336.78	51.2907
2338.81	47.4841
2340.84	49.2036
2342.87	49.1115
2344.9	53.1867
2346.92	57.9817
2348.95	47.0396
2350.97	42.7938
2353	44.8506
2355.02	49.3394
2357.04	48.1839
2359.06	48.54
2361.08	48.5037
2363.1	46.2977
2365.12	46.2934
2367.14	45.4414
2369.15	48.0396
2371.17	45.3202
2373.18	42.0041
2375.19	47.4261
2377.21	42.7594
2379.22	44.6793
2381.23	43.1676
2383.24	45.168
2385.25	46.0565
2387.26	43.7063
2389.26	41.0756
2391.27	45.3178
2393.28	43.2791
2395.28	41.0812
2397.28	42.0812
2399.29	43.3178
2401.29	40.8147
2403.29	45.0884
2405.29	42.3107
2407.29	38.9481
2409.29	42.0569
2411.28	41.6827
2413.28	39.168
2415.28	41.6124
2417.27	39.7422
2419.26	42.7594
2421.26	40.1796
2423.25	38.9285
2425.24	39.7551
2427.23	38.9654
2429.22	40.2791
2431.21	37.8346
2433.19	37.9961
2435.18	39.2907
2437.17	38.839
2439.15	36.0592
2441.14	37.3902
2443.12	35.8762
2445.1	36.3702
2447.08	40.2067
2449.06	37.0369
2451.04	35.7422
2453.02	34.3594
2455	37.6312
2456.98	34.9049
2458.95	35.6168
2460.93	37.5816
2462.9	33.0357
2464.87	33.8706
2466.85	35.5228
2468.82	35.5924
2470.79	33.7235
2472.76	32.8534
2474.73	38.8333
2476.7	34.8662
2478.66	34.7819
2480.63	35.2591
2482.6	34.9085
2484.56	33.4317
2486.52	34.0812
2488.49	32.7235
2490.45	32.8762
2492.41	34.5924
2494.37	31.7063
2496.33	32.6483
2498.29	34.0369
2500.25	31.3393
2502.2	33.8147
2504.16	31.4813
2506.11	31.6284
2508.07	34.5952
2510.02	28.7036
2511.97	33.2815
2513.92	32.9258
2515.88	30.3702
2517.83	29.4289
2519.77	30.0556
2521.72	32.0928
2523.67	30.5013
2525.62	30.1507
2527.56	32.3902
2529.51	34.8706
2531.45	31.0956
2533.39	32.5013
2535.33	32.148
2537.28	36.5924
2539.22	34.0728
2541.16	31.9285
2543.09	32.168
2545.03	31.3729
2546.97	33.8147
2548.9	37.2934
2550.84	40.2419
2552.77	37.0956
2554.71	42.0956
2556.64	48.9567
2558.57	47.9873
2560.5	49.8589
2562.43	50.52
2564.36	57.9574
2566.29	59.3338
2568.22	57.6124
2570.14	52.8662
2572.07	47.7967
2573.99	47.6124
2575.92	36.0812
2577.84	34.4841
2579.76	32.5013
2581.69	30.0928
2583.61	31.148
2585.53	30.1507
2587.44	27.644
2589.36	23.0756
2591.28	26.3702
2593.2	25.8533
2595.11	25.409
2597.03	28.0569
2598.94	28.2591
2600.85	25.6068
2602.76	26.1816
2604.68	27.0396
2606.59	27.0396
2608.5	26.1796
2610.4	23.7036
2612.31	27.6599
2614.22	24.7594
2616.13	21.2383
2618.03	24.5952
2619.94	22.1372
2621.84	23.4045
2623.74	25.2063
2625.64	26.6312
2627.54	25.9961
2629.45	25.8506
2631.34	23.0728
2633.24	30.2095
2635.14	28.6124
2637.04	27.409
2638.93	22.7395
2640.83	25.2791
2642.72	29.168
2644.62	37.9457
2646.51	37.6511
2648.4	36.1507
2650.29	37.0569
2652.18	30.654
2654.07	23.1866
2655.96	26.0956
2657.85	30.0928
2659.74	23.3034
2661.62	28.0396
2663.51	25.6148
2665.39	29.3566
2667.27	33.5952
2669.16	37.148
2671.04	53.5013
2672.92	76.168
2674.8	91.9845
2676.68	101.02
2678.56	91.148
2680.44	78.7594
2682.31	60.6726
2684.19	42.4289
2686.06	45.5201
2687.94	63.9845
2689.81	79.5201
2691.68	122.663
2693.56	261.899
2695.43	316.044
2697.3	208.111
2699.17	197.438
2701.04	127.151
2702.9	78.52
2704.77	61.654
2706.64	46.3702
2708.5	36.0369
2710.37	30.0928
2712.23	26.2419
2714.09	25.0956
2715.96	25.5256
2717.82	23.0004
2719.68	21.6511
2721.54	18.3178
2723.4	22.6821
2725.25	21.5372
2727.11	24.644
2728.97	17.9258
2730.82	18.3902
2732.68	19.4773
2734.53	19.9817
2736.38	22.3702
2738.24	21.9258
2740.09	18.7378
2741.94	18.0812
2743.79	20.7063
2745.64	17.9845
2747.48	19.8174
2749.33	18.168
2751.18	17.0396
2753.02	17.3375
2754.87	20.2039
2756.71	20.2618
2758.56	18.0956
2760.4	14.6124
2762.24	15.9258
