364.259	510.843
367.212	521.308
370.164	530.917
373.114	521.98
376.063	521.079
379.009	518.423
381.955	525.562
384.9	540.264
387.843	541.413
390.784	529.867
393.724	554.8
396.662	552.702
399.6	540.635
402.536	552.164
405.469	539.446
408.403	538.284
411.334	558.009
414.264	557.756
417.192	564.429
420.12	564.357
423.045	558.866
425.969	555.206
428.893	553.534
431.814	556.035
434.734	551.898
437.652	563.343
440.569	551.852
443.485	559.553
446.399	567.349
449.312	563.926
452.224	564.949
455.134	546.786
458.043	552.039
460.949	558.105
463.855	556.017
466.76	545.572
469.663	542.924
472.564	543.668
475.465	538.901
478.363	543.042
481.261	541.613
484.156	545.249
487.05	543.031
489.944	548.424
492.835	538.968
495.725	551.869
498.614	547.374
501.502	548.806
504.388	571.649
507.273	551.149
510.156	560.598
513.038	553.827
515.919	553.202
518.797	549.41
521.675	539.753
524.551	548.82
527.426	546.545
530.299	543.25
533.172	526.984
536.043	527.455
538.912	524.779
541.78	530.169
544.646	534.234
547.511	526.963
550.375	532.583
553.237	534.152
556.098	523.976
558.958	531.486
561.816	536.364
564.673	537.334
567.529	527.368
570.382	523.547
573.234	523.92
576.086	532.356
578.936	511.369
581.785	517.707
584.632	510.743
587.477	516.276
590.322	517.054
593.164	517.012
596.006	503.313
598.846	512.35
601.686	499.285
604.523	495.634
607.359	503.351
610.194	507.975
613.027	504.952
615.859	513.725
618.69	506.498
621.519	516.425
624.347	535.143
627.174	580.017
629.999	600.755
632.823	627.919
635.645	565.487
638.466	533.714
641.286	523.536
644.104	503.199
646.921	496.206
649.736	499.942
652.551	493.062
655.364	482.043
658.175	486.684
660.985	485.12
663.795	474.079
666.602	475.481
669.408	479.703
672.213	474.263
675.016	472.091
677.818	463.79
680.619	470.446
683.418	465.256
686.216	480.438
689.013	465.862
691.808	471.684
694.602	478.175
697.395	485.277
700.186	472.756
702.976	470.684
705.765	474.115
708.552	474.042
711.338	468.178
714.122	466.709
716.906	470.742
719.687	464.661
722.468	470.746
725.247	464.572
728.025	468.201
730.802	458.417
733.577	469.27
736.351	472.892
739.124	461.054
741.894	473.287
744.665	471.379
747.433	478.566
750.201	477.508
752.966	475.883
755.731	469.087
758.494	462.572
761.256	469.362
764.016	462.059
766.776	466.252
769.534	455.12
772.29	465.614
775.046	454.673
777.8	459.702
780.552	457.875
783.304	448.258
786.053	468.568
788.802	478.213
791.549	504.949
794.296	520.929
797.04	568.232
799.784	617.521
802.526	621.596
805.266	614.197
808.006	600.313
810.744	594.271
813.481	575.779
816.217	516.546
818.951	487.382
821.683	466.679
824.415	443.974
827.145	442.614
829.874	440.751
832.602	428.461
835.329	425.272
838.053	423.756
840.777	430.462
843.499	414.239
846.22	435.787
848.94	424.368
851.659	423.176
854.376	424.818
857.092	423.499
859.807	407.854
862.52	414.382
865.232	411.72
867.943	412.365
870.653	413.683
873.361	400.847
876.068	415.614
878.773	403.393
881.477	405.851
884.18	410.272
886.882	392.285
889.582	394.805
892.282	405.838
894.98	392.628
897.676	409.429
900.371	410.312
903.065	411.222
905.758	411.683
908.45	426.562
911.139	416.992
913.828	413.979
916.516	408.06
919.202	415.187
921.887	408.395
924.571	407.548
927.253	399.922
929.934	389.414
932.615	394.169
935.292	396.714
937.97	392.294
940.646	390.976
943.321	378.19
945.994	379.423
948.667	395.975
951.337	382.5
954.007	381.071
956.675	388.254
959.342	377.109
962.008	363.675
964.673	376.852
967.336	383.282
969.998	371.598
972.66	366.467
975.319	365.114
977.977	365.603
980.634	366.184
983.29	368.986
985.944	363.979
988.597	367.209
991.249	360.01
993.9	364.309
996.549	369.323
999.197	360.929
1001.84	362.252
1004.49	352.523
1007.13	355.894
1009.78	363.666
1012.42	364.357
1015.06	369.202
1017.7	362.732
1020.34	353.295
1022.97	358.641
1025.61	361.198
1028.24	353.31
1030.88	353.894
1033.51	349.611
1036.14	355.456
1038.77	346.425
1041.4	357.624
1044.02	349.046
1046.65	357.055
1049.27	345.201
1051.9	347.847
1054.52	344.726
1057.14	352.579
1059.76	343.583
1062.38	351.797
1064.99	344.813
1067.61	352.118
1070.22	361.652
1072.84	363.546
1075.45	360.176
1078.06	353.601
1080.67	357.079
1083.28	350.609
1085.89	364.202
1088.49	390.506
1091.1	428.207
1093.7	518.927
1096.3	576.159
1098.9	604.756
1101.5	516.231
1104.1	416.127
1106.7	373.414
1109.29	342.978
1111.89	320.478
1114.48	335.424
1117.07	337.869
1119.66	325.521
1122.25	325.139
1124.84	314.571
1127.43	323.746
1130.02	326.864
1132.6	338.238
1135.18	348.317
1137.77	333.27
1140.35	332.012
1142.93	325.961
1145.51	311.33
1148.09	309.025
1150.66	313.005
1153.24	305.716
1155.81	309.214
1158.38	314.876
1160.95	316.105
1163.53	306.12
1166.09	306.546
1168.66	309.398
1171.23	321.004
1173.79	332.757
1176.36	349.164
1178.92	373.78
1181.48	389.005
1184.04	379.301
1186.6	362.659
1189.16	317.83
1191.72	320.503
1194.27	299.833
1196.83	303.015
1199.38	293.658
1201.93	294.035
1204.49	287.161
1207.04	295.234
1209.58	293.058
1212.13	291.644
1214.68	296.398
1217.22	283.65
1219.77	284.483
1222.31	289.31
1224.85	294.431
1227.39	290.684
1229.93	290.67
1232.47	297.905
1235	296.05
1237.54	288.201
1240.07	294.875
1242.61	294.852
1245.14	288.969
1247.67	272.901
1250.2	286.494
1252.73	286.539
1255.25	287.691
1257.78	291.355
1260.3	290.56
1262.83	292.206
1265.35	293.606
1267.87	301.683
1270.39	305.331
1272.91	297.741
1275.43	305.671
1277.95	319.911
1280.46	327.547
1282.97	342.405
1285.49	352.249
1288	363.128
1290.51	368.901
1293.02	371.404
1295.53	357.232
1298.03	327.751
1300.54	307.213
1303.04	297.993
1305.55	289.301
1308.05	287.875
1310.55	293.532
1313.05	297.345
1315.55	293.893
1318.05	283.423
1320.54	285.913
1323.04	284.043
1325.53	279.702
1328.03	274.46
1330.52	276.116
1333.01	267.321
1335.5	273.598
1337.99	266.616
1340.47	267.549
1342.96	269.426
1345.44	253.529
1347.93	264.692
1350.41	253.844
1352.89	260.007
1355.37	255
1357.85	259.81
1360.33	253.896
1362.81	263.994
1365.28	257.238
1367.76	251.32
1370.23	255.607
1372.7	246.997
1375.17	262.367
1377.64	256.469
1380.11	255.358
1382.58	245.406
1385.04	250.929
1387.51	248.576
1389.97	246.636
1392.44	245.251
1394.9	250.707
1397.36	250.817
1399.82	247.074
1402.28	248.249
1404.73	252.603
1407.19	249.077
1409.64	246.164
1412.1	240.121
1414.55	244.201
1417	240.756
1419.45	232.75
1421.9	236.713
1424.35	235.367
1426.79	240.694
1429.24	241.211
1431.68	237.542
1434.13	233.066
1436.57	245.299
1439.01	238.407
1441.45	238.853
1443.89	238.97
1446.33	246.272
1448.76	248.532
1451.2	248.09
1453.63	248.134
1456.07	240.04
1458.5	230.551
1460.93	231.536
1463.36	217.856
1465.79	223.659
1468.22	222.949
1470.64	223.848
1473.07	224.726
1475.49	216.403
1477.91	224.139
1480.34	219.28
1482.76	211.28
1485.18	215.795
1487.59	216.621
1490.01	221.201
1492.43	222.028
1494.84	217.317
1497.26	218.394
1499.67	213.399
1502.08	218.223
1504.49	213.209
1506.9	208.717
1509.31	218.572
1511.72	204.923
1514.12	208.542
1516.53	206.869
1518.93	204.213
1521.34	206.579
1523.74	209.822
1526.14	206.301
1528.54	204.758
1530.94	212.532
1533.33	207.14
1535.73	207.797
1538.12	205.449
1540.52	207.391
1542.91	199.807
1545.3	201.947
1547.69	201.575
1550.08	208.409
1552.47	202.65
1554.86	205.151
1557.24	208.256
1559.63	200.57
1562.01	199.969
1564.4	207.487
1566.78	204.226
1569.16	205.003
1571.54	196.242
1573.91	201.621
1576.29	206.869
1578.67	204.98
1581.04	214.968
1583.42	236.781
1585.79	250.573
1588.16	285.763
1590.53	335.657
1592.9	393.602
1595.27	415.268
1597.64	399.541
1600	365.387
1602.37	322.713
1604.73	304.803
1607.1	294.052
1609.46	293.654
1611.82	294.21
1614.18	288.768
1616.54	287.459
1618.9	305.103
1621.25	292.033
1623.61	299.165
1625.96	296.899
1628.31	287.591
1630.67	264.731
1633.02	258.286
1635.37	249.675
1637.72	236.572
1640.06	234.36
1642.41	232.596
1644.76	224.621
1647.1	227.945
1649.44	219.027
1651.79	224.787
1654.13	225.472
1656.47	208.738
1658.81	212.53
1661.15	203.355
1663.48	195.943
1665.82	191.567
1668.15	186.09
1670.49	186.647
1672.82	187.609
1675.15	182.647
1677.48	169.699
1679.81	170.287
1682.14	176.898
1684.47	169.54
1686.79	162.365
1689.12	166.411
1691.44	166.393
1693.76	177.055
1696.09	178.182
1698.41	164.622
1700.73	162.807
1703.05	162.317
1705.36	159.701
1707.68	157.138
1710	161.011
1712.31	163.118
1714.62	153.314
1716.94	161.957
1719.25	148.176
1721.56	158.058
1723.87	153.671
1726.17	149.466
1728.48	154.811
1730.79	142.929
1733.09	157.01
1735.4	146.023
1737.7	146.969
1740	153.783
1742.3	151.547
1744.6	142.901
1746.9	150.108
1749.2	142.991
1751.49	144.032
1753.79	144.708
1756.08	140.805
1758.38	140.414
1760.67	140.261
1762.96	138.534
1765.25	140.474
1767.54	135.931
1769.83	139.016
1772.11	134.918
1774.4	136.257
1776.68	133.645
1778.97	134.154
1781.25	131.509
1783.53	130.78
1785.81	131.177
1788.09	129.409
1790.37	132.265
1792.65	135.81
1794.92	133.997
1797.2	129.387
1799.47	132.821
1801.75	132.107
1804.02	127.498
1806.29	129.884
1808.56	125.789
1810.83	132.251
1813.1	127.262
1815.37	128.945
1817.63	131.411
1819.9	123.942
1822.16	123.616
1824.42	122.391
1826.68	123.966
1828.95	127.22
1831.21	124.002
1833.46	123.151
1835.72	119.82
1837.98	121.262
1840.23	123.633
1842.49	122.402
1844.74	125.305
1846.99	118.154
1849.25	117.888
1851.5	114.898
1853.75	114.735
1855.99	118.937
1858.24	118.583
1860.49	123.886
1862.73	114.303
1864.98	115.462
1867.22	116.694
1869.46	117.831
1871.71	113.583
1873.95	109.28
1876.18	113.076
1878.42	110.332
1880.66	114.393
1882.9	106.545
1885.13	113.182
1887.37	109.18
1889.6	110.658
1891.83	114.239
1894.06	109.113
1896.29	105.581
1898.52	113.972
1900.75	110.057
1902.98	116.782
1905.2	106.322
1907.43	112.305
1909.65	105.826
1911.87	104.52
1914.1	103.065
1916.32	103.336
1918.54	108.632
1920.75	107.464
1922.97	103.81
1925.19	101.226
1927.41	102.941
1929.62	92.3193
1931.83	101.007
1934.05	100.82
1936.26	100.904
1938.47	103.724
1940.68	100.886
1942.89	104.685
1945.1	97.2872
1947.3	99.4482
1949.51	97.1068
1951.71	99.6326
1953.92	94.645
1956.12	101.061
1958.32	96.5752
1960.52	101.043
1962.72	95.1308
1964.92	94.6573
1967.12	97.5732
1969.31	96.763
1971.51	92.5421
1973.7	95.5577
1975.9	96.7001
1978.09	95.0955
1980.28	96.4772
1982.47	96.6481
1984.66	97.6207
1986.85	95.7633
1989.04	90.8504
1991.23	90.6206
1993.41	93.1828
1995.6	88.2981
1997.78	97.6708
1999.96	88.2612
2002.14	93.258
2004.33	82.5983
2006.51	88.3136
2008.68	94.0292
2010.86	89.2947
2013.04	86.319
2015.22	89.0536
2017.39	90.7284
2019.56	90.6373
2021.74	84.8841
2023.91	84.3984
2026.08	83.5508
2028.25	86.0219
2030.42	84.6805
2032.59	80.7807
2034.75	85.9174
2036.92	81.0898
2039.08	79.7066
2041.25	84.255
2043.41	78.7997
2045.57	82.9493
2047.73	74.8124
2049.89	76.7878
2052.05	80.6073
2054.21	81.7352
2056.37	87.0215
2058.52	81.3553
2060.68	82.6107
2062.83	77.5898
2064.99	75.0895
2067.14	74.6628
2069.29	82.4409
2071.44	74.2908
2073.59	76.7103
2075.74	80.8105
2077.89	75.3888
2080.03	78.0432
2082.18	76.6469
2084.32	75.2938
2086.47	72.9466
2088.61	74.3691
2090.75	77.04
2092.89	72.7579
2095.03	74.8428
2097.17	74.6431
2099.31	70.5663
2101.44	75.0597
2103.58	73.2866
2105.71	73.6863
2107.85	73.515
2109.98	66.2176
2112.11	70.9605
2114.24	73.4288
2116.37	71.3869
2118.5	67.7144
2120.63	69.3135
2122.76	69.5847
2124.88	66.172
2127.01	68.3661
2129.13	70.1439
2131.25	66.9969
2133.38	71.5215
2135.5	64.5041
2137.62	68.088
2139.74	66.319
2141.86	68.0215
2143.97	67.758
2146.09	64.0914
2148.21	64.0069
2150.32	63.0716
2152.43	65.2174
2154.55	65.015
2156.66	64.2603
2158.77	64.5273
2160.88	63.515
2162.99	62.4039
2165.1	61.853
2167.2	64.3398
2169.31	61.9054
2171.41	62.3356
2173.52	60.4779
2175.62	60.015
2177.72	64.3136
2179.82	55.2241
2181.93	59.3302
2184.02	62.2589
2186.12	59.6241
2188.22	59.9575
2190.32	61.451
2192.41	62.9594
2194.51	60.2928
2196.6	62.572
2198.69	62.4162
2200.79	56.451
2202.88	59.2908
2204.97	58.5829
2207.06	54.805
2209.14	55.1063
2211.23	54.04
2213.32	56.2514
2215.4	58.785
2217.49	58.2263
2219.57	58.3135
2221.65	58.3117
2223.73	55.4999
2225.81	53.6481
2227.89	57.5628
2229.97	52.0597
2232.05	55.2657
2234.13	56.7118
2236.2	50.6534
2238.28	50.2866
2240.35	56.441
2242.42	52.4019
2244.5	52.572
2246.57	52.1797
2248.64	49.8536
2250.71	53.3032
2252.78	47.8314
2254.84	50.3363
2256.91	54.5466
2258.97	50.2623
2261.04	55.4397
2263.1	50.7556
2265.17	48.7013
2267.23	46.5662
2269.29	41.9957
2271.35	50.4582
2273.41	48.4605
2275.47	47.3116
2277.52	50.7607
2279.58	48.7916
2281.64	47.6511
2283.69	44.6619
2285.74	43.7067
2287.8	48.1797
2289.85	48.6261
2291.9	46.6385
2293.95	48.3398
2296	40.3978
2298.05	42.9576
2300.09	47.5585
2302.14	47.3471
2304.18	45.6427
2306.23	42.2943
2308.27	40.7565
2310.31	43.7843
2312.36	45.3571
2314.4	44.0597
2316.44	41.6241
2318.48	40.1708
2320.51	43.3398
2322.55	43.3668
2324.59	43.4397
2326.62	42.6786
2328.66	42.3841
2330.69	42.4401
2332.72	40.3243
2334.75	43.2549
2336.78	41.9539
2338.81	43.7372
2340.84	39.5938
2342.87	40.7939
2344.9	44.3515
2346.92	54.8464
2348.95	42.5686
2350.97	40.8841
2353	38.3679
2355.02	37.7843
2357.04	36.1385
2359.06	38.2287
2361.08	38.7307
2363.1	40.9247
2365.12	43.5693
2367.14	38.954
2369.15	39.0065
2371.17	37.9575
2373.18	40.5914
2375.19	39.7048
2377.21	39.8386
2379.22	39.5829
2381.23	39.3398
2383.24	37.6241
2385.25	41.9647
2387.26	37.3983
2389.26	36.1385
2391.27	37.893
2393.28	37.9498
2395.28	35.9463
2397.28	36.1261
2399.29	35.6207
2401.29	34.1554
2403.29	36.9223
2405.29	36.3984
2407.29	32.8464
2409.29	36.4845
2411.28	33.4332
2413.28	37.2372
2415.28	33.4887
2417.27	34.1207
2419.26	36.348
2421.26	31.9594
2423.25	33.9289
2425.24	35.5203
2427.23	34.5693
2429.22	37.3668
2431.21	35.662
2433.19	32.2368
2435.18	32.2109
2437.17	33.976
2439.15	28.6522
2441.14	32.5358
2443.12	34.8286
2445.1	31.7807
2447.08	33.8907
2449.06	31.8464
2451.04	31.8124
2453.02	33.1771
2455	31.3471
2456.98	28.5998
2458.95	32.8286
2460.93	29.2078
2462.9	32.513
2464.87	32.3148
2466.85	27.2368
2468.82	32.1688
2470.79	32.2623
2472.76	30.1812
2474.73	35.1783
2476.7	29.1241
2478.66	31.1241
2480.63	30.4952
2482.6	32.5207
2484.56	27.8375
2486.52	34.2476
2488.49	27.6469
2490.45	26.4401
2492.41	26.4779
2494.37	27.9594
2496.33	27.5585
2498.29	26.7429
2500.25	27.1685
2502.2	26.2287
2504.16	27.2908
2506.11	28.2174
2508.07	27.3734
2510.02	27.1261
2511.97	25.8776
2513.92	29.2109
2515.88	25.0273
2517.83	28.5053
2519.77	27.8124
2521.72	26.3776
2523.67	25.4039
2525.62	29.5508
2527.56	24.9288
2529.51	25.3776
2531.45	28.3471
2533.39	27.3984
2535.33	25.5998
2537.28	27.9332
2539.22	28.8286
2541.16	27.0138
2543.09	26.6261
2545.03	28.7665
2546.97	27.5215
2548.9	28.773
2550.84	31.0651
2552.77	30.515
2554.71	37.3776
2556.64	35.9814
2558.57	35.1937
2560.5	40.1439
2562.43	40.6381
2564.36	38.8912
2566.29	40.2496
2568.22	34.454
2570.14	34.9814
2572.07	33.954
2573.99	34.7843
2575.92	26.8177
2577.84	30.3229
2579.76	26.6481
2581.69	26.0065
2583.61	25.1176
2585.53	25.1403
2587.44	27.2623
2589.36	23.0686
2591.28	26.4019
2593.2	22.8464
2595.11	23.2174
2597.03	23.451
2598.94	23.4582
2600.85	24.0443
2602.76	22.3286
2604.68	24.3841
2606.59	23.9647
2608.5	23.515
2610.4	22.3471
2612.31	24.0138
2614.22	23.7843
2616.13	19.4582
2618.03	23.7067
2619.94	22.4397
2621.84	21.4736
2623.74	25.2928
2625.64	21.6619
2627.54	23.7496
2629.45	23.5651
2631.34	25.3983
2633.24	25.7916
2635.14	24.1176
2637.04	20.589
2638.93	22.2873
2640.83	22.5693
2642.72	28.9647
2644.62	33.4032
2646.51	32.9027
2648.4	34.651
2650.29	33.4881
2652.18	27.353
2654.07	23.8649
2655.96	24.7067
2657.85	25.7843
2659.74	23.5512
2661.62	22.954
2663.51	24.2928
2665.39	29.8464
2667.27	30.1563
2669.16	40.4146
2671.04	46.9594
2672.92	68.9648
2674.8	80.1176
2676.68	86.5284
2678.56	71.6241
2680.44	64.0705
2682.31	50.9633
2684.19	36.1647
2686.06	38.3679
2687.94	50.8636
2689.81	65.7449
2691.68	106.829
2693.56	223.814
2695.43	261.744
2697.3	193.566
2699.17	165.416
2701.04	114.267
2702.9	72.0609
2704.77	53.4104
2706.64	38.822
2708.5	33.451
2710.37	27.1176
2712.23	22.4397
2714.09	23.515
2715.96	21.6619
2717.82	20.8841
2719.68	21.3363
2721.54	20.5956
2723.4	20.7843
2725.25	20.3398
2727.11	21.7928
2728.97	21.0041
2730.82	19.7372
2732.68	18.2287
2734.53	21.2623
2736.38	17.7372
2738.24	17.7067
2740.09	19.4957
2741.94	19.2843
2743.79	16.9952
2745.64	17.6207
2747.48	15.0998
2749.33	16.645
2751.18	17.9952
2753.02	16.2174
2754.87	15.9647
2756.71	18.537
2758.56	17.0443
2760.4	15.04
2762.24	15.0651
