361.692	70.6849
364.646	76.8397
367.599	81.2501
370.55	82.4077
373.5	92.1134
376.448	87.0875
379.395	88.4772
382.341	79.6942
385.285	76.4759
388.228	78.1352
391.169	75.318
394.11	77.1755
397.048	83.5634
399.984	79.4544
402.92	80.4581
405.855	80.5825
408.787	80.137
411.719	83.7011
414.648	82.6824
417.577	87.1411
420.503	81.0557
423.429	86.5039
426.353	89.0118
429.276	87.9026
432.197	90.2704
435.117	91.8834
438.036	89.1593
440.952	88.7148
443.868	84.5698
446.782	85.649
449.695	85.286
452.606	78.7945
455.516	90.7308
458.425	80.8776
461.331	83.9146
464.237	83.4571
467.141	79.8947
470.044	83.5723
472.945	79.7506
475.846	79.9765
478.744	79.3477
481.641	78.0235
484.537	84.1347
487.431	83.9862
490.324	85.4213
493.215	82.9067
496.106	82.1313
498.995	87.7916
501.882	85.354
504.768	90.7896
507.652	86.7169
510.535	84.7005
513.417	87.1986
516.297	81.0059
519.176	85.8202
522.054	90.1431
524.93	92.1715
527.805	90.9769
530.678	90.2748
533.55	90.4612
536.42	87.48
539.29	88.9272
542.157	82.6048
545.024	81.55
547.888	84.5259
550.753	83.063
553.614	84.0442
556.475	84.0423
559.334	82.1506
562.193	80.3613
565.05	78.8421
567.905	80.8243
570.759	84.3627
573.611	85.8872
576.462	86.1854
579.311	83.7144
582.16	83.4017
585.007	84.0384
587.853	82.5831
590.697	83.4209
593.54	83.8732
596.381	80.6135
599.221	85.5894
602.06	85.4287
604.898	86.6767
607.733	89.9371
610.568	91.7154
613.401	89.4623
616.233	90.7029
619.064	93.1278
621.893	104.967
624.721	111.893
627.547	126.447
630.372	132.425
633.195	144.052
636.018	142.955
638.839	127.822
641.659	111.119
644.476	97.2669
647.293	92.1259
650.109	83.8156
652.923	89.378
655.736	89.5281
658.547	81.8047
661.357	86.129
664.166	87.8201
666.973	84.9275
669.779	78.3637
672.584	80.6834
675.387	83.937
678.189	82.0584
680.99	82.2537
683.789	86.5891
686.586	74.9493
689.383	75.1341
692.178	81.9204
694.972	86.6834
697.765	78.3579
700.555	83.9729
703.346	78.346
706.134	76.9822
708.921	79.6745
711.707	78.355
714.491	80.5973
717.274	81.9532
720.056	79.7945
722.836	83.7566
725.616	79.0939
728.393	79.1466
731.169	81.084
733.944	79.5206
736.718	77.0973
739.49	84.4072
742.262	77.6646
745.032	79.1893
747.8	77.5245
750.567	83.1033
753.333	83.0403
756.097	83.2645
758.86	79.7404
761.622	81.4839
764.382	79.7045
767.141	80.2497
769.899	79.8231
772.656	79.5403
775.411	77.4027
778.165	79.6115
780.917	72.7159
783.668	76.3633
786.418	77.497
789.167	74.2608
791.914	75.6631
794.66	72.4307
797.404	77.8499
800.147	78.9131
802.889	78.8164
805.63	81.9185
808.369	81.4829
811.107	83.059
813.844	85.1035
816.579	82.6514
819.314	83.2923
822.047	84.3415
824.777	78.1696
827.508	82.2628
830.236	78.0487
832.964	76.5939
835.69	79.4863
838.415	78.3865
841.139	76.891
843.861	75.4729
846.582	85.3333
849.302	76.382
852.02	84.5979
854.738	84.3059
857.453	90.6003
860.167	110.569
862.881	148.462
865.592	184.846
868.303	214.467
871.012	201.268
873.721	156.822
876.427	125.07
879.132	95.7206
881.837	82.2182
884.54	79.3474
887.241	73.6592
889.942	71.6755
892.641	73.201
895.338	74.5067
898.034	72.5363
900.73	72.2144
903.423	70.8338
906.116	69.4709
908.807	73.0584
911.497	68.2202
914.186	69.554
916.873	69.2645
919.56	69.583
922.244	68.8105
924.928	69.8794
927.61	72.0442
930.291	70.0167
932.97	74.8771
935.649	66.3555
938.326	70.2686
941.002	67.7722
943.677	68.4366
946.35	71.2818
949.022	67.8314
951.693	72.9217
954.362	69.3729
957.03	68.9109
959.697	76.3968
962.363	71.4724
965.027	75.138
967.691	69.7897
970.353	66.0703
973.014	73.7308
975.673	66.9979
978.331	66.2709
980.987	69.4233
983.644	65.1427
986.298	69.234
988.951	70.8047
991.602	71.6775
994.253	72.1832
996.902	75.4904
999.55	69.0275
1002.2	74.1495
1004.84	77.0275
1007.49	75.996
1010.13	72.054
1012.77	71.4674
1015.41	70.1691
1018.05	69.5024
1020.69	64.6924
1023.33	66.4719
1025.96	69.2364
1028.6	63.1732
1031.23	62.3968
1033.86	66.3874
1036.49	65.0958
1039.12	66.253
1041.75	64.3356
1044.37	65.0018
1047	66.9352
1049.62	67.3357
1052.25	68.9188
1054.87	68.7053
1057.49	63.3452
1060.11	67.4744
1062.73	67.3772
1065.34	65.3957
1067.96	68.9197
1070.57	69.4902
1073.19	69.7945
1075.8	69.846
1078.41	69.8083
1081.02	70.5418
1083.63	68.9542
1086.23	72.415
1088.84	74.9119
1091.44	75.2281
1094.05	78.5281
1096.65	89.7542
1099.25	98.417
1101.85	130.825
1104.45	190.818
1107.04	260.472
1109.64	299.068
1112.23	304.903
1114.83	236.168
1117.42	160.58
1120.01	110.707
1122.6	84.0305
1125.19	70.0732
1127.77	67.7091
1130.36	61.1751
1132.95	61.7955
1135.53	59.8008
1138.11	69.8276
1140.69	61.8199
1143.27	59.0464
1145.85	65.6951
1148.43	62.8153
1151.01	62.3001
1153.58	64.8119
1156.15	68.5984
1158.73	65.6845
1161.3	79.074
1163.87	82.5722
1166.44	90.4116
1169	91.1947
1171.57	92.6037
1174.14	83.0068
1176.7	74.6869
1179.26	72.6846
1181.83	65.5517
1184.39	71.0059
1186.95	70.1293
1189.5	76.8692
1192.06	78.6277
1194.62	78.5043
1197.17	79.9197
1199.72	80.8122
1202.28	81.4719
1204.83	84.2764
1207.38	100.048
1209.92	125.464
1212.47	146.525
1215.02	168.231
1217.56	167.607
1220.11	172.246
1222.65	146.796
1225.19	124.139
1227.73	107.814
1230.27	98.881
1232.81	89.9725
1235.34	87.8854
1237.88	89.2526
1240.41	87.6873
1242.95	91.4666
1245.48	88.8461
1248.01	89.1013
1250.54	89.1375
1253.06	94.4685
1255.59	96.1909
1258.12	102.675
1260.64	109.296
1263.16	115.933
1265.69	121.766
1268.21	134.673
1270.73	146.578
1273.25	165.183
1275.76	188.107
1278.28	211.583
1280.8	235.145
1283.31	244.431
1285.82	219.044
1288.33	190.137
1290.84	150.14
1293.35	113.567
1295.86	87.6509
1298.37	80.8143
1300.87	72.0477
1303.38	74.7566
1305.88	80.7945
1308.38	84.7011
1310.89	106.381
1313.38	122.751
1315.88	186.846
1318.38	300.395
1320.88	440.056
1323.37	563.488
1325.87	601.642
1328.36	538.361
1330.85	442.92
1333.34	360.973
1335.83	307.729
1338.32	272.419
1340.81	227.038
1343.29	172.306
1345.78	129.753
1348.26	100.883
1350.74	87.0779
1353.22	79.6199
1355.7	78.5461
1358.18	76.4346
1360.66	76.8977
1363.14	69.8101
1365.61	68.4685
1368.09	62.4868
1370.56	61.1676
1373.03	63.3579
1375.5	62.615
1377.97	61.6233
1380.44	65.5837
1382.91	69.7506
1385.37	65.3496
1387.84	64.9066
1390.3	65.5118
1392.76	63.6338
1395.23	55.7053
1397.69	54.9862
1400.15	53.0545
1402.6	56.3633
1405.06	56.4788
1407.52	52.3869
1409.97	54.7896
1412.42	53.8194
1414.88	52.9227
1417.33	50.2385
1419.78	52.2823
1422.23	54.5723
1424.67	51.1487
1427.12	52.4768
1429.57	53.8201
1432.01	60.0643
1434.45	53.0059
1436.9	52.1353
1439.34	58.8988
1441.78	54.7247
1444.22	59.8853
1446.65	56.4424
1449.09	59.197
1451.52	55.501
1453.96	53.709
1456.39	53.9183
1458.82	52.4116
1461.25	54.8176
1463.68	48.5379
1466.11	50.8333
1468.54	53.479
1470.97	52.2961
1473.39	48.6935
1475.81	50.9922
1478.24	50.9922
1480.66	51.7861
1483.08	50.9414
1485.5	49.2005
1487.92	52.387
1490.33	49.9473
1492.75	51.3237
1495.17	56.534
1497.58	57.583
1499.99	57.9651
1502.4	62.9222
1504.81	54.798
1507.22	59.9056
1509.63	60.6687
1512.04	56.6646
1514.44	61.0875
1516.85	65.4926
1519.25	62.2363
1521.66	62.5398
1524.06	64.0434
1526.46	53.4016
1528.86	48.5723
1531.26	51.4553
1533.65	47.9725
1536.05	48.5166
1538.44	48.6755
1540.84	45.4072
1543.23	45.9188
1545.62	52.7862
1548.01	48.5477
1550.4	48.2507
1552.79	48.7941
1555.18	46.0345
1557.56	45.7193
1559.95	50.0181
1562.33	45.4719
1564.71	49.27
1567.09	45.5039
1569.47	49.2885
1571.85	53.3575
1574.23	53.8771
1576.61	62.792
1578.98	71.0595
1581.36	86.7004
1583.73	102.604
1586.11	109.146
1588.48	104.304
1590.85	99.6844
1593.22	82.598
1595.59	77.7305
1597.95	75.6873
1600.32	66.7839
1602.68	66.4627
1605.05	59.2669
1607.41	58.2688
1609.77	58.4765
1612.13	53.9125
1614.49	56.9275
1616.85	51.951
1619.21	49.9176
1621.57	44.6646
1623.92	46.4532
1626.28	44.9173
1628.63	45.1352
1630.98	46.4768
1633.33	47.9158
1635.68	47.5942
1638.03	39.7581
1640.38	41.4783
1642.72	41.0643
1645.07	42.3956
1647.41	40.9553
1649.76	41.8017
1652.1	45.8638
1654.44	41.2502
1656.78	47.437
1659.12	47.0595
1661.46	39.699
1663.79	39.8298
1666.13	38.2899
1668.46	38.3815
1670.8	42.3974
1673.13	41.9409
1675.46	38.1411
1677.79	41.904
1680.12	44.1593
1682.45	41.2459
1684.78	39.643
1687.1	39.673
1689.43	41.1348
1691.75	36.8058
1694.07	41.5737
1696.4	36.9056
1698.72	37.7738
1701.04	38.9056
1703.35	38.3811
1705.67	43.685
1707.99	40.1316
1710.3	40.5852
1712.62	39.9275
1714.93	42.2747
1717.24	39.7565
1719.55	37.6906
1721.86	36.4116
1724.17	36.8362
1726.48	39.4759
1728.79	39.5459
1731.09	32.8456
1733.4	36.1755
1735.7	36.0993
1738	38.0078
1740.31	37.796
1742.61	41.9984
1744.91	37.256
1747.2	37.4729
1749.5	38.3523
1751.8	39.5186
1754.09	39.9783
1756.39	36.135
1758.68	35.3137
1760.97	33.9067
1763.26	39.3293
1765.55	37.8334
1767.84	35.7075
1770.13	33.5791
1772.42	36.9188
1774.7	34.7846
1776.99	33.8052
1779.27	35.1391
1781.55	36.4612
1783.83	35.256
1786.11	35.1706
1788.39	38.3758
1790.67	32.9376
1792.95	32.4612
1795.23	32.8192
1797.5	32.973
1799.78	33.3917
1802.05	35.2561
1804.32	29.7896
1806.59	34.0388
1808.86	38.8363
1811.13	33.903
1813.4	34.7819
1815.67	34.0526
1817.93	36.468
1820.2	32.9227
1822.46	33.5241
1824.72	33.3555
1826.98	33.0856
1829.25	33.0337
1831.5	32.4568
1833.76	32.881
1836.02	33.1308
1838.28	33.0237
1840.53	31.501
1842.79	31.616
1845.04	31.9125
1847.29	32.5825
1849.55	32.7091
1851.8	34.3396
1854.04	30.6809
1856.29	30.7033
1858.54	32.7204
1860.79	32.6884
1863.03	31.378
1865.28	30.1523
1867.52	29.0059
1869.76	31.6115
1872	31.1278
1874.24	33.2389
1876.48	30.9244
1878.72	34.3278
1880.96	31.249
1883.19	32.5697
1885.43	27.7586
1887.66	28.8595
1889.89	30.2065
1892.13	33.8318
1894.36	31.2656
1896.59	31.6912
1898.82	32.0482
1901.04	36.584
1903.27	28.9843
1905.5	29.9209
1907.72	30.0447
1909.94	28.6868
1912.17	28.6712
1914.39	29.5442
1916.61	30.7252
1918.83	26.1571
1921.05	31.2779
1923.27	29.1134
1925.48	27.7586
1927.7	30.8255
1929.91	29.117
1932.13	30.3601
1934.34	31.2669
1936.55	30.9049
1938.76	30.907
1940.97	26.9277
1943.18	30.1032
1945.39	27.8008
1947.59	27.4989
1949.8	29.6529
1952	30.9016
1954.21	27.2182
1956.41	29.0482
1958.61	30
1960.81	27.2428
1963.01	31.0424
1965.21	28.3672
1967.41	28.4685
1969.6	31.7909
1971.8	28.3563
1973.99	25.5798
1976.19	28.0127
1978.38	29.8372
1980.57	25.7566
1982.76	26.2502
1984.95	25.5879
1987.14	29.2542
1989.33	29.0315
1991.51	27.4365
1993.7	27.7899
1995.89	26.5088
1998.07	27.2565
2000.25	27.353
2002.43	30.3932
2004.61	27.4571
2006.79	27.415
2008.97	25.2306
2011.15	26.5722
2013.33	26.145
2015.5	26.1643
2017.68	26.4621
2019.85	26.5734
2022.02	25.6845
2024.19	26.5773
2026.37	26.1631
2028.53	26.77
2030.7	28.1249
2032.87	26.9226
2035.04	26.7388
2037.2	25.1647
2039.37	25.7261
2041.53	25.8219
2043.7	25.7159
2045.86	24.6667
2048.02	27.647
2050.18	23.7113
2052.34	23.3141
2054.5	24.3394
2056.65	23.3971
2058.81	23.145
2060.96	26.9632
2063.12	27.5079
2065.27	25.5855
2067.42	25.5148
2069.57	22.8153
2071.72	26.1336
2073.87	26.4651
2076.02	24.7738
2078.17	24.2084
2080.31	26.6436
2082.46	24.4964
2084.6	23.3418
2086.75	25.4681
2088.89	25.9131
2091.03	26.2026
2093.17	26.1731
2095.31	25.4485
2097.45	25.1347
2099.59	23.856
2101.72	23.9056
2103.86	24.2507
2105.99	24.3893
2108.13	21.8304
2110.26	23.2999
2112.39	24.8997
2114.52	23.7268
2116.65	22.6993
2118.78	23.5757
2120.91	19.8196
2123.04	23.858
2125.16	26.6002
2127.29	24.9335
2129.41	23.9371
2131.53	23.0237
2133.66	22.8116
2135.78	22.0837
2137.9	23.727
2140.02	21.2204
2142.13	22.8558
2144.25	22.6037
2146.37	25.2399
2148.48	24.1249
2150.6	21.0482
2152.71	21.1598
2154.82	20.6043
2156.94	23.3379
2159.05	21.2205
2161.16	19.6087
2163.26	18.01
2165.37	22.7699
2167.48	22.5634
2169.58	23.5596
2171.69	20.4566
2173.79	21.9553
2175.9	22.3838
2178	22.1313
2180.1	20.4627
2182.2	22.6357
2184.3	20.231
2186.4	19.5757
2188.49	20.3772
2190.59	21.7365
2192.69	22.146
2194.78	19.6219
2196.87	18.7823
2198.97	20.0118
2201.06	20.2349
2203.15	19.3762
2205.24	22.1012
2207.33	19.8101
2209.42	19.5762
2211.5	22.2802
2213.59	19.8751
2215.67	18.8098
2217.76	22.468
2219.84	20.7605
2221.92	22.679
2224	20.1196
2226.09	18.1558
2228.16	19.1755
2230.24	15.7956
2232.32	17.1604
2234.4	20.6003
2236.47	18.286
2238.55	17.2764
2240.62	18.3453
2242.69	20.1434
2244.77	17.5934
2246.84	18.2727
2248.91	20.6392
2250.98	17.8957
2253.04	18.3254
2255.11	19.4465
2257.18	19.6529
2259.24	20.3196
2261.31	15.6509
2263.37	18.732
2265.43	18.8058
2267.5	17.2444
2269.56	18.9351
2271.62	17.4719
2273.68	20.5762
2275.73	20.4116
2277.79	17.8397
2279.85	18.9371
2281.9	20.1616
2283.96	20.6009
2286.01	17.9549
2288.06	18.5574
2290.11	17.1696
2292.17	22.2794
2294.22	19.9158
2296.26	17.1735
2298.31	18.1156
2300.36	18.9134
2302.4	19.113
2304.45	16.943
2306.49	18.8258
2308.54	18.1827
2310.58	18.4507
2312.62	18.9553
2314.66	19.0118
2316.7	18.4553
2318.74	17.8299
2320.78	17.4112
2322.81	16.469
2324.85	18.2241
2326.89	16.2433
2328.92	16.3641
2330.95	19.4111
2332.99	18.7192
2335.02	16.109
2337.05	19.0085
2339.08	18.7227
2341.11	17.2748
2343.13	20.4622
2345.16	27.1037
2347.19	18.5991
2349.21	15.6317
2351.23	16.2817
2353.26	15.4016
2355.28	18.1534
2357.3	16.9248
2359.32	16.3672
2361.34	16.4595
2363.36	18.6827
2365.38	15.1653
2367.4	14.6119
2369.41	16.963
2371.43	17.6987
2373.44	18.8389
2375.45	17.9226
2377.47	14.5004
2379.48	18.3836
2381.49	16.2325
2383.5	16.6845
2385.51	18.5068
2387.52	17.2669
2389.52	17.7169
2391.53	17.4798
2393.53	14.8889
2395.54	17.5344
2397.54	17.7866
2399.54	17.1386
2401.55	17.9312
2403.55	16.0124
2405.55	17.32
2407.55	15.6043
2409.54	14.1211
2411.54	15.8751
2413.54	16.8138
2415.53	17.2661
2417.53	15.3097
2419.52	15.6857
2421.51	13.7114
2423.5	17.3352
2425.49	14.4014
2427.49	16.488
2429.47	14.5836
2431.46	11.7193
2433.45	14.6845
2435.44	17.4563
2437.42	17.4949
2439.41	15.6611
2441.39	15.9317
2443.37	16.8692
2445.36	17.109
2447.34	15.5918
2449.32	13.3905
2451.3	17.4266
2453.27	16.1033
2455.25	11.7068
2457.23	12.7941
2459.21	15.9335
2461.18	14.0996
2463.15	14.35
2465.13	14.1487
2467.1	17.4131
2469.07	15.054
2471.04	16.4772
2473.01	16.9513
2474.98	16.0078
2476.95	12.8041
2478.92	15.3569
2480.88	15.0078
2482.85	14.578
2484.81	15.2385
2486.78	16.3215
2488.74	13.5596
2490.7	15.7605
2492.66	14.8161
2494.62	15.587
2496.58	15.4404
2498.54	17.113
2500.5	13.0429
2502.45	13.0526
2504.41	13.5364
2506.36	16.4851
2508.32	13.4424
2510.27	15.1637
2512.22	13.7757
2514.17	14.4686
2516.12	11.3001
2518.07	14.3063
2520.02	12.9128
2521.97	15.2857
2523.92	14.2884
2525.86	13.3417
2527.81	12.7042
2529.75	14.35
2531.7	14.4307
2533.64	14.3757
2535.58	15.8041
2537.52	15.7113
2539.46	17.1093
2541.4	14.4859
2543.34	14.6294
2545.28	12.887
2547.22	14.5997
2549.15	13.2423
2551.09	13.6392
2553.02	16.0516
2554.95	15.2611
2556.89	14.1317
2558.82	12.2459
2560.75	17.4622
2562.68	13.2609
2564.61	14.234
2566.53	12.9204
2568.46	15.0281
2570.39	14.9488
2572.31	15.238
2574.24	12.6548
2576.16	14.0088
2578.09	13.8101
2580.01	13.5639
2581.93	13.0182
2583.85	14.9965
2585.77	14.7171
2587.69	13.7063
2589.6	12.6833
2591.52	15.9376
2593.44	15.0148
2595.35	12.5723
2597.27	14.8933
2599.18	14.4868
2601.09	12.5676
2603.01	14.1516
2604.92	13.4582
2606.83	13.0182
2608.74	15.2684
2610.65	12.7722
2612.55	15.5004
2614.46	13.1348
2616.37	12.3821
2618.27	15.1495
2620.18	14.5801
2622.08	13.7014
2623.98	14.9592
2625.88	12.4898
2627.78	13.8338
2629.69	14.0304
2631.58	16.2044
2633.48	14.6829
2635.38	14.9251
2637.28	13.3196
2639.17	18.3496
2641.07	16.598
2642.96	22.55
2644.86	21.5118
2646.75	20.7796
2648.64	17.731
2650.53	14.5643
2652.42	14.3039
2654.31	14.9114
2656.2	16.9512
2658.09	18.1735
2659.97	18.5125
2661.86	17.7916
2663.74	17.3555
2665.63	20.0046
2667.51	25.0837
2669.39	33.1716
2671.28	47.9925
2673.16	54.2304
2675.04	48.3672
2676.92	40.0415
2678.79	31.8101
2680.67	26.3083
2682.55	23.764
2684.42	30.826
2686.3	35.385
2688.17	50.264
2690.05	82.5844
2691.92	204.056
2693.79	229.653
2695.66	144.927
2697.53	111.719
2699.4	75.1589
2701.27	57.8655
2703.14	42.028
2705	30.2961
2706.87	24.1893
2708.74	21.1095
2710.6	19.5281
2712.46	17.0415
2714.33	16.937
2716.19	15.0167
2718.05	15.6155
2719.91	12.8062
2721.77	16.9291
2723.63	16.766
2725.49	13.0359
2727.34	14.6947
2729.2	14.8977
2731.05	14.897
2732.91	14.2459
2734.76	12.584
2736.61	14.3418
2738.47	15.8164
2740.32	11.5735
2742.17	14.4017
2744.02	15.0241
2745.87	13.5242
2747.71	13.8072
2749.56	13.2549
2751.41	13.5285
2753.25	11.9769
2755.1	11.844
2756.94	10.9197
2758.79	11.8201
2760.63	9.65093
