361.692	48.0373
364.646	42.8957
367.599	49.9033
370.55	51.6241
373.5	56.5377
376.448	63.2632
379.395	55.1745
382.341	51.719
385.285	48.4181
388.228	46.7068
391.169	45.7262
394.11	46.265
397.048	48.3928
399.984	45.972
402.92	43.3445
405.855	47.2817
408.787	48.0188
411.719	46.4158
414.648	52.423
417.577	50.998
420.503	49.4473
423.429	51.9914
426.353	50.5148
429.276	53.2444
432.197	56.1305
435.117	59.1604
438.036	58.6217
440.952	53.0754
443.868	54.1549
446.782	49.871
449.695	49.2081
452.606	47.1247
455.516	47.1706
458.425	46.3568
461.331	45.5498
464.237	43.996
467.141	44.4872
470.044	41.7794
472.945	43.0245
475.846	43.2588
478.744	43.8288
481.641	44.6508
484.537	45.8372
487.431	46.9671
490.324	45.0152
493.215	47.9607
496.106	51.1732
498.995	53.7178
501.882	50.2577
504.768	53.2118
507.652	48.7034
510.535	51.5493
513.417	47.6972
516.297	46.1544
519.176	45.3678
522.054	48.1621
524.93	48.4842
527.805	52.8633
530.678	56.721
533.55	56.9957
536.42	57.1369
539.29	48.3228
542.157	46.5292
545.024	45.0474
547.888	45.7522
550.753	48.7668
553.614	46.576
556.475	45.1433
559.334	42.9821
562.193	43.5341
565.05	44.2732
567.905	46.0698
570.759	45.7282
573.611	47.1511
576.462	44.6906
579.311	51.0487
582.16	47.0129
585.007	44.5212
587.853	44.4799
590.697	46.7347
593.54	44.2342
596.381	45.6966
599.221	48.5039
602.06	46.4072
604.898	48.547
607.733	49.3923
610.568	51.0983
613.401	53.2182
616.233	57.5621
619.064	55.9483
621.893	63.9648
624.721	67.5788
627.547	75.1829
630.372	86.3627
633.195	108.547
636.018	117.045
638.839	98.6863
641.659	75.5446
644.476	60.1573
647.293	51.7321
650.109	52.9325
652.923	46.0498
655.736	47.8568
658.547	51.7491
661.357	51.506
664.166	52.4303
666.973	47.4569
669.779	50.9728
672.584	46.739
675.387	48.6488
678.189	48.4237
680.99	47.6695
683.789	46.7434
686.586	45.5299
689.383	44.0645
692.178	50.1479
694.972	50.5204
697.765	50.0615
700.555	44.4951
703.346	43.8972
706.134	45.6328
708.921	50.1104
711.707	47.7514
714.491	47.1428
717.274	43.3559
720.056	47.4262
722.836	41.996
725.616	47.8252
728.393	41.4153
731.169	41.1683
733.944	45.9957
736.718	42.2797
739.49	43.8496
742.262	42.4915
745.032	40.0838
747.8	43.4129
750.567	44.4217
753.333	46.6899
756.097	45.7401
758.86	48.4015
761.622	49.1398
764.382	43.9399
767.141	44.5633
769.899	42.0747
772.656	43.8301
775.411	43.879
778.165	41.3753
780.917	44.3725
783.668	42.4832
786.418	41.0608
789.167	43.8072
791.914	40.8589
794.66	39.6525
797.404	41.5584
800.147	43.8725
802.889	45.8097
805.63	44.5199
808.369	47.0754
811.107	49.3491
813.844	50.8704
816.579	47.8031
819.314	51.5953
822.047	49.2843
824.777	51.3908
827.508	47.1176
830.236	45.4725
832.964	47.6739
835.69	43.5583
838.415	44.9579
841.139	46.5801
843.861	46.9158
846.582	41.1332
849.302	47.4479
852.02	51.2184
854.738	51.2624
857.453	58.2693
860.167	68.4679
862.881	94.5799
865.592	135.863
868.303	177.369
871.012	191.349
873.721	146.221
876.427	96.6013
879.132	69.3528
881.837	49.2058
884.54	45.6043
887.241	42.407
889.942	44.7321
892.641	38.9014
895.338	41.3669
898.034	40.597
900.73	41.827
903.423	40.917
906.116	41.1398
908.807	40.5234
911.497	39.7252
914.186	38.6699
916.873	42.1405
919.56	41.8918
922.244	37.9074
924.928	43.1756
927.61	38.6439
930.291	38.2252
932.97	37.631
935.649	43.7582
938.326	41.7433
941.002	41.2626
943.677	37.585
946.35	37.4339
949.022	36.6079
951.693	42.1888
954.362	39.9111
957.03	38.1122
959.697	41.3862
962.363	42.7571
965.027	42.137
967.691	40.5691
970.353	40.6658
973.014	40.7593
975.673	39.3753
978.331	42.9757
980.987	38.8674
983.644	38.2172
986.298	38.3178
988.951	42.8955
991.602	41.8097
994.253	41.576
996.902	43.6851
999.55	46.2976
1002.2	47.6152
1004.84	49.579
1007.49	46.3692
1010.13	43.0916
1012.77	39.4812
1015.41	38.9123
1018.05	42.2361
1020.69	39.7599
1023.33	42.3892
1025.96	37.3118
1028.6	38.408
1031.23	40.8265
1033.86	37.9823
1036.49	40.6152
1039.12	37.9829
1041.75	39.0318
1044.37	37.603
1047	36.6274
1049.62	41.7261
1052.25	40.7026
1054.87	42.62
1057.49	41.4515
1060.11	41.469
1062.73	38.6452
1065.34	42.7522
1067.96	40.6187
1070.57	43.3209
1073.19	43.2007
1075.8	41.3908
1078.41	41.4703
1081.02	40.0332
1083.63	45.6585
1086.23	40.5415
1088.84	45.6901
1091.44	47.0638
1094.05	51.306
1096.65	54.8023
1099.25	58.5996
1101.85	86.6279
1104.45	130.384
1107.04	204.317
1109.64	279.058
1112.23	298.822
1114.83	223.468
1117.42	129.34
1120.01	79.0767
1122.6	51.5371
1125.19	45.0112
1127.77	37.6765
1130.36	39.0458
1132.95	41.4093
1135.53	39.3314
1138.11	39.2727
1140.69	38.597
1143.27	33.1585
1145.85	37.0318
1148.43	37.0152
1151.01	41.8372
1153.58	41.5733
1156.15	42.5869
1158.73	42.8064
1161.3	48.6561
1163.87	53.3288
1166.44	62.0317
1169	69.6488
1171.57	65.4425
1174.14	61.0739
1176.7	51.8214
1179.26	49.4919
1181.83	42.0891
1184.39	47.2215
1186.95	45.0783
1189.5	46.9924
1192.06	50.8496
1194.62	53.3142
1197.17	54.2577
1199.72	50.1345
1202.28	55.1585
1204.83	60.9579
1207.38	66.9497
1209.92	82.4455
1212.47	102.697
1215.02	129.075
1217.56	149.863
1220.11	140.352
1222.65	116.029
1225.19	98.121
1227.73	80.0891
1230.27	68.7916
1232.81	66.411
1235.34	64.4087
1237.88	55.8276
1240.41	57.1092
1242.95	56.3556
1245.48	57.4262
1248.01	57.5433
1250.54	62.5662
1253.06	66.0765
1255.59	70.1418
1258.12	74.6888
1260.64	83.1552
1263.16	89.9311
1265.69	92.5788
1268.21	105.499
1270.73	119.614
1273.25	131.495
1275.76	152.54
1278.28	177.044
1280.8	196.942
1283.31	217.044
1285.82	203.027
1288.33	176.738
1290.84	125.502
1293.35	92.1778
1295.86	69.0317
1298.37	62.0495
1300.87	53.254
1303.38	55.3862
1305.88	55.8545
1308.38	59.5994
1310.89	72.8481
1313.38	87.4511
1315.88	131.375
1318.38	204.023
1320.88	341.88
1323.37	505.404
1325.87	604.821
1328.36	560.666
1330.85	416.895
1333.34	314.709
1335.83	306.233
1338.32	308.639
1340.81	265.294
1343.29	178.9
1345.78	115.458
1348.26	73.7599
1350.74	63.5626
1353.22	59.9485
1355.7	55.2252
1358.18	52.7195
1360.66	48.3877
1363.14	49.2944
1365.61	43.1446
1368.09	44.5233
1370.56	41.1356
1373.03	43.7034
1375.5	40.8146
1377.97	39.1261
1380.44	41.9534
1382.91	44.0838
1385.37	43.451
1387.84	45.7385
1390.3	44.2231
1392.76	42.9129
1395.23	38.8059
1397.69	36.3566
1400.15	33.7571
1402.6	33.8363
1405.06	36.124
1407.52	35.4545
1409.97	33.024
1412.42	32.408
1414.88	35.1463
1417.33	32.7623
1419.78	33.2939
1422.23	33.0253
1424.67	35.5264
1427.12	34.2637
1429.57	32.8085
1432.01	35.9623
1434.45	36.8784
1436.9	38.6469
1439.34	37.8123
1441.78	37.545
1444.22	37.0575
1446.65	37.8409
1449.09	39.1483
1451.52	37.1102
1453.96	38.4507
1456.39	36.7728
1458.82	34.1923
1461.25	36.2334
1463.68	34.4545
1466.11	29.4286
1468.54	31.311
1470.97	32.4023
1473.39	32.6403
1475.81	32.4207
1478.24	34.1814
1480.66	34.2745
1483.08	29.6135
1485.5	31.0028
1487.92	32.7498
1490.33	36.041
1492.75	37.0953
1495.17	40.631
1497.58	40.597
1499.99	45.423
1502.4	44.792
1504.81	42.3363
1507.22	41.7807
1509.63	38.6054
1512.04	40.5328
1514.44	42.069
1516.85	41.3967
1519.25	40.5656
1521.66	42.8284
1524.06	39.7165
1526.46	35.236
1528.86	31.9992
1531.26	34.41
1533.65	31.3344
1536.05	33.2117
1538.44	31.6368
1540.84	29.8988
1543.23	32.2408
1545.62	31.5463
1548.01	29.1848
1550.4	32.0415
1552.79	30.1002
1555.18	28.6852
1557.56	28.125
1559.95	30.6246
1562.33	32.7225
1564.71	30.4848
1567.09	28.1182
1569.47	32.6315
1571.85	32.5863
1574.23	33.0718
1576.61	41.289
1578.98	53.0898
1581.36	63.2637
1583.73	78.8646
1586.11	85.4145
1588.48	88.4543
1590.85	78.2238
1593.22	59.4836
1595.59	60.4872
1597.95	55.4639
1600.32	52.2071
1602.68	54.042
1605.05	49.5444
1607.41	43.1549
1609.77	39.5264
1612.13	40.9945
1614.49	40.2113
1616.85	42.1797
1619.21	29.9363
1621.57	38.2896
1623.92	31.7965
1626.28	30.8815
1628.63	27.9098
1630.98	29.2351
1633.33	26.5667
1635.68	25.0667
1638.03	27.2753
1640.38	27.3398
1642.72	27.5951
1645.07	31.5379
1647.41	27.1871
1649.76	27.3877
1652.1	28.6572
1654.44	24.9954
1656.78	29.0305
1659.12	26.9433
1661.46	26.2903
1663.79	28.1511
1666.13	25.2976
1668.46	25.9194
1670.8	27.1104
1673.13	26.158
1675.46	27.1791
1677.79	23.7884
1680.12	25.7758
1682.45	24.0245
1684.78	22.8337
1687.1	22.8818
1689.43	24.6561
1691.75	25.4001
1694.07	29.185
1696.4	23.1604
1698.72	25.7544
1701.04	27.8133
1703.35	23.2159
1705.67	22.6246
1707.99	24.6526
1710.3	25.3192
1712.62	24.335
1714.93	25.1865
1717.24	22.8633
1719.55	24.504
1721.86	23.6243
1724.17	24.8952
1726.48	23.3126
1728.79	24.4666
1731.09	23.9613
1733.4	25.6308
1735.7	28.0234
1738	25.4052
1740.31	22.9785
1742.61	23.7298
1744.91	26.8924
1747.2	24.8252
1749.5	27.4316
1751.8	23.2116
1754.09	23.1315
1756.39	25.7491
1758.68	27.423
1760.97	24.407
1763.26	21.283
1765.55	23.0324
1767.84	24.6393
1770.13	22.8169
1772.42	22.9028
1774.7	23.8496
1776.99	22.4543
1779.27	24.4329
1781.55	21.5148
1783.83	22.3293
1786.11	22.4988
1788.39	23.6888
1790.67	22.2856
1792.95	23.649
1795.23	22.7004
1797.5	25.1865
1799.78	23.8761
1802.05	23.2729
1804.32	22.1659
1806.59	24.2233
1808.86	26.0204
1811.13	26.0544
1813.4	23.5089
1815.67	22.0204
1817.93	21.7982
1820.2	24.4211
1822.46	22.6917
1824.72	19.4302
1826.98	20.574
1829.25	21.7563
1831.5	20.4194
1833.76	19.0803
1836.02	19.747
1838.28	22.5199
1840.53	20.2944
1842.79	20.1791
1845.04	21.6708
1847.29	20.0066
1849.55	18.1635
1851.8	21.527
1854.04	21.8887
1856.29	19.996
1858.54	22.6201
1860.79	20.3105
1863.03	17.9363
1865.28	21.0471
1867.52	19.3688
1869.76	20.8617
1872	21.6011
1874.24	19.4725
1876.48	19.6294
1878.72	19.8515
1880.96	24.1127
1883.19	21.2938
1885.43	21.0063
1887.66	17.3519
1889.89	20.2903
1892.13	21.1343
1894.36	17.7674
1896.59	17.9419
1898.82	16.9412
1901.04	27.3192
1903.27	21.6532
1905.5	20.4762
1907.72	17.164
1909.94	19.7067
1912.17	19.2624
1914.39	19.8545
1916.61	20.2215
1918.83	20.7922
1921.05	18.8646
1923.27	17.504
1925.48	20.7442
1927.7	21.4677
1929.91	18.0408
1932.13	18.6127
1934.34	20.2877
1936.55	21.2293
1938.76	18.8954
1940.97	20.0041
1943.18	20.2467
1945.39	18.304
1947.59	20.2912
1949.8	18.1618
1952	21.0989
1954.21	18.6852
1956.41	21.4867
1958.61	18.3134
1960.81	18.5377
1963.01	17.911
1965.21	19.643
1967.41	17.4395
1969.6	20.3586
1971.8	20.4587
1973.99	19.1479
1976.19	18.3218
1978.38	16.9329
1980.57	19.451
1982.76	21.6439
1984.95	17.6067
1987.14	18.0585
1989.33	20.8459
1991.51	19.3175
1993.7	18.9142
1995.89	20.9715
1998.07	18.2419
2000.25	17.9569
2002.43	17.3831
2004.61	18.4919
2006.79	17.5551
2008.97	16.9991
2011.15	16.0245
2013.33	17.7062
2015.5	17.8704
2017.68	19.3579
2019.85	16.1416
2022.02	18.7563
2024.19	18.899
2026.37	15.7773
2028.53	17.71
2030.7	17.19
2032.87	17.6315
2035.04	17.3151
2037.2	17.8218
2039.37	18.7789
2041.53	19.7449
2043.7	19.4265
2045.86	18.2113
2048.02	16.0016
2050.18	19.1017
2052.34	18.1182
2054.5	17.4087
2056.65	18.2577
2058.81	16.6469
2060.96	19.0795
2063.12	17.1906
2065.27	15.8573
2067.42	16.7879
2069.57	18.408
2071.72	16.3978
2073.87	17.158
2076.02	17.5356
2078.17	15.6683
2080.31	16.8096
2082.46	14.5292
2084.6	18.0286
2086.75	16.4387
2088.89	16.5814
2091.03	14.6236
2093.17	16.5788
2095.31	14.1609
2097.45	16.7329
2099.59	15.5736
2101.72	17.1429
2103.86	18.0531
2105.99	16.0579
2108.13	18.0488
2110.26	17.4558
2112.39	15.9535
2114.52	17.6099
2116.65	16.7963
2118.78	15.5801
2120.91	17.7631
2123.04	14.8808
2125.16	15.7563
2127.29	17.8445
2129.41	17.0686
2131.53	15.3293
2133.66	16.6048
2135.78	15.5076
2137.9	16.4812
2140.02	15.9188
2142.13	14.9635
2144.25	16.1833
2146.37	16.7274
2148.48	13.6953
2150.6	13.7913
2152.71	17.9648
2154.82	16.7434
2156.94	13.6488
2159.05	14.0234
2161.16	16.2925
2163.26	15.1871
2165.37	14.7599
2167.48	15.0528
2169.58	14.3843
2171.69	17.6948
2173.79	15.8573
2175.9	17.0099
2178	16.8036
2180.1	17.1212
2182.2	16.079
2184.3	17.4166
2186.4	15.6026
2188.49	15.6328
2190.59	16.2148
2192.69	11.7636
2194.78	15.652
2196.87	15.1163
2198.97	16.096
2201.06	17.2218
2203.15	14.6368
2205.24	13.7627
2207.33	14.6974
2209.42	15.2287
2211.5	17.4165
2213.59	15.2516
2215.67	13.3375
2217.76	14.9232
2219.84	16.4442
2221.92	16.7824
2224	13.2802
2226.09	14.7377
2228.16	14.6068
2230.24	15.914
2232.32	13.7032
2234.4	13.0368
2236.47	12.5365
2238.55	14.2946
2240.62	15.4855
2242.69	16.9329
2244.77	12.6223
2246.84	13.283
2248.91	11.7773
2250.98	13.2903
2253.04	14.504
2255.11	14.2766
2257.18	12.6696
2259.24	16.6151
2261.31	13.4556
2263.37	10.7773
2265.43	12.9376
2267.5	16.0698
2269.56	13.2663
2271.62	13.0171
2273.68	14.6561
2275.73	12.631
2277.79	14.5276
2279.85	15.1242
2281.9	13.1223
2283.96	14.5212
2286.01	14.123
2288.06	14.5126
2290.11	12.8573
2292.17	14.8646
2294.22	13.0286
2296.26	14.3105
2298.31	13.4556
2300.36	14.0354
2302.4	15.8674
2304.45	14.0813
2306.49	14.9607
2308.54	14.2336
2310.58	15.6765
2312.62	14.0838
2314.66	14.8306
2316.7	14.024
2318.74	13.9188
2320.78	13.309
2322.81	11.4596
2324.85	13.8077
2326.89	13.5414
2328.92	13.268
2330.95	12.1429
2332.99	13.5392
2335.02	17.193
2337.05	13.4281
2339.08	14.998
2341.11	11.9692
2343.13	13.9772
2345.16	24.2117
2347.19	14.6536
2349.21	12.9436
2351.23	13.3205
2353.26	12.8707
2355.28	11.7841
2357.3	12.9648
2359.32	13.4836
2361.34	12.9613
2363.36	12.1865
2365.38	12.8085
2367.4	11.8885
2369.41	11.6368
2371.43	13.6253
2373.44	11.9702
2375.45	13.8331
2377.47	13.9175
2379.48	14.4064
2381.49	13.5694
2383.5	12.1092
2385.51	13.6611
2387.52	14.0773
2389.52	12.0222
2391.53	15.478
2393.53	15.5324
2395.54	12.4437
2397.54	12.5669
2399.54	12.6488
2401.55	12.7377
2403.55	12.8689
2405.55	11.0698
2407.55	12.8198
2409.54	12.0152
2411.54	13.1937
2413.54	11.7421
2415.53	13.0754
2417.53	12.0544
2419.52	11.272
2421.51	15.1313
2423.5	12.0681
2425.49	13.6948
2427.49	11.1906
2429.47	10.335
2431.46	13.9762
2433.45	13.0318
2435.44	15.2663
2437.42	12.5863
2439.41	13.5328
2441.39	14.4057
2443.37	13.9299
2445.36	12.6158
2447.34	12.3005
2449.32	12.4895
2451.3	12.7357
2453.27	13.9183
2455.25	13.5093
2457.23	10.8784
2459.21	12.8545
2461.18	14.8918
2463.15	13.7614
2465.13	10.615
2467.1	11.3663
2469.07	14.2541
2471.04	12.7054
2473.01	15.5276
2474.98	11.2609
2476.95	14.0735
2478.92	11.7881
2480.88	13.3988
2482.85	9.82888
2484.81	12.49
2486.78	13.1906
2488.74	12.3475
2490.7	10.6452
2492.66	13.943
2494.62	11.9363
2496.58	10.9793
2498.54	10.393
2500.5	14.2884
2502.45	10.8496
2504.41	13.8918
2506.36	10.8321
2508.32	12.4146
2510.27	10.2252
2512.22	12.9056
2514.17	11.0209
2516.12	10.6788
2518.07	11.2976
2520.02	9.78895
2521.97	11.0523
2523.92	13.0474
2525.86	13.5776
2527.81	13.8748
2529.75	11.6884
2531.7	12.2503
2533.64	13.1923
2535.58	11.5139
2537.52	9.25944
2539.46	12.7478
2541.4	9.44727
2543.34	11.7999
2545.28	10.2925
2547.22	9.03429
2549.15	11.1735
2551.09	11.9727
2553.02	11.0355
2554.95	13.2903
2556.89	11.3118
2558.82	12.3126
2560.75	8.8393
2562.68	12.1989
2564.61	10.5319
2566.53	10.365
2568.46	9.88976
2570.39	11.8917
2572.31	14.1174
2574.24	9.29026
2576.16	9.64594
2578.09	10.8085
2580.01	9.85015
2581.93	12.2658
2583.85	10.1719
2585.77	11.7449
2587.69	10.2117
2589.6	10.0883
2591.52	12.2203
2593.44	10.388
2595.35	10.8205
2597.27	11.2959
2599.18	12.3808
2601.09	10.5654
2603.01	14.225
2604.92	13.1152
2606.83	12.0286
2608.74	10.9142
2610.65	12.7522
2612.55	14.9942
2614.46	10.7434
2616.37	11.5125
2618.27	11.5777
2620.18	12.121
2622.08	10.7514
2623.98	11.8458
2625.88	13.7081
2627.78	13.6906
2629.69	11.2058
2631.58	14.6696
2633.48	16.7504
2635.38	10.701
2637.28	11.41
2639.17	14.9134
2641.07	15.591
2642.96	20.8797
2644.86	19.893
2646.75	20.4666
2648.64	18.8625
2650.53	13.6484
2652.42	14.9074
2654.31	14.3505
2656.2	15.1006
2658.09	15.8288
2659.97	14.8728
2661.86	13.0703
2663.74	18.9569
2665.63	17.0632
2667.51	20.7298
2669.39	32.9413
2671.28	40.167
2673.16	49.527
2675.04	41.7444
2676.92	35.6441
2678.79	30.7348
2680.67	26.6838
2682.55	23.9433
2684.42	28.4247
2686.3	32.0355
2688.17	49.8515
2690.05	76.3277
2691.92	179.865
2693.79	220.246
2695.66	146.66
2697.53	112.221
2699.4	76.6488
2701.27	57.7909
2703.14	37.096
2705	27.309
2706.87	21.4842
2708.74	20.2128
2710.6	15.6887
2712.46	14.675
2714.33	16.225
2716.19	15.5951
2718.05	13.8952
2719.91	12.1351
2721.77	13.9329
2723.63	14.1585
2725.49	12.4116
2727.34	11.0643
2729.2	11.3651
2731.05	14.4695
2732.91	12.6645
2734.76	13.3228
2736.61	12.6439
2738.47	14.5276
2740.32	10.9497
2742.17	11.4551
2744.02	13.1079
2745.87	10.7479
2747.71	11.4817
2749.56	8.54872
2751.41	10.5901
2753.25	11.3293
2755.1	13.481
2756.94	9.76356
2758.79	11.737
2760.63	7.92622
