361.692	142.017
364.646	147.845
367.599	154.026
370.55	169.833
373.5	178.55
376.448	175.18
379.395	171.341
382.341	168.427
385.285	160.117
388.228	168.958
391.169	167.25
394.11	159.45
397.048	163.657
399.984	164.91
402.92	162.008
405.855	166.651
408.787	165.675
411.719	173.119
414.648	175.152
417.577	166.127
420.503	178.047
423.429	182.487
426.353	187.558
429.276	187.304
432.197	194.793
435.117	191.919
438.036	191.833
440.952	185.316
443.868	181.865
446.782	180.916
449.695	175.441
452.606	165.417
455.516	175.169
458.425	170.289
461.331	180.304
464.237	174.121
467.141	169.78
470.044	171.864
472.945	172.498
475.846	172.652
478.744	176.762
481.641	181.917
484.537	176.396
487.431	177.246
490.324	182.887
493.215	184.76
496.106	180.647
498.995	196.253
501.882	186.062
504.768	181.102
507.652	184.566
510.535	184.049
513.417	175.493
516.297	180.422
519.176	184.301
522.054	186.393
524.93	194.23
527.805	198.433
530.678	204.109
533.55	193.386
536.42	191.688
539.29	175.736
542.157	189.26
545.024	172.448
547.888	177.646
550.753	182.722
553.614	186.671
556.475	168.534
559.334	177.579
562.193	182.626
565.05	177.555
567.905	183.595
570.759	183.84
573.611	187.792
576.462	178.195
579.311	178.624
582.16	181.07
585.007	179.998
587.853	176.438
590.697	183.977
593.54	177.806
596.381	182.853
599.221	174.585
602.06	181.817
604.898	190.966
607.733	191.649
610.568	199.176
613.401	206.663
616.233	206.712
619.064	209.654
621.893	227.548
624.721	239.55
627.547	266.93
630.372	298.66
633.195	293.476
636.018	269.466
638.839	250.368
641.659	221.697
644.476	197.851
647.293	186.128
650.109	188.618
652.923	182.94
655.736	177.572
658.547	177.422
661.357	177.124
664.166	173.101
666.973	174.282
669.779	174.554
672.584	174.491
675.387	179.722
678.189	164.5
680.99	169.998
683.789	171.611
686.586	178.928
689.383	173.868
692.178	175.617
694.972	169.314
697.765	165.543
700.555	169.042
703.346	170.271
706.134	170.392
708.921	164.724
711.707	167.498
714.491	165.59
717.274	174.809
720.056	169.477
722.836	163.079
725.616	163.904
728.393	167.187
731.169	162.421
733.944	171.771
736.718	164.762
739.49	167.838
742.262	164.08
745.032	170.748
747.8	165.929
750.567	159.648
753.333	167.381
756.097	170.762
758.86	170.253
761.622	163.582
764.382	158.949
767.141	157.636
769.899	158.479
772.656	162.519
775.411	168.203
778.165	163.27
780.917	160.434
783.668	158.779
786.418	158.499
789.167	158.269
791.914	159.738
794.66	162.18
797.404	160.629
800.147	168.653
802.889	156.226
805.63	167.122
808.369	162.93
811.107	176.525
813.844	184.922
816.579	182.398
819.314	173.223
822.047	174.317
824.777	166.744
827.508	165.438
830.236	162.923
832.964	168.673
835.69	166.459
838.415	167.313
841.139	166.505
843.861	156.987
846.582	168.537
849.302	172.955
852.02	176.999
854.738	185.374
857.453	216.53
860.167	287.086
862.881	375.185
865.592	439.873
868.303	426.216
871.012	366.981
873.721	295.494
876.427	236.013
879.132	198.257
881.837	169.682
884.54	167.061
887.241	150.928
889.942	153.129
892.641	152.863
895.338	153.807
898.034	147.359
900.73	148.298
903.423	145.232
906.116	147.597
908.807	150.421
911.497	154.19
914.186	152.42
916.873	149.779
919.56	152.958
922.244	146.511
924.928	146.922
927.61	145.943
930.291	146.471
932.97	145.118
935.649	152.316
938.326	145.194
941.002	149.853
943.677	141.653
946.35	145.323
949.022	137.465
951.693	144.517
954.362	147.728
957.03	150.105
959.697	153.176
962.363	150.359
965.027	150.21
967.691	143.334
970.353	139.818
973.014	151.648
975.673	142.333
978.331	145.268
980.987	142.667
983.644	143.216
986.298	148.229
988.951	151.502
991.602	165.026
994.253	174.539
996.902	166.759
999.55	161.754
1002.2	161.331
1004.84	158.178
1007.49	152.708
1010.13	148.571
1012.77	143.323
1015.41	139.622
1018.05	138.038
1020.69	142.373
1023.33	146.154
1025.96	136.417
1028.6	135.926
1031.23	143.069
1033.86	129.913
1036.49	139.509
1039.12	136.078
1041.75	141.786
1044.37	138.214
1047	141.271
1049.62	139.257
1052.25	134.078
1054.87	145.121
1057.49	143.303
1060.11	142.917
1062.73	144.781
1065.34	147.969
1067.96	145.392
1070.57	146.923
1073.19	139.239
1075.8	141.971
1078.41	138.229
1081.02	151.121
1083.63	145.253
1086.23	147.732
1088.84	159.741
1091.44	152.046
1094.05	162.663
1096.65	190.08
1099.25	227.996
1101.85	355.03
1104.45	556.613
1107.04	667.897
1109.64	598.338
1112.23	505.201
1114.83	386.62
1117.42	284.903
1120.01	195.618
1122.6	157.403
1125.19	140.143
1127.77	134.245
1130.36	135.91
1132.95	131.26
1135.53	128.742
1138.11	124.208
1140.69	133.669
1143.27	126.683
1145.85	129.398
1148.43	130.816
1151.01	135.963
1153.58	140.513
1156.15	144.27
1158.73	147.378
1161.3	169.653
1163.87	190.363
1166.44	201.251
1169	192.398
1171.57	170.666
1174.14	168.128
1176.7	153.981
1179.26	148.029
1181.83	145.312
1184.39	145.038
1186.95	149.806
1189.5	153.574
1192.06	157.947
1194.62	164.287
1197.17	162.976
1199.72	167.137
1202.28	181.509
1204.83	198.856
1207.38	229.062
1209.92	291.875
1212.47	344.513
1215.02	364.128
1217.56	354.267
1220.11	311.714
1222.65	280.327
1225.19	237.327
1227.73	206.18
1230.27	195.663
1232.81	178.409
1235.34	180.125
1237.88	179.835
1240.41	177.459
1242.95	178.773
1245.48	182.754
1248.01	180.817
1250.54	195.176
1253.06	197.877
1255.59	205.199
1258.12	226.118
1260.64	230.159
1263.16	241.225
1265.69	272
1268.21	299.969
1270.73	330.985
1273.25	368.06
1275.76	429.141
1278.28	482.029
1280.8	500.421
1283.31	452.809
1285.82	398.648
1288.33	321.105
1290.84	264.519
1293.35	203.519
1295.86	182.927
1298.37	156.087
1300.87	153.996
1303.38	165.187
1305.88	169.871
1308.38	189.134
1310.89	241.456
1313.38	307.233
1315.88	498.655
1318.38	853.01
1320.88	1210.44
1323.37	1247.79
1325.87	1082.62
1328.36	943.595
1330.85	851.316
1333.34	795.294
1335.83	662.22
1338.32	504.806
1340.81	387.603
1343.29	305.693
1345.78	235.907
1348.26	191.978
1350.74	163.043
1353.22	156.164
1355.7	153.308
1358.18	148.573
1360.66	145.233
1363.14	134.461
1365.61	136.913
1368.09	128.069
1370.56	123.396
1373.03	125.227
1375.5	127.233
1377.97	131.878
1380.44	131.047
1382.91	131.548
1385.37	136.678
1387.84	128.268
1390.3	123.357
1392.76	118.347
1395.23	117.877
1397.69	116.901
1400.15	113.9
1402.6	102.555
1405.06	108.673
1407.52	102.347
1409.97	105.444
1412.42	105.995
1414.88	110.976
1417.33	103.983
1419.78	109.538
1422.23	106.685
1424.67	106.144
1427.12	111.174
1429.57	106.949
1432.01	115.477
1434.45	112.47
1436.9	114.407
1439.34	111.284
1441.78	115.781
1444.22	110.163
1446.65	118.508
1449.09	114.008
1451.52	109.6
1453.96	107.716
1456.39	106.278
1458.82	97.949
1461.25	98.6331
1463.68	100.414
1466.11	99.8844
1468.54	101.816
1470.97	103.969
1473.39	97.0804
1475.81	100.539
1478.24	102.349
1480.66	97.0384
1483.08	98.0979
1485.5	103.301
1487.92	104.412
1490.33	108.672
1492.75	115.571
1495.17	117.01
1497.58	123.105
1499.99	123.964
1502.4	117.477
1504.81	116.492
1507.22	113.248
1509.63	115.153
1512.04	116.808
1514.44	121.682
1516.85	117.45
1519.25	118.463
1521.66	114.359
1524.06	104.31
1526.46	99.015
1528.86	101.835
1531.26	94.8269
1533.65	97.9041
1536.05	95.3543
1538.44	95.597
1540.84	93.8438
1543.23	94.313
1545.62	94.1509
1548.01	97.8193
1550.4	94.7231
1552.79	90.7123
1555.18	91.2679
1557.56	93.1496
1559.95	92.252
1562.33	97.725
1564.71	92.5096
1567.09	95.2506
1569.47	91.2996
1571.85	99.3534
1574.23	106.831
1576.61	133.201
1578.98	162.65
1581.36	207.351
1583.73	217.289
1586.11	212.815
1588.48	192.023
1590.85	176.492
1593.22	162.791
1595.59	154.964
1597.95	145.186
1600.32	131.058
1602.68	124.92
1605.05	118.913
1607.41	111.874
1609.77	116.671
1612.13	113.007
1614.49	112.664
1616.85	106.181
1619.21	99.3792
1621.57	90.8176
1623.92	93.8111
1626.28	91.1352
1628.63	82.1947
1630.98	83.5612
1633.33	88.0042
1635.68	81.8427
1638.03	80.1762
1640.38	81.4154
1642.72	85.4319
1645.07	81.8254
1647.41	81.9186
1649.76	81.5709
1652.1	81.3867
1654.44	78.1168
1656.78	82.1032
1659.12	81.6118
1661.46	78.8726
1663.79	77.4833
1666.13	76.099
1668.46	76.7716
1670.8	79.3908
1673.13	76.2756
1675.46	76.3825
1677.79	76.3749
1680.12	76.7485
1682.45	78.6743
1684.78	73.1266
1687.1	72.865
1689.43	76.952
1691.75	75.6834
1694.07	77.3605
1696.4	76.3367
1698.72	74.3517
1701.04	75.3604
1703.35	78.2906
1705.67	74.6906
1707.99	73.9012
1710.3	72.8562
1712.62	74.7063
1714.93	77.8379
1717.24	69.5164
1719.55	73.7811
1721.86	71.438
1724.17	71.6303
1726.48	74.5865
1728.79	71.4441
1731.09	69.7442
1733.4	70.0369
1735.7	75.2955
1738	74.4154
1740.31	74.6109
1742.61	75.1314
1744.91	73.4151
1747.2	70.3413
1749.5	73.793
1751.8	76.0748
1754.09	72.7211
1756.39	72.7699
1758.68	71.15
1760.97	69.4989
1763.26	71.1097
1765.55	66.8805
1767.84	71.9134
1770.13	67.4983
1772.42	70.6568
1774.7	67.3588
1776.99	64.2499
1779.27	62.1481
1781.55	65.8717
1783.83	63.2767
1786.11	70.1481
1788.39	68.0933
1790.67	60.9442
1792.95	68.9673
1795.23	69.225
1797.5	62.5572
1799.78	69.7848
1802.05	64.4312
1804.32	63.3485
1806.59	65.9746
1808.86	66.2318
1811.13	64.2786
1813.4	67.3959
1815.67	59.7141
1817.93	59.8728
1820.2	63.7854
1822.46	66.3573
1824.72	64.5397
1826.98	58.6472
1829.25	57.0878
1831.5	62.2575
1833.76	64.5838
1836.02	60.0671
1838.28	60.8582
1840.53	61.3923
1842.79	59.3559
1845.04	59.9857
1847.29	60.8738
1849.55	56.5709
1851.8	62.1444
1854.04	60.6799
1856.29	60.7785
1858.54	59.8829
1860.79	62.4154
1863.03	59.0327
1865.28	57.9857
1867.52	58.0492
1869.76	56.5843
1872	60.9468
1874.24	53.9041
1876.48	57.6647
1878.72	60.1427
1880.96	55.8357
1883.19	58.946
1885.43	58.2998
1887.66	60.4577
1889.89	60.0934
1892.13	57.1168
1894.36	59.8728
1896.59	58.9453
1898.82	60.6994
1901.04	64.9931
1903.27	55.0316
1905.5	52.4654
1907.72	53.3418
1909.94	53.9374
1912.17	54.1587
1914.39	59.9206
1916.61	53.7008
1918.83	56.3342
1921.05	54.9285
1923.27	57.0434
1925.48	56.9515
1927.7	54.4916
1929.91	53.127
1932.13	51.8406
1934.34	55.9965
1936.55	56.9795
1938.76	58.3079
1940.97	54.4065
1943.18	55.8957
1945.39	51.6445
1947.59	54.7037
1949.8	53.2797
1952	52.2961
1954.21	49.1656
1956.41	52.6622
1958.61	53.5476
1960.81	50.0809
1963.01	49.3712
1965.21	52.9092
1967.41	45.5607
1969.6	50.6892
1971.8	53.4754
1973.99	52.8409
1976.19	47.5871
1978.38	47.5192
1980.57	48.8656
1982.76	49.2654
1984.95	52.8322
1987.14	51.3594
1989.33	52.3773
1991.51	46.2423
1993.7	51.0369
1995.89	52.6929
1998.07	50.441
2000.25	49.1263
2002.43	46.2236
2004.61	48.7776
2006.79	49.1887
2008.97	50.6437
2011.15	48.9479
2013.33	45.3587
2015.5	48.3201
2017.68	43.7502
2019.85	49.2883
2022.02	44.1263
2024.19	45.534
2026.37	49.5483
2028.53	46.6892
2030.7	45.4301
2032.87	45.6791
2035.04	46.0472
2037.2	48.4452
2039.37	46.0646
2041.53	45.4742
2043.7	46.452
2045.86	45.9724
2048.02	45.9218
2050.18	47.6395
2052.34	41.4685
2054.5	47.4098
2056.65	44.7014
2058.81	46.9792
2060.96	44.7387
2063.12	45.2987
2065.27	46.8095
2067.42	44.3649
2069.57	44.8166
2071.72	43.6964
2073.87	44.4488
2076.02	45.7284
2078.17	41.5987
2080.31	46.5176
2082.46	38.0558
2084.6	42.3155
2086.75	44.6395
2088.89	40.6632
2091.03	39.7688
2093.17	42.0776
2095.31	43.33
2097.45	39.6839
2099.59	40.1622
2101.72	41.2883
2103.86	36.4459
2105.99	44.8269
2108.13	41.2512
2110.26	43.3215
2112.39	39.597
2114.52	42.066
2116.65	42.0906
2118.78	41.1481
2120.91	41.7881
2123.04	42.9072
2125.16	41.5513
2127.29	38.9363
2129.41	37.2451
2131.53	40.7848
2133.66	40.8349
2135.78	40.0878
2137.9	39.0776
2140.02	34.2854
2142.13	38.34
2144.25	33.2601
2146.37	39.4129
2148.48	38.1812
2150.6	36.0878
2152.71	34.0285
2154.82	36.8923
2156.94	38.9171
2159.05	37.9129
2161.16	37.4196
2163.26	36.1108
2165.37	35.2871
2167.48	36.7081
2169.58	37.7442
2171.69	36.6681
2173.79	35.685
2175.9	36.1526
2178	36.4286
2180.1	36.0563
2182.2	37.724
2184.3	36.5599
2186.4	36.5558
2188.49	35.0818
2190.59	36.7846
2192.69	35.5378
2194.78	34.9072
2196.87	36.821
2198.97	36.2649
2201.06	34.6508
2203.15	35.2051
2205.24	34.3085
2207.33	33.0086
2209.42	34.0577
2211.5	31.9839
2213.59	33.6983
2215.67	33.1587
2217.76	36.297
2219.84	38.2364
2221.92	36.4901
2224	31.9061
2226.09	33.0278
2228.16	35.7575
2230.24	30.343
2232.32	33.6735
2234.4	30.9639
2236.47	34.8342
2238.55	33.6943
2240.62	35.4064
2242.69	35.1109
2244.77	35.282
2246.84	32.0257
2248.91	33.8384
2250.98	32.0209
2253.04	35.3836
2255.11	30.3037
2257.18	27.9833
2259.24	33.4878
2261.31	33.9534
2263.37	31.1868
2265.43	28.8003
2267.5	29.2507
2269.56	33.5841
2271.62	29.9772
2273.68	29.6737
2275.73	28.5379
2277.79	32.4849
2279.85	30.9577
2281.9	30.2988
2283.96	30.6391
2286.01	28.9346
2288.06	30.9468
2290.11	29.9321
2292.17	32.454
2294.22	30.2973
2296.26	31.496
2298.31	30.8687
2300.36	30.4296
2302.4	31.1662
2304.45	28.5589
2306.49	30.1199
2308.54	29.1162
2310.58	31.7042
2312.62	29.1887
2314.66	28.5538
2316.7	28.2395
2318.74	26.8829
2320.78	28.1138
2322.81	26.9346
2324.85	26.082
2326.89	29.2829
2328.92	29.597
2330.95	28.4878
2332.99	29.9608
2335.02	25.825
2337.05	27.7891
2339.08	29.7589
2341.11	28.9948
2343.13	27.1526
2345.16	40.9115
2347.19	28.1692
2349.21	27.1109
2351.23	25.7284
2353.26	25.4156
2355.28	25.3695
2357.3	27.6752
2359.32	28.5871
2361.34	27.7327
2363.36	25.2236
2365.38	26.026
2367.4	27.3099
2369.41	25.7201
2371.43	24.6944
2373.44	26.2813
2375.45	26.5095
2377.47	23.027
2379.48	25.4081
2381.49	28.7669
2383.5	27.2696
2385.51	27.6032
2387.52	25.502
2389.52	26.9134
2391.53	23.1551
2393.53	24.3097
2395.54	23.4225
2397.54	23.8554
2399.54	26.6164
2401.55	21.9684
2403.55	24.7866
2405.55	24.2882
2407.55	24.8075
2409.54	25.6545
2411.54	25.4284
2413.54	24.7231
2415.53	25.7056
2417.53	25.7374
2419.52	23.6968
2421.51	26.2318
2423.5	22.5076
2425.49	27.4372
2427.49	24.1968
2429.47	25.0615
2431.46	24.4213
2433.45	24.0575
2435.44	26.2236
2437.42	25.7403
2439.41	24.0875
2441.39	23.0719
2443.37	22.4705
2445.36	23.4154
2447.34	24.1896
2449.32	20.0803
2451.3	23.0158
2453.27	23.0103
2455.25	21.7601
2457.23	23.903
2459.21	22.8903
2461.18	22.8543
2463.15	23.8122
2465.13	20.17
2467.1	21.4596
2469.07	23.8618
2471.04	21.0545
2473.01	24.4284
2474.98	21.4891
2476.95	21.3367
2478.92	22.3709
2480.88	23.6665
2482.85	23.3013
2484.81	21.1695
2486.78	21.7081
2488.74	19.6115
2490.7	21.3598
2492.66	23.2288
2494.62	23.4326
2496.58	18.6187
2498.54	18.9608
2500.5	22.6733
2502.45	19.7617
2504.41	22.1381
2506.36	21.1368
2508.32	22.6221
2510.27	20.0666
2512.22	23.6795
2514.17	23.3043
2516.12	21.6292
2518.07	20.8542
2520.02	20.5756
2521.97	19.4
2523.92	20.5437
2525.86	18.4293
2527.81	18.7211
2529.75	19.7786
2531.7	20.3111
2533.64	19.1563
2535.58	17.2374
2537.52	19.7298
2539.46	21.7114
2541.4	22.0709
2543.34	20.778
2545.28	17.2972
2547.22	18.6222
2549.15	19.9433
2551.09	20.4909
2553.02	18.024
2554.95	18.8192
2556.89	19.867
2558.82	19.8353
2560.75	17.0009
2562.68	18.8562
2564.61	17.4109
2566.53	16.3703
2568.46	18.4227
2570.39	18.3156
2572.31	19.6
2574.24	18.6954
2576.16	20.5727
2578.09	19.7406
2580.01	17.0384
2581.93	16.7081
2583.85	18.222
2585.77	18.2843
2587.69	20.9842
2589.6	20.522
2591.52	18.3635
2593.44	17.2308
2595.35	16.4936
2597.27	19.4355
2599.18	18.4041
2601.09	15.5536
2603.01	16.8887
2604.92	17.9898
2606.83	17.6929
2608.74	16.6594
2610.65	19.378
2612.55	18.0822
2614.46	15.4901
2616.37	18.3201
2618.27	17.1974
2620.18	15.5552
2622.08	16.3767
2623.98	19.5048
2625.88	18.0071
2627.78	19.8162
2629.69	17.4874
2631.58	16.3984
2633.48	21.8588
2635.38	20.1122
2637.28	18.7406
2639.17	20.0447
2641.07	19.176
2642.96	24.6821
2644.86	25.9628
2646.75	24.7414
2648.64	22.1673
2650.53	22.1457
2652.42	21.643
2654.31	19.5739
2656.2	22.6587
2658.09	23.8741
2659.97	21.3559
2661.86	20.1507
2663.74	22.5686
2665.63	25.8062
2667.51	32.2612
2669.39	43.2325
2671.28	54.687
2673.16	60.8892
2675.04	52.5816
2676.92	46.5004
2678.79	36.7699
2680.67	33.1368
2682.55	30.4385
2684.42	31.3633
2686.3	40.8423
2688.17	58.7615
2690.05	90.7733
2691.92	207.473
2693.79	225.922
2695.66	154.214
2697.53	122.636
2699.4	80.5073
2701.27	59.3485
2703.14	46.8787
2705	36.6691
2706.87	27.9998
2708.74	22.8269
2710.6	21.828
2712.46	22.0014
2714.33	20.3878
2716.19	21.2288
2718.05	17.9346
2719.91	17.7123
2721.77	19.4513
2723.63	20.1427
2725.49	15.4282
2727.34	19.5319
2729.2	18.1413
2731.05	19.8147
2732.91	17.722
2734.76	18.6276
2736.61	16.5152
2738.47	15.4213
2740.32	17.7023
2742.17	17.1526
2744.02	18.9274
2745.87	16.9897
2747.71	16.5397
2749.56	17.2395
2751.41	16.8739
2753.25	16.2942
2755.1	15.8635
2756.94	16.6207
2758.79	16.1825
2760.63	13.7911
