361.692	192.003
364.646	196.258
367.599	198.276
370.55	214.106
373.5	227.577
376.448	234.435
379.395	214.733
382.341	211.503
385.285	209.344
388.228	206.644
391.169	204.68
394.11	210.644
397.048	211.844
399.984	211.162
402.92	219.901
405.855	210.036
408.787	211.831
411.719	216.36
414.648	215.039
417.577	221.512
420.503	216.531
423.429	222.046
426.353	220.662
429.276	236.369
432.197	236.871
435.117	238.927
438.036	231.134
440.952	228.271
443.868	226.877
446.782	221.161
449.695	218.582
452.606	221.084
455.516	221.071
458.425	216.277
461.331	211.543
464.237	220.743
467.141	219.198
470.044	215.44
472.945	213.674
475.846	215.988
478.744	219.274
481.641	220.665
484.537	214.724
487.431	218.682
490.324	220.92
493.215	221.221
496.106	232.001
498.995	233.098
501.882	237.594
504.768	235.659
507.652	232.622
510.535	228.419
513.417	225.517
516.297	224.636
519.176	228.184
522.054	226.197
524.93	228.72
527.805	235.867
530.678	243.788
533.55	236.975
536.42	235.166
539.29	222.461
542.157	218.639
545.024	215.071
547.888	220.72
550.753	223.26
553.614	217.522
556.475	224.518
559.334	221.16
562.193	219.859
565.05	220.489
567.905	220.392
570.759	219.435
573.611	224.773
576.462	221.878
579.311	217.365
582.16	227.655
585.007	219.032
587.853	218.997
590.697	215.214
593.54	221.906
596.381	218.801
599.221	227.24
602.06	216.42
604.898	224.393
607.733	227.387
610.568	232.853
613.401	228.127
616.233	241.447
619.064	242.875
621.893	249.863
624.721	254.889
627.547	284.913
630.372	317.039
633.195	319.246
636.018	334.843
638.839	294.11
641.659	257.088
644.476	231.994
647.293	234.025
650.109	234.338
652.923	222.311
655.736	216.692
658.547	217.17
661.357	224.321
664.166	217.546
666.973	219.22
669.779	217.054
672.584	213.78
675.387	207.085
678.189	218.223
680.99	204.086
683.789	210.516
686.586	207.568
689.383	211.485
692.178	210.053
694.972	206.224
697.765	209.303
700.555	210.692
703.346	209.175
706.134	206.468
708.921	215.291
711.707	209.67
714.491	207.122
717.274	210.791
720.056	202.171
722.836	211.317
725.616	216.728
728.393	213.408
731.169	212.646
733.944	213.149
736.718	211.651
739.49	209.535
742.262	208.756
745.032	213.354
747.8	215.895
750.567	214.726
753.333	211.87
756.097	213.594
758.86	219.167
761.622	209.589
764.382	206.026
767.141	207.041
769.899	203.56
772.656	203.92
775.411	209.756
778.165	203.06
780.917	202.042
783.668	206.818
786.418	203.07
789.167	198.871
791.914	202.725
794.66	199.031
797.404	196.83
800.147	202.122
802.889	207.665
805.63	211.864
808.369	220.912
811.107	222.453
813.844	216.594
816.579	220.549
819.314	218.256
822.047	213.718
824.777	207.254
827.508	204.41
830.236	202.756
832.964	206.836
835.69	210.716
838.415	208.666
841.139	202.973
843.861	203.919
846.582	211.021
849.302	210.321
852.02	215.317
854.738	223.808
857.453	244.334
860.167	287.041
862.881	385.078
865.592	482.132
868.303	530.803
871.012	486.698
873.721	386.326
876.427	287.389
879.132	236.776
881.837	217.908
884.54	204.176
887.241	189.361
889.942	190.986
892.641	193.982
895.338	196.004
898.034	188.194
900.73	181.765
903.423	185.134
906.116	190.975
908.807	188.76
911.497	178.098
914.186	192.754
916.873	184.069
919.56	188.516
922.244	187.653
924.928	187.944
927.61	190.551
930.291	187.808
932.97	184.37
935.649	190.759
938.326	180.837
941.002	190.902
943.677	184.424
946.35	184.624
949.022	190.442
951.693	186.66
954.362	190.496
957.03	191.344
959.697	185.182
962.363	180.387
965.027	183.335
967.691	180.641
970.353	183.973
973.014	182.614
975.673	185.856
978.331	184.867
980.987	184.594
983.644	181.94
986.298	177.7
988.951	184.282
991.602	175.01
994.253	183.335
996.902	191.154
999.55	185.337
1002.2	190.211
1004.84	192.432
1007.49	189.498
1010.13	183.311
1012.77	177.612
1015.41	177.639
1018.05	177.308
1020.69	168.864
1023.33	177.155
1025.96	181.324
1028.6	171.521
1031.23	176.472
1033.86	179.784
1036.49	176.884
1039.12	173.21
1041.75	174.327
1044.37	167.234
1047	176.5
1049.62	178.67
1052.25	164.014
1054.87	174.708
1057.49	179.061
1060.11	180.63
1062.73	185.502
1065.34	176.071
1067.96	179.306
1070.57	174.639
1073.19	175.486
1075.8	181.498
1078.41	180.379
1081.02	182.008
1083.63	183.535
1086.23	179.265
1088.84	188.992
1091.44	195.336
1094.05	188.022
1096.65	206.035
1099.25	230.078
1101.85	289.55
1104.45	394.513
1107.04	528.926
1109.64	631.704
1112.23	582.318
1114.83	461.803
1117.42	328.688
1120.01	230.928
1122.6	192.703
1125.19	174.655
1127.77	167.483
1130.36	166.65
1132.95	162.293
1135.53	163.857
1138.11	159.349
1140.69	155.571
1143.27	158.273
1145.85	158.668
1148.43	167.226
1151.01	166.631
1153.58	161.845
1156.15	166.594
1158.73	172.687
1161.3	187.465
1163.87	194.135
1166.44	222.072
1169	223.036
1171.57	227.221
1174.14	201.717
1176.7	190.665
1179.26	173.005
1181.83	175.894
1184.39	166.676
1186.95	173.994
1189.5	180.979
1192.06	190.913
1194.62	184.502
1197.17	188.214
1199.72	195.236
1202.28	195.63
1204.83	206.419
1207.38	224.917
1209.92	263.011
1212.47	306.187
1215.02	342.899
1217.56	364.534
1220.11	333.487
1222.65	300.514
1225.19	258.722
1227.73	231.553
1230.27	222.905
1232.81	199.877
1235.34	202.947
1237.88	195.516
1240.41	195.768
1242.95	195.42
1245.48	193.592
1248.01	207.283
1250.54	203.176
1253.06	207.493
1255.59	220.434
1258.12	225.607
1260.64	241.155
1263.16	255.546
1265.69	273.233
1268.21	293.086
1270.73	310.506
1273.25	338.816
1275.76	390.22
1278.28	429.195
1280.8	464.77
1283.31	481.052
1285.82	432.779
1288.33	366.567
1290.84	301.011
1293.35	244.104
1295.86	215.705
1298.37	187.975
1300.87	181.755
1303.38	182.226
1305.88	181.556
1308.38	201.782
1310.89	224.365
1313.38	266.227
1315.88	369.606
1318.38	547.463
1320.88	822.098
1323.37	1052.83
1325.87	1111.43
1328.36	991.261
1330.85	794.774
1333.34	678.682
1335.83	621.914
1338.32	571.763
1340.81	457.434
1343.29	350.167
1345.78	273.942
1348.26	226.528
1350.74	193.55
1353.22	179.587
1355.7	177.419
1358.18	181.505
1360.66	181.268
1363.14	165.012
1365.61	157.058
1368.09	156.607
1370.56	156.471
1373.03	152.13
1375.5	153.226
1377.97	152.769
1380.44	151.332
1382.91	156.747
1385.37	160.122
1387.84	153.049
1390.3	153.755
1392.76	147.499
1395.23	145.212
1397.69	139.849
1400.15	138.315
1402.6	137.427
1405.06	135.502
1407.52	130.099
1409.97	137.503
1412.42	131.212
1414.88	133.624
1417.33	129.817
1419.78	130.053
1422.23	131.107
1424.67	133.918
1427.12	133.48
1429.57	135.867
1432.01	136.514
1434.45	140.26
1436.9	137.829
1439.34	137.869
1441.78	135.523
1444.22	140.003
1446.65	137.119
1449.09	134.389
1451.52	133.073
1453.96	133.28
1456.39	125.63
1458.82	128.108
1461.25	126.349
1463.68	125.544
1466.11	122.766
1468.54	129.554
1470.97	127.391
1473.39	123.997
1475.81	123.111
1478.24	126.168
1480.66	125.656
1483.08	126.606
1485.5	128.719
1487.92	127.827
1490.33	131.073
1492.75	133.409
1495.17	133.135
1497.58	144.082
1499.99	144.839
1502.4	142.901
1504.81	141.911
1507.22	135.91
1509.63	141.071
1512.04	134.683
1514.44	142.738
1516.85	149.876
1519.25	149.496
1521.66	150.813
1524.06	141.293
1526.46	130.574
1528.86	122.184
1531.26	118.655
1533.65	122.111
1536.05	122.528
1538.44	113.443
1540.84	122.095
1543.23	122.307
1545.62	118.006
1548.01	115.722
1550.4	117.878
1552.79	112.9
1555.18	115.852
1557.56	119.559
1559.95	113.779
1562.33	118.354
1564.71	116.644
1567.09	113.306
1569.47	117.036
1571.85	119.005
1574.23	127.783
1576.61	140.109
1578.98	151.169
1581.36	180.458
1583.73	212.259
1586.11	215.504
1588.48	218.003
1590.85	195.456
1593.22	181.319
1595.59	172.036
1597.95	160.502
1600.32	162.115
1602.68	152.553
1605.05	147.588
1607.41	140.545
1609.77	135.292
1612.13	130.773
1614.49	132.003
1616.85	125.766
1619.21	121.021
1621.57	118.148
1623.92	118.211
1626.28	105.466
1628.63	107.456
1630.98	111.357
1633.33	101.392
1635.68	102.208
1638.03	109.407
1640.38	108.514
1642.72	104.999
1645.07	112.082
1647.41	98.7475
1649.76	106.773
1652.1	101.672
1654.44	104.08
1656.78	103.96
1659.12	108.178
1661.46	101.641
1663.79	96.5439
1666.13	97.9095
1668.46	107.807
1670.8	100.655
1673.13	100.385
1675.46	99.9182
1677.79	90.6905
1680.12	102.867
1682.45	97.1314
1684.78	98.9865
1687.1	91.6982
1689.43	100.506
1691.75	96.4985
1694.07	97.7971
1696.4	100.518
1698.72	93.3824
1701.04	98.2283
1703.35	95.6702
1705.67	96.1275
1707.99	98.2397
1710.3	94.925
1712.62	91.0984
1714.93	100.046
1717.24	94.6421
1719.55	94.9655
1721.86	92.458
1724.17	98.3727
1726.48	91.0369
1728.79	92.6308
1731.09	93.6281
1733.4	94.9882
1735.7	90.9773
1738	96.0726
1740.31	96.4342
1742.61	94.8497
1744.91	93.0833
1747.2	89.3878
1749.5	90.3878
1751.8	92.8544
1754.09	91.1075
1756.39	85.2106
1758.68	90.2358
1760.97	87.8829
1763.26	86.0895
1765.55	89.3345
1767.84	86.6469
1770.13	87.932
1772.42	82.6589
1774.7	82.7642
1776.99	85.5591
1779.27	86.694
1781.55	90.5905
1783.83	82.1938
1786.11	83.6557
1788.39	82.7526
1790.67	83.238
1792.95	81.5591
1795.23	79.2006
1797.5	87.9548
1799.78	85.1722
1802.05	83.0386
1804.32	81.8829
1806.59	84.6902
1808.86	84.1971
1811.13	81.7718
1813.4	82.6299
1815.67	83.8648
1817.93	82.2207
1820.2	83.5285
1822.46	86.8448
1824.72	83.5163
1826.98	83.1863
1829.25	80.3564
1831.5	80.741
1833.76	78.3442
1836.02	79.6973
1838.28	77.5437
1840.53	84.4832
1842.79	78.5528
1845.04	76.1505
1847.29	77.6094
1849.55	76.6142
1851.8	77.5243
1854.04	76.1236
1856.29	76.9566
1858.54	72.5639
1860.79	73.1705
1863.03	76.1863
1865.28	75.4562
1867.52	77.222
1869.76	73.0501
1872	74.9124
1874.24	74.9404
1876.48	77.5473
1878.72	77.9597
1880.96	73.9651
1883.19	71.7651
1885.43	75.1854
1887.66	75.7729
1889.89	78.6836
1892.13	68.4971
1894.36	72.7053
1896.59	70.4838
1898.82	69.8554
1901.04	75.115
1903.27	71.0386
1905.5	69.6607
1907.72	71.9415
1909.94	76.6289
1912.17	72.2742
1914.39	73.932
1916.61	73.8117
1918.83	70.8638
1921.05	71.2283
1923.27	67.6578
1925.48	70.8147
1927.7	72.4803
1929.91	72.7839
1932.13	69.4562
1934.34	70.5749
1936.55	71.3564
1938.76	70.9004
1940.97	72.7054
1943.18	71.4827
1945.39	67.9674
1947.59	66.8648
1949.8	70.7333
1952	63.1995
1954.21	67.3242
1956.41	67.0998
1958.61	73.1955
1960.81	65.335
1963.01	65.5082
1965.21	66.0358
1967.41	72.1485
1969.6	69.1704
1971.8	62.9475
1973.99	66.8322
1976.19	68.0061
1978.38	67.6641
1980.57	62.3469
1982.76	67.9039
1984.95	67.8293
1987.14	63.4627
1989.33	63.7475
1991.51	64.1041
1993.7	66.7857
1995.89	63.9855
1998.07	62.0583
2000.25	66.6559
2002.43	67.2955
2004.61	61.6873
2006.79	64.0106
2008.97	65.6082
2011.15	59.9464
2013.33	60.3835
2015.5	62.6618
2017.68	60.76
2019.85	62.502
2022.02	58.0509
2024.19	58.1771
2026.37	61.3852
2028.53	59.4526
2030.7	57.712
2032.87	58.0586
2035.04	61.9264
2037.2	52.5497
2039.37	59.7278
2041.53	56.8779
2043.7	60.372
2045.86	61.0235
2048.02	56.7484
2050.18	62.334
2052.34	60.5038
2054.5	56.8649
2056.65	54.2358
2058.81	56.0635
2060.96	55.7228
2063.12	55.8496
2065.27	59.6426
2067.42	55.102
2069.57	58.0561
2071.72	52.1328
2073.87	56.9884
2076.02	54.8981
2078.17	56.0369
2080.31	55.0168
2082.46	55.1498
2084.6	55.5169
2086.75	56.1172
2088.89	56.0594
2091.03	52.9722
2093.17	52.1165
2095.31	51.5914
2097.45	52.5798
2099.59	51.0217
2101.72	51.5497
2103.86	54.0586
2105.99	51.6518
2108.13	53.1417
2110.26	53.5207
2112.39	52.4719
2114.52	51.8123
2116.65	52.5188
2118.78	53.026
2120.91	48.3063
2123.04	49.0859
2125.16	47.4103
2127.29	50.2283
2129.41	52.4078
2131.53	52.5485
2133.66	48.1668
2135.78	51.0863
2137.9	47.8648
2140.02	49.6063
2142.13	47.458
2144.25	51.9985
2146.37	49.386
2148.48	46.6299
2150.6	47.5662
2152.71	47.7586
2154.82	50.18
2156.94	45.994
2159.05	45.8147
2161.16	46.3074
2163.26	47.4461
2165.37	47.296
2167.48	50.2772
2169.58	50.0709
2171.69	46.9
2173.79	47.4576
2175.9	45.1375
2178	44.0671
2180.1	46.0884
2182.2	45.4085
2184.3	46.2306
2186.4	43.7529
2188.49	44.2834
2190.59	46.1379
2192.69	40.8874
2194.78	43.8928
2196.87	45.3116
2198.97	42.9157
2201.06	43.771
2203.15	42.9907
2205.24	47.8188
2207.33	46.6825
2209.42	45.5737
2211.5	45.6927
2213.59	43.4217
2215.67	45.1874
2217.76	46.332
2219.84	45.332
2221.92	43.0193
2224	44.2942
2226.09	47.2113
2228.16	39.1375
2230.24	42.3502
2232.32	44.0501
2234.4	44.9501
2236.47	41.0895
2238.55	41.0966
2240.62	40.9909
2242.69	41.6476
2244.77	41.3337
2246.84	38.1505
2248.91	40.5439
2250.98	37.025
2253.04	39.1051
2255.11	43.7659
2257.18	40.3545
2259.24	40.7862
2261.31	39.8322
2263.37	38.4562
2265.43	35.8345
2267.5	39.6784
2269.56	40.7732
2271.62	38.8825
2273.68	35.1836
2275.73	36.0117
2277.79	38.4983
2279.85	38.633
2281.9	40.0169
2283.96	39.5698
2286.01	38.2816
2288.06	38.0977
2290.11	36.0235
2292.17	38.1222
2294.22	35.1651
2296.26	37.258
2298.31	42.5439
2300.36	38.6451
2302.4	36.3372
2304.45	35.6841
2306.49	35.8194
2308.54	35.7783
2310.58	36.182
2312.62	35.7995
2314.66	35.696
2316.7	37.4385
2318.74	33.531
2320.78	39.619
2322.81	36.8496
2324.85	34.4965
2326.89	34.6773
2328.92	37.3944
2330.95	37.9808
2332.99	33.4417
2335.02	31.026
2337.05	36.5346
2339.08	33.9025
2341.11	30.212
2343.13	32.7508
2345.16	44.755
2347.19	32.6373
2349.21	31.135
2351.23	32.2028
2353.26	34.726
2355.28	30.0508
2357.3	28.726
2359.32	32.2615
2361.34	35.1361
2363.36	31.3594
2365.38	29.448
2367.4	31.4827
2369.41	30.1071
2371.43	33.3141
2373.44	29.6982
2375.45	33.2164
2377.47	30.0493
2379.48	29.5158
2381.49	29.9632
2383.5	33.4551
2385.51	33.1535
2387.52	33.2339
2389.52	30.583
2391.53	34.0908
2393.53	31.0339
2395.54	28.9949
2397.54	30.2254
2399.54	27.5662
2401.55	29.9475
2403.55	32.4224
2405.55	28.9342
2407.55	27.8906
2409.54	32.8925
2411.54	30.7054
2413.54	30.9632
2415.53	31.5648
2417.53	28.0895
2419.52	30.7375
2421.51	27.1493
2423.5	29.741
2425.49	28.6859
2427.49	30.7808
2429.47	28.6684
2431.46	27.5637
2433.45	31.6627
2435.44	29.335
2437.42	30.2381
2439.41	29.4644
2441.39	26.9884
2443.37	28.9257
2445.36	29.5913
2447.34	26.8511
2449.32	28.7091
2451.3	29.6045
2453.27	26.4505
2455.25	25.5787
2457.23	26.2922
2459.21	27.0526
2461.18	26.5001
2463.15	24.6572
2465.13	25.9246
2467.1	27.8492
2469.07	26.5097
2471.04	26.8597
2473.01	30.9463
2474.98	28.8622
2476.95	23.9252
2478.92	28.441
2480.88	29.355
2482.85	27.9
2484.81	24.4985
2486.78	23.5027
2488.74	25.6393
2490.7	24.8286
2492.66	24.2131
2494.62	24.8901
2496.58	25.7319
2498.54	26.2044
2500.5	24.009
2502.45	20.8743
2504.41	25.1385
2506.36	25.7518
2508.32	23.115
2510.27	25.5543
2512.22	25.522
2514.17	24.8147
2516.12	25.4048
2518.07	24.3618
2520.02	24.3442
2521.97	28.0368
2523.92	24.7884
2525.86	27.1098
2527.81	22.5027
2529.75	22.3242
2531.7	22.7936
2533.64	25.0551
2535.58	23.07
2537.52	23.3701
2539.46	22.75
2541.4	25.3926
2543.34	25.1062
2545.28	21.6476
2547.22	22.4898
2549.15	24.3066
2551.09	21.5738
2553.02	21.7742
2554.95	23.3215
2556.89	21.4299
2558.82	22.6572
2560.75	21.7913
2562.68	22.5505
2564.61	23.7259
2566.53	23.3165
2568.46	23.5787
2570.39	20.7079
2572.31	22.741
2574.24	20.2322
2576.16	21.7765
2578.09	22.5673
2580.01	19.8914
2581.93	22.7411
2583.85	21.5882
2585.77	19.2254
2587.69	21.2152
2589.6	21.1071
2591.52	22.5027
2593.44	18.8995
2595.35	19.1697
2597.27	24.7695
2599.18	21.6927
2601.09	21.9272
2603.01	22.1505
2604.92	21.2074
2606.83	21.5691
2608.74	20.6717
2610.65	23.64
2612.55	24.8925
2614.46	20.4837
2616.37	19.1051
2618.27	20.9446
2620.18	20.7938
2622.08	19.8686
2623.98	19.3394
2625.88	21.1042
2627.78	22.3502
2629.69	21.4838
2631.58	19.9195
2633.48	23.6607
2635.38	22.2572
2637.28	20.9053
2639.17	20.0515
2641.07	24.5816
2642.96	28.8177
2644.86	30.686
2646.75	26.9057
2648.64	24.6245
2650.53	23.1372
2652.42	23.0786
2654.31	23.3564
2656.2	22.125
2658.09	20.9
2659.97	21.7201
2661.86	23.2948
2663.74	23.0538
2665.63	28.1825
2667.51	31.7913
2669.39	43.5201
2671.28	60.6123
2673.16	67.6331
2675.04	56.6589
2676.92	44.4451
2678.79	40.7895
2680.67	32.5201
2682.55	33.912
2684.42	34.5713
2686.3	43.613
2688.17	62.9603
2690.05	93.7763
2691.92	217.664
2693.79	245.331
2695.66	171.861
2697.53	127.279
2699.4	86.6651
2701.27	67.087
2703.14	49.5111
2705	36.0586
2706.87	35.2741
2708.74	21.5691
2710.6	26.4712
2712.46	21.4484
2714.33	22.6255
2716.19	22.6841
2718.05	23.1705
2719.91	19.3618
2721.77	18.9965
2723.63	19.6375
2725.49	21.2282
2727.34	21.0913
2729.2	19.6791
2731.05	18.755
2732.91	21.1825
2734.76	19.3824
2736.61	17.1192
2738.47	17.4119
2740.32	18.4129
2742.17	17.4761
2744.02	19.705
2745.87	19.7795
2747.71	16.884
2749.56	17.0106
2751.41	15.8673
2753.25	17.1686
2755.1	18.0193
2756.94	16.16
2758.79	17.6518
2760.63	18.2445
