176.817	55.3333
179.42	56
182.022	54
184.622	51.3333
187.223	54.6667
189.821	52
192.419	53.3333
195.017	50
197.612	48.6667
200.208	52
202.802	47.3333
205.397	54
207.99	46
210.581	50
213.173	47.3333
215.762	44
218.352	51.3333
220.94	48
223.528	47.3333
226.114	46.6667
228.701	43.3333
231.285	48
233.87	46.6667
236.452	45.3333
239.034	48
241.616	46.6667
244.196	46
246.777	44
249.355	44
251.933	46.6667
254.511	42
257.086	48.6667
259.663	49.3333
262.237	47.3333
264.81	46
267.383	40
269.955	48
272.525	40
275.097	42.6667
277.665	43.3333
280.234	48
282.802	47.3333
285.368	46
287.934	46.6667
290.499	43.3333
293.064	43.3333
295.627	42.6667
298.189	44
300.75	40
303.312	47.3333
305.871	40
308.43	42.6667
310.988	42
313.545	46.6667
316.101	42
318.658	40
321.212	39.3333
323.766	40.6667
326.319	40.6667
328.871	40
331.422	39.3333
333.972	42
336.522	44.6667
339.072	34.6667
341.619	44.6667
344.166	39.3333
346.712	39.3333
349.258	40
351.802	42.6667
354.346	42
356.888	40
359.43	41.3333
361.971	44.6667
364.511	41.3333
367.051	39.3333
369.589	42.6667
372.127	41.3333
374.664	42.6667
377.2	43.3333
379.735	43.3333
382.27	39.3333
384.802	41.3333
387.334	44.6667
389.866	42
392.397	40
394.927	46.6667
397.457	42
399.985	42
402.513	42
405.038	47.3333
407.565	47.3333
410.09	44.6667
412.614	47.3333
415.138	53.3333
417.66	50.6667
420.181	58
422.702	59.3333
425.222	55.3333
427.742	70.6667
430.259	66
432.777	73.3333
435.294	81.3333
437.81	71.3333
440.324	67.3333
442.838	68
445.352	64
447.863	61.3333
450.375	56.6667
452.887	56
455.395	51.3333
457.905	50
460.414	50
462.92	48
465.427	45.3333
467.932	48
470.438	46.6667
472.942	43.3333
475.445	44.6667
477.948	43.3333
480.448	43.3333
482.95	44
485.449	42.6667
487.949	39.3333
490.446	41.3333
492.944	37.3333
495.44	42
497.937	42
500.431	42.6667
502.926	42
505.418	41.3333
507.912	40
510.403	39.3333
512.894	38.6667
515.384	38
517.874	38.6667
520.361	40
522.848	40.6667
525.336	38
527.821	39.3333
530.306	38
532.791	39.3333
535.274	39.3333
537.756	38.6667
540.238	40
542.719	40.6667
545.199	36
547.679	36.6667
550.157	39.3333
552.634	36.6667
555.112	40
557.588	41.3333
560.063	41.3333
562.537	40.6667
565.011	40
567.484	40.6667
569.955	42
572.426	42
574.896	37.3333
577.367	41.3333
579.835	37.3333
582.303	37.3333
584.77	40
587.236	40
589.701	38.6667
592.165	39.3333
594.629	40
597.093	40.6667
599.555	38
602.016	41.3333
604.477	37.3333
606.936	40
609.395	39.3333
611.853	40
614.311	39.3333
616.767	40.6667
619.223	38.6667
621.678	44
624.132	39.3333
626.585	36.6667
629.037	41.3333
631.489	40
633.94	43.3333
636.39	40.6667
638.839	40.6667
641.288	42.6667
643.736	39.3333
646.183	38.6667
648.627	42.6667
651.073	42
653.517	40
655.961	41.3333
658.404	40
660.846	37.3333
663.288	37.3333
665.727	37.3333
668.167	37.3333
670.606	42.6667
673.044	38
675.482	42
677.917	44.6667
680.353	42.6667
682.788	36
685.222	44
687.655	42
690.087	42
692.519	38
694.951	41.3333
697.38	42.6667
699.809	40
702.238	42.6667
704.665	40
707.092	40.6667
709.519	40
711.943	36.6667
714.368	41.3333
716.791	45.3333
719.214	39.3333
721.637	40
724.058	43.3333
726.479	41.3333
728.898	40.6667
731.317	42
733.734	42
736.152	42
738.568	40.6667
740.985	41.3333
743.399	46.6667
745.814	42
748.227	38.6667
750.64	43.3333
753.051	40
755.463	44.6667
757.872	40
760.283	42
762.691	45.3333
765.098	38.6667
767.506	40
769.912	40
772.318	40.6667
774.722	44.6667
777.126	42
779.53	44.6667
781.932	41.3333
784.333	42.6667
786.735	44.6667
789.135	40
791.533	42.6667
793.933	41.3333
796.33	41.3333
798.727	46.6667
801.123	46.6667
803.519	47.3333
805.913	46.6667
808.307	46
810.699	46.6667
813.093	49.3333
815.484	45.3333
817.874	48
820.264	44
822.653	44
825.041	47.3333
827.43	46.6667
829.817	45.3333
832.203	43.3333
834.588	46.6667
836.972	50.6667
839.356	51.3333
841.738	48
844.12	46.6667
846.502	52
848.882	53.3333
851.262	53.3333
853.641	58
856.02	56
858.397	56.6667
860.774	58
863.15	66.6667
865.525	68
867.9	70.6667
870.273	85.3333
872.646	100
875.019	142
877.39	193.333
879.761	260
882.131	340.667
884.5	377.333
886.869	370.667
889.236	302
891.602	228.667
893.968	166
896.334	121.333
898.698	92.6667
901.062	81.3333
903.426	76.6667
905.787	70
908.148	62.6667
910.509	57.3333
912.87	53.3333
915.228	54.6667
917.587	48.6667
919.945	52
922.302	55.3333
924.657	49.3333
927.013	45.3333
929.368	47.3333
931.721	46
934.074	46.6667
936.427	48.6667
938.778	44
941.129	47.3333
943.479	43.3333
945.828	44.6667
948.177	44
950.524	42.6667
952.871	46.6667
955.218	44
957.563	46
959.908	46
962.252	47.3333
964.595	46
966.937	40
969.28	44
971.62	44.6667
973.961	46
976.3	44
978.639	42
980.976	48
983.314	44.6667
985.65	43.3333
987.987	45.3333
990.321	44.6667
992.655	49.3333
994.989	47.3333
997.321	48
999.653	47.3333
1001.98	48
1004.31	45.3333
1006.65	46.6667
1008.97	50.6667
1011.3	52.6667
1013.63	52.6667
1015.96	50.6667
1018.28	48
1020.61	57.3333
1022.93	52.6667
1025.26	61.3333
1027.58	56
1029.9	58.6667
1032.22	62.6667
1034.54	67.3333
1036.86	68.6667
1039.18	77.3333
1041.5	86.6667
1043.82	100.667
1046.14	114
1048.45	123.333
1050.77	134
1053.08	140
1055.4	136.667
1057.71	124.667
1060.02	117.333
1062.33	100
1064.64	92.6667
1066.96	89.3333
1069.27	90.6667
1071.57	86.6667
1073.88	86
1076.19	89.3333
1078.5	89.3333
1080.8	98.6667
1083.11	94
1085.41	88
1087.72	113.333
1090.02	120
1092.32	134.667
1094.62	130.667
1096.92	145.333
1099.22	139.333
1101.52	134.667
1103.82	123.333
1106.12	114
1108.42	92.6667
1110.71	98.6667
1113.01	88
1115.3	78.6667
1117.6	80.6667
1119.89	78
1122.18	74.6667
1124.48	78.6667
1126.77	75.3333
1129.06	71.3333
1131.35	68
1133.64	62
1135.93	58
1138.21	60.6667
1140.5	61.3333
1142.79	56.6667
1145.07	54.6667
1147.36	54.6667
1149.64	59.3333
1151.92	52.6667
1154.21	53.3333
1156.49	56
1158.77	50
1161.05	49.3333
1163.33	47.3333
1165.61	51.3333
1167.89	53.3333
1170.16	49.3333
1172.44	48.6667
1174.72	52
1176.99	52
1179.27	46.6667
1181.54	46.6667
1183.81	50
1186.09	45.3333
1188.36	50
1190.63	50.6667
1192.9	44.6667
1195.17	49.3333
1197.44	50
1199.71	49.3333
1201.97	48.6667
1204.24	50.6667
1206.5	52
1208.77	54
1211.03	52
1213.3	52.6667
1215.56	52.6667
1217.82	48.6667
1220.09	52.6667
1222.35	52.6667
1224.61	48.6667
1226.87	50.6667
1229.12	50.6667
1231.38	50.6667
1233.64	53.3333
1235.9	50.6667
1238.15	53.3333
1240.41	54.6667
1242.66	54.6667
1244.92	53.3333
1247.17	57.3333
1249.42	57.3333
1251.67	59.3333
1253.92	62
1256.17	58.6667
1258.42	58
1260.67	55.3333
1262.92	64
1265.17	72.6667
1267.42	71.3333
1269.66	84
1271.91	90
1274.15	94
1276.39	97.3333
1278.64	89.3333
1280.88	85.3333
1283.12	85.3333
1285.36	82.6667
1287.6	70.6667
1289.84	74.6667
1292.08	67.3333
1294.32	62
1296.56	60
1298.79	59.3333
1301.03	62
1303.26	56
1305.5	62
1307.73	58.6667
1309.97	57.3333
1312.2	59.3333
1314.43	53.3333
1316.66	58
1318.89	56.6667
1321.12	55.3333
1323.35	62
1325.58	58
1327.81	52.6667
1330.03	56.6667
1332.26	55.3333
1334.49	52
1336.71	54.6667
1338.94	61.3333
1341.16	60
1343.38	54.6667
1345.6	58
1347.83	56.6667
1350.05	63.3333
1352.27	58.6667
1354.49	59.3333
1356.7	58.6667
1358.92	60.6667
1361.14	59.3333
1363.36	57.3333
1365.57	59.3333
1367.79	60
1370	58.6667
1372.21	62
1374.43	62.6667
1376.64	67.3333
1378.85	62.6667
1381.06	70
1383.27	66
1385.48	70
1387.69	66
1389.9	69.3333
1392.11	64
1394.31	72
1396.52	68
1398.73	74
1400.93	70
1403.13	74
1405.34	72
1407.54	65.3333
1409.74	76
1411.94	74.6667
1414.14	79.3333
1416.34	75.3333
1418.54	75.3333
1420.74	80
1422.94	86.6667
1425.14	87.3333
1427.33	92.6667
1429.53	90
1431.72	94
1433.92	93.3333
1436.11	99.3333
1438.3	105.333
1440.5	112
1442.69	118.667
1444.88	132.667
1447.07	135.333
1449.26	148.667
1451.45	173.333
1453.64	170
1455.82	174
1458.01	174.667
1460.2	158
1462.38	151.333
1464.57	130
1466.75	125.333
1468.93	112
1471.12	116.667
1473.3	107.333
1475.48	98.6667
1477.66	104
1479.84	107.333
1482.02	106
1484.2	100.667
1486.38	100
1488.55	88.6667
1490.73	93.3333
1492.91	90
1495.08	78.6667
1497.26	83.3333
1499.43	78
1501.61	73.3333
1503.78	72.6667
1505.95	74
1508.12	70.6667
1510.29	70
1512.46	70
1514.63	69.3333
1516.8	68
1518.97	68
1521.14	66
1523.3	68.6667
1525.47	61.3333
1527.63	63.3333
1529.8	60.6667
1531.96	60
1534.12	63.3333
1536.29	57.3333
1538.45	58.6667
1540.61	60
1542.77	58
1544.93	58.6667
1547.09	56.6667
1549.25	62.6667
1551.41	56
1553.56	59.3333
1555.72	63.3333
1557.88	57.3333
1560.03	57.3333
1562.18	56
1564.34	54
1566.49	53.3333
1568.64	54
1570.8	59.3333
1572.95	52.6667
1575.1	54
1577.25	56
1579.4	54.6667
1581.55	56.6667
1583.69	54
1585.84	54.6667
1587.99	55.3333
1590.13	55.3333
1592.28	56.6667
1594.42	52.6667
1596.57	52
1598.71	54.6667
1600.85	52
1602.99	56
1605.14	56.6667
1607.28	54
1609.42	55.3333
1611.56	60.6667
1613.69	56
1615.83	56
1617.97	56.6667
1620.11	54
1622.24	54
1624.38	54.6667
1626.51	52.6667
1628.65	57.3333
1630.78	58.6667
1632.91	56
1635.04	54
1637.17	54.6667
1639.31	55.3333
1641.44	50
1643.57	55.3333
1645.69	50.6667
1647.82	54.6667
1649.95	56.6667
1652.08	55.3333
1654.2	57.3333
1656.33	58
1658.45	53.3333
1660.58	56
1662.7	54
1664.82	52
1666.94	51.3333
1669.07	51.3333
1671.19	52.6667
1673.31	54
1675.43	51.3333
1677.55	55.3333
1679.66	54.6667
1681.78	56.6667
1683.9	54
1686.01	53.3333
1688.13	58
1690.25	56.6667
1692.36	52.6667
1694.47	57.3333
1696.59	52.6667
1698.7	53.3333
1700.81	58.6667
1702.92	58
1705.03	54.6667
1707.14	54.6667
1709.25	53.3333
1711.36	50.6667
1713.47	60
1715.58	54
1717.68	54
1719.79	56
1721.89	58
1724	55.3333
1726.1	56.6667
1728.21	54.6667
1730.31	52.6667
1732.41	52
1734.51	53.3333
1736.61	54.6667
1738.71	52.6667
1740.81	54
1742.91	52.6667
1745.01	51.3333
1747.11	55.3333
1749.2	50.6667
1751.3	56
1753.4	53.3333
1755.49	56.6667
1757.59	52.6667
1759.68	55.3333
1761.77	52
1763.86	54
1765.96	50.6667
1768.05	56
1770.14	53.3333
1772.23	55.3333
1774.32	52.6667
1776.41	49.3333
1778.49	64
1780.58	52.6667
1782.67	53.3333
1784.76	53.3333
1786.84	56
1788.92	53.3333
1791.01	54
1793.09	56
1795.18	56.6667
1797.26	57.3333
1799.34	57.3333
1801.42	53.3333
1803.5	54
1805.58	52
1807.66	58
1809.74	51.3333
1811.82	55.3333
1813.89	50
1815.97	54.6667
1818.05	54
1820.12	56
1822.2	52
1824.27	57.3333
1826.34	60
1828.42	51.3333
1830.49	54
1832.56	58.6667
1834.63	55.3333
1836.7	58
1838.77	56.6667
1840.84	56.6667
1842.91	53.3333
1844.98	59.3333
1847.04	53.3333
1849.11	52
1851.18	54
1853.24	55.3333
1855.31	54
1857.37	59.3333
1859.43	59.3333
1861.5	56.6667
1863.56	54.6667
1865.62	54
1867.68	57.3333
1869.74	54
1871.8	57.3333
1873.86	60
1875.92	56
1877.98	54.6667
1880.03	58
1882.09	58.6667
1884.15	56.6667
1886.2	54.6667
1888.26	58.6667
1890.31	53.3333
1892.36	62
1894.42	56.6667
1896.47	59.3333
1898.52	55.3333
1900.57	54
1902.62	58.6667
1904.67	56.6667
1906.72	57.3333
1908.77	56
1910.82	54
1912.86	60.6667
1914.91	58.6667
1916.96	54.6667
1919	60.6667
1921.04	54
1923.09	51.3333
1925.13	57.3333
1927.18	57.3333
1929.22	55.3333
1931.26	55.3333
1933.3	56.6667
1935.34	59.3333
1937.38	54.6667
1939.42	55.3333
1941.46	54.6667
1943.5	59.3333
1945.53	56.6667
1947.57	57.3333
1949.61	51.3333
1951.64	58.6667
1953.68	54
1955.71	56
1957.75	58.6667
1959.78	60
1961.81	61.3333
1963.84	58
1965.87	60
1967.9	51.3333
1969.93	62
1971.96	56.6667
1973.99	51.3333
1976.02	58.6667
1978.05	60
1980.07	58
1982.1	60
1984.13	60.6667
1986.15	62.6667
1988.18	56.6667
1990.2	60
1992.22	60.6667
1994.25	55.3333
1996.27	56.6667
1998.29	56.6667
2000.31	58
2002.33	57.3333
2004.35	61.3333
2006.37	56.6667
2008.39	54.6667
2010.41	54.6667
2012.42	57.3333
2014.44	61.3333
2016.46	53.3333
2018.47	60
2020.49	57.3333
2022.5	58
2024.51	62.6667
2026.53	55.3333
2028.54	58
2030.55	57.3333
2032.56	58.6667
2034.57	60.6667
2036.58	57.3333
2038.59	54
2040.6	56
2042.61	61.3333
2044.62	60
2046.62	58
2048.63	54
2050.64	58.6667
2052.64	57.3333
2054.65	60
2056.65	59.3333
2058.65	60.6667
2060.66	56.6667
2062.66	54.6667
2064.66	64.6667
2066.66	60.6667
2068.66	65.3333
2070.66	58.6667
2072.66	56.6667
2074.66	59.3333
2076.66	55.3333
2078.65	60.6667
2080.65	61.3333
2082.65	58
2084.64	58.6667
2086.64	62
2088.63	57.3333
2090.63	59.3333
2092.62	58
2094.61	62
2096.6	58.6667
2098.59	63.3333
2100.59	60
2102.58	58
2104.56	64.6667
2106.55	60
2108.54	55.3333
2110.53	61.3333
2112.52	59.3333
2114.5	56.6667
2116.49	60
2118.48	58
2120.46	63.3333
2122.44	60.6667
2124.43	61.3333
2126.41	62
2128.39	59.3333
2130.38	65.3333
2132.36	52
2134.34	59.3333
2136.32	60
2138.3	61.3333
2140.28	65.3333
2142.26	57.3333
2144.23	52
2146.21	60.6667
2148.19	61.3333
2150.16	58.6667
2152.14	59.3333
2154.11	56.6667
2156.09	56.6667
2158.06	58
2160.04	62.6667
2162.01	58.6667
2163.98	60.6667
2165.95	61.3333
2167.92	58
2169.89	60.6667
2171.86	62.6667
2173.83	62
2175.8	64.6667
2177.77	64
2179.73	55.3333
2181.7	62.6667
2183.67	61.3333
2185.63	62.6667
2187.6	62
2189.56	64
2191.53	57.3333
2193.49	60.6667
2195.45	60.6667
2197.41	63.3333
2199.37	58.6667
2201.34	62.6667
2203.29	59.3333
2205.26	60.6667
2207.21	60
2209.17	62.6667
2211.13	61.3333
2213.09	60
2215.05	57.3333
2217	58
2218.96	66
2220.91	61.3333
2222.87	61.3333
2224.82	62
2226.77	62
2228.73	64
2230.68	66.6667
2232.63	66.6667
2234.58	58
2236.53	64
2238.48	62.6667
2240.43	58.6667
2242.38	65.3333
2244.33	60
2246.27	66
2248.22	66
2250.17	60
2252.11	61.3333
2254.06	65.3333
2256	68
2257.95	60
2259.89	61.3333
2261.84	62.6667
2263.78	62.6667
2265.72	59.3333
2267.66	66.6667
2269.6	64.6667
2271.54	55.3333
2273.48	60.6667
2275.42	64.6667
2277.36	59.3333
2279.3	64.6667
2281.23	61.3333
2283.17	66.6667
2285.11	60.6667
2287.04	64
2288.98	68.6667
2290.91	64.6667
2292.84	60
2294.78	63.3333
2296.71	64
2298.64	65.3333
2300.57	60.6667
2302.51	66
2304.44	60
2306.37	60
2308.29	61.3333
2310.22	67.3333
2312.15	59.3333
2314.08	64.6667
2316.01	66.6667
2317.93	66
2319.86	62.6667
2321.78	65.3333
2323.71	65.3333
2325.63	66.6667
2327.56	64.6667
2329.48	64
2331.4	65.3333
2333.32	66.6667
2335.25	60.6667
2337.17	64
2339.09	64
2341.01	64.6667
2342.92	59.3333
2344.84	68
2346.76	63.3333
2348.68	58.6667
2350.6	66
2352.51	68.6667
2354.43	64.6667
2356.34	67.3333
2358.26	66.6667
2360.17	62.6667
2362.09	66.6667
2364	66.6667
2365.91	64
2367.82	68
2369.73	68
2371.64	62
2373.55	64.6667
2375.46	62.6667
2377.37	60
2379.28	63.3333
2381.19	59.3333
2383.1	57.3333
2385	64.6667
2386.91	66.6667
2388.82	62.6667
2390.72	63.3333
2392.62	64
2394.53	66
2396.43	59.3333
2398.33	70
2400.24	63.3333
2402.14	62.6667
2404.04	68
2405.94	67.3333
2407.84	64
2409.74	68
2411.64	65.3333
2413.54	64.6667
2415.44	66
2417.33	65.3333
2419.23	67.3333
2421.13	64.6667
2423.02	66
2424.92	72
2426.81	63.3333
2428.71	68
2430.6	65.3333
2432.49	62.6667
2434.38	66
2436.28	63.3333
2438.17	65.3333
2440.06	69.3333
2441.95	62.6667
2443.84	72
2445.73	68
