186.85	484.889
189.449	481.556
192.047	496.444
194.645	486.889
197.241	491.778
199.837	498.444
202.431	490.222
205.025	494.667
207.619	500
210.21	497.111
212.802	498.222
215.392	504.222
217.982	496.222
220.57	504.222
223.158	505.778
225.744	495.556
228.331	500.444
230.915	504.444
233.5	516.445
236.083	517.778
238.666	514.889
241.247	534.667
243.827	524.222
246.408	518.444
248.986	523.111
251.565	514.444
254.142	520.444
256.719	525.333
259.294	519.778
261.868	518.222
264.443	516.222
267.015	520.667
269.587	504
272.159	516.444
274.729	509.556
277.298	506.667
279.867	515.333
282.435	520.667
285.001	513.333
287.568	511.778
290.133	516.222
292.697	512
295.26	507.556
297.824	509.556
300.385	494.889
302.945	508.667
305.505	499.333
308.064	503.556
310.623	505.333
313.18	509.778
315.737	501.556
318.292	500.667
320.847	508.889
323.402	510.889
325.955	503.333
328.507	509.111
331.058	525.111
333.609	523.111
336.158	513.111
338.707	528.444
341.255	516.222
343.802	525.111
346.349	526.889
348.895	530.444
351.439	534.444
353.983	527.556
356.526	533.778
359.068	530.222
361.609	534.889
364.149	536.889
366.689	519.778
369.227	535.778
371.765	529.556
374.302	527.111
376.838	549.111
379.374	544.667
381.908	555.556
384.442	537.333
386.973	534.222
389.505	508.667
392.036	520.222
394.567	503.556
397.096	517.111
399.625	518.222
402.153	518
404.68	518
407.206	518
409.73	518.222
412.254	522.222
414.778	527.333
417.301	530.444
419.823	524.667
422.343	530.222
424.863	535.778
427.383	532
429.901	530
432.418	528.667
434.935	536.667
437.451	544.889
439.966	521.111
442.48	540
444.993	531.333
447.506	538.444
450.019	532.222
452.528	528.444
455.039	527.778
457.549	538
460.056	545.111
462.564	532.222
465.07	536.444
467.576	526.222
470.082	531.778
472.585	533.778
475.089	518.667
477.591	526.222
480.093	528.889
482.595	532.889
485.094	542
487.594	527.111
490.091	537.556
492.59	539.111
495.086	540.889
497.582	545.778
500.076	534.222
502.571	534.444
505.064	556.444
507.558	554.444
510.049	559.333
512.54	546.445
515.03	562.889
517.518	563.778
520.008	569.778
522.495	570
524.983	561.111
527.468	567.111
529.954	554.444
532.438	556.222
534.921	563.111
537.404	546
539.886	548.667
542.366	547.111
544.848	553.778
547.327	534.889
549.805	540.444
552.284	539.111
554.76	546.889
557.236	541.556
559.711	531.333
562.186	540
564.66	539.111
567.132	544
569.604	540.667
572.076	541.778
574.547	535.778
577.016	536.889
579.484	539.111
581.952	528.667
584.419	533.556
586.887	525.556
589.352	530.444
591.816	530.667
594.28	533.778
596.743	538.444
599.205	521.556
601.667	526.889
604.127	524.889
606.588	534.444
609.047	527.556
611.505	541.333
613.963	533.333
616.419	535.556
618.875	534.667
621.33	536.889
623.784	547.778
626.238	538.667
628.69	540.444
631.142	549.333
633.593	541.556
636.043	529.333
638.493	534
640.941	529.778
643.389	530.667
645.835	531.333
648.281	530.222
650.727	542.444
653.171	528.889
655.615	530
658.058	528.889
660.501	532.889
662.942	530.667
665.382	532.889
667.822	542.667
670.261	522.667
672.699	535.556
675.137	525.556
677.574	540
680.008	532.222
682.443	533.333
684.878	540.889
687.312	538.667
689.743	546.667
692.175	548.667
694.607	548.889
697.037	551.111
699.466	557.778
701.895	546
704.323	530.222
706.749	538.222
709.175	545.333
711.601	546.445
714.025	542.889
716.449	532
718.871	541.778
721.294	540.889
723.716	546
726.136	532.444
728.556	534.889
730.975	532.444
733.394	530.445
735.812	528.444
738.228	526.444
740.644	519.556
743.058	522
745.473	530.889
747.886	527.333
750.3	521.778
752.711	529.556
755.123	530.667
757.533	527.333
759.942	531.333
762.351	534.444
764.759	527.555
767.167	527.111
769.573	524
771.979	522.444
774.383	522.444
776.787	528.222
779.191	524.889
781.593	534.444
783.994	541.778
786.396	525.111
788.796	539.555
791.195	538.222
793.595	539.778
795.992	554.667
798.389	550.667
800.786	572.667
803.181	574.222
805.576	582
807.969	548.444
810.363	545.333
812.755	544.444
815.147	545.333
817.537	543.111
819.927	528.889
822.318	528.445
824.706	530.667
827.093	527.555
829.48	522.222
831.866	530.222
834.251	528.889
836.636	532.667
839.021	534.222
841.404	540
843.786	524.444
846.167	527.111
848.548	525.333
850.928	532.889
853.307	524.444
855.685	523.111
858.063	537.111
860.44	520.667
862.816	514
865.192	524
867.566	528
869.94	516.444
872.313	522.667
874.685	524
877.057	524.222
879.428	531.778
881.798	515.778
884.167	524
886.536	527.778
888.902	524.667
891.269	529.111
893.636	526.444
896.001	525.111
898.366	536.667
900.73	527.333
903.094	522.667
905.455	516.222
907.817	517.333
910.178	523.111
912.538	519.778
914.898	519.111
917.255	510.667
919.613	522.667
921.971	514.444
924.327	525.111
926.682	518.667
929.037	521.556
931.391	514.667
933.744	507.556
936.096	510.222
938.449	519.778
940.799	514.889
943.149	510.889
945.499	523.556
947.847	514.222
950.195	514.889
952.542	509.556
954.889	524.222
957.235	516.444
959.579	512.889
961.924	523.778
964.266	509.111
966.609	519.333
968.951	521.556
971.292	516.889
973.632	515.111
975.972	526.222
978.31	515.111
980.649	517.556
982.986	510
985.323	516.889
987.659	514.222
989.994	523.333
992.328	526.222
994.662	517.778
996.995	528.222
999.326	517.111
1001.66	518.444
1003.99	520.444
1006.32	514.667
1008.65	513.778
1010.98	505.556
1013.3	511.333
1015.63	518.444
1017.96	522.889
1020.28	517.556
1022.61	516.222
1024.93	525.111
1027.25	520.222
1029.58	514.667
1031.9	527.111
1034.22	527.778
1036.54	528.667
1038.86	528.667
1041.18	536.667
1043.49	528.889
1045.81	534.444
1048.13	528
1050.44	535.333
1052.76	534.222
1055.07	555.333
1057.39	548.667
1059.7	561.333
1062.01	558
1064.32	564.889
1066.63	581.778
1068.94	596.444
1071.25	637.778
1073.56	676
1075.87	711.778
1078.17	791.111
1080.48	818
1082.79	854.889
1085.09	853.778
1087.39	813.556
1089.7	747.333
1092	703.333
1094.3	655.556
1096.6	631.333
1098.9	611.111
1101.2	578.889
1103.5	567.556
1105.8	548.667
1108.1	550.444
1110.39	549.556
1112.69	540.889
1114.98	551.111
1117.28	554.889
1119.57	556.889
1121.86	556
1124.16	562.222
1126.45	562.667
1128.74	543.556
1131.03	554.889
1133.32	542
1135.61	542.444
1137.89	534.667
1140.18	536.222
1142.47	529.556
1144.75	531.778
1147.04	522.889
1149.32	528
1151.61	535.555
1153.89	534.222
1156.17	528
1158.45	521.778
1160.73	523.556
1163.01	520.444
1165.29	520.667
1167.57	520.444
1169.85	520.444
1172.12	524.444
1174.4	524.222
1176.68	533.333
1178.95	547.111
1181.22	551.778
1183.5	557.333
1185.77	550.889
1188.04	561.556
1190.31	540.444
1192.58	520.444
1194.85	518.889
1197.12	515.778
1199.39	507.333
1201.66	511.333
1203.92	505.556
1206.19	499.111
1208.45	502.667
1210.72	503.333
1212.98	502.444
1215.25	498.667
1217.51	499.556
1219.77	500.444
1222.03	499.333
1224.29	510.222
1226.55	500
1228.81	496.222
1231.07	514.222
1233.33	507.333
1235.58	512.222
1237.84	509.778
1240.09	511.111
1242.35	501.778
1244.6	503.556
1246.86	507.333
1249.11	516
1251.36	499.778
1253.61	514
1255.86	506
1258.11	516.222
1260.36	518.222
1262.61	516
1264.86	524.444
1267.1	522.444
1269.35	517.111
1271.6	521.111
1273.84	528.667
1276.08	532
1278.33	532.667
1280.57	535.778
1282.81	538.445
1285.05	537.111
1287.29	537.556
1289.53	540
1291.77	539.778
1294.01	540
1296.25	529.333
1298.48	536.667
1300.72	536.667
1302.96	529.778
1305.19	522.667
1307.42	530.889
1309.66	546.667
1311.89	539.111
1314.12	519.333
1316.35	548
1318.58	526.667
1320.81	536.667
1323.04	532.667
1325.27	528.889
1327.5	526
1329.73	518.889
1331.95	522.222
1334.18	522.222
1336.4	523.333
1338.63	534
1340.85	515.111
1343.08	513.778
1345.3	522
1347.52	516
1349.74	520.444
1351.96	511.556
1354.18	522
1356.4	508.667
1358.61	510.889
1360.83	513.111
1363.05	524.444
1365.27	516.445
1367.48	533.556
1369.69	518.889
1371.91	532.667
1374.12	527.555
1376.33	535.556
1378.55	532
1380.76	528.667
1382.97	525.333
1385.18	523.556
1387.39	518.444
1389.59	524.444
1391.8	515.111
1394.01	518.667
1396.21	511.778
1398.42	509.111
1400.63	509.778
1402.83	512.222
1405.03	512.667
1407.24	508
1409.44	492.222
1411.64	500.889
1413.84	512
1416.04	492.667
1418.24	498.222
1420.44	506.889
1422.64	497.778
1424.83	490.667
1427.03	495.111
1429.23	503.778
1431.42	496
1433.62	496.444
1435.81	502.222
1438	500.667
1440.19	501.556
1442.39	493.778
1444.58	493.111
1446.77	497.111
1448.96	495.556
1451.15	492.444
1453.34	489.778
1455.52	488
1457.71	480
1459.9	493.778
1462.08	501.556
1464.27	486.444
1466.45	487.556
1468.64	480.222
1470.82	493.111
1473	486.667
1475.18	495.556
1477.36	501.556
1479.54	504
1481.72	505.778
1483.9	505.778
1486.08	490.889
1488.26	493.111
1490.43	492.667
1492.61	475.778
1494.78	478.667
1496.96	475.556
1499.13	484.889
1501.31	482.444
1503.48	477.111
1505.65	474.222
1507.82	489.111
1509.99	479.778
1512.16	472.222
1514.33	471.111
1516.5	479.778
1518.67	472.222
1520.84	477.556
1523	474.222
1525.17	475.556
1527.34	474.222
1529.5	482.444
1531.66	478.444
1533.83	472.222
1535.99	471.333
1538.15	476.889
1540.31	483.778
1542.47	478.667
1544.63	484.667
1546.79	483.333
1548.95	488
1551.11	483.778
1553.27	490
1555.42	481.333
1557.58	489.778
1559.73	486.222
1561.89	497.333
1564.04	493.333
1566.2	486.222
1568.35	486.667
1570.5	501.111
1572.65	515.111
1574.8	530.444
1576.95	547.333
1579.1	580.444
1581.25	618.889
1583.4	656
1585.55	740.889
1587.69	842.222
1589.84	933.111
1591.99	1020.67
1594.13	1012.22
1596.27	946.667
1598.42	820.667
1600.56	690.889
1602.7	638.444
1604.84	598.667
1606.98	565.556
1609.12	573.556
1611.26	561.111
1613.4	560.444
1615.54	547.111
1617.68	535.555
1619.81	522.889
1621.95	530
1624.08	531.556
1626.22	524
1628.35	528.889
1630.49	524.222
1632.62	529.556
1634.75	527.556
1636.88	529.778
1639.01	527.778
1641.14	535.333
1643.27	531.556
1645.4	523.778
1647.53	542.222
1649.66	529.555
1651.79	529.111
1653.91	536.667
1656.04	534.222
1658.16	536.889
1660.29	527.333
1662.41	528.222
1664.53	515.111
1666.66	516.444
1668.78	500.444
1670.9	493.778
1673.02	499.778
1675.14	493.778
1677.26	504.889
1679.38	495.333
1681.49	484
1683.61	487.556
1685.73	494.222
1687.84	484.444
1689.96	483.778
1692.07	484.889
1694.19	485.778
1696.3	489.778
1698.41	472.444
1700.52	483.111
1702.64	492.222
1704.75	487.556
1706.86	491.556
1708.97	476.889
1711.07	479.333
1713.18	477.111
1715.29	475.778
1717.4	478.889
1719.5	472.667
1721.61	467.778
1723.71	464
1725.82	469.556
1727.92	469.778
1730.02	457.778
1732.12	463.111
1734.23	448.889
1736.33	455.778
1738.43	441.111
1740.53	439.556
1742.63	447.333
1744.72	440.222
1746.82	435.333
1748.92	432
1751.02	424.889
1753.11	438.222
1755.21	435.778
1757.3	433.333
1759.4	437.556
1761.49	440.222
1763.58	434.222
1765.67	432.222
1767.76	433.778
1769.86	434.444
1771.95	432.667
1774.03	430.889
1776.12	434
1778.21	421.778
1780.3	430.889
1782.39	427.556
1784.47	436.444
1786.56	432.222
1788.64	427.111
1790.73	434.222
1792.81	430.222
1794.89	422.889
1796.98	428
1799.06	426.667
1801.14	431.333
1803.22	414.889
1805.3	425.111
1807.38	425.778
1809.46	418.667
1811.54	430.444
1813.61	421.556
1815.69	419.778
1817.77	415.556
1819.84	419.778
1821.92	419.556
1823.99	422.444
1826.06	422.444
1828.14	418
1830.21	419.111
1832.28	419.556
1834.35	416.889
1836.42	418.444
1838.49	420
1840.56	413.111
1842.63	414
1844.7	412.222
1846.77	414.889
1848.83	414
1850.9	412
1852.96	406
1855.03	415.556
1857.09	412.889
1859.15	411.333
1861.22	409.111
1863.28	407.778
1865.34	406.889
1867.4	412.222
1869.46	400.667
1871.52	408.889
1873.58	405.778
1875.64	418
1877.7	400.444
1879.76	408
1881.81	405.556
1883.87	414.444
1885.92	405.778
1887.98	396.667
1890.03	406
1892.09	403.111
1894.14	407.556
1896.19	401.111
1898.24	407.333
1900.29	395.111
1902.34	397.333
1904.4	396.444
1906.44	396
1908.49	400.222
1910.54	400
1912.59	401.111
1914.63	404.222
1916.68	397.556
1918.73	404
1920.77	402
1922.81	400.667
1924.86	394
1926.9	404.889
1928.94	392
1930.99	395.778
1933.03	402.667
1935.07	381.778
1937.11	396.222
1939.15	397.556
1941.19	395.556
1943.22	398.444
1945.26	390.667
1947.3	389.556
1949.33	387.778
1951.37	386.444
1953.4	384.222
1955.44	383.333
1957.47	388.222
1959.51	388
1961.54	385.111
1963.57	384.889
1965.6	389.111
1967.63	384
1969.66	382
1971.69	377.556
1973.72	378
1975.75	378.667
1977.78	374
1979.8	377.111
1981.83	376
1983.86	378
1985.88	378.222
1987.91	382.667
1989.93	384
1991.95	383.556
1993.98	375.111
1996	385.111
1998.02	376.222
2000.04	364.444
2002.06	378.889
2004.08	375.778
2006.1	373.111
2008.12	382.222
2010.14	378.667
2012.15	378
2014.17	381.556
2016.19	378.889
2018.2	370.444
2020.22	373.333
2022.23	375.333
2024.25	362.889
2026.26	382.667
2028.27	373.111
2030.28	373.556
2032.29	376.444
2034.3	380.889
2036.32	381.556
2038.32	377.111
2040.33	369.778
2042.34	364.667
2044.35	376
2046.36	374.444
2048.36	369.556
2050.37	376.444
2052.37	368.889
2054.38	371.778
2056.38	366.667
2058.39	379.333
2060.39	362
2062.39	360
2064.39	372.444
2066.39	357.778
2068.39	366.222
2070.39	369.778
2072.39	363.778
2074.39	355.778
2076.39	370.667
2078.39	364
2080.39	363.778
2082.38	363.333
2084.38	364.444
2086.37	370.444
2088.37	357.556
2090.36	354.444
2092.35	362.222
2094.35	356.444
2096.34	358.444
2098.33	361.556
2100.32	357.333
2102.31	352
2104.3	360
2106.29	353.556
2108.28	351.333
2110.27	354
2112.25	355.778
2114.24	346.889
2116.23	348.444
2118.21	353.333
2120.2	354.889
2122.18	354.222
2124.17	350.222
2126.15	352.667
2128.13	361.778
2130.11	350
2132.09	358.889
2134.08	354.889
2136.06	351.333
2138.04	352
2140.02	351.333
2141.99	350
2143.97	347.556
2145.95	345.778
2147.93	352.222
2149.9	346.222
2151.88	350.889
2153.85	340
2155.83	350.222
2157.8	343.333
2159.77	348.222
2161.75	344.667
2163.72	350.222
2165.69	344.667
2167.66	337.556
2169.63	348.889
2171.6	347.111
2173.57	338.667
2175.54	337.556
2177.51	339.556
2179.47	338.667
2181.44	338.667
2183.41	343.333
2185.37	340.222
2187.34	336.222
2189.3	341.778
2191.27	333.778
2193.23	334.444
2195.19	323.556
2197.15	330.889
2199.11	334.444
2201.08	338.222
2203.04	334
2205	332
2206.96	332.667
2208.91	330.444
2210.87	323.556
2212.83	338.444
2214.79	328.444
2216.74	326.889
2218.7	330
2220.65	324.222
2222.61	331.333
2224.56	329.556
2226.52	328.222
2228.47	331.556
2230.42	314.667
2232.37	324.667
2234.32	330.222
2236.27	322.667
2238.22	321.333
2240.17	325.333
2242.12	326.444
2244.07	328
2246.02	316.444
2247.97	317.111
2249.91	326.667
2251.86	317.556
2253.8	321.111
2255.75	324
2257.69	316.667
2259.64	312.889
2261.58	317.333
2263.52	312
2265.46	321.111
2267.4	314.222
2269.35	312.444
2271.29	315.333
2273.23	312.222
2275.16	314.444
2277.1	313.333
2279.04	318.667
2280.98	321.333
2282.92	318.667
2284.85	310.667
2286.79	306.889
2288.72	320
2290.66	310.667
2292.59	307.778
2294.52	308.667
2296.46	307.778
2298.39	311.111
2300.32	303.778
2302.25	307.778
2304.18	310.667
2306.11	307.556
2308.04	305.333
2309.97	307.111
2311.9	302
2313.83	301.778
2315.75	303.333
2317.68	296.889
2319.61	308.444
2321.53	303.333
2323.46	301.111
2325.38	298.667
2327.3	313.778
2329.23	308.222
2331.15	300.667
2333.07	301.778
2334.99	303.333
2336.91	293.333
2338.83	303.111
2340.75	298.667
2342.67	300.889
2344.59	304.222
2346.51	302.667
2348.43	302.667
2350.35	295.111
2352.26	296
2354.18	300.444
2356.09	291.333
2358.01	297.111
2359.92	296.222
2361.83	296.667
2363.75	294.667
2365.66	294.222
2367.57	276.667
2369.48	295.333
2371.39	295.778
2373.31	288
2375.21	296
2377.12	284.889
2379.03	292.667
2380.94	290.444
2382.85	287.333
2384.76	292.222
2386.66	288.667
2388.57	288
2390.47	285.333
2392.38	292.444
2394.28	279.111
2396.18	290.444
2398.09	282.889
2399.99	289.333
2401.89	286.444
2403.79	279.111
2405.69	287.778
2407.59	282.444
2409.49	281.333
2411.39	283.111
2413.29	288.889
2415.19	283.333
2417.09	278.889
2418.98	276.889
2420.88	282.889
2422.78	279.556
2424.67	280.889
2426.57	282.667
2428.46	279.333
2430.35	282.889
2432.25	288.444
2434.14	279.778
2436.03	274
2437.92	276.667
2439.81	273.333
2441.7	282.667
2443.59	276.889
2445.48	278.889
2447.37	279.556
2449.26	278.667
2451.15	280.444
2453.03	273.333
