186.85	625.778
189.449	623.333
192.047	620.222
194.645	626
197.241	633.333
199.837	632.222
202.431	632.889
205.025	632
207.619	625.111
210.21	645.556
212.802	640
215.392	635.111
217.982	639.111
220.57	627.778
223.158	641.333
225.744	642.222
228.331	650.444
230.915	647.333
233.5	658.222
236.083	640.444
238.666	651.778
241.247	658.889
243.827	665.111
246.408	661.778
248.986	652.667
251.565	668.444
254.142	660.222
256.719	661.778
259.294	657.556
261.868	649.111
264.443	645.556
267.015	637.778
269.587	642.444
272.159	635.111
274.729	633.111
277.298	628
279.867	632
282.435	629.333
285.001	618.889
287.568	640.889
290.133	624.889
292.697	624.222
295.26	626
297.824	607.556
300.385	615.556
302.945	627.556
305.505	608
308.064	614
310.623	623.333
313.18	618.889
315.737	616
318.292	619.778
320.847	618.667
323.402	621.556
325.955	608
328.507	626.667
331.058	633.111
333.609	638
336.158	638.445
338.707	630.667
341.255	633.778
343.802	636.222
346.349	644
348.895	639.778
351.439	646.222
353.983	634.222
356.526	652.889
359.068	640.222
361.609	652.667
364.149	635.778
366.689	642.889
369.227	644.222
371.765	649.555
374.302	647.556
376.838	658.222
379.374	669.111
381.908	644
384.442	643.778
386.973	641.111
389.505	627.555
392.036	622
394.567	618
397.096	634.889
399.625	617.111
402.153	637.555
404.68	628
407.206	632
409.73	645.556
412.254	632.445
414.778	642
417.301	651.556
419.823	638.222
422.343	644.667
424.863	646.889
427.383	645.556
429.901	642.444
432.418	643.778
434.935	647.778
437.451	657.778
439.966	639.778
442.48	638.667
444.993	637.556
447.506	644.444
450.019	635.556
452.528	630.222
455.039	638
457.549	634.667
460.056	644.889
462.564	649.111
465.07	644.222
467.576	638.444
470.082	637.556
472.585	639.333
475.089	636.667
477.591	631.333
480.093	642.667
482.595	646.889
485.094	636.222
487.594	649.778
490.091	647.111
492.59	645.111
495.086	646
497.582	649.111
500.076	656
502.571	648.444
505.064	650.889
507.558	655.333
510.049	666
512.54	655.556
515.03	682.222
517.518	673.778
520.008	680.222
522.495	677.556
524.983	675.111
527.468	673.333
529.954	684.444
532.438	672.222
534.921	674.667
537.404	669.556
539.886	668.444
542.366	668.889
544.848	652.889
547.327	648.667
549.805	648.444
552.284	662.444
554.76	654.889
557.236	641.778
559.711	642.889
562.186	637.556
564.66	637.333
567.132	646.222
569.604	645.111
572.076	641.333
574.547	647.111
577.016	640.444
579.484	638.667
581.952	631.111
584.419	629.111
586.887	624.445
589.352	617.333
591.816	633.333
594.28	630.889
596.743	644.667
599.205	634.444
601.667	625.778
604.127	628.222
606.588	624
609.047	640.889
611.505	624.222
613.963	653.111
616.419	637.333
618.875	627.333
621.33	636.889
623.784	630.222
626.238	637.778
628.69	641.556
631.142	650.667
633.593	647.556
636.043	644.667
638.493	644.444
640.941	642.222
643.389	631.333
645.835	629.333
648.281	640.222
650.727	634.889
653.171	636.444
655.615	630
658.058	646
660.501	636.444
662.942	636.222
665.382	640.222
667.822	638.667
670.261	651.778
672.699	636.222
675.137	626.889
677.574	626.889
680.008	634.444
682.443	643.778
684.878	645.333
687.312	644.889
689.743	664.444
692.175	672.222
694.607	659.111
697.037	662.889
699.466	651.111
701.895	659.778
704.323	655.111
706.749	636.667
709.175	641.333
711.601	649.333
714.025	646
716.449	658.889
718.871	646.222
721.294	641.111
723.716	641.556
726.136	640.222
728.556	642.889
730.975	637.333
733.394	627.556
735.812	633.111
738.228	629.111
740.644	629.333
743.058	633.556
745.473	624.444
747.886	633.778
750.3	620.889
752.711	633.333
755.123	624.667
757.533	635.556
759.942	620.444
762.351	630.889
764.759	630.889
767.167	632.889
769.573	624.889
771.979	635.333
774.383	626.889
776.787	642
779.191	620.667
781.593	629.333
783.994	636
786.396	640
788.796	638.222
791.195	650.667
793.595	659.111
795.992	665.778
798.389	664.889
800.786	689.111
803.181	688.667
805.576	662.222
807.969	666.667
810.363	654.667
812.755	649.778
815.147	643.556
817.537	641.556
819.927	636.444
822.318	631.778
824.706	636.667
827.093	636.445
829.48	646.444
831.866	631.778
834.251	634.667
836.636	634.444
839.021	626
841.404	630.444
843.786	634.222
846.167	636.444
848.548	630.889
850.928	633.778
853.307	635.333
855.685	631.333
858.063	628.222
860.44	629.111
862.816	633.778
865.192	624.889
867.566	624.889
869.94	628.222
872.313	624.444
874.685	623.333
877.057	625.778
879.428	625.333
881.798	627.556
884.167	628
886.536	627.333
888.902	630.667
891.269	623.333
893.636	632.222
896.001	619.778
898.366	628
900.73	635.333
903.094	620
905.455	615.778
907.817	614.444
910.178	625.556
912.538	626.889
914.898	614.222
917.255	616
919.613	624.889
921.971	617.778
924.327	622.444
926.682	618
929.037	622.444
931.391	606.222
933.744	613.333
936.096	607.333
938.449	612.222
940.799	619.778
943.149	613.333
945.499	610.889
947.847	618.444
950.195	609.778
952.542	614.222
954.889	615.778
957.235	625.333
959.579	614
961.924	624.889
964.266	620.889
966.609	627.556
968.951	623.111
971.292	623.111
973.632	616
975.972	628.667
978.31	616.889
980.649	615.556
982.986	621.778
985.323	622.444
987.659	634
989.994	619.111
992.328	634.667
994.662	628.222
996.995	647.556
999.326	685.111
1001.66	671.556
1003.99	642.667
1006.32	628.222
1008.65	624.222
1010.98	624.667
1013.3	646.222
1015.63	627.111
1017.96	637.333
1020.28	649.333
1022.61	662.444
1024.93	658.889
1027.25	630.222
1029.58	638.222
1031.9	641.111
1034.22	638.222
1036.54	633.556
1038.86	642.667
1041.18	642.222
1043.49	650.444
1045.81	645.556
1048.13	655.111
1050.44	656
1052.76	651.778
1055.07	666.445
1057.39	675.778
1059.7	673.778
1062.01	699.111
1064.32	724
1066.63	744.444
1068.94	794.444
1071.25	840
1073.56	925.111
1075.87	992.889
1078.17	1052.67
1080.48	1105.56
1082.79	1116.89
1085.09	1081.33
1087.39	1036
1089.7	932.889
1092	840.667
1094.3	801.111
1096.6	764.889
1098.9	723.333
1101.2	700.889
1103.5	693.111
1105.8	683.333
1108.1	662.444
1110.39	669.333
1112.69	668.889
1114.98	670.222
1117.28	663.333
1119.57	675.333
1121.86	666.889
1124.16	669.333
1126.45	673.778
1128.74	658
1131.03	662.222
1133.32	673.333
1135.61	656
1137.89	647.778
1140.18	668.889
1142.47	644.222
1144.75	662
1147.04	648.445
1149.32	648.889
1151.61	654.444
1153.89	646
1156.17	645.556
1158.45	652
1160.73	638.667
1163.01	643.333
1165.29	632.889
1167.57	635.111
1169.85	626.667
1172.12	640.889
1174.4	646.444
1176.68	651.555
1178.95	662.667
1181.22	683.778
1183.5	698.667
1185.77	714.444
1188.04	695.778
1190.31	657.556
1192.58	635.111
1194.85	625.778
1197.12	621.111
1199.39	616.889
1201.66	618.222
1203.92	608.222
1206.19	623.778
1208.45	622.444
1210.72	617.556
1212.98	620.444
1215.25	608
1217.51	611.778
1219.77	608.222
1222.03	610.889
1224.29	610.667
1226.55	613.778
1228.81	621.111
1231.07	621.111
1233.33	616.667
1235.58	628.667
1237.84	628.444
1240.09	615.778
1242.35	631.556
1244.6	630.444
1246.86	625.333
1249.11	629.778
1251.36	624.222
1253.61	632
1255.86	625.556
1258.11	633.333
1260.36	632.222
1262.61	626.889
1264.86	635.556
1267.1	644.444
1269.35	641.556
1271.6	648.444
1273.84	639.333
1276.08	655.556
1278.33	655.333
1280.57	652.222
1282.81	656.889
1285.05	655.556
1287.29	658.667
1289.53	658.444
1291.77	647.111
1294.01	672
1296.25	653.111
1298.48	651.111
1300.72	661.111
1302.96	662
1305.19	642.667
1307.42	656.222
1309.66	650.222
1311.89	642.222
1314.12	661.778
1316.35	646.222
1318.58	645.111
1320.81	649.555
1323.04	642
1325.27	648.222
1327.5	639.111
1329.73	638.667
1331.95	633.333
1334.18	649.556
1336.4	638
1338.63	634
1340.85	642.667
1343.08	635.778
1345.3	644.667
1347.52	631.111
1349.74	635.111
1351.96	636.667
1354.18	639.556
1356.4	641.555
1358.61	643.556
1360.83	631.778
1363.05	640.444
1365.27	646.889
1367.48	647.556
1369.69	638.445
1371.91	639.778
1374.12	650
1376.33	654.889
1378.55	649.556
1380.76	657.111
1382.97	652.444
1385.18	647.111
1387.39	636.222
1389.59	620.667
1391.8	645.333
1394.01	629.333
1396.21	640.444
1398.42	626.444
1400.63	632.889
1402.83	625.333
1405.03	612.889
1407.24	624.667
1409.44	618.889
1411.64	633.555
1413.84	610.444
1416.04	621.556
1418.24	614.444
1420.44	625.111
1422.64	610.444
1424.83	615.556
1427.03	620.444
1429.23	605.556
1431.42	609.333
1433.62	616.889
1435.81	620.222
1438	610.222
1440.19	619.333
1442.39	604.889
1444.58	607.556
1446.77	604.889
1448.96	603.556
1451.15	606.889
1453.34	596.889
1455.52	597.333
1457.71	616
1459.9	594
1462.08	600.445
1464.27	604.444
1466.45	617.333
1468.64	596
1470.82	602.444
1473	604.444
1475.18	605.556
1477.36	608.667
1479.54	620.667
1481.72	626.889
1483.9	639.778
1486.08	632
1488.26	627.111
1490.43	606.222
1492.61	601.556
1494.78	600.444
1496.96	595.778
1499.13	598.222
1501.31	589.111
1503.48	588.667
1505.65	585.333
1507.82	589.778
1509.99	602
1512.16	593.778
1514.33	579.333
1516.5	582.222
1518.67	598.667
1520.84	592
1523	592.889
1525.17	597.111
1527.34	591.556
1529.5	588.889
1531.66	595.111
1533.83	590.889
1535.99	590.222
1538.15	610.222
1540.31	601.111
1542.47	597.778
1544.63	594.444
1546.79	619.333
1548.95	619.556
1551.11	623.556
1553.27	620.667
1555.42	629.111
1557.58	634.445
1559.73	631.333
1561.89	631.333
1564.04	648.444
1566.2	642
1568.35	666
1570.5	703.333
1572.65	724.889
1574.8	777.778
1576.95	808.444
1579.1	860.889
1581.25	920.667
1583.4	988.222
1585.55	1075.56
1587.69	1172.22
1589.84	1264
1591.99	1341.11
1594.13	1286.89
1596.27	1120.22
1598.42	976.222
1600.56	858.667
1602.7	777.111
1604.84	737.778
1606.98	712.444
1609.12	696.889
1611.26	678
1613.4	674
1615.54	674.444
1617.68	662.889
1619.81	659.333
1621.95	644.889
1624.08	645.778
1626.22	645.778
1628.35	635.111
1630.49	641.778
1632.62	655.333
1634.75	651.778
1636.88	638.667
1639.01	633.111
1641.14	633.111
1643.27	644
1645.4	647.111
1647.53	636
1649.66	648.222
1651.79	628.889
1653.91	631.111
1656.04	638.222
1658.16	640
1660.29	626.889
1662.41	635.556
1664.53	620.667
1666.66	621.111
1668.78	613.333
1670.9	611.333
1673.02	607.556
1675.14	596
1677.26	595.778
1679.38	597.555
1681.49	594.889
1683.61	581.111
1685.73	604
1687.84	592
1689.96	588.667
1692.07	582.667
1694.19	587.333
1696.3	580.444
1698.41	584.667
1700.52	587.111
1702.64	593.333
1704.75	586.444
1706.86	590
1708.97	587.778
1711.07	576
1713.18	581.556
1715.29	570.444
1717.4	569.333
1719.5	567.556
1721.61	557.333
1723.71	567.333
1725.82	563.111
1727.92	557.111
1730.02	551.556
1732.12	556.222
1734.23	551.333
1736.33	546
1738.43	538.889
1740.53	533.111
1742.63	532
1744.72	525.556
1746.82	537.778
1748.92	513.778
1751.02	528
1753.11	522.667
1755.21	537.111
1757.3	525.778
1759.4	521.333
1761.49	514.222
1763.58	512.444
1765.67	516.667
1767.76	516
1769.86	531.333
1771.95	516.667
1774.03	512.889
1776.12	504.889
1778.21	519.555
1780.3	517.555
1782.39	512.222
1784.47	512.444
1786.56	514.667
1788.64	512
1790.73	506.222
1792.81	516.667
1794.89	517.111
1796.98	515.111
1799.06	511.778
1801.14	503.556
1803.22	508.222
1805.3	515.111
1807.38	511.556
1809.46	515.556
1811.54	508.667
1813.61	508.667
1815.69	496.889
1817.77	498.444
1819.84	509.111
1821.92	504.222
1823.99	515.111
1826.06	508.444
1828.14	510.222
1830.21	509.556
1832.28	497.556
1834.35	498.667
1836.42	496.222
1838.49	490.444
1840.56	502.222
1842.63	506.667
1844.7	492.667
1846.77	494
1848.83	490.444
1850.9	498.889
1852.96	490.444
1855.03	492.667
1857.09	492.889
1859.15	487.778
1861.22	494.889
1863.28	485.111
1865.34	493.333
1867.4	488.889
1869.46	481.111
1871.52	484
1873.58	492.444
1875.64	488.667
1877.7	477.111
1879.76	482.889
1881.81	486.222
1883.87	486.222
1885.92	484.444
1887.98	479.111
1890.03	474.667
1892.09	473.556
1894.14	478.444
1896.19	489.556
1898.24	482.889
1900.29	487.556
1902.34	478.444
1904.4	483.111
1906.44	482.444
1908.49	476.444
1910.54	474.889
1912.59	478.444
1914.63	481.778
1916.68	481.556
1918.73	476.889
1920.77	480.222
1922.81	472.444
1924.86	474.889
1926.9	475.333
1928.94	473.333
1930.99	474.444
1933.03	466.889
1935.07	468.667
1937.11	479.778
1939.15	471.556
1941.19	473.778
1943.22	472
1945.26	466
1947.3	478
1949.33	457.556
1951.37	458.444
1953.4	459.111
1955.44	460
1957.47	460.889
1959.51	458
1961.54	448.889
1963.57	457.556
1965.6	463.333
1967.63	463.778
1969.66	455.111
1971.69	456.222
1973.72	460.667
1975.75	457.778
1977.78	446.667
1979.8	448.222
1981.83	452.667
1983.86	449.778
1985.88	447.778
1987.91	459.111
1989.93	456.889
1991.95	452.667
1993.98	454
1996	447.111
1998.02	460
2000.04	455.778
2002.06	450
2004.08	456.222
2006.1	450.444
2008.12	448.444
2010.14	442
2012.15	445.333
2014.17	452
2016.19	446.889
2018.2	454.222
2020.22	433.333
2022.23	460.667
2024.25	450
2026.26	453.333
2028.27	447.333
2030.28	440
2032.29	449.333
2034.3	450.444
2036.32	446.222
2038.32	444.444
2040.33	446.444
2042.34	433.556
2044.35	442
2046.36	447.111
2048.36	431.778
2050.37	445.778
2052.37	450.222
2054.38	441.111
2056.38	439.556
2058.39	434.889
2060.39	429.333
2062.39	442.667
2064.39	431.556
2066.39	430.889
2068.39	436.889
2070.39	429.556
2072.39	432.444
2074.39	432
2076.39	440.444
2078.39	437.111
2080.39	432
2082.38	425.333
2084.38	429.111
2086.37	432
2088.37	435.333
2090.36	425.556
2092.35	423.556
2094.35	426.889
2096.34	423.778
2098.33	419.333
2100.32	424.222
2102.31	424.667
2104.3	424.667
2106.29	421.778
2108.28	421.778
2110.27	425.111
2112.25	430.222
2114.24	410.222
2116.23	416.222
2118.21	422
2120.2	424.667
2122.18	416.889
2124.17	405.111
2126.15	423.778
2128.13	416
2130.11	415.333
2132.09	414.222
2134.08	422.667
2136.06	418.444
2138.04	425.778
2140.02	409.111
2141.99	408.222
2143.97	410.667
2145.95	419.778
2147.93	420.667
2149.9	405.333
2151.88	401.111
2153.85	404.222
2155.83	418.889
2157.8	415.333
2159.77	396
2161.75	406.667
2163.72	410.444
2165.69	401.556
2167.66	401.778
2169.63	408
2171.6	405.333
2173.57	406.222
2175.54	400.667
2177.51	399.556
2179.47	407.778
2181.44	398
2183.41	403.556
2185.37	399.111
2187.34	392.222
2189.3	396
2191.27	390.667
2193.23	394.444
2195.19	392
2197.15	398.889
2199.11	391.778
2201.08	398.667
2203.04	394.444
2205	394.222
2206.96	389.556
2208.91	386
2210.87	390.444
2212.83	393.556
2214.79	387.333
2216.74	390.222
2218.7	387.333
2220.65	383.111
2222.61	392.222
2224.56	393.778
2226.52	393.111
2228.47	378
2230.42	379.333
2232.37	388.444
2234.32	395.556
2236.27	390.222
2238.22	391.333
2240.17	376.889
2242.12	384.222
2244.07	374.889
2246.02	382.667
2247.97	385.556
2249.91	372
2251.86	381.778
2253.8	380.889
2255.75	382
2257.69	384.444
2259.64	376.222
2261.58	376.222
2263.52	368
2265.46	376.222
2267.4	376
2269.35	373.333
2271.29	369.333
2273.23	364.667
2275.16	379.556
2277.1	374.889
2279.04	372.667
2280.98	376.667
2282.92	372
2284.85	362.889
2286.79	363.778
2288.72	363.778
2290.66	363.778
2292.59	369.111
2294.52	370.444
2296.46	368.667
2298.39	368
2300.32	364.889
2302.25	364.222
2304.18	367.556
2306.11	357.111
2308.04	358.667
2309.97	359.111
2311.9	361.778
2313.83	364.222
2315.75	364
2317.68	364
2319.61	359.111
2321.53	351.111
2323.46	355.556
2325.38	354.889
2327.3	357.556
2329.23	361.778
2331.15	360.889
2333.07	363.111
2334.99	354.222
2336.91	359.111
2338.83	353.333
2340.75	352.444
2342.67	354.444
2344.59	346.667
2346.51	355.556
2348.43	350
2350.35	355.111
2352.26	358
2354.18	349.111
2356.09	346.889
2358.01	355.111
2359.92	344.222
2361.83	351.556
2363.75	351.111
2365.66	344.444
2367.57	343.111
2369.48	350.667
2371.39	341.111
2373.31	349.778
2375.21	339.111
2377.12	339.111
2379.03	335.333
2380.94	345.111
2382.85	336.667
2384.76	351.556
2386.66	339.333
2388.57	341.111
2390.47	336
2392.38	335.556
2394.28	330.667
2396.18	334.222
2398.09	335.778
2399.99	340
2401.89	340
2403.79	339.556
2405.69	332.889
2407.59	335.778
2409.49	328.889
2411.39	336.667
2413.29	338
2415.19	329.778
2417.09	327.556
2418.98	333.778
2420.88	324.222
2422.78	332.889
2424.67	331.111
2426.57	329.111
2428.46	327.778
2430.35	327.556
2432.25	331.778
2434.14	333.333
2436.03	328
2437.92	326.667
2439.81	324.444
2441.7	326.667
2443.59	329.556
2445.48	325.111
2447.37	327.333
2449.26	324.444
2451.15	334.222
2453.03	328.222
