186.85	452.222
189.449	457.778
192.047	456.667
194.645	456
197.241	463.778
199.837	456
202.431	450.444
205.025	465.556
207.619	474.667
210.21	457.111
212.802	461.778
215.392	468.667
217.982	470.667
220.57	464.222
223.158	461.556
225.744	468.222
228.331	462.667
230.915	462.889
233.5	467.556
236.083	468.667
238.666	472.889
241.247	475.556
243.827	478.667
246.408	486
248.986	476.889
251.565	486
254.142	477.778
256.719	480.444
259.294	492.444
261.868	469.556
264.443	478.667
267.015	486
269.587	473.778
272.159	486
274.729	464
277.298	472.889
279.867	473.111
282.435	472.444
285.001	468
287.568	481.556
290.133	470.889
292.697	479.556
295.26	473.778
297.824	478.889
300.385	478.889
302.945	471.111
305.505	472
308.064	478.222
310.623	482.444
313.18	470.222
315.737	464.222
318.292	488.667
320.847	481.778
323.402	490
325.955	483.333
328.507	495.111
331.058	496.889
333.609	504.222
336.158	489.333
338.707	501.333
341.255	492.889
343.802	501.111
346.349	515.333
348.895	503.111
351.439	511.778
353.983	511.778
356.526	507.111
359.068	506.667
361.609	507.111
364.149	504.444
366.689	495.556
369.227	508.444
371.765	495.333
374.302	502.667
376.838	507.111
379.374	511.778
381.908	530
384.442	513.111
386.973	486.889
389.505	491.333
392.036	477.333
394.567	476.444
397.096	478.222
399.625	472
402.153	469.778
404.68	486.444
407.206	485.778
409.73	487.111
412.254	488.222
414.778	489.778
417.301	490.889
419.823	491.556
422.343	493.556
424.863	489.556
427.383	488
429.901	492.889
432.418	495.333
434.935	515.778
437.451	515.556
439.966	516.889
442.48	505.556
444.993	505.778
447.506	486.222
450.019	498
452.528	490.889
455.039	500.667
457.549	499.111
460.056	501.333
462.564	499.111
465.07	500.667
467.576	498.667
470.082	493.778
472.585	495.556
475.089	494.222
477.591	497.556
480.093	497.556
482.595	491.111
485.094	499.778
487.594	496.889
490.091	500.444
492.59	504.444
495.086	499.333
497.582	501.778
500.076	506.889
502.571	509.333
505.064	512
507.558	522
510.049	530.444
512.54	532.222
515.03	528.222
517.518	546
520.008	541.333
522.495	546.667
524.983	536
527.468	537.555
529.954	523.111
532.438	536.667
534.921	531.111
537.404	531.778
539.886	522.444
542.366	519.111
544.848	517.111
547.327	525.778
549.805	512.222
552.284	504.889
554.76	508
557.236	500.222
559.711	494.667
562.186	497.778
564.66	506.667
567.132	502.444
569.604	484.889
572.076	490.222
574.547	500.667
577.016	509.111
579.484	492.444
581.952	501.778
584.419	486.889
586.887	488.444
589.352	495.778
591.816	491.111
594.28	488.889
596.743	494.889
599.205	492.889
601.667	480.889
604.127	496.667
606.588	492
609.047	488.444
611.505	497.556
613.963	498.222
616.419	488.667
618.875	494
621.33	490.444
623.784	487.556
626.238	503.111
628.69	492.889
631.142	498
633.593	504
636.043	494.222
638.493	496.444
640.941	503.333
643.389	501.333
645.835	490.889
648.281	498
650.727	500.222
653.171	501.778
655.615	498
658.058	501.778
660.501	497.333
662.942	488.222
665.382	492.444
667.822	498.444
670.261	494
672.699	495.778
675.137	483.111
677.574	497.111
680.008	498.222
682.443	499.333
684.878	506.222
687.312	509.111
689.743	514.889
692.175	522.222
694.607	521.556
697.037	534.889
699.466	522.667
701.895	524.444
704.323	514.444
706.749	516.889
709.175	502.667
711.601	506
714.025	510.444
716.449	506
718.871	516.889
721.294	506.889
723.716	498.222
726.136	494.889
728.556	504
730.975	499.111
733.394	489.111
735.812	493.778
738.228	498.444
740.644	487.778
743.058	490.889
745.473	490
747.886	490
750.3	492
752.711	488.222
755.123	499.333
757.533	486.222
759.942	487.333
762.351	488.222
764.759	489.778
767.167	488.444
769.573	500.889
771.979	496.222
774.383	489.556
776.787	490.889
779.191	498.889
781.593	500
783.994	499.111
786.396	510.889
788.796	504.222
791.195	506.222
793.595	512.889
795.992	518
798.389	529.555
800.786	533.778
803.181	540.889
805.576	541.556
807.969	523.333
810.363	512.667
812.755	508
815.147	514.444
817.537	503.778
819.927	492.889
822.318	496.444
824.706	497.556
827.093	489.778
829.48	493.111
831.866	497.333
834.251	492.889
836.636	485.556
839.021	486.222
841.404	490
843.786	492.444
846.167	497.333
848.548	489.556
850.928	491.556
853.307	490.222
855.685	492.667
858.063	480.444
860.44	499.111
862.816	492.889
865.192	490.889
867.566	486.444
869.94	485.556
872.313	486.222
874.685	501.556
877.057	483.333
879.428	486.444
881.798	487.111
884.167	489.333
886.536	494
888.902	497.111
891.269	496.222
893.636	493.778
896.001	488
898.366	490.222
900.73	500.889
903.094	498.889
905.455	496.667
907.817	482.889
910.178	479.778
912.538	491.556
914.898	483.333
917.255	481.556
919.613	478.222
921.971	487.111
924.327	481.111
926.682	490.222
929.037	476
931.391	495.111
933.744	480
936.096	482.222
938.449	471.556
940.799	474.222
943.149	470.222
945.499	479.778
947.847	483.333
950.195	479.111
952.542	482.667
954.889	480.444
957.235	484.222
959.579	488
961.924	490.667
964.266	487.111
966.609	491.333
968.951	479.111
971.292	484.222
973.632	493.111
975.972	481.556
978.31	493.333
980.649	481.556
982.986	484.667
985.323	493.556
987.659	481.333
989.994	492
992.328	488.889
994.662	483.778
996.995	492.889
999.326	493.333
1001.66	494.667
1003.99	483.778
1006.32	487.111
1008.65	479.556
1010.98	489.556
1013.3	497.111
1015.63	493.556
1017.96	496
1020.28	502.222
1022.61	495.778
1024.93	486.667
1027.25	488.222
1029.58	493.556
1031.9	499.556
1034.22	505.333
1036.54	510.667
1038.86	505.778
1041.18	509.111
1043.49	508
1045.81	504.222
1048.13	510.667
1050.44	517.333
1052.76	509.778
1055.07	527.556
1057.39	527.556
1059.7	530.222
1062.01	532.889
1064.32	553.556
1066.63	585.111
1068.94	614.667
1071.25	646.667
1073.56	712.889
1075.87	784.444
1078.17	837.333
1080.48	897.778
1082.79	907.556
1085.09	885.333
1087.39	831.778
1089.7	766
1092	690.667
1094.3	654.667
1096.6	628.667
1098.9	608
1101.2	571.111
1103.5	554.222
1105.8	533.778
1108.1	528.444
1110.39	537.111
1112.69	532.444
1114.98	527.778
1117.28	541.333
1119.57	541.111
1121.86	546.667
1124.16	546
1126.45	537.333
1128.74	529.111
1131.03	534.667
1133.32	529.111
1135.61	520.667
1137.89	520.667
1140.18	513.778
1142.47	511.778
1144.75	504.667
1147.04	497.556
1149.32	507.556
1151.61	502.444
1153.89	501.333
1156.17	506.667
1158.45	498.667
1160.73	498.667
1163.01	488.889
1165.29	501.333
1167.57	496.667
1169.85	489.778
1172.12	483.778
1174.4	503.111
1176.68	507.111
1178.95	521.556
1181.22	530.667
1183.5	545.556
1185.77	548.889
1188.04	542
1190.31	516.222
1192.58	497.778
1194.85	491.556
1197.12	467.333
1199.39	471.111
1201.66	478.667
1203.92	473.111
1206.19	480.222
1208.45	489.556
1210.72	479.556
1212.98	475.111
1215.25	472
1217.51	471.111
1219.77	468.222
1222.03	475.111
1224.29	468.222
1226.55	478.889
1228.81	473.111
1231.07	478.222
1233.33	479.778
1235.58	484
1237.84	484.444
1240.09	486
1242.35	485.333
1244.6	488.222
1246.86	488.444
1249.11	486.222
1251.36	484.444
1253.61	488.444
1255.86	484.889
1258.11	488.444
1260.36	490.667
1262.61	486.444
1264.86	483.556
1267.1	506
1269.35	488.889
1271.6	504.667
1273.84	500.222
1276.08	509.778
1278.33	499.111
1280.57	521.778
1282.81	510.222
1285.05	507.111
1287.29	507.111
1289.53	512
1291.77	519.111
1294.01	523.778
1296.25	530
1298.48	517.778
1300.72	507.778
1302.96	502
1305.19	504.222
1307.42	508.667
1309.66	515.556
1311.89	510.889
1314.12	505.556
1316.35	506.444
1318.58	518
1320.81	509.778
1323.04	513.778
1325.27	504.667
1327.5	490
1329.73	495.556
1331.95	508.444
1334.18	502
1336.4	496.444
1338.63	507.778
1340.85	510.889
1343.08	508.222
1345.3	496.222
1347.52	500
1349.74	504.444
1351.96	494.444
1354.18	498.444
1356.4	496.889
1358.61	508.667
1360.83	492.667
1363.05	505.556
1365.27	519.333
1367.48	507.333
1369.69	512.222
1371.91	504.444
1374.12	506.667
1376.33	518
1378.55	524.667
1380.76	514
1382.97	512.444
1385.18	513.111
1387.39	503.556
1389.59	504.667
1391.8	506.889
1394.01	510.444
1396.21	509.333
1398.42	496.222
1400.63	481.556
1402.83	484.889
1405.03	485.111
1407.24	478.222
1409.44	486.222
1411.64	482
1413.84	480.444
1416.04	482
1418.24	481.556
1420.44	477.111
1422.64	485.333
1424.83	469.111
1427.03	490.444
1429.23	477.778
1431.42	481.778
1433.62	485.778
1435.81	478.444
1438	470.889
1440.19	474.222
1442.39	458.222
1444.58	475.778
1446.77	471.778
1448.96	462
1451.15	467.556
1453.34	460.222
1455.52	470
1457.71	467.111
1459.9	467.778
1462.08	460.444
1464.27	466
1466.45	454.667
1468.64	472
1470.82	462.444
1473	464.667
1475.18	476.222
1477.36	472
1479.54	486.222
1481.72	494.889
1483.9	485.778
1486.08	478.889
1488.26	477.556
1490.43	469.333
1492.61	454.889
1494.78	456
1496.96	456.889
1499.13	454.222
1501.31	448.667
1503.48	450
1505.65	450.667
1507.82	448.444
1509.99	444.889
1512.16	450.889
1514.33	455.556
1516.5	448.667
1518.67	450.444
1520.84	452.222
1523	443.778
1525.17	437.111
1527.34	439.556
1529.5	444.444
1531.66	449.333
1533.83	452.889
1535.99	445.333
1538.15	455.333
1540.31	452
1542.47	466
1544.63	440
1546.79	453.778
1548.95	444.889
1551.11	459.111
1553.27	462.667
1555.42	454.889
1557.58	460.444
1559.73	460.444
1561.89	462.667
1564.04	469.111
1566.2	473.778
1568.35	482.222
1570.5	491.778
1572.65	502.444
1574.8	519.111
1576.95	547.556
1579.1	591.778
1581.25	654
1583.4	719.111
1585.55	786.667
1587.69	902
1589.84	1003.56
1591.99	1100.44
1594.13	1106.22
1596.27	1008.67
1598.42	842.889
1600.56	723.556
1602.7	642.889
1604.84	609.111
1606.98	582.889
1609.12	563.111
1611.26	556.889
1613.4	543.778
1615.54	542.222
1617.68	528.444
1619.81	528.222
1621.95	505.333
1624.08	510.889
1626.22	508.222
1628.35	509.778
1630.49	507.333
1632.62	514.222
1634.75	524.889
1636.88	518.889
1639.01	516.889
1641.14	516.667
1643.27	522.667
1645.4	512.667
1647.53	515.111
1649.66	514
1651.79	515.778
1653.91	529.556
1656.04	525.111
1658.16	525.111
1660.29	514.222
1662.41	513.333
1664.53	501.556
1666.66	497.333
1668.78	497.778
1670.9	489.778
1673.02	506.222
1675.14	488.222
1677.26	482.667
1679.38	478.222
1681.49	481.111
1683.61	480.889
1685.73	477.556
1687.84	464.667
1689.96	462.667
1692.07	476.222
1694.19	482.667
1696.3	473.556
1698.41	464.889
1700.52	472
1702.64	482.889
1704.75	461.556
1706.86	459.111
1708.97	470.889
1711.07	460
1713.18	456.667
1715.29	459.111
1717.4	457.778
1719.5	462.667
1721.61	456
1723.71	447.111
1725.82	447.556
1727.92	444.667
1730.02	446.444
1732.12	425.333
1734.23	426
1736.33	430.889
1738.43	427.111
1740.53	428.889
1742.63	423.333
1744.72	428.889
1746.82	419.333
1748.92	415.333
1751.02	405.556
1753.11	418.667
1755.21	416.222
1757.3	406.444
1759.4	413.111
1761.49	417.778
1763.58	415.333
1765.67	402
1767.76	410.222
1769.86	411.556
1771.95	407.333
1774.03	410.667
1776.12	413.556
1778.21	405.778
1780.3	405.778
1782.39	413.333
1784.47	407.778
1786.56	413.556
1788.64	413.111
1790.73	410.889
1792.81	410
1794.89	407.556
1796.98	400.444
1799.06	409.333
1801.14	399.111
1803.22	402.444
1805.3	406.444
1807.38	414.222
1809.46	404
1811.54	409.111
1813.61	411.778
1815.69	395.111
1817.77	398.444
1819.84	400.889
1821.92	399.556
1823.99	401.111
1826.06	394.667
1828.14	399.333
1830.21	398.444
1832.28	402.889
1834.35	399.333
1836.42	394.444
1838.49	399.111
1840.56	388.667
1842.63	391.333
1844.7	394.889
1846.77	389.333
1848.83	385.111
1850.9	393.556
1852.96	394
1855.03	389.111
1857.09	397.778
1859.15	388.889
1861.22	395.778
1863.28	378.444
1865.34	392
1867.4	383.778
1869.46	385.778
1871.52	390.889
1873.58	389.111
1875.64	392.667
1877.7	382.222
1879.76	387.556
1881.81	390.667
1883.87	387.556
1885.92	400.444
1887.98	391.556
1890.03	383.778
1892.09	388.444
1894.14	381.111
1896.19	386.444
1898.24	387.778
1900.29	381.333
1902.34	383.556
1904.4	377.556
1906.44	374.889
1908.49	384
1910.54	387.556
1912.59	384.222
1914.63	380.667
1916.68	382.222
1918.73	384.667
1920.77	379.778
1922.81	388.222
1924.86	380.444
1926.9	383.333
1928.94	378.222
1930.99	383.111
1933.03	382
1935.07	375.778
1937.11	374.889
1939.15	377.111
1941.19	370.222
1943.22	373.556
1945.26	369.333
1947.3	372
1949.33	372.444
1951.37	372.889
1953.4	367.333
1955.44	370
1957.47	369.556
1959.51	366
1961.54	370.444
1963.57	368.222
1965.6	362
1967.63	358.222
1969.66	360.667
1971.69	371.333
1973.72	364.667
1975.75	359.333
1977.78	362.222
1979.8	366.889
1981.83	364.889
1983.86	360.444
1985.88	367.556
1987.91	362
1989.93	363.778
1991.95	355.333
1993.98	358.667
1996	365.111
1998.02	368.667
2000.04	358.889
2002.06	366.222
2004.08	357.111
2006.1	360.444
2008.12	366.667
2010.14	354.444
2012.15	364.889
2014.17	365.778
2016.19	362.889
2018.2	352.222
2020.22	358
2022.23	353.111
2024.25	353.333
2026.26	356.444
2028.27	361.778
2030.28	361.778
2032.29	364.444
2034.3	356.889
2036.32	357.778
2038.32	352.222
2040.33	353.333
2042.34	358.667
2044.35	354.222
2046.36	346
2048.36	357.556
2050.37	352.222
2052.37	353.778
2054.38	354.667
2056.38	346.889
2058.39	351.111
2060.39	360
2062.39	353.556
2064.39	351.778
2066.39	354.222
2068.39	353.778
2070.39	353.111
2072.39	345.778
2074.39	342.667
2076.39	346.667
2078.39	350.222
2080.39	349.333
2082.38	351.111
2084.38	345.333
2086.37	340.667
2088.37	351.111
2090.36	346.889
2092.35	348
2094.35	338
2096.34	349.111
2098.33	349.333
2100.32	341.778
2102.31	340.222
2104.3	344.444
2106.29	336.444
2108.28	349.111
2110.27	341.111
2112.25	340.222
2114.24	332.667
2116.23	339.111
2118.21	354.222
2120.2	347.333
2122.18	338.889
2124.17	341.556
2126.15	339.333
2128.13	336
2130.11	339.778
2132.09	348.222
2134.08	334.222
2136.06	340.444
2138.04	342.222
2140.02	337.111
2141.99	339.333
2143.97	340.889
2145.95	331.333
2147.93	330.889
2149.9	331.556
2151.88	331.111
2153.85	336.222
2155.83	328.667
2157.8	332.889
2159.77	321.556
2161.75	330.222
2163.72	329.111
2165.69	330.889
2167.66	337.556
2169.63	330.444
2171.6	331.333
2173.57	322.889
2175.54	321.333
2177.51	325.111
2179.47	324.444
2181.44	326.444
2183.41	318.667
2185.37	316.444
2187.34	323.111
2189.3	318.889
2191.27	325.111
2193.23	324.222
2195.19	318.667
2197.15	314.444
2199.11	318.444
2201.08	320
2203.04	324.444
2205	312
2206.96	321.556
2208.91	312.889
2210.87	312.667
2212.83	317.556
2214.79	324.667
2216.74	314.667
2218.7	316.889
2220.65	312.222
2222.61	317.111
2224.56	316.444
2226.52	317.111
2228.47	314.444
2230.42	307.111
2232.37	317.111
2234.32	320
2236.27	314.667
2238.22	311.333
2240.17	310.444
2242.12	318.222
2244.07	310.889
2246.02	307.778
2247.97	311.778
2249.91	313.111
2251.86	307.556
2253.8	305.778
2255.75	317.556
2257.69	306
2259.64	312.222
2261.58	303.111
2263.52	307.333
2265.46	302
2267.4	303.111
2269.35	306.222
2271.29	299.778
2273.23	302.222
2275.16	300.667
2277.1	298.444
2279.04	308.222
2280.98	294.667
2282.92	306.667
2284.85	297.778
2286.79	299.333
2288.72	293.556
2290.66	303.111
2292.59	299.333
2294.52	296
2296.46	303.778
2298.39	293.778
2300.32	292
2302.25	298
2304.18	296
2306.11	293.556
2308.04	289.333
2309.97	286.889
2311.9	292.222
2313.83	292.889
2315.75	290.444
2317.68	294.444
2319.61	285.556
2321.53	283.778
2323.46	295.556
2325.38	291.111
2327.3	288.889
2329.23	294.222
2331.15	295.778
2333.07	292.222
2334.99	287.778
2336.91	282.667
2338.83	294
2340.75	286.444
2342.67	289.111
2344.59	280.667
2346.51	283.778
2348.43	287.556
2350.35	294.889
2352.26	284.889
2354.18	285.111
2356.09	276.667
2358.01	283.333
2359.92	280.222
2361.83	285.333
2363.75	287.333
2365.66	281.556
2367.57	279.556
2369.48	286.222
2371.39	280.667
2373.31	283.778
2375.21	277.778
2377.12	283.333
2379.03	274.444
2380.94	282.222
2382.85	276.667
2384.76	276.222
2386.66	274
2388.57	273.111
2390.47	273.778
2392.38	279.556
2394.28	280.444
2396.18	277.111
2398.09	276
2399.99	271.778
2401.89	273.778
2403.79	273.556
2405.69	273.778
2407.59	277.333
2409.49	270.889
2411.39	267.556
2413.29	274
2415.19	276.889
2417.09	270.889
2418.98	273.111
2420.88	259.778
2422.78	271.111
2424.67	278
2426.57	272.222
2428.46	270.889
2430.35	269.778
2432.25	266.444
2434.14	270.444
2436.03	271.556
2437.92	267.333
2439.81	270.667
2441.7	263.778
2443.59	266.444
2445.48	274
2447.37	268.444
2449.26	271.556
2451.15	269.333
2453.03	264.889
