186.85	514
189.449	524
192.047	526.667
194.645	525.778
197.241	530.222
199.837	523.333
202.431	530.667
205.025	526.444
207.619	526.889
210.21	520
212.802	516.889
215.392	514
217.982	525.556
220.57	523.778
223.158	538.889
225.744	534
228.331	518.444
230.915	535.111
233.5	541.333
236.083	538.667
238.666	532
241.247	541.333
243.827	546.889
246.408	548.445
248.986	536.444
251.565	546.667
254.142	540.889
256.719	545.778
259.294	532
261.868	537.333
264.443	540.444
267.015	536
269.587	530.222
272.159	538.445
274.729	536.667
277.298	543.778
279.867	544.445
282.435	546.222
285.001	537.333
287.568	538.889
290.133	547.111
292.697	540
295.26	539.111
297.824	536.222
300.385	536
302.945	535.333
305.505	533.778
308.064	537.556
310.623	547.556
313.18	533.333
315.737	542.222
318.292	546.444
320.847	535.778
323.402	550
325.955	562.667
328.507	566.889
331.058	562.667
333.609	565.778
336.158	562.444
338.707	558.444
341.255	572.222
343.802	569.556
346.349	584.222
348.895	586.889
351.439	580.222
353.983	585.556
356.526	592.667
359.068	588.889
361.609	581.111
364.149	588.444
366.689	587.333
369.227	581.333
371.765	590.889
374.302	589.556
376.838	593.111
379.374	597.556
381.908	587.778
384.442	581.333
386.973	579.556
389.505	558.889
392.036	548.444
394.567	546.667
397.096	536.222
399.625	552
402.153	552
404.68	566.222
407.206	554.222
409.73	550.889
412.254	555.556
414.778	559.556
417.301	558.667
419.823	555.556
422.343	559.111
424.863	564
427.383	564.889
429.901	561.556
432.418	578.667
434.935	593.111
437.451	584.889
439.966	578.222
442.48	579.778
444.993	570.889
447.506	561.556
450.019	563.333
452.528	567.556
455.039	565.111
457.549	589.778
460.056	576
462.564	583.778
465.07	570.444
467.576	564.222
470.082	566
472.585	569.333
475.089	563.111
477.591	572.444
480.093	564
482.595	572.889
485.094	571.333
487.594	572.889
490.091	572.667
492.59	563.778
495.086	575.111
497.582	568.444
500.076	574.444
502.571	576.222
505.064	576.444
507.558	596.667
510.049	588
512.54	600.667
515.03	606.889
517.518	619.778
520.008	623.778
522.495	623.333
524.983	624.667
527.468	609.111
529.954	608.222
532.438	600
534.921	609.333
537.404	603.111
539.886	585.556
542.366	586.889
544.848	588
547.327	577.556
549.805	577.111
552.284	571.778
554.76	568.667
557.236	577.333
559.711	578.667
562.186	561.556
564.66	573.778
567.132	576.667
569.604	582.222
572.076	575.778
574.547	572
577.016	567.333
579.484	562.222
581.952	562.889
584.419	569.556
586.887	566.667
589.352	568.889
591.816	572.444
594.28	563.111
596.743	561.111
599.205	569.333
601.667	551.556
604.127	561.556
606.588	559.778
609.047	578.222
611.505	568
613.963	562.222
616.419	565.778
618.875	567.778
621.33	578.222
623.784	566.889
626.238	564.444
628.69	568.222
631.142	572.222
633.593	576.444
636.043	575.111
638.493	557.555
640.941	567.333
643.389	566.889
645.835	567.111
648.281	566
650.727	576
653.171	565.111
655.615	577.111
658.058	568.444
660.501	554.667
662.942	561.333
665.382	564.222
667.822	568.222
670.261	570.889
672.699	560
675.137	568.444
677.574	566.889
680.008	576.444
682.443	575.778
684.878	560.444
687.312	569.778
689.743	579.556
692.175	595.111
694.607	593.333
697.037	594
699.466	587.111
701.895	581.556
704.323	589.333
706.749	588.667
709.175	582.445
711.601	579.333
714.025	591.111
716.449	583.333
718.871	583.778
721.294	570.667
723.716	566.889
726.136	560.444
728.556	559.111
730.975	552.889
733.394	552.667
735.812	562.222
738.228	564.667
740.644	570.667
743.058	558.222
745.473	561.111
747.886	558
750.3	552.889
752.711	562.667
755.123	555.778
757.533	556.667
759.942	553.111
762.351	562
764.759	564.222
767.167	569.778
769.573	568.667
771.979	553.111
774.383	555.333
776.787	560.444
779.191	565.333
781.593	566.444
783.994	568.667
786.396	570.222
788.796	573.556
791.195	581.111
793.595	579.556
795.992	577.556
798.389	594.444
800.786	610.444
803.181	609.556
805.576	602.444
807.969	592.889
810.363	590.667
812.755	576.889
815.147	570.222
817.537	577.556
819.927	571.333
822.318	563.111
824.706	572
827.093	572.444
829.48	566.222
831.866	580.889
834.251	560.222
836.636	560.889
839.021	558.444
841.404	564
843.786	559.333
846.167	561.778
848.548	566.222
850.928	554.667
853.307	570.889
855.685	555.333
858.063	555.778
860.44	557.556
862.816	572
865.192	560.889
867.566	560.667
869.94	550.889
872.313	556.889
874.685	567.778
877.057	555.778
879.428	550.667
881.798	564.444
884.167	563.556
886.536	571.111
888.902	563.556
891.269	559.333
893.636	565.556
896.001	563.556
898.366	566.667
900.73	571.333
903.094	555.111
905.455	556.889
907.817	560.444
910.178	557.556
912.538	561.333
914.898	564
917.255	544.222
919.613	554.889
921.971	549.333
924.327	551.333
926.682	550.889
929.037	548.222
931.391	555.778
933.744	552.445
936.096	545.556
938.449	552.444
940.799	542.444
943.149	532.889
945.499	555.778
947.847	561.111
950.195	549.556
952.542	546.444
954.889	558.222
957.235	566.222
959.579	561.555
961.924	562
964.266	556
966.609	557.555
968.951	550.667
971.292	565.778
973.632	554.444
975.972	556.444
978.31	558.889
980.649	552.889
982.986	548.667
985.323	559.111
987.659	553.556
989.994	556.222
992.328	548
994.662	562.667
996.995	569.556
999.326	552.444
1001.66	558
1003.99	558.889
1006.32	554.444
1008.65	563.778
1010.98	561.556
1013.3	572.444
1015.63	574.222
1017.96	560.667
1020.28	557.333
1022.61	563.111
1024.93	561.333
1027.25	561.778
1029.58	552.444
1031.9	559.556
1034.22	575.556
1036.54	581.333
1038.86	559.556
1041.18	567.778
1043.49	587.111
1045.81	575.111
1048.13	585.111
1050.44	582.889
1052.76	590
1055.07	593.778
1057.39	608.222
1059.7	612
1062.01	632.444
1064.32	642.444
1066.63	662.667
1068.94	706.222
1071.25	755.333
1073.56	822
1075.87	865.333
1078.17	920.667
1080.48	960
1082.79	977.333
1085.09	945.111
1087.39	894.222
1089.7	818.444
1092	759.333
1094.3	732
1096.6	720
1098.9	680.444
1101.2	650
1103.5	624.889
1105.8	617.556
1108.1	600.444
1110.39	598
1112.69	604.667
1114.98	609.556
1117.28	607.778
1119.57	608.889
1121.86	621.556
1124.16	612
1126.45	616.667
1128.74	612.222
1131.03	607.333
1133.32	604
1135.61	602.222
1137.89	592.889
1140.18	575.556
1142.47	574
1144.75	577.333
1147.04	576.222
1149.32	579.333
1151.61	573.778
1153.89	588.222
1156.17	580.889
1158.45	568.889
1160.73	560.222
1163.01	558.889
1165.29	562.444
1167.57	566.222
1169.85	568
1172.12	559.333
1174.4	568
1176.68	573.556
1178.95	594.667
1181.22	592.667
1183.5	616.889
1185.77	607.778
1188.04	606.667
1190.31	570.667
1192.58	548.667
1194.85	551.556
1197.12	537.778
1199.39	543.333
1201.66	541.556
1203.92	540
1206.19	521.111
1208.45	550.667
1210.72	545.778
1212.98	533.778
1215.25	542.889
1217.51	532.444
1219.77	540.222
1222.03	538.889
1224.29	543.778
1226.55	529.556
1228.81	542.889
1231.07	539.556
1233.33	539.333
1235.58	553.778
1237.84	548.667
1240.09	552.444
1242.35	551.111
1244.6	550.444
1246.86	545.333
1249.11	552
1251.36	558.222
1253.61	557.333
1255.86	545.778
1258.11	550
1260.36	555.333
1262.61	559.333
1264.86	563.778
1267.1	549.556
1269.35	560
1271.6	576
1273.84	563.111
1276.08	565.556
1278.33	564.222
1280.57	563.333
1282.81	574.667
1285.05	574.222
1287.29	579.333
1289.53	571.111
1291.77	573.778
1294.01	581.111
1296.25	588.889
1298.48	570.889
1300.72	569.778
1302.96	565.778
1305.19	558.667
1307.42	569.111
1309.66	579.778
1311.89	568.444
1314.12	574.444
1316.35	572.444
1318.58	579.333
1320.81	584.222
1323.04	562.222
1325.27	557.778
1327.5	572.667
1329.73	571.333
1331.95	576.444
1334.18	575.778
1336.4	582.667
1338.63	576.889
1340.85	589.333
1343.08	587.333
1345.3	587.333
1347.52	581.778
1349.74	590.889
1351.96	580.444
1354.18	590
1356.4	585.111
1358.61	587.778
1360.83	595.111
1363.05	595.111
1365.27	589.333
1367.48	593.778
1369.69	594.667
1371.91	588.667
1374.12	589.778
1376.33	603.556
1378.55	602.222
1380.76	602.222
1382.97	594.667
1385.18	589.778
1387.39	574.889
1389.59	570.444
1391.8	572.889
1394.01	562
1396.21	566
1398.42	554.222
1400.63	556.222
1402.83	544.667
1405.03	546.889
1407.24	552.889
1409.44	550
1411.64	548.667
1413.84	536.222
1416.04	540.667
1418.24	548
1420.44	541.333
1422.64	538.667
1424.83	550.889
1427.03	537.111
1429.23	538.889
1431.42	534.444
1433.62	538.222
1435.81	536
1438	534.222
1440.19	540.444
1442.39	534
1444.58	538.222
1446.77	535.333
1448.96	537.333
1451.15	530.444
1453.34	529.111
1455.52	525.778
1457.71	536.444
1459.9	530.667
1462.08	537.778
1464.27	528.222
1466.45	538
1468.64	528.889
1470.82	542.667
1473	549.556
1475.18	540
1477.36	559.111
1479.54	549.778
1481.72	548.667
1483.9	555.778
1486.08	549.333
1488.26	535.778
1490.43	534.444
1492.61	517.778
1494.78	518.889
1496.96	517.556
1499.13	516.445
1501.31	512
1503.48	514.222
1505.65	518.889
1507.82	515.333
1509.99	512.222
1512.16	506.667
1514.33	515.333
1516.5	505.556
1518.67	512.667
1520.84	517.333
1523	522.444
1525.17	513.111
1527.34	514.444
1529.5	506.889
1531.66	504.444
1533.83	523.778
1535.99	509.111
1538.15	514.889
1540.31	524.444
1542.47	514.444
1544.63	516.667
1546.79	524.889
1548.95	518.444
1551.11	525.556
1553.27	513.333
1555.42	511.556
1557.58	518.444
1559.73	530.889
1561.89	528.889
1564.04	522.667
1566.2	535.333
1568.35	542.889
1570.5	562.444
1572.65	575.778
1574.8	627.333
1576.95	660.889
1579.1	703.556
1581.25	763.111
1583.4	838.667
1585.55	907.778
1587.69	963.556
1589.84	1039.33
1591.99	1087.56
1594.13	1083.33
1596.27	987.778
1598.42	841.778
1600.56	739.111
1602.7	673.778
1604.84	646
1606.98	622.889
1609.12	604.444
1611.26	600.889
1613.4	601.556
1615.54	578.222
1617.68	587.111
1619.81	578
1621.95	565.333
1624.08	568.667
1626.22	563.778
1628.35	556.444
1630.49	562.222
1632.62	564.444
1634.75	561.333
1636.88	566.222
1639.01	565.556
1641.14	560.444
1643.27	558.667
1645.4	569.333
1647.53	554
1649.66	572.889
1651.79	567.555
1653.91	569.333
1656.04	564.667
1658.16	563.556
1660.29	566.222
1662.41	556
1664.53	551.333
1666.66	541.556
1668.78	544.222
1670.9	536.222
1673.02	533.333
1675.14	534.444
1677.26	533.778
1679.38	531.778
1681.49	536
1683.61	521.111
1685.73	526.667
1687.84	528.667
1689.96	526.889
1692.07	521.333
1694.19	525.333
1696.3	521.556
1698.41	529.778
1700.52	528
1702.64	532.889
1704.75	521.778
1706.86	513.333
1708.97	522.667
1711.07	515.333
1713.18	510.222
1715.29	522.444
1717.4	514.667
1719.5	507.111
1721.61	494.444
1723.71	502.889
1725.82	498.889
1727.92	494
1730.02	493.556
1732.12	492.444
1734.23	492.889
1736.33	484.667
1738.43	484
1740.53	471.111
1742.63	470.667
1744.72	474
1746.82	462.889
1748.92	472.667
1751.02	469.778
1753.11	463.778
1755.21	471.333
1757.3	482.222
1759.4	467.778
1761.49	469.333
1763.58	469.778
1765.67	479.556
1767.76	470.889
1769.86	465.111
1771.95	462.889
1774.03	467.556
1776.12	462
1778.21	466.222
1780.3	466.444
1782.39	477.111
1784.47	466.667
1786.56	465.333
1788.64	467.556
1790.73	464.667
1792.81	467.778
1794.89	465.111
1796.98	459.778
1799.06	459.556
1801.14	456.444
1803.22	468.222
1805.3	460.667
1807.38	466.222
1809.46	466.222
1811.54	465.333
1813.61	460.889
1815.69	457.111
1817.77	464.667
1819.84	453.111
1821.92	452
1823.99	459.778
1826.06	454.222
1828.14	459.778
1830.21	458.444
1832.28	450.444
1834.35	452.667
1836.42	457.333
1838.49	455.111
1840.56	456.444
1842.63	443.111
1844.7	455.333
1846.77	446.222
1848.83	446.889
1850.9	442.444
1852.96	449.556
1855.03	451.556
1857.09	444
1859.15	447.333
1861.22	445.111
1863.28	445.778
1865.34	450
1867.4	445.778
1869.46	441.111
1871.52	439.111
1873.58	446.444
1875.64	444.444
1877.7	442.222
1879.76	445.111
1881.81	440.222
1883.87	435.778
1885.92	435.333
1887.98	441.333
1890.03	443.778
1892.09	439.556
1894.14	442.444
1896.19	435.111
1898.24	431.778
1900.29	438.444
1902.34	444
1904.4	443.333
1906.44	442.222
1908.49	442.222
1910.54	435.556
1912.59	441.333
1914.63	439.333
1916.68	431.333
1918.73	438
1920.77	430.889
1922.81	437.778
1924.86	435.556
1926.9	436.667
1928.94	436.889
1930.99	431.556
1933.03	428.667
1935.07	419.556
1937.11	428
1939.15	431.333
1941.19	435.778
1943.22	428.667
1945.26	432.222
1947.3	431.111
1949.33	424.667
1951.37	424.889
1953.4	425.556
1955.44	429.111
1957.47	417.556
1959.51	426.889
1961.54	418.222
1963.57	418.889
1965.6	416.444
1967.63	426.444
1969.66	413.556
1971.69	420.444
1973.72	415.778
1975.75	420.667
1977.78	420.222
1979.8	418.444
1981.83	417.111
1983.86	421.556
1985.88	416
1987.91	411.333
1989.93	412.222
1991.95	418.444
1993.98	400.889
1996	406.444
1998.02	408.222
2000.04	408.889
2002.06	416.667
2004.08	409.111
2006.1	410
2008.12	397.556
2010.14	412.889
2012.15	408.889
2014.17	405.111
2016.19	405.778
2018.2	414.667
2020.22	407.333
2022.23	394.667
2024.25	411.333
2026.26	405.556
2028.27	397.778
2030.28	406.667
2032.29	410
2034.3	400.444
2036.32	408.444
2038.32	396.222
2040.33	410.222
2042.34	402.222
2044.35	406.667
2046.36	399.333
2048.36	407.111
2050.37	408.889
2052.37	406.444
2054.38	408
2056.38	407.556
2058.39	400.222
2060.39	409.556
2062.39	395.778
2064.39	398.889
2066.39	398.222
2068.39	402.889
2070.39	400.222
2072.39	396.667
2074.39	396.444
2076.39	394.667
2078.39	402.667
2080.39	400.222
2082.38	386.222
2084.38	401.333
2086.37	392.667
2088.37	385.556
2090.36	389.778
2092.35	389.333
2094.35	382.667
2096.34	404.667
2098.33	392
2100.32	393.778
2102.31	392.444
2104.3	381.333
2106.29	387.333
2108.28	388.667
2110.27	382.444
2112.25	385.778
2114.24	383.556
2116.23	382.444
2118.21	379.778
2120.2	380.889
2122.18	384.889
2124.17	385.333
2126.15	386.222
2128.13	376.889
2130.11	383.333
2132.09	384.889
2134.08	392.222
2136.06	384.667
2138.04	380.667
2140.02	388
2141.99	385.111
2143.97	374.667
2145.95	377.111
2147.93	382.222
2149.9	380
2151.88	387.556
2153.85	382
2155.83	382
2157.8	362.889
2159.77	377.333
2161.75	376.667
2163.72	382
2165.69	385.778
2167.66	371.778
2169.63	372.667
2171.6	368.444
2173.57	361.333
2175.54	369.778
2177.51	364.222
2179.47	369.556
2181.44	364.667
2183.41	370.889
2185.37	361.111
2187.34	367.111
2189.3	361.333
2191.27	368.889
2193.23	364.889
2195.19	368
2197.15	368.889
2199.11	361.556
2201.08	351.333
2203.04	361.778
2205	361.333
2206.96	362.889
2208.91	357.333
2210.87	371.778
2212.83	367.111
2214.79	358.444
2216.74	360
2218.7	355.778
2220.65	361.111
2222.61	360.667
2224.56	363.778
2226.52	351.778
2228.47	360.667
2230.42	352
2232.37	356.222
2234.32	358.222
2236.27	360.444
2238.22	348.889
2240.17	347.333
2242.12	346.889
2244.07	350
2246.02	352.889
2247.97	352.667
2249.91	354.444
2251.86	350
2253.8	350.889
2255.75	352
2257.69	342.667
2259.64	344.222
2261.58	349.556
2263.52	339.778
2265.46	348
2267.4	345.778
2269.35	352.667
2271.29	348.222
2273.23	347.556
2275.16	344.222
2277.1	340.889
2279.04	341.111
2280.98	339.333
2282.92	340
2284.85	340
2286.79	338.444
2288.72	337.778
2290.66	340.889
2292.59	342.222
2294.52	334.667
2296.46	334.667
2298.39	337.778
2300.32	335.778
2302.25	336.667
2304.18	335.111
2306.11	339.778
2308.04	336.222
2309.97	335.556
2311.9	334.889
2313.83	337.778
2315.75	329.556
2317.68	327.333
2319.61	336.667
2321.53	333.556
2323.46	325.333
2325.38	330.444
2327.3	331.111
2329.23	332.889
2331.15	330.889
2333.07	328.889
2334.99	322.889
2336.91	328.889
2338.83	328
2340.75	323.556
2342.67	321.556
2344.59	324.444
2346.51	316.222
2348.43	325.333
2350.35	325.333
2352.26	322.444
2354.18	322.444
2356.09	324.444
2358.01	316.222
2359.92	322.222
2361.83	326.222
2363.75	322.222
2365.66	322.222
2367.57	323.778
2369.48	321.111
2371.39	319.556
2373.31	315.333
2375.21	320.667
2377.12	316.667
2379.03	309.556
2380.94	314.667
2382.85	316
2384.76	313.333
2386.66	318
2388.57	323.778
2390.47	309.111
2392.38	314.889
2394.28	299.333
2396.18	317.333
2398.09	308.667
2399.99	309.778
2401.89	311.111
2403.79	307.556
2405.69	310
2407.59	306.889
2409.49	312.889
2411.39	310.222
2413.29	311.333
2415.19	311.556
2417.09	307.333
2418.98	306.889
2420.88	308.667
2422.78	303.778
2424.67	299.333
2426.57	310.667
2428.46	309.556
2430.35	309.333
2432.25	300.222
2434.14	305.556
2436.03	301.556
2437.92	306.889
2439.81	307.556
2441.7	312
2443.59	310.444
2445.48	301.111
2447.37	303.333
2449.26	303.556
2451.15	306.889
2453.03	302
