186.85	451.333
189.449	461.778
192.047	456.222
194.645	456.889
197.241	462.444
199.837	454.222
202.431	464.889
205.025	451.333
207.619	453.556
210.21	462.667
212.802	456.889
215.392	464.444
217.982	458
220.57	466.222
223.158	471.111
225.744	456.667
228.331	474
230.915	477.111
233.5	471.778
236.083	470.667
238.666	472.667
241.247	480.444
243.827	470.667
246.408	482
248.986	481.778
251.565	480
254.142	483.556
256.719	479.333
259.294	476.444
261.868	478.222
264.443	480.222
267.015	476
269.587	475.556
272.159	474.444
274.729	480.444
277.298	476
279.867	474.444
282.435	476.222
285.001	477.333
287.568	474.222
290.133	475.333
292.697	470.222
295.26	469.333
297.824	476.667
300.385	485.778
302.945	481.333
305.505	480.222
308.064	477.333
310.623	475.333
313.18	465.556
315.737	484.889
318.292	473.556
320.847	497.556
323.402	490.444
325.955	482.444
328.507	487.333
331.058	492.667
333.609	501.556
336.158	497.333
338.707	488.222
341.255	500.667
343.802	492.444
346.349	508
348.895	500.222
351.439	500.667
353.983	504.222
356.526	509.778
359.068	493.778
361.609	503.333
364.149	499.556
366.689	512
369.227	494.667
371.765	490
374.302	498.222
376.838	507.111
379.374	522.222
381.908	514.222
384.442	513.556
386.973	500.444
389.505	496
392.036	489.778
394.567	479.556
397.096	486.444
399.625	477.556
402.153	485.556
404.68	497.556
407.206	487.556
409.73	505.111
412.254	499.333
414.778	494.667
417.301	504.667
419.823	507.556
422.343	485.111
424.863	499.778
427.383	511.778
429.901	512.222
432.418	507.111
434.935	518
437.451	520.667
439.966	509.556
442.48	508.889
444.993	510.222
447.506	517.556
450.019	509.333
452.528	502
455.039	510
457.549	508.667
460.056	516.222
462.564	510
465.07	497.111
467.576	503.333
470.082	507.556
472.585	496.222
475.089	500.222
477.591	509.111
480.093	510.222
482.595	505.556
485.094	505.111
487.594	508.667
490.091	510.222
492.59	504.222
495.086	514
497.582	514.444
500.076	512.889
502.571	527.111
505.064	519.333
507.558	521.778
510.049	526.444
512.54	520.444
515.03	528
517.518	540.667
520.008	542
522.495	529.778
524.983	529.555
527.468	527.111
529.954	535.556
532.438	539.111
534.921	534.667
537.404	532.444
539.886	524
542.366	520
544.848	530
547.327	513.333
549.805	522.444
552.284	507.111
554.76	511.333
557.236	517.111
559.711	509.111
562.186	509.333
564.66	506.889
567.132	509.333
569.604	503.778
572.076	516
574.547	507.556
577.016	513.111
579.484	511.778
581.952	507.333
584.419	510
586.887	511.556
589.352	511.111
591.816	505.778
594.28	504
596.743	508.444
599.205	502.667
601.667	513.111
604.127	504.222
606.588	508
609.047	511.111
611.505	511.333
613.963	510.444
616.419	507.556
618.875	523.111
621.33	508
623.784	513.333
626.238	517.111
628.69	508.889
631.142	515.556
633.593	518.222
636.043	514.222
638.493	516
640.941	513.556
643.389	511.778
645.835	511.333
648.281	512.667
650.727	509.556
653.171	502.444
655.615	511.778
658.058	523.333
660.501	498.222
662.942	509.556
665.382	505.556
667.822	508.222
670.261	509.333
672.699	508.667
675.137	507.556
677.574	506.667
680.008	516.222
682.443	509.556
684.878	516
687.312	520.444
689.743	522.222
692.175	515.778
694.607	523.778
697.037	532.889
699.466	527.778
701.895	524.444
704.323	520.444
706.749	518.444
709.175	523.111
711.601	510
714.025	516.444
716.449	511.333
718.871	510.444
721.294	515.111
723.716	508.222
726.136	502
728.556	502.889
730.975	511.778
733.394	505.333
735.812	505.778
738.228	512.222
740.644	500.667
743.058	503.556
745.473	496.222
747.886	501.111
750.3	504
752.711	497.333
755.123	504.444
757.533	508.222
759.942	516.889
762.351	507.778
764.759	502.667
767.167	500.667
769.573	501.778
771.979	503.556
774.383	509.111
776.787	500.667
779.191	512
781.593	507.333
783.994	510.444
786.396	512.889
788.796	516.889
791.195	517.778
793.595	530
795.992	522.889
798.389	530.667
800.786	534.222
803.181	532.444
805.576	540.444
807.969	527.556
810.363	520
812.755	529.556
815.147	517.556
817.537	515.778
819.927	498.222
822.318	513.556
824.706	498.889
827.093	503.333
829.48	516.222
831.866	504
834.251	506.222
836.636	503.556
839.021	499.111
841.404	507.778
843.786	501.333
846.167	498.444
848.548	512.222
850.928	505.111
853.307	499.778
855.685	501.778
858.063	496.444
860.44	510.444
862.816	495.333
865.192	496.222
867.566	498
869.94	504.889
872.313	488.444
874.685	499.778
877.057	496.667
879.428	502.667
881.798	502.889
884.167	494.222
886.536	503.333
888.902	504.222
891.269	502.444
893.636	492.444
896.001	505.778
898.366	504.889
900.73	495.556
903.094	501.556
905.455	504.222
907.817	494.889
910.178	495.111
912.538	490.889
914.898	489.111
917.255	501.333
919.613	496.222
921.971	490.667
924.327	499.556
926.682	488.889
929.037	488
931.391	478.667
933.744	486.222
936.096	486
938.449	492.444
940.799	487.556
943.149	489.556
945.499	495.111
947.847	488
950.195	494
952.542	496.222
954.889	486.667
957.235	492.222
959.579	490.667
961.924	494.667
964.266	493.778
966.609	494.667
968.951	494.444
971.292	493.556
973.632	497.333
975.972	502.667
978.31	493.778
980.649	487.778
982.986	486.889
985.323	489.111
987.659	490.222
989.994	496.222
992.328	502.222
994.662	492.444
996.995	503.111
999.326	493.333
1001.66	490
1003.99	499.556
1006.32	492.667
1008.65	492.222
1010.98	496.667
1013.3	498.222
1015.63	502.222
1017.96	492.444
1020.28	497.556
1022.61	498.444
1024.93	496
1027.25	488.667
1029.58	490.444
1031.9	494.667
1034.22	507.333
1036.54	503.778
1038.86	501.778
1041.18	496.889
1043.49	507.111
1045.81	502.667
1048.13	510.222
1050.44	513.111
1052.76	505.556
1055.07	514
1057.39	520.444
1059.7	528
1062.01	523.333
1064.32	527.556
1066.63	539.556
1068.94	545.556
1071.25	593.556
1073.56	635.333
1075.87	662.444
1078.17	710.444
1080.48	730.667
1082.79	760
1085.09	749.778
1087.39	716.444
1089.7	676.889
1092	633.778
1094.3	606
1096.6	590
1098.9	563.556
1101.2	550.889
1103.5	530.222
1105.8	527.556
1108.1	521.111
1110.39	520.667
1112.69	524.667
1114.98	525.333
1117.28	529.778
1119.57	539.556
1121.86	530.667
1124.16	519.333
1126.45	527.556
1128.74	514.889
1131.03	506.444
1133.32	513.556
1135.61	508
1137.89	497.333
1140.18	499.556
1142.47	498.444
1144.75	502.444
1147.04	507.556
1149.32	497.111
1151.61	505.111
1153.89	502.667
1156.17	504.667
1158.45	501.111
1160.73	504
1163.01	494.667
1165.29	490.667
1167.57	495.333
1169.85	501.111
1172.12	498.889
1174.4	488.444
1176.68	500.667
1178.95	493.556
1181.22	508.444
1183.5	530.889
1185.77	530
1188.04	528.889
1190.31	507.778
1192.58	484.667
1194.85	480.889
1197.12	480.222
1199.39	474.222
1201.66	477.333
1203.92	487.556
1206.19	476.222
1208.45	476.667
1210.72	473.111
1212.98	476.444
1215.25	481.333
1217.51	482.889
1219.77	472
1222.03	474
1224.29	477.778
1226.55	493.333
1228.81	475.556
1231.07	478.889
1233.33	485.778
1235.58	496.222
1237.84	482.444
1240.09	480.222
1242.35	496.889
1244.6	477.556
1246.86	489.333
1249.11	484.889
1251.36	484.222
1253.61	483.556
1255.86	494.667
1258.11	493.111
1260.36	489.778
1262.61	489.556
1264.86	492.667
1267.1	481.778
1269.35	486
1271.6	499.778
1273.84	489.778
1276.08	500.889
1278.33	504.222
1280.57	503.111
1282.81	495.778
1285.05	503.111
1287.29	499.333
1289.53	500.667
1291.77	503.556
1294.01	504
1296.25	506
1298.48	508
1300.72	499.111
1302.96	491.778
1305.19	497.778
1307.42	506.444
1309.66	502.889
1311.89	500.667
1314.12	501.778
1316.35	502.222
1318.58	503.333
1320.81	505.111
1323.04	506.444
1325.27	509.333
1327.5	497.778
1329.73	494.889
1331.95	494.444
1334.18	490.444
1336.4	495.556
1338.63	499.111
1340.85	488
1343.08	490.444
1345.3	496.222
1347.52	496.444
1349.74	496.889
1351.96	490.889
1354.18	492.667
1356.4	488.889
1358.61	502
1360.83	489.111
1363.05	493.111
1365.27	493.111
1367.48	492.444
1369.69	498
1371.91	500.889
1374.12	494.222
1376.33	506.444
1378.55	505.333
1380.76	509.333
1382.97	503.333
1385.18	502.444
1387.39	493.111
1389.59	495.556
1391.8	483.556
1394.01	481.556
1396.21	485.111
1398.42	490.889
1400.63	471.778
1402.83	481.111
1405.03	483.111
1407.24	486.667
1409.44	481.778
1411.64	485.778
1413.84	482.889
1416.04	478
1418.24	479.111
1420.44	480.889
1422.64	465.556
1424.83	472.444
1427.03	472
1429.23	480.222
1431.42	468.889
1433.62	476
1435.81	474.667
1438	464
1440.19	478.222
1442.39	470.889
1444.58	479.111
1446.77	467.333
1448.96	468.222
1451.15	472.889
1453.34	467.778
1455.52	470
1457.71	464
1459.9	468.444
1462.08	466.667
1464.27	454.222
1466.45	458.667
1468.64	463.111
1470.82	467.778
1473	465.556
1475.18	465.333
1477.36	469.111
1479.54	480.667
1481.72	476.444
1483.9	479.556
1486.08	476
1488.26	467.333
1490.43	462.889
1492.61	453.333
1494.78	454.444
1496.96	457.556
1499.13	454.667
1501.31	462.889
1503.48	452.667
1505.65	448.889
1507.82	447.333
1509.99	453.778
1512.16	454
1514.33	446.667
1516.5	451.111
1518.67	439.556
1520.84	453.333
1523	451.111
1525.17	453.111
1527.34	449.111
1529.5	447.778
1531.66	449.556
1533.83	444
1535.99	448.444
1538.15	446.222
1540.31	453.111
1542.47	447.556
1544.63	457.778
1546.79	450
1548.95	449.778
1551.11	449.111
1553.27	457.111
1555.42	462.667
1557.58	456.667
1559.73	465.778
1561.89	458
1564.04	458.667
1566.2	454.444
1568.35	467.333
1570.5	474.222
1572.65	494.889
1574.8	485.333
1576.95	503.556
1579.1	531.333
1581.25	569.778
1583.4	618.444
1585.55	664
1587.69	733.555
1589.84	808.889
1591.99	893.333
1594.13	881.778
1596.27	806.667
1598.42	694.889
1600.56	624.667
1602.7	576.444
1604.84	545.778
1606.98	530.667
1609.12	523.111
1611.26	506.222
1613.4	512.667
1615.54	498.222
1617.68	495.556
1619.81	491.333
1621.95	489.556
1624.08	489.111
1626.22	488
1628.35	487.111
1630.49	490
1632.62	488.889
1634.75	492.444
1636.88	490
1639.01	487.333
1641.14	494.667
1643.27	482.222
1645.4	490.667
1647.53	492
1649.66	485.778
1651.79	484.667
1653.91	492
1656.04	486.222
1658.16	489.333
1660.29	476.889
1662.41	487.111
1664.53	476.667
1666.66	482.889
1668.78	468.667
1670.9	477.111
1673.02	470.222
1675.14	459.111
1677.26	474.889
1679.38	459.333
1681.49	466.889
1683.61	453.111
1685.73	476
1687.84	462.889
1689.96	450.222
1692.07	457.556
1694.19	462
1696.3	464.222
1698.41	454.222
1700.52	465.111
1702.64	445.556
1704.75	450.889
1706.86	451.778
1708.97	456.222
1711.07	446.667
1713.18	450.889
1715.29	449.333
1717.4	444.889
1719.5	446.889
1721.61	451.111
1723.71	438.889
1725.82	443.556
1727.92	434.667
1730.02	431.111
1732.12	431.111
1734.23	433.111
1736.33	426
1738.43	417.556
1740.53	420.444
1742.63	417.778
1744.72	427.333
1746.82	420.889
1748.92	410
1751.02	418.222
1753.11	403.778
1755.21	415.778
1757.3	410.667
1759.4	408.444
1761.49	414
1763.58	408.889
1765.67	408
1767.76	409.333
1769.86	407.778
1771.95	406.444
1774.03	408.667
1776.12	413.333
1778.21	403.333
1780.3	404.222
1782.39	408
1784.47	404.222
1786.56	403.333
1788.64	402.222
1790.73	412.889
1792.81	406.444
1794.89	410
1796.98	408
1799.06	410.444
1801.14	409.111
1803.22	404
1805.3	411.333
1807.38	403.333
1809.46	400.222
1811.54	406.444
1813.61	401.111
1815.69	410.222
1817.77	398.444
1819.84	397.333
1821.92	402.444
1823.99	410
1826.06	407.333
1828.14	399.778
1830.21	396.667
1832.28	405.333
1834.35	409.111
1836.42	398.444
1838.49	397.333
1840.56	396.667
1842.63	390
1844.7	403.111
1846.77	405.556
1848.83	390.889
1850.9	404.667
1852.96	387.556
1855.03	389.556
1857.09	394
1859.15	392
1861.22	394.889
1863.28	385.778
1865.34	389.556
1867.4	393.778
1869.46	382.222
1871.52	391.556
1873.58	398
1875.64	389.778
1877.7	388.667
1879.76	381.333
1881.81	391.778
1883.87	385.556
1885.92	375.778
1887.98	379.333
1890.03	382.444
1892.09	384.889
1894.14	382
1896.19	383.111
1898.24	380.222
1900.29	391.778
1902.34	392.444
1904.4	375.556
1906.44	389.333
1908.49	382
1910.54	386
1912.59	382
1914.63	380.889
1916.68	386
1918.73	382.444
1920.77	385.333
1922.81	385.333
1924.86	373.778
1926.9	376
1928.94	379.111
1930.99	383.778
1933.03	378.667
1935.07	374.444
1937.11	376.667
1939.15	373.333
1941.19	373.556
1943.22	371.556
1945.26	374.222
1947.3	372
1949.33	375.333
1951.37	374.222
1953.4	366.222
1955.44	369.778
1957.47	367.111
1959.51	370.889
1961.54	371.556
1963.57	368.889
1965.6	355.556
1967.63	369.556
1969.66	366.222
1971.69	357.556
1973.72	360.222
1975.75	367.333
1977.78	364.667
1979.8	363.778
1981.83	362
1983.86	364.222
1985.88	362.444
1987.91	360.889
1989.93	358.667
1991.95	354.444
1993.98	359.333
1996	357.111
1998.02	365.333
2000.04	358.667
2002.06	364.889
2004.08	350.667
2006.1	362.222
2008.12	359.556
2010.14	359.111
2012.15	364.222
2014.17	353.556
2016.19	362.444
2018.2	352
2020.22	354.667
2022.23	361.333
2024.25	361.333
2026.26	346
2028.27	355.333
2030.28	361.556
2032.29	353.333
2034.3	357.333
2036.32	355.556
2038.32	352.667
2040.33	360.444
2042.34	358.444
2044.35	348
2046.36	358.889
2048.36	355.556
2050.37	355.111
2052.37	359.333
2054.38	340.667
2056.38	349.778
2058.39	353.556
2060.39	338.667
2062.39	353.556
2064.39	350.444
2066.39	348.889
2068.39	351.778
2070.39	346.444
2072.39	353.111
2074.39	345.111
2076.39	356
2078.39	344.444
2080.39	348
2082.38	341.778
2084.38	342.889
2086.37	341.778
2088.37	345.556
2090.36	340.889
2092.35	334
2094.35	340
2096.34	340
2098.33	340.667
2100.32	342
2102.31	339.556
2104.3	334.222
2106.29	333.778
2108.28	338.667
2110.27	337.556
2112.25	335.111
2114.24	338
2116.23	329.556
2118.21	336
2120.2	335.111
2122.18	326.889
2124.17	340.667
2126.15	341.111
2128.13	338.444
2130.11	336
2132.09	331.778
2134.08	331.778
2136.06	328.444
2138.04	329.333
2140.02	325.556
2141.99	326.222
2143.97	333.111
2145.95	331.556
2147.93	335.333
2149.9	326.889
2151.88	325.778
2153.85	327.556
2155.83	328.889
2157.8	323.778
2159.77	333.111
2161.75	321.778
2163.72	318.667
2165.69	326.444
2167.66	313.778
2169.63	325.556
2171.6	319.556
2173.57	320
2175.54	318.667
2177.51	323.333
2179.47	311.778
2181.44	322.889
2183.41	326.667
2185.37	317.556
2187.34	314.222
2189.3	317.333
2191.27	318
2193.23	317.333
2195.19	309.556
2197.15	316.444
2199.11	309.111
2201.08	315.556
2203.04	319.556
2205	315.778
2206.96	311.556
2208.91	310
2210.87	312.667
2212.83	315.333
2214.79	311.111
2216.74	306
2218.7	318.222
2220.65	310.222
2222.61	306.444
2224.56	316.444
2226.52	313.556
2228.47	316.444
2230.42	308.444
2232.37	308.222
2234.32	307.333
2236.27	311.111
2238.22	308.444
2240.17	304.222
2242.12	305.111
2244.07	320
2246.02	295.333
2247.97	299.556
2249.91	300.444
2251.86	302.667
2253.8	308.444
2255.75	311.556
2257.69	306.667
2259.64	304.222
2261.58	296
2263.52	303.556
2265.46	304.889
2267.4	299.556
2269.35	297.556
2271.29	299.556
2273.23	297.333
2275.16	300
2277.1	291.333
2279.04	297.111
2280.98	290.889
2282.92	298.444
2284.85	292
2286.79	292.667
2288.72	292.222
2290.66	292.667
2292.59	292.667
2294.52	288.444
2296.46	290
2298.39	288.222
2300.32	283.556
2302.25	294.222
2304.18	282.222
2306.11	285.556
2308.04	289.556
2309.97	284
2311.9	287.111
2313.83	289.778
2315.75	288.222
2317.68	288.667
2319.61	286.444
2321.53	283.333
2323.46	295.111
2325.38	287.778
2327.3	281.556
2329.23	286.667
2331.15	289.778
2333.07	280.889
2334.99	281.556
2336.91	284
2338.83	289.333
2340.75	282.222
2342.67	279.333
2344.59	284.667
2346.51	284.222
2348.43	278.222
2350.35	281.333
2352.26	283.333
2354.18	271.778
2356.09	280.667
2358.01	277.778
2359.92	275.111
2361.83	273.333
2363.75	280.667
2365.66	276
2367.57	274
2369.48	277.556
2371.39	272.667
2373.31	276.889
2375.21	276.667
2377.12	274
2379.03	277.778
2380.94	277.333
2382.85	270.444
2384.76	274.889
2386.66	275.111
2388.57	269.556
2390.47	275.111
2392.38	265.778
2394.28	273.111
2396.18	261.556
2398.09	268.444
2399.99	265.556
2401.89	270.444
2403.79	268.444
2405.69	268
2407.59	264.667
2409.49	272.667
2411.39	268.444
2413.29	262.222
2415.19	265.778
2417.09	267.778
2418.98	264.444
2420.88	256.444
2422.78	259.111
2424.67	264.222
2426.57	260.889
2428.46	264.444
2430.35	258.889
2432.25	258.444
2434.14	263.111
2436.03	263.333
2437.92	262.444
2439.81	271.333
2441.7	256
2443.59	263.556
2445.48	256.222
2447.37	264.444
2449.26	257.556
2451.15	260.222
2453.03	265.333
