186.85	561.111
189.449	569.333
192.047	562.444
194.645	588.444
197.241	578.667
199.837	571.333
202.431	576
205.025	579.111
207.619	580.889
210.21	571.111
212.802	585.333
215.392	576
217.982	590.222
220.57	574
223.158	573.778
225.744	593.556
228.331	582.444
230.915	589.778
233.5	590.222
236.083	608
238.666	588.222
241.247	598.222
243.827	594.889
246.408	602.222
248.986	596.444
251.565	593.556
254.142	594.222
256.719	601.556
259.294	603.556
261.868	612.222
264.443	594.444
267.015	601.778
269.587	601.778
272.159	594
274.729	613.333
277.298	603.111
279.867	593.556
282.435	610.667
285.001	610
287.568	606
290.133	610.889
292.697	615.333
295.26	605.556
297.824	616.222
300.385	617.556
302.945	606
305.505	612.444
308.064	600.667
310.623	613.778
313.18	606.667
315.737	609.556
318.292	607.778
320.847	621.111
323.402	614.444
325.955	624.444
328.507	642.667
331.058	639.333
333.609	640.445
336.158	635.778
338.707	629.778
341.255	639.111
343.802	642.444
346.349	633.111
348.895	660.444
351.439	652
353.983	652.444
356.526	653.111
359.068	666.222
361.609	652.222
364.149	649.333
366.689	654.444
369.227	664.889
371.765	644
374.302	653.333
376.838	663.556
379.374	678.889
381.908	674.222
384.442	657.778
386.973	638
389.505	640.222
392.036	633.556
394.567	632.889
397.096	625.556
399.625	634.667
402.153	636.222
404.68	642
407.206	644.444
409.73	630.222
412.254	644.444
414.778	643.111
417.301	643.111
419.823	644.889
422.343	645.778
424.863	649.333
427.383	646
429.901	653.111
432.418	665.778
434.935	677.778
437.451	658.222
439.966	667.778
442.48	671.333
444.993	650.444
447.506	656.889
450.019	660.667
452.528	666.222
455.039	657.111
457.549	668.667
460.056	672
462.564	662.667
465.07	662.222
467.576	658
470.082	649.778
472.585	640.667
475.089	653.111
477.591	656.667
480.093	655.778
482.595	646.444
485.094	652
487.594	663.333
490.091	654.889
492.59	664.889
495.086	660.444
497.582	669.778
500.076	651.556
502.571	659.778
505.064	673.778
507.558	665.778
510.049	680
512.54	679.556
515.03	665.778
517.518	683.778
520.008	677.778
522.495	688.889
524.983	683.778
527.468	678.889
529.954	677.778
532.438	678
534.921	675.778
537.404	677.111
539.886	675.111
542.366	679.111
544.848	672
547.327	666.444
549.805	664.667
552.284	665.556
554.76	673.556
557.236	671.556
559.711	667.778
562.186	662.889
564.66	665.778
567.132	672.222
569.604	652.444
572.076	664.889
574.547	660
577.016	656
579.484	644.889
581.952	669.333
584.419	667.333
586.887	654.444
589.352	646.889
591.816	649.333
594.28	658.444
596.743	662.889
599.205	660
601.667	656.667
604.127	657.333
606.588	656.889
609.047	661.111
611.505	660.222
613.963	654.889
616.419	674.444
618.875	655.778
621.33	665.333
623.784	664.889
626.238	666.889
628.69	654.667
631.142	658.889
633.593	662.889
636.043	654.444
638.493	654.222
640.941	647.111
643.389	658
645.835	664
648.281	674
650.727	664.889
653.171	668.222
655.615	665.778
658.058	652.222
660.501	665.556
662.942	647.556
665.382	651.111
667.822	653.333
670.261	656
672.699	654
675.137	647.778
677.574	649.333
680.008	653.111
682.443	655.778
684.878	658.889
687.312	660.667
689.743	670.889
692.175	678
694.607	678.222
697.037	667.778
699.466	676.222
701.895	673.333
704.323	662.444
706.749	674.444
709.175	666.667
711.601	661.333
714.025	664
716.449	675.333
718.871	657.111
721.294	670.889
723.716	663.556
726.136	651.111
728.556	654
730.975	652.667
733.394	653.333
735.812	654.667
738.228	654.889
740.644	653.555
743.058	663.111
745.473	641.778
747.886	651.778
750.3	646.444
752.711	644.222
755.123	644.667
757.533	642.444
759.942	650.667
762.351	647.778
764.759	651.556
767.167	648.222
769.573	664
771.979	653.333
774.383	647.555
776.787	648
779.191	658.444
781.593	642.222
783.994	660.889
786.396	667.556
788.796	662
791.195	658.889
793.595	668
795.992	668.889
798.389	688.889
800.786	681.111
803.181	684.222
805.576	682.667
807.969	673.333
810.363	663.333
812.755	668
815.147	654
817.537	655.111
819.927	666.889
822.318	658.889
824.706	653.333
827.093	640
829.48	648
831.866	650.889
834.251	643.111
836.636	651.778
839.021	656.889
841.404	656.889
843.786	641.556
846.167	646.222
848.548	645.333
850.928	649.333
853.307	646.667
855.685	646.889
858.063	647.556
860.44	644.222
862.816	644.889
865.192	638.889
867.566	644.667
869.94	652.222
872.313	646.667
874.685	647.778
877.057	646.889
879.428	648
881.798	654
884.167	655.556
886.536	661.778
888.902	652
891.269	653.778
893.636	655.556
896.001	641.556
898.366	647.111
900.73	648.889
903.094	647.333
905.455	639.333
907.817	632.444
910.178	644
912.538	642
914.898	645.556
917.255	630.667
919.613	638.889
921.971	634.667
924.327	640.222
926.682	626.222
929.037	631.556
931.391	634
933.744	639.111
936.096	631.333
938.449	637.333
940.799	638.222
943.149	630.889
945.499	630.889
947.847	631.333
950.195	645.556
952.542	628.222
954.889	646.667
957.235	637.111
959.579	632.222
961.924	642
964.266	640.444
966.609	654.889
968.951	640.222
971.292	643.778
973.632	640.889
975.972	640.667
978.31	637.556
980.649	641.556
982.986	658.667
985.323	640.444
987.659	641.778
989.994	647.778
992.328	648.444
994.662	631.778
996.995	658.445
999.326	648.222
1001.66	639.778
1003.99	650.667
1006.32	639.778
1008.65	642
1010.98	643.556
1013.3	648.222
1015.63	644
1017.96	644.667
1020.28	643.111
1022.61	652.889
1024.93	648.889
1027.25	641.111
1029.58	647.333
1031.9	644.222
1034.22	633.778
1036.54	648.667
1038.86	653.555
1041.18	644.667
1043.49	641.778
1045.81	653.111
1048.13	662
1050.44	653.778
1052.76	666
1055.07	665.333
1057.39	678.444
1059.7	678.444
1062.01	677.333
1064.32	706
1066.63	710.444
1068.94	738.222
1071.25	756.444
1073.56	808
1075.87	829.778
1078.17	885.778
1080.48	911.556
1082.79	922.667
1085.09	899.778
1087.39	869.111
1089.7	847.556
1092	811.556
1094.3	776.667
1096.6	773.778
1098.9	758.667
1101.2	720.667
1103.5	709.333
1105.8	695.111
1108.1	680.667
1110.39	681.778
1112.69	680.667
1114.98	682.889
1117.28	682
1119.57	683.778
1121.86	681.556
1124.16	694.222
1126.45	677.111
1128.74	671.333
1131.03	669.333
1133.32	676
1135.61	661.778
1137.89	646.667
1140.18	651.111
1142.47	649.333
1144.75	653.111
1147.04	638.444
1149.32	647.778
1151.61	640.222
1153.89	654.444
1156.17	646
1158.45	639.555
1160.73	646.667
1163.01	637.333
1165.29	624.222
1167.57	619.556
1169.85	636
1172.12	633.333
1174.4	634.444
1176.68	641.778
1178.95	650.667
1181.22	642
1183.5	655.556
1185.77	684.444
1188.04	657.333
1190.31	638.222
1192.58	633.556
1194.85	620.667
1197.12	629.556
1199.39	615.556
1201.66	613.111
1203.92	606.222
1206.19	609.111
1208.45	610.444
1210.72	606.889
1212.98	608.444
1215.25	612
1217.51	616.889
1219.77	617.778
1222.03	606
1224.29	617.778
1226.55	623.111
1228.81	615.111
1231.07	620.667
1233.33	619.111
1235.58	624.667
1237.84	627.556
1240.09	612.667
1242.35	622.889
1244.6	620
1246.86	623.556
1249.11	629.111
1251.36	626.667
1253.61	617.111
1255.86	614.889
1258.11	629.111
1260.36	627.111
1262.61	626.222
1264.86	627.333
1267.1	630.889
1269.35	628.222
1271.6	625.333
1273.84	636.889
1276.08	635.556
1278.33	637.556
1280.57	649.333
1282.81	638.444
1285.05	652.667
1287.29	643.556
1289.53	641.333
1291.77	652.889
1294.01	648
1296.25	631.778
1298.48	636.667
1300.72	630.667
1302.96	628.889
1305.19	642.444
1307.42	639.556
1309.66	638
1311.89	623.111
1314.12	627.333
1316.35	635.778
1318.58	625.556
1320.81	638.667
1323.04	644.444
1325.27	642.222
1327.5	644.444
1329.73	632
1331.95	635.111
1334.18	647.111
1336.4	645.778
1338.63	645.778
1340.85	642.889
1343.08	648.667
1345.3	636.222
1347.52	638
1349.74	634.889
1351.96	630.889
1354.18	629.778
1356.4	635.778
1358.61	635.111
1360.83	650
1363.05	651.111
1365.27	636
1367.48	640
1369.69	640.667
1371.91	640.667
1374.12	650.445
1376.33	651.778
1378.55	652
1380.76	643.556
1382.97	632
1385.18	652.889
1387.39	635.333
1389.59	633.111
1391.8	633.111
1394.01	616
1396.21	627.778
1398.42	619.111
1400.63	604.667
1402.83	615.778
1405.03	620
1407.24	611.778
1409.44	623.778
1411.64	606
1413.84	618.667
1416.04	616.889
1418.24	608.444
1420.44	610.667
1422.64	617.778
1424.83	610.889
1427.03	602.444
1429.23	606.889
1431.42	611.111
1433.62	599.556
1435.81	617.333
1438	599.778
1440.19	597.333
1442.39	609.556
1444.58	594.667
1446.77	611.778
1448.96	597.111
1451.15	600.889
1453.34	595.111
1455.52	606.222
1457.71	598.889
1459.9	610.444
1462.08	596.667
1464.27	588
1466.45	589.778
1468.64	592.222
1470.82	602.889
1473	607.333
1475.18	601.778
1477.36	617.778
1479.54	612.222
1481.72	614.222
1483.9	607.778
1486.08	600
1488.26	593.333
1490.43	602.222
1492.61	580.222
1494.78	602
1496.96	592.444
1499.13	583.556
1501.31	581.333
1503.48	571.556
1505.65	584.222
1507.82	576.667
1509.99	580.889
1512.16	579.778
1514.33	585.333
1516.5	581.333
1518.67	574.889
1520.84	578.889
1523	568.889
1525.17	574.667
1527.34	572.667
1529.5	567.556
1531.66	582.889
1533.83	580.667
1535.99	585.333
1538.15	589.556
1540.31	567.111
1542.47	581.333
1544.63	583.778
1546.79	589.556
1548.95	592.667
1551.11	589.333
1553.27	581.333
1555.42	587.333
1557.58	584.667
1559.73	589.111
1561.89	590.444
1564.04	601.333
1566.2	588
1568.35	597.333
1570.5	609.556
1572.65	613.556
1574.8	634.889
1576.95	655.111
1579.1	686
1581.25	728.444
1583.4	757.556
1585.55	817.333
1587.69	874.444
1589.84	938.667
1591.99	988.222
1594.13	1001.11
1596.27	903.333
1598.42	804.222
1600.56	736.667
1602.7	696
1604.84	673.556
1606.98	646
1609.12	634.889
1611.26	647.778
1613.4	633.556
1615.54	625.778
1617.68	624
1619.81	606.444
1621.95	623.556
1624.08	614.222
1626.22	604.222
1628.35	611.111
1630.49	603.778
1632.62	616
1634.75	596.444
1636.88	619.778
1639.01	606
1641.14	609.778
1643.27	615.333
1645.4	611.556
1647.53	611.778
1649.66	614
1651.79	608.444
1653.91	619.778
1656.04	617.778
1658.16	611.111
1660.29	612
1662.41	615.333
1664.53	611.333
1666.66	601.556
1668.78	597.333
1670.9	595.111
1673.02	592.444
1675.14	586.889
1677.26	589.111
1679.38	590.889
1681.49	583.333
1683.61	580.222
1685.73	580.889
1687.84	578.444
1689.96	588
1692.07	579.111
1694.19	571.111
1696.3	574.444
1698.41	564
1700.52	586.667
1702.64	575.778
1704.75	576.667
1706.86	569.778
1708.97	579.778
1711.07	569.333
1713.18	574
1715.29	566.444
1717.4	567.111
1719.5	567.778
1721.61	567.333
1723.71	564
1725.82	554.667
1727.92	560
1730.02	560.667
1732.12	554.222
1734.23	546.444
1736.33	554.222
1738.43	550
1740.53	536.222
1742.63	544.222
1744.72	538
1746.82	528.889
1748.92	520
1751.02	532
1753.11	533.556
1755.21	530
1757.3	540.222
1759.4	534.444
1761.49	528.222
1763.58	531.111
1765.67	525.556
1767.76	525.333
1769.86	531.111
1771.95	543.333
1774.03	528.444
1776.12	512
1778.21	530.889
1780.3	530.889
1782.39	528.222
1784.47	521.333
1786.56	522.889
1788.64	521.333
1790.73	523.333
1792.81	524
1794.89	532.445
1796.98	516.222
1799.06	520.445
1801.14	533.778
1803.22	518.222
1805.3	522.889
1807.38	523.333
1809.46	524.445
1811.54	528.222
1813.61	524.667
1815.69	520.667
1817.77	510.667
1819.84	518.222
1821.92	514.889
1823.99	516.667
1826.06	516.222
1828.14	519.333
1830.21	509.333
1832.28	518.222
1834.35	514.889
1836.42	509.778
1838.49	512.444
1840.56	512.889
1842.63	509.111
1844.7	504
1846.77	504
1848.83	500.444
1850.9	503.333
1852.96	498.222
1855.03	511.556
1857.09	503.778
1859.15	510
1861.22	498.889
1863.28	498.444
1865.34	495.333
1867.4	490.889
1869.46	493.556
1871.52	498.667
1873.58	498.889
1875.64	496.667
1877.7	494.889
1879.76	494
1881.81	499.333
1883.87	505.778
1885.92	492.444
1887.98	484.889
1890.03	497.333
1892.09	496.889
1894.14	502.889
1896.19	499.111
1898.24	498.444
1900.29	504
1902.34	496
1904.4	484.667
1906.44	498.444
1908.49	495.778
1910.54	496.667
1912.59	493.778
1914.63	492
1916.68	492
1918.73	486.667
1920.77	493.333
1922.81	493.556
1924.86	492.889
1926.9	492.444
1928.94	490.222
1930.99	494.667
1933.03	491.778
1935.07	487.333
1937.11	478.889
1939.15	490.889
1941.19	484.222
1943.22	485.778
1945.26	484.444
1947.3	477.111
1949.33	483.111
1951.37	468.222
1953.4	478
1955.44	478.444
1957.47	477.556
1959.51	474
1961.54	483.556
1963.57	468.889
1965.6	468.444
1967.63	474.667
1969.66	468
1971.69	479.778
1973.72	467.111
1975.75	462.889
1977.78	474
1979.8	460.222
1981.83	468.222
1983.86	465.333
1985.88	466.889
1987.91	473.111
1989.93	473.556
1991.95	468.444
1993.98	472
1996	462
1998.02	469.333
2000.04	468.889
2002.06	460.667
2004.08	471.111
2006.1	461.111
2008.12	466.444
2010.14	469.111
2012.15	462.667
2014.17	464.667
2016.19	458.889
2018.2	460.222
2020.22	474.889
2022.23	461.778
2024.25	469.778
2026.26	464.889
2028.27	467.333
2030.28	459.778
2032.29	461.556
2034.3	465.333
2036.32	457.778
2038.32	459.778
2040.33	460.667
2042.34	461.556
2044.35	462.667
2046.36	458.667
2048.36	445.333
2050.37	461.778
2052.37	469.333
2054.38	454
2056.38	453.333
2058.39	449.778
2060.39	446.444
2062.39	446
2064.39	456.444
2066.39	446.222
2068.39	446
2070.39	446.889
2072.39	448.667
2074.39	452.444
2076.39	452
2078.39	450.222
2080.39	452.444
2082.38	439.778
2084.38	434
2086.37	438.889
2088.37	438.444
2090.36	438
2092.35	444
2094.35	442.444
2096.34	439.333
2098.33	435.556
2100.32	436
2102.31	441.556
2104.3	437.111
2106.29	439.333
2108.28	441.778
2110.27	440.889
2112.25	430.222
2114.24	432
2116.23	432.444
2118.21	429.556
2120.2	433.111
2122.18	437.778
2124.17	434.444
2126.15	437.778
2128.13	435.778
2130.11	423.556
2132.09	431.333
2134.08	431.778
2136.06	423.111
2138.04	422.889
2140.02	430.667
2141.99	437.778
2143.97	425.333
2145.95	427.556
2147.93	412.444
2149.9	425.778
2151.88	422
2153.85	432
2155.83	422.444
2157.8	420.222
2159.77	427.333
2161.75	414.444
2163.72	416.667
2165.69	417.333
2167.66	416.667
2169.63	418.222
2171.6	414.667
2173.57	412.222
2175.54	414.889
2177.51	418.667
2179.47	414.667
2181.44	415.111
2183.41	413.111
2185.37	417.778
2187.34	411.333
2189.3	413.111
2191.27	414.667
2193.23	412.222
2195.19	408.667
2197.15	409.556
2199.11	413.111
2201.08	404.222
2203.04	408.444
2205	409.333
2206.96	399.333
2208.91	408.444
2210.87	403.778
2212.83	399.778
2214.79	403.556
2216.74	406
2218.7	406.444
2220.65	403.111
2222.61	404.444
2224.56	386.889
2226.52	404.889
2228.47	400.444
2230.42	404.667
2232.37	392.444
2234.32	392.667
2236.27	406.444
2238.22	395.556
2240.17	396.667
2242.12	389.556
2244.07	392
2246.02	382.222
2247.97	400.444
2249.91	406
2251.86	394.889
2253.8	395.111
2255.75	385.111
2257.69	388.444
2259.64	384.444
2261.58	389.111
2263.52	379.111
2265.46	378.889
2267.4	385.778
2269.35	377.111
2271.29	384.889
2273.23	385.556
2275.16	379.556
2277.1	378.222
2279.04	370.222
2280.98	384.222
2282.92	379.111
2284.85	387.556
2286.79	386.444
2288.72	383.333
2290.66	373.778
2292.59	385.778
2294.52	380
2296.46	376
2298.39	372.889
2300.32	382
2302.25	367.111
2304.18	379.333
2306.11	374.889
2308.04	369.556
2309.97	370.889
2311.9	364
2313.83	372.889
2315.75	371.778
2317.68	363.556
2319.61	371.778
2321.53	367.111
2323.46	366.889
2325.38	368.222
2327.3	372.667
2329.23	368.444
2331.15	360.667
2333.07	371.333
2334.99	372.889
2336.91	369.333
2338.83	365.111
2340.75	359.556
2342.67	362.222
2344.59	366.889
2346.51	363.778
2348.43	356.889
2350.35	357.556
2352.26	362.444
2354.18	361.111
2356.09	358.667
2358.01	359.778
2359.92	361.333
2361.83	358.222
2363.75	352.222
2365.66	354.667
2367.57	354.444
2369.48	350.889
2371.39	356.667
2373.31	350.222
2375.21	349.333
2377.12	358.667
2379.03	360.222
2380.94	353.111
2382.85	346.667
2384.76	351.333
2386.66	354.444
2388.57	352.667
2390.47	355.778
2392.38	345.111
2394.28	348.889
2396.18	344.222
2398.09	341.333
2399.99	343.111
2401.89	345.111
2403.79	346.667
2405.69	345.333
2407.59	347.778
2409.49	342.889
2411.39	338.222
2413.29	344.222
2415.19	340
2417.09	344.889
2418.98	334
2420.88	344
2422.78	341.333
2424.67	339.111
2426.57	328.889
2428.46	334
2430.35	343.778
2432.25	339.111
2434.14	337.556
2436.03	339.778
2437.92	339.111
2439.81	334.889
2441.7	344.667
2443.59	336
2445.48	334.444
2447.37	329.778
2449.26	338.222
2451.15	338.667
2453.03	330.222
