186.85	753.556
189.449	738.667
192.047	744.222
194.645	752.667
197.241	738
199.837	736.667
202.431	757.556
205.025	748.222
207.619	746.889
210.21	736.222
212.802	742.222
215.392	745.556
217.982	740.667
220.57	734.444
223.158	736.889
225.744	748.222
228.331	749.778
230.915	747.556
233.5	755.111
236.083	755.556
238.666	763.111
241.247	762.222
243.827	756.889
246.408	755.111
248.986	763.333
251.565	742.222
254.142	763.333
256.719	755.333
259.294	743.555
261.868	749.778
264.443	738.222
267.015	733.556
269.587	732.222
272.159	730.889
274.729	728
277.298	728.667
279.867	734.889
282.435	724.667
285.001	715.556
287.568	713.778
290.133	727.333
292.697	717.778
295.26	711.556
297.824	716.667
300.385	697.333
302.945	698.889
305.505	691.778
308.064	681.111
310.623	694.889
313.18	685.333
315.737	693.333
318.292	702.445
320.847	712.889
323.402	725.778
325.955	714.444
328.507	737.333
331.058	728
333.609	724
336.158	745.111
338.707	731.778
341.255	737.333
343.802	744.222
346.349	764.222
348.895	768.222
351.439	776.444
353.983	781.778
356.526	780.444
359.068	773.333
361.609	779.333
364.149	790
366.689	780
369.227	762.222
371.765	755.111
374.302	747.333
376.838	757.778
379.374	766.889
381.908	739.333
384.442	721.556
386.973	707.556
389.505	690.667
392.036	674.889
394.567	684.444
397.096	691.333
399.625	682.444
402.153	692.222
404.68	688.444
407.206	692.667
409.73	698
412.254	703.333
414.778	699.333
417.301	697.778
419.823	699.333
422.343	701.556
424.863	690.445
427.383	689.111
429.901	696
432.418	706.222
434.935	697.111
437.451	714.222
439.966	697.111
442.48	691.333
444.993	686.667
447.506	675.556
450.019	687.556
452.528	672.889
455.039	696.667
457.549	695.111
460.056	698.222
462.564	681.778
465.07	693.333
467.576	683.556
470.082	691.333
472.585	699.556
475.089	684.889
477.591	698.889
480.093	696.444
482.595	696.222
485.094	698.444
487.594	703.111
490.091	701.556
492.59	694.889
495.086	704.222
497.582	696.222
500.076	697.111
502.571	726.667
505.064	735.333
507.558	769.333
510.049	780.444
512.54	786.889
515.03	791.778
517.518	809.556
520.008	821.333
522.495	816.889
524.983	828
527.468	811.111
529.954	822.444
532.438	811.556
534.921	794.889
537.404	790
539.886	768.222
542.366	758
544.848	734.667
547.327	725.333
549.805	727.555
552.284	722.222
554.76	711.111
557.236	700.889
559.711	708
562.186	700.667
564.66	709.556
567.132	703.333
569.604	696.889
572.076	698.667
574.547	680.222
577.016	683.111
579.484	682.222
581.952	681.111
584.419	674
586.887	688
589.352	679.778
591.816	685.111
594.28	684.667
596.743	690.889
599.205	686.889
601.667	683.333
604.127	681.333
606.588	681.111
609.047	678.667
611.505	676.667
613.963	692.222
616.419	686.222
618.875	678.444
621.33	681.333
623.784	688.444
626.238	698.667
628.69	702.222
631.142	699.111
633.593	712.444
636.043	700.667
638.493	697.556
640.941	694.445
643.389	688.222
645.835	703.333
648.281	692.667
650.727	690
653.171	666.667
655.615	685.111
658.058	688.222
660.501	692.889
662.942	697.111
665.382	687.778
667.822	672.889
670.261	682.889
672.699	687.111
675.137	699.778
677.574	684.444
680.008	709.111
682.443	710.222
684.878	716
687.312	716.444
689.743	734.444
692.175	752.222
694.607	757.333
697.037	775.111
699.466	737.778
701.895	722
704.323	712.667
706.749	716.445
709.175	728.889
711.601	734
714.025	745.111
716.449	744.222
718.871	723.555
721.294	714.444
723.716	703.778
726.136	695.333
728.556	684.222
730.975	682.889
733.394	678.222
735.812	684.444
738.228	698
740.644	680.444
743.058	681.556
745.473	679.778
747.886	688.667
750.3	681.778
752.711	687.556
755.123	685.111
757.533	688.444
759.942	686
762.351	693.778
764.759	686.222
767.167	692
769.573	686.667
771.979	692.222
774.383	679.333
776.787	693.778
779.191	691.111
781.593	698.444
783.994	693.556
786.396	704.889
788.796	716.222
791.195	723.111
793.595	733.778
795.992	754.444
798.389	776.445
800.786	811.111
803.181	811.778
805.576	787.778
807.969	753.778
810.363	741.556
812.755	736
815.147	719.333
817.537	722.889
819.927	718
822.318	714.667
824.706	713.333
827.093	712.222
829.48	713.556
831.866	715.778
834.251	712.889
836.636	724.667
839.021	712.444
841.404	707.333
843.786	699.778
846.167	687.111
848.548	706.444
850.928	704.445
853.307	706.667
855.685	700
858.063	692.445
860.44	695.778
862.816	682
865.192	699.556
867.566	692.667
869.94	689.333
872.313	693.111
874.685	683.556
877.057	698.889
879.428	687.778
881.798	691.778
884.167	697.333
886.536	692.222
888.902	696
891.269	689.111
893.636	685.333
896.001	694
898.366	679.778
900.73	692.667
903.094	691.778
905.455	689.333
907.817	694.889
910.178	687.333
912.538	688.889
914.898	690.444
917.255	689.333
919.613	687.333
921.971	686.444
924.327	675.111
926.682	675.333
929.037	672.222
931.391	674.667
933.744	680.667
936.096	672
938.449	677.333
940.799	671.111
943.149	677.333
945.499	680.889
947.847	674.667
950.195	676.889
952.542	662.667
954.889	675.333
957.235	682.444
959.579	685.111
961.924	684.667
964.266	695.556
966.609	693.111
968.951	695.778
971.292	698.667
973.632	696.444
975.972	689.778
978.31	699.556
980.649	684.667
982.986	701.111
985.323	694
987.659	684.222
989.994	691.111
992.328	692.667
994.662	694.889
996.995	689.556
999.326	723.555
1001.66	717.778
1003.99	688.222
1006.32	704.889
1008.65	708.667
1010.98	722.444
1013.3	738.222
1015.63	742.667
1017.96	735.778
1020.28	732.667
1022.61	731.111
1024.93	726.889
1027.25	719.333
1029.58	714
1031.9	715.778
1034.22	720.667
1036.54	731.556
1038.86	757.111
1041.18	748.889
1043.49	751.778
1045.81	756.889
1048.13	775.556
1050.44	782.444
1052.76	796.889
1055.07	815.778
1057.39	833.333
1059.7	860.667
1062.01	892.667
1064.32	934.889
1066.63	1050.22
1068.94	1149.11
1071.25	1319.78
1073.56	1504.22
1075.87	1712.89
1078.17	1850.44
1080.48	1923.56
1082.79	1882
1085.09	1740.67
1087.39	1556.89
1089.7	1345.33
1092	1146.67
1094.3	1054.67
1096.6	987.333
1098.9	899.556
1101.2	852.889
1103.5	819.778
1105.8	798
1108.1	790.889
1110.39	777.556
1112.69	781.333
1114.98	767.556
1117.28	768
1119.57	782.889
1121.86	774.444
1124.16	771.556
1126.45	778.222
1128.74	787.111
1131.03	782.222
1133.32	798.889
1135.61	781.333
1137.89	770.222
1140.18	748.222
1142.47	743.111
1144.75	732
1147.04	730.222
1149.32	737.778
1151.61	733.111
1153.89	734.444
1156.17	729.111
1158.45	726
1160.73	713.333
1163.01	718.889
1165.29	728
1167.57	738.889
1169.85	737.556
1172.12	742
1174.4	766
1176.68	785.778
1178.95	804.667
1181.22	839.333
1183.5	895.778
1185.77	905.333
1188.04	852.222
1190.31	788.889
1192.58	739.333
1194.85	711.333
1197.12	697.111
1199.39	693.778
1201.66	699.556
1203.92	691.333
1206.19	688.444
1208.45	681.333
1210.72	692.445
1212.98	683.111
1215.25	697.333
1217.51	691.778
1219.77	679.111
1222.03	697.111
1224.29	684.667
1226.55	684.444
1228.81	693.778
1231.07	696.889
1233.33	702.222
1235.58	700
1237.84	698.222
1240.09	715.111
1242.35	702
1244.6	703.778
1246.86	705.333
1249.11	711.111
1251.36	713.111
1253.61	717.333
1255.86	709.111
1258.11	718
1260.36	732.444
1262.61	731.333
1264.86	727.778
1267.1	746.889
1269.35	733.778
1271.6	740.889
1273.84	753.333
1276.08	752.444
1278.33	770.222
1280.57	768.889
1282.81	774
1285.05	779.778
1287.29	796.444
1289.53	784.889
1291.77	791.333
1294.01	795.111
1296.25	782.222
1298.48	771.556
1300.72	767.778
1302.96	773.778
1305.19	782
1307.42	774.889
1309.66	779.333
1311.89	775.556
1314.12	786.667
1316.35	787.778
1318.58	786
1320.81	772.889
1323.04	778.222
1325.27	767.333
1327.5	761.111
1329.73	769.778
1331.95	770.889
1334.18	764.222
1336.4	766.444
1338.63	763.111
1340.85	778
1343.08	784
1345.3	773.556
1347.52	796.444
1349.74	774
1351.96	779.333
1354.18	774.222
1356.4	800.444
1358.61	794.889
1360.83	810
1363.05	808
1365.27	817.333
1367.48	815.333
1369.69	793.333
1371.91	796.444
1374.12	800.667
1376.33	806.889
1378.55	808
1380.76	812
1382.97	781.111
1385.18	793.333
1387.39	773.556
1389.59	777.556
1391.8	765.778
1394.01	762
1396.21	748.667
1398.42	749.556
1400.63	728.444
1402.83	719.556
1405.03	723.111
1407.24	722
1409.44	722.889
1411.64	717.111
1413.84	724.889
1416.04	717.111
1418.24	700.889
1420.44	710.889
1422.64	714.889
1424.83	713.111
1427.03	713.111
1429.23	718.889
1431.42	702.667
1433.62	707.778
1435.81	696.667
1438	698
1440.19	694.889
1442.39	705.556
1444.58	701.111
1446.77	694.889
1448.96	690.889
1451.15	677.333
1453.34	686.667
1455.52	689.778
1457.71	689.333
1459.9	685.111
1462.08	681.111
1464.27	690.444
1466.45	676.222
1468.64	699.556
1470.82	705.333
1473	711.778
1475.18	719.333
1477.36	746.667
1479.54	743.556
1481.72	761.556
1483.9	759.111
1486.08	748.889
1488.26	725.333
1490.43	696.444
1492.61	681.778
1494.78	685.556
1496.96	668.444
1499.13	682.889
1501.31	669.333
1503.48	677.778
1505.65	663.778
1507.82	667.333
1509.99	667.333
1512.16	670.889
1514.33	656.667
1516.5	674.222
1518.67	667.778
1520.84	666.889
1523	685.778
1525.17	681.111
1527.34	682.667
1529.5	666.667
1531.66	688
1533.83	684.222
1535.99	695.556
1538.15	685.778
1540.31	688.444
1542.47	680.222
1544.63	686.889
1546.79	693.333
1548.95	703.556
1551.11	710.445
1553.27	716
1555.42	713.778
1557.58	724.222
1559.73	737.778
1561.89	745.556
1564.04	759.778
1566.2	777.333
1568.35	803.333
1570.5	850.889
1572.65	923.111
1574.8	1005.33
1576.95	1114.67
1579.1	1260.22
1581.25	1430.89
1583.4	1622.44
1585.55	1852
1587.69	2037.11
1589.84	2242.67
1591.99	2368.67
1594.13	2262.44
1596.27	1908.89
1598.42	1542.67
1600.56	1272.67
1602.7	1119.11
1604.84	1032.67
1606.98	971.778
1609.12	950.222
1611.26	929.556
1613.4	886.444
1615.54	866.222
1617.68	840.222
1619.81	852.889
1621.95	825.556
1624.08	830.444
1626.22	803.333
1628.35	809.111
1630.49	816.222
1632.62	828
1634.75	820
1636.88	836.667
1639.01	839.333
1641.14	834.444
1643.27	850.889
1645.4	835.556
1647.53	854
1649.66	845.556
1651.79	873.111
1653.91	859.556
1656.04	862.444
1658.16	862.667
1660.29	851.333
1662.41	843.556
1664.53	823.556
1666.66	817.556
1668.78	801.778
1670.9	793.556
1673.02	774.667
1675.14	775.333
1677.26	750.222
1679.38	741.778
1681.49	744.444
1683.61	730.444
1685.73	735.555
1687.84	727.778
1689.96	724.889
1692.07	737.778
1694.19	723.556
1696.3	723.778
1698.41	714.667
1700.52	726.222
1702.64	720.444
1704.75	706
1706.86	692
1708.97	697.333
1711.07	702.222
1713.18	694.667
1715.29	691.556
1717.4	681.333
1719.5	678.889
1721.61	688.667
1723.71	689.111
1725.82	663.111
1727.92	670.222
1730.02	655.556
1732.12	647.111
1734.23	642
1736.33	640.222
1738.43	626
1740.53	618
1742.63	616.667
1744.72	616.222
1746.82	608.889
1748.92	603.555
1751.02	600.889
1753.11	608.222
1755.21	599.111
1757.3	600.667
1759.4	589.778
1761.49	585.778
1763.58	606
1765.67	595.556
1767.76	594.667
1769.86	584.444
1771.95	589.778
1774.03	592
1776.12	594.222
1778.21	590.889
1780.3	590.444
1782.39	593.556
1784.47	592.667
1786.56	578
1788.64	584.667
1790.73	594.444
1792.81	588.667
1794.89	577.111
1796.98	586.444
1799.06	582.222
1801.14	571.333
1803.22	578.667
1805.3	591.333
1807.38	584.889
1809.46	577.556
1811.54	578.889
1813.61	570.889
1815.69	570.444
1817.77	579.556
1819.84	565.556
1821.92	580.444
1823.99	563.333
1826.06	574.667
1828.14	576.667
1830.21	575.333
1832.28	575.556
1834.35	567.111
1836.42	562.222
1838.49	568.889
1840.56	560
1842.63	567.333
1844.7	565.333
1846.77	564.445
1848.83	550.444
1850.9	564.444
1852.96	556.222
1855.03	559.333
1857.09	550
1859.15	565.111
1861.22	549.111
1863.28	566.444
1865.34	552.889
1867.4	563.111
1869.46	568.222
1871.52	557.555
1873.58	554.444
1875.64	559.333
1877.7	553.333
1879.76	549.556
1881.81	553.556
1883.87	544.889
1885.92	537.778
1887.98	554.444
1890.03	544
1892.09	548.222
1894.14	544.444
1896.19	561.333
1898.24	548.444
1900.29	551.111
1902.34	541.556
1904.4	546.667
1906.44	558
1908.49	537.333
1910.54	548.444
1912.59	549.111
1914.63	549.333
1916.68	556
1918.73	547.556
1920.77	546.222
1922.81	546.889
1924.86	528.667
1926.9	546.444
1928.94	540
1930.99	546.222
1933.03	545.778
1935.07	535.111
1937.11	534.444
1939.15	529.333
1941.19	533.111
1943.22	539.778
1945.26	541.556
1947.3	534.889
1949.33	528.444
1951.37	534.444
1953.4	534.889
1955.44	522.667
1957.47	535.556
1959.51	525.111
1961.54	510
1963.57	533.111
1965.6	516.667
1967.63	522.222
1969.66	521.333
1971.69	513.556
1973.72	514.667
1975.75	509.556
1977.78	519.778
1979.8	527.556
1981.83	520.667
1983.86	517.111
1985.88	514.889
1987.91	514.444
1989.93	510
1991.95	519.111
1993.98	515.333
1996	512
1998.02	513.778
2000.04	523.778
2002.06	500.889
2004.08	512.667
2006.1	519.556
2008.12	512.444
2010.14	521.111
2012.15	508
2014.17	524.444
2016.19	512.889
2018.2	508.889
2020.22	508.889
2022.23	517.778
2024.25	513.111
2026.26	508.667
2028.27	503.556
2030.28	518
2032.29	498.889
2034.3	514.667
2036.32	503.111
2038.32	504.222
2040.33	510.444
2042.34	512.889
2044.35	510.444
2046.36	504.222
2048.36	493.333
2050.37	501.556
2052.37	500.667
2054.38	507.111
2056.38	509.111
2058.39	506.444
2060.39	507.778
2062.39	499.111
2064.39	501.778
2066.39	497.111
2068.39	506.222
2070.39	502.667
2072.39	496.889
2074.39	496.222
2076.39	495.778
2078.39	484.667
2080.39	502.222
2082.38	494.889
2084.38	497.556
2086.37	503.333
2088.37	491.556
2090.36	495.333
2092.35	495.778
2094.35	488.889
2096.34	492
2098.33	491.111
2100.32	490.667
2102.31	480.667
2104.3	492.222
2106.29	483.778
2108.28	486.444
2110.27	481.778
2112.25	491.111
2114.24	491.333
2116.23	485.778
2118.21	478.222
2120.2	486.444
2122.18	483.778
2124.17	482.222
2126.15	486
2128.13	488.889
2130.11	479.778
2132.09	480.889
2134.08	485.333
2136.06	484
2138.04	480.444
2140.02	477.333
2141.99	493.778
2143.97	491.111
2145.95	481.333
2147.93	486.222
2149.9	482.444
2151.88	475.778
2153.85	483.111
2155.83	468.667
2157.8	478.889
2159.77	475.333
2161.75	469.333
2163.72	477.333
2165.69	468.667
2167.66	471.778
2169.63	471.111
2171.6	476.667
2173.57	466.667
2175.54	467.556
2177.51	473.111
2179.47	463.778
2181.44	465.111
2183.41	473.111
2185.37	460.444
2187.34	464.444
2189.3	469.556
2191.27	462.444
2193.23	468.444
2195.19	461.778
2197.15	459.556
2199.11	458.444
2201.08	459.778
2203.04	462.222
2205	456
2206.96	469.778
2208.91	461.111
2210.87	456
2212.83	457.111
2214.79	454.444
2216.74	452.889
2218.7	455.778
2220.65	446.889
2222.61	452.222
2224.56	446
2226.52	441.333
2228.47	444
2230.42	452.889
2232.37	452.667
2234.32	445.111
2236.27	443.333
2238.22	453.333
2240.17	453.556
2242.12	436.667
2244.07	455.556
2246.02	444
2247.97	442
2249.91	456.222
2251.86	440.889
2253.8	442.444
2255.75	448.222
2257.69	447.111
2259.64	444
2261.58	430.889
2263.52	440.222
2265.46	441.111
2267.4	434.667
2269.35	442.667
2271.29	448.222
2273.23	440.222
2275.16	441.111
2277.1	436.667
2279.04	436.889
2280.98	443.111
2282.92	421.778
2284.85	435.556
2286.79	431.556
2288.72	428.444
2290.66	437.111
2292.59	419.111
2294.52	431.556
2296.46	422.667
2298.39	430.889
2300.32	429.778
2302.25	423.778
2304.18	415.111
2306.11	427.556
2308.04	426.889
2309.97	423.333
2311.9	419.778
2313.83	417.111
2315.75	420
2317.68	424.444
2319.61	424
2321.53	417.556
2323.46	411.333
2325.38	416
2327.3	425.556
2329.23	414.667
2331.15	425.556
2333.07	414.889
2334.99	410
2336.91	414.889
2338.83	411.778
2340.75	414.222
2342.67	415.778
2344.59	410.444
2346.51	417.333
2348.43	416.667
2350.35	412
2352.26	400.222
2354.18	412.222
2356.09	413.333
2358.01	414.222
2359.92	408.667
2361.83	407.778
2363.75	403.778
2365.66	403.333
2367.57	405.333
2369.48	414.889
2371.39	408.222
2373.31	406.222
2375.21	409.556
2377.12	396.889
2379.03	400.889
2380.94	396.444
2382.85	400.667
2384.76	402.222
2386.66	391.778
2388.57	400.444
2390.47	389.556
2392.38	395.333
2394.28	394.222
2396.18	396
2398.09	397.111
2399.99	397.333
2401.89	402
2403.79	398.222
2405.69	398.889
2407.59	390.667
2409.49	390.667
2411.39	390.444
2413.29	389.556
2415.19	385.778
2417.09	395.556
2418.98	389.778
2420.88	390
2422.78	393.556
2424.67	396
2426.57	392.444
2428.46	390.667
2430.35	392.667
2432.25	390.667
2434.14	396.444
2436.03	392.444
2437.92	389.333
2439.81	380.444
2441.7	395.111
2443.59	387.778
2445.48	387.778
2447.37	391.778
2449.26	387.333
2451.15	387.778
2453.03	381.333
