186.85	404
189.449	400.889
192.047	399.778
194.645	402.889
197.241	398
199.837	401.111
202.431	406.667
205.025	401.111
207.619	400.667
210.21	400.222
212.802	399.778
215.392	399.111
217.982	402.667
220.57	397.556
223.158	398
225.744	397.111
228.331	396
230.915	397.556
233.5	388
236.083	404.889
238.666	393.778
241.247	410
243.827	398.889
246.408	405.111
248.986	408.667
251.565	402.222
254.142	402
256.719	406.444
259.294	417.111
261.868	408
264.443	424.222
267.015	411.333
269.587	416.222
272.159	412
274.729	419.556
277.298	412.889
279.867	417.111
282.435	415.333
285.001	409.778
287.568	419.778
290.133	427.111
292.697	419.556
295.26	426.444
297.824	417.333
300.385	426.444
302.945	433.333
305.505	429.333
308.064	428
310.623	425.111
313.18	426
315.737	433.111
318.292	426.222
320.847	423.111
323.402	430.889
325.955	425.333
328.507	429.111
331.058	432.889
333.609	425.556
336.158	437.556
338.707	433.333
341.255	437.778
343.802	428.889
346.349	435.778
348.895	449.556
351.439	452
353.983	450.667
356.526	453.111
359.068	466.222
361.609	472.444
364.149	470.222
366.689	479.111
369.227	464.444
371.765	454.444
374.302	460.667
376.838	468.444
379.374	462
381.908	469.333
384.442	456.444
386.973	450.889
389.505	442.222
392.036	419.778
394.567	438
397.096	436
399.625	436.222
402.153	451.333
404.68	441.111
407.206	443.111
409.73	437.111
412.254	441.556
414.778	435.111
417.301	431.111
419.823	444.222
422.343	435.778
424.863	449.111
427.383	439.333
429.901	444.222
432.418	455.778
434.935	448.889
437.451	445.333
439.966	453.333
442.48	460.889
444.993	451.111
447.506	445.333
450.019	443.778
452.528	445.111
455.039	451.111
457.549	459.556
460.056	453.111
462.564	442.667
465.07	441.111
467.576	448.222
470.082	443.111
472.585	450.667
475.089	441.333
477.591	451.111
480.093	440.444
482.595	443.111
485.094	452
487.594	454.222
490.091	455.333
492.59	458
495.086	466.222
497.582	451.778
500.076	450.889
502.571	462.222
505.064	450.222
507.558	444.222
510.049	460.444
512.54	460.889
515.03	448.667
517.518	454.444
520.008	458.444
522.495	450.667
524.983	454.889
527.468	443.333
529.954	446
532.438	449.333
534.921	443.778
537.404	440.889
539.886	448
542.366	454.222
544.848	454.222
547.327	458.667
549.805	457.111
552.284	436.222
554.76	456.444
557.236	465.111
559.711	452.444
562.186	452.667
564.66	452.889
567.132	469.111
569.604	466.444
572.076	476
574.547	480.889
577.016	493.111
579.484	525.556
581.952	531.111
584.419	538.222
586.887	513.111
589.352	493.333
591.816	475.111
594.28	471.778
596.743	461.778
599.205	455.778
601.667	447.333
604.127	438.667
606.588	451.333
609.047	447.111
611.505	453.556
613.963	452.667
616.419	460.889
618.875	458.222
621.33	448.667
623.784	454.889
626.238	447.778
628.69	450.889
631.142	441.556
633.593	473.778
636.043	468.444
638.493	452.889
640.941	457.333
643.389	468.444
645.835	459.778
648.281	464.889
650.727	470.667
653.171	461.556
655.615	466.667
658.058	452
660.501	450.889
662.942	460.222
665.382	449.778
667.822	452.444
670.261	450.667
672.699	449.111
675.137	450.889
677.574	461.556
680.008	456
682.443	454.667
684.878	458.889
687.312	462.444
689.743	458
692.175	455.333
694.607	456.889
697.037	459.111
699.466	458.667
701.895	460.444
704.323	467.333
706.749	462.444
709.175	471.778
711.601	470.667
714.025	455.556
716.449	456
718.871	462.889
721.294	463.556
723.716	461.111
726.136	455.111
728.556	456.444
730.975	454.444
733.394	459.778
735.812	458.667
738.228	449.111
740.644	444
743.058	456.222
745.473	456.889
747.886	449.556
750.3	460.667
752.711	447.556
755.123	453.556
757.533	441.333
759.942	454.444
762.351	451.333
764.759	457.333
767.167	453.333
769.573	459.778
771.979	452.222
774.383	458.889
776.787	461.556
779.191	459.556
781.593	465.556
783.994	465.111
786.396	457.778
788.796	458
791.195	458.667
793.595	464.222
795.992	461.556
798.389	450.222
800.786	456.444
803.181	462.889
805.576	467.111
807.969	455.111
810.363	467.778
812.755	450.222
815.147	468.889
817.537	469.778
819.927	458.889
822.318	464.667
824.706	464.222
827.093	460.222
829.48	454
831.866	458.222
834.251	469.111
836.636	462.667
839.021	457.111
841.404	455.556
843.786	453.111
846.167	456
848.548	446.667
850.928	455.556
853.307	462.667
855.685	454.667
858.063	453.778
860.44	456.889
862.816	456.667
865.192	460.222
867.566	462.667
869.94	454
872.313	468
874.685	453.778
877.057	459.111
879.428	454.889
881.798	455.333
884.167	459.778
886.536	463.556
888.902	459.778
891.269	464.667
893.636	459.111
896.001	457.333
898.366	470.444
900.73	463.111
903.094	464.222
905.455	459.111
907.817	456
910.178	457.556
912.538	459.333
914.898	449.333
917.255	458
919.613	447.778
921.971	456
924.327	444.667
926.682	452.889
929.037	450
931.391	452.667
933.744	454.889
936.096	444.889
938.449	453.778
940.799	444.444
943.149	444.222
945.499	456.667
947.847	445.333
950.195	448.889
952.542	450.444
954.889	455.333
957.235	450.222
959.579	458.444
961.924	456
964.266	459.333
966.609	457.556
968.951	457.333
971.292	456.667
973.632	464.444
975.972	447.111
978.31	454.889
980.649	447.778
982.986	448.222
985.323	459.556
987.659	461.778
989.994	461.333
992.328	460.444
994.662	456
996.995	480
999.326	460.667
1001.66	464.222
1003.99	462.222
1006.32	461.333
1008.65	464
1010.98	464
1013.3	458.889
1015.63	464.444
1017.96	463.778
1020.28	457.111
1022.61	463.556
1024.93	454.667
1027.25	466.667
1029.58	466.444
1031.9	469.111
1034.22	476.667
1036.54	473.111
1038.86	456.667
1041.18	469.778
1043.49	472.667
1045.81	473.778
1048.13	471.778
1050.44	481.111
1052.76	487.111
1055.07	496.444
1057.39	508.444
1059.7	512.889
1062.01	525.556
1064.32	561.556
1066.63	623.111
1068.94	710.667
1071.25	805.778
1073.56	871.555
1075.87	894.444
1078.17	839.333
1080.48	734.889
1082.79	669.111
1085.09	598.222
1087.39	574.444
1089.7	539.333
1092	553.333
1094.3	542
1096.6	549.333
1098.9	535.333
1101.2	531.333
1103.5	514.222
1105.8	505.556
1108.1	510
1110.39	510.889
1112.69	500.667
1114.98	500.444
1117.28	513.111
1119.57	512.444
1121.86	510.667
1124.16	509.778
1126.45	503.778
1128.74	505.333
1131.03	488.889
1133.32	481.333
1135.61	479.778
1137.89	483.333
1140.18	479.778
1142.47	475.111
1144.75	478.222
1147.04	488.444
1149.32	479.333
1151.61	490.667
1153.89	489.778
1156.17	489.111
1158.45	492.667
1160.73	491.333
1163.01	490.889
1165.29	501.556
1167.57	498.222
1169.85	509.778
1172.12	546.889
1174.4	565.333
1176.68	599.333
1178.95	607.333
1181.22	568.444
1183.5	548.667
1185.77	529.778
1188.04	512.222
1190.31	499.111
1192.58	497.333
1194.85	501.111
1197.12	505.111
1199.39	507.333
1201.66	519.556
1203.92	495.556
1206.19	491.111
1208.45	487.333
1210.72	487.778
1212.98	469.111
1215.25	477.556
1217.51	472.667
1219.77	475.556
1222.03	482
1224.29	480.889
1226.55	482
1228.81	485.556
1231.07	482.222
1233.33	486.889
1235.58	485.111
1237.84	481.556
1240.09	479.111
1242.35	480.889
1244.6	494.889
1246.86	493.333
1249.11	487.111
1251.36	481.111
1253.61	494.444
1255.86	503.556
1258.11	490.222
1260.36	486.667
1262.61	492.222
1264.86	497.111
1267.1	495.111
1269.35	499.778
1271.6	489.556
1273.84	498.889
1276.08	494.889
1278.33	490.889
1280.57	497.333
1282.81	476.444
1285.05	492.889
1287.29	494
1289.53	490.889
1291.77	496.667
1294.01	493.333
1296.25	487.111
1298.48	485.111
1300.72	483.778
1302.96	499.778
1305.19	490.889
1307.42	497.556
1309.66	488.667
1311.89	483.556
1314.12	499.778
1316.35	494.667
1318.58	494.222
1320.81	495.778
1323.04	502.222
1325.27	500.667
1327.5	489.111
1329.73	496.667
1331.95	492.889
1334.18	498.222
1336.4	499.778
1338.63	502.444
1340.85	499.778
1343.08	496.667
1345.3	495.333
1347.52	485.111
1349.74	488.667
1351.96	489.111
1354.18	486.889
1356.4	492.222
1358.61	485.111
1360.83	483.111
1363.05	484.444
1365.27	489.333
1367.48	488.667
1369.69	502.667
1371.91	498.444
1374.12	495.778
1376.33	499.778
1378.55	499.778
1380.76	492
1382.97	500.667
1385.18	499.333
1387.39	497.111
1389.59	490.222
1391.8	486.222
1394.01	479.778
1396.21	476.889
1398.42	484.667
1400.63	482
1402.83	480.444
1405.03	484.222
1407.24	487.333
1409.44	485.111
1411.64	485.778
1413.84	475.556
1416.04	477.333
1418.24	482.667
1420.44	474.889
1422.64	474
1424.83	471.778
1427.03	468.222
1429.23	485.111
1431.42	460.222
1433.62	488
1435.81	489.111
1438	471.111
1440.19	475.111
1442.39	479.556
1444.58	478.222
1446.77	487.111
1448.96	469.111
1451.15	481.111
1453.34	485.556
1455.52	488
1457.71	502.444
1459.9	499.778
1462.08	504
1464.27	492.667
1466.45	497.111
1468.64	501.778
1470.82	507.778
1473	507.333
1475.18	504.222
1477.36	515.111
1479.54	503.556
1481.72	487.111
1483.9	496.222
1486.08	470.444
1488.26	477.111
1490.43	477.111
1492.61	475.778
1494.78	478.889
1496.96	486
1499.13	476.667
1501.31	490.222
1503.48	469.556
1505.65	475.333
1507.82	484.889
1509.99	481.556
1512.16	495.111
1514.33	491.111
1516.5	484
1518.67	493.111
1520.84	492.444
1523	497.556
1525.17	494.889
1527.34	503.111
1529.5	485.111
1531.66	497.778
1533.83	486.889
1535.99	481.111
1538.15	495.111
1540.31	490.667
1542.47	500
1544.63	488.889
1546.79	493.333
1548.95	505.556
1551.11	503.778
1553.27	503.333
1555.42	514
1557.58	504.222
1559.73	516.444
1561.89	519.556
1564.04	519.556
1566.2	528.889
1568.35	544.667
1570.5	551.555
1572.65	573.778
1574.8	627.111
1576.95	679.778
1579.1	760.222
1581.25	843.778
1583.4	940.444
1585.55	964.889
1587.69	890.667
1589.84	788.889
1591.99	702.667
1594.13	640
1596.27	603.111
1598.42	567.556
1600.56	558.222
1602.7	555.333
1604.84	544.667
1606.98	512
1609.12	537.111
1611.26	516.222
1613.4	511.111
1615.54	502.444
1617.68	507.778
1619.81	490.222
1621.95	486
1624.08	483.111
1626.22	477.778
1628.35	475.778
1630.49	481.778
1632.62	466
1634.75	462.889
1636.88	468.222
1639.01	460.889
1641.14	452.222
1643.27	454.444
1645.4	462.444
1647.53	453.333
1649.66	460.889
1651.79	447.111
1653.91	437.778
1656.04	436
1658.16	448
1660.29	442.222
1662.41	435.111
1664.53	435.333
1666.66	424.222
1668.78	422.889
1670.9	422.444
1673.02	430.222
1675.14	435.778
1677.26	416.222
1679.38	417.778
1681.49	419.556
1683.61	417.778
1685.73	414.889
1687.84	418.889
1689.96	417.333
1692.07	420
1694.19	406.222
1696.3	408.444
1698.41	409.333
1700.52	404.889
1702.64	414
1704.75	401.111
1706.86	410.889
1708.97	399.778
1711.07	409.778
1713.18	404
1715.29	413.778
1717.4	410.889
1719.5	400.667
1721.61	397.333
1723.71	392.889
1725.82	402.222
1727.92	399.111
1730.02	396.222
1732.12	404.889
1734.23	397.556
1736.33	393.778
1738.43	382.667
1740.53	397.778
1742.63	392.889
1744.72	391.333
1746.82	382.444
1748.92	386.222
1751.02	387.778
1753.11	392.222
1755.21	384.222
1757.3	383.111
1759.4	381.111
1761.49	384.889
1763.58	386
1765.67	386.444
1767.76	382.444
1769.86	377.333
1771.95	382
1774.03	375.556
1776.12	380.889
1778.21	386
1780.3	378.222
1782.39	380.889
1784.47	382.889
1786.56	381.778
1788.64	388.889
1790.73	383.556
1792.81	367.778
1794.89	386.667
1796.98	381.556
1799.06	371.556
1801.14	376.667
1803.22	378.889
1805.3	385.333
1807.38	376.444
1809.46	375.778
1811.54	373.333
1813.61	367.778
1815.69	385.778
1817.77	377.111
1819.84	374.222
1821.92	376.667
1823.99	372.222
1826.06	375.556
1828.14	372.889
1830.21	370.222
1832.28	374.889
1834.35	369.111
1836.42	369.778
1838.49	375.111
1840.56	362.889
1842.63	374.889
1844.7	370
1846.77	368.444
1848.83	363.333
1850.9	366.222
1852.96	370.444
1855.03	372.444
1857.09	367.333
1859.15	364.222
1861.22	365.778
1863.28	362.667
1865.34	363.778
1867.4	356.889
1869.46	353.111
1871.52	361.111
1873.58	356.889
1875.64	356.889
1877.7	358
1879.76	359.556
1881.81	364.667
1883.87	362.222
1885.92	365.556
1887.98	356.889
1890.03	345.333
1892.09	357.556
1894.14	362.222
1896.19	356.889
1898.24	359.556
1900.29	358.667
1902.34	352
1904.4	363.333
1906.44	356.222
1908.49	359.333
1910.54	358.222
1912.59	354.889
1914.63	348.667
1916.68	359.333
1918.73	353.333
1920.77	362.444
1922.81	353.333
1924.86	347.111
1926.9	350.222
1928.94	357.778
1930.99	355.778
1933.03	349.111
1935.07	348
1937.11	347.111
1939.15	354
1941.19	347.778
1943.22	359.111
1945.26	342
1947.3	344
1949.33	342.667
1951.37	342.222
1953.4	336.889
1955.44	353.333
1957.47	344.444
1959.51	339.333
1961.54	346.222
1963.57	339.111
1965.6	341.556
1967.63	347.333
1969.66	340.667
1971.69	340.889
1973.72	335.111
1975.75	344.444
1977.78	336.222
1979.8	336.444
1981.83	343.778
1983.86	345.111
1985.88	337.333
1987.91	336.222
1989.93	335.556
1991.95	332.444
1993.98	335.778
1996	339.333
1998.02	341.333
2000.04	335.333
2002.06	338.889
2004.08	333.778
2006.1	330.889
2008.12	338.444
2010.14	333.333
2012.15	329.556
2014.17	330.222
2016.19	338.889
2018.2	333.556
2020.22	335.556
2022.23	338.222
2024.25	330.444
2026.26	324.667
2028.27	331.778
2030.28	333.556
2032.29	326
2034.3	326.444
2036.32	326
2038.32	330.444
2040.33	329.111
2042.34	333.556
2044.35	331.778
2046.36	327.556
2048.36	320.444
2050.37	324.889
2052.37	328.667
2054.38	330.444
2056.38	329.556
2058.39	331.333
2060.39	322.889
2062.39	321.333
2064.39	328.667
2066.39	332
2068.39	323.333
2070.39	332.667
2072.39	326.444
2074.39	322
2076.39	330.667
2078.39	314.667
2080.39	318.667
2082.38	326
2084.38	319.556
2086.37	328
2088.37	317.111
2090.36	322.222
2092.35	323.333
2094.35	316.667
2096.34	318
2098.33	319.778
2100.32	315.333
2102.31	316.222
2104.3	330.444
2106.29	320.667
2108.28	320.444
2110.27	317.333
2112.25	313.778
2114.24	316.444
2116.23	328.889
2118.21	330.889
2120.2	341.111
2122.18	337.556
2124.17	348.889
2126.15	339.111
2128.13	340
2130.11	344
2132.09	339.111
2134.08	347.556
2136.06	336.222
2138.04	340.444
2140.02	342.444
2141.99	334
2143.97	332.889
2145.95	323.556
2147.93	331.333
2149.9	318.444
2151.88	332.444
2153.85	320.444
2155.83	319.778
2157.8	320
2159.77	307.778
2161.75	317.778
2163.72	307.778
2165.69	317.556
2167.66	320.444
2169.63	306
2171.6	309.333
2173.57	314.444
2175.54	311.556
2177.51	309.111
2179.47	306.444
2181.44	302
2183.41	307.333
2185.37	299.778
2187.34	298.889
2189.3	300.667
2191.27	299.111
2193.23	293.556
2195.19	293.111
2197.15	307.111
2199.11	304
2201.08	303.556
2203.04	303.333
2205	299.111
2206.96	309.556
2208.91	313.111
2210.87	319.333
2212.83	319.778
2214.79	336.444
2216.74	357.778
2218.7	389.556
2220.65	417.778
2222.61	450
2224.56	467.556
2226.52	490.889
2228.47	486.889
2230.42	466.222
2232.37	437.111
2234.32	410.222
2236.27	384.889
2238.22	348.889
2240.17	338.667
2242.12	320.667
2244.07	316.889
2246.02	312
2247.97	305.333
2249.91	302.222
2251.86	298.889
2253.8	303.333
2255.75	300.667
2257.69	288.889
2259.64	289.111
2261.58	290.667
2263.52	281.556
2265.46	284.667
2267.4	276.889
2269.35	281.111
2271.29	279.778
2273.23	275.778
2275.16	275.111
2277.1	278.222
2279.04	273.333
2280.98	284.444
2282.92	277.333
2284.85	275.333
2286.79	269.556
2288.72	276.222
2290.66	273.556
2292.59	273.111
2294.52	280
2296.46	276.889
2298.39	277.333
2300.32	273.778
2302.25	273.333
2304.18	273.778
2306.11	267.333
2308.04	272.667
2309.97	278.222
2311.9	271.778
2313.83	272
2315.75	264.667
2317.68	276.222
2319.61	273.333
2321.53	265.333
2323.46	267.111
2325.38	264.444
2327.3	266.222
2329.23	265.556
2331.15	266.667
2333.07	266.444
2334.99	271.778
2336.91	270.222
2338.83	270.444
2340.75	265.333
2342.67	261.556
2344.59	267.778
2346.51	264.222
2348.43	262.444
2350.35	268.667
2352.26	272.667
2354.18	262.667
2356.09	261.333
2358.01	262.444
2359.92	262
2361.83	265.111
2363.75	261.111
2365.66	260.222
2367.57	256.889
2369.48	259.333
2371.39	263.111
2373.31	263.556
2375.21	255.333
2377.12	259.111
2379.03	269.778
2380.94	254.889
2382.85	255.778
2384.76	262.222
2386.66	263.111
2388.57	253.111
2390.47	254.667
2392.38	250
2394.28	249.778
2396.18	257.778
2398.09	254.667
2399.99	253.556
2401.89	258.222
2403.79	254.444
2405.69	251.778
2407.59	247.333
2409.49	251.556
2411.39	246.222
2413.29	245.556
2415.19	253.111
2417.09	256.444
2418.98	247.556
2420.88	250.889
2422.78	246.667
2424.67	249.111
2426.57	251.556
2428.46	252.667
2430.35	257.556
2432.25	247.111
2434.14	241.111
2436.03	245.778
2437.92	242.222
2439.81	239.556
2441.7	244
2443.59	242.444
2445.48	246.889
2447.37	241.556
2449.26	248
2451.15	243.333
2453.03	243.556
