186.85	429.111
189.449	442.889
192.047	452
194.645	437.111
197.241	445.556
199.837	446.667
202.431	434.667
205.025	429.333
207.619	431.333
210.21	437.556
212.802	422
215.392	435.333
217.982	431.333
220.57	432.889
223.158	430.667
225.744	426
228.331	423.556
230.915	421.778
233.5	424
236.083	419.333
238.666	426.667
241.247	424
243.827	424.222
246.408	431.111
248.986	439.333
251.565	434.444
254.142	434
256.719	446.444
259.294	440.222
261.868	441.778
264.443	437.778
267.015	440.667
269.587	438.889
272.159	439.333
274.729	443.778
277.298	443.556
279.867	446.444
282.435	438
285.001	440.444
287.568	450.889
290.133	459.556
292.697	455.333
295.26	451.333
297.824	454.222
300.385	464.889
302.945	463.556
305.505	462
308.064	468.444
310.623	450.667
313.18	458.889
315.737	449.333
318.292	447.333
320.847	456.667
323.402	442.667
325.955	454.222
328.507	452.889
331.058	458.222
333.609	457.111
336.158	456.444
338.707	462.889
341.255	463.778
343.802	453.111
346.349	461.333
348.895	473.333
351.439	480.889
353.983	484.667
356.526	501.778
359.068	513.333
361.609	520.889
364.149	523.333
366.689	514.222
369.227	500
371.765	487.556
374.302	481.778
376.838	475.556
379.374	478.889
381.908	472.667
384.442	469.111
386.973	463.778
389.505	464.222
392.036	462.222
394.567	470.222
397.096	458.444
399.625	468.667
402.153	473.333
404.68	476
407.206	466.889
409.73	470.222
412.254	469.111
414.778	468.222
417.301	461.778
419.823	455.333
422.343	469.111
424.863	464.667
427.383	467.556
429.901	468.889
432.418	470.889
434.935	475.556
437.451	479.111
439.966	490.667
442.48	485.333
444.993	482.889
447.506	474
450.019	479.111
452.528	471.333
455.039	471.556
457.549	482
460.056	470
462.564	472.222
465.07	462.222
467.576	478.444
470.082	468.222
472.585	456.889
475.089	483.778
477.591	478
480.093	478.222
482.595	481.333
485.094	486.444
487.594	491.333
490.091	478.222
492.59	489.556
495.086	488.444
497.582	486.667
500.076	475.556
502.571	484.889
505.064	482.444
507.558	480.444
510.049	481.111
512.54	481.556
515.03	478.667
517.518	483.556
520.008	482.667
522.495	474.667
524.983	475.778
527.468	477.778
529.954	478.889
532.438	464.667
534.921	473.333
537.404	469.333
539.886	481.778
542.366	492.222
544.848	482
547.327	484.444
549.805	481.333
552.284	488
554.76	483.333
557.236	484.667
559.711	476.444
562.186	477.778
564.66	481.111
567.132	488.444
569.604	499.111
572.076	510.667
574.547	535.333
577.016	561.111
579.484	595.556
581.952	606.889
584.419	583.556
586.887	555.778
589.352	529.556
591.816	502.444
594.28	502
596.743	484
599.205	486
601.667	485.556
604.127	473.778
606.588	490.444
609.047	478.889
611.505	490.444
613.963	473.778
616.419	481.778
618.875	476.667
621.33	487.111
623.784	486.444
626.238	485.333
628.69	485.778
631.142	484.889
633.593	480.444
636.043	496.667
638.493	499.556
640.941	488.222
643.389	499.556
645.835	487.556
648.281	486.667
650.727	497.778
653.171	481.778
655.615	485.778
658.058	485.556
660.501	492.222
662.942	490.444
665.382	484.444
667.822	487.778
670.261	477.778
672.699	479.778
675.137	482.889
677.574	491.778
680.008	487.333
682.443	486.889
684.878	486.889
687.312	491.778
689.743	485.111
692.175	480.222
694.607	489.111
697.037	484.222
699.466	499.333
701.895	484.222
704.323	497.111
706.749	496.667
709.175	504.667
711.601	496.222
714.025	495.111
716.449	498.889
718.871	492
721.294	488
723.716	490.222
726.136	494
728.556	484.222
730.975	497.111
733.394	484.444
735.812	494
738.228	483.111
740.644	478
743.058	480.889
745.473	490
747.886	484.222
750.3	484.667
752.711	494.444
755.123	486.889
757.533	481.778
759.942	485.556
762.351	492.889
764.759	484
767.167	488.889
769.573	491.778
771.979	493.111
774.383	497.778
776.787	498.222
779.191	498
781.593	492.444
783.994	489.778
786.396	500.222
788.796	494.667
791.195	495.111
793.595	490.444
795.992	486.667
798.389	495.111
800.786	487.778
803.181	496.889
805.576	488.444
807.969	496.444
810.363	490.667
812.755	503.333
815.147	509.333
817.537	499.333
819.927	511.111
822.318	507.556
824.706	501.778
827.093	512.889
829.48	506.222
831.866	505.111
834.251	500.444
836.636	509.778
839.021	509.111
841.404	506.222
843.786	509.778
846.167	498.222
848.548	504.667
850.928	502.222
853.307	492.444
855.685	492.889
858.063	490.444
860.44	504.889
862.816	500.222
865.192	503.111
867.566	495.111
869.94	493.778
872.313	488.667
874.685	501.556
877.057	493.778
879.428	503.111
881.798	496.444
884.167	490
886.536	500.667
888.902	494.889
891.269	502.444
893.636	500.444
896.001	498.667
898.366	497.111
900.73	502
903.094	493.111
905.455	510.889
907.817	493.333
910.178	494.444
912.538	491.333
914.898	486.667
917.255	487.556
919.613	493.333
921.971	497.778
924.327	496.667
926.682	488
929.037	486
931.391	494.444
933.744	491.333
936.096	494.222
938.449	493.778
940.799	487.778
943.149	483.778
945.499	499.556
947.847	486
950.195	498.667
952.542	507.333
954.889	506.667
957.235	491.111
959.579	491.333
961.924	499.333
964.266	500.889
966.609	499.778
968.951	505.556
971.292	499.556
973.632	500.444
975.972	504.889
978.31	512.222
980.649	494.667
982.986	502
985.323	503.778
987.659	506.222
989.994	508.889
992.328	501.333
994.662	503.778
996.995	497.111
999.326	513.111
1001.66	502.889
1003.99	515.555
1006.32	510
1008.65	501.333
1010.98	510.667
1013.3	516.222
1015.63	531.111
1017.96	519.333
1020.28	522.444
1022.61	517.333
1024.93	517.333
1027.25	499.778
1029.58	508
1031.9	513.111
1034.22	517.555
1036.54	528.444
1038.86	517.333
1041.18	529.778
1043.49	531.333
1045.81	542.667
1048.13	548
1050.44	546.222
1052.76	544
1055.07	564.889
1057.39	587.556
1059.7	617.778
1062.01	663.556
1064.32	734.444
1066.63	859.556
1068.94	998.444
1071.25	1138.22
1073.56	1187.11
1075.87	1127.78
1078.17	1039.33
1080.48	892.889
1082.79	774.222
1085.09	704.222
1087.39	668.444
1089.7	634.889
1092	614
1094.3	602.667
1096.6	606.222
1098.9	609.778
1101.2	582.222
1103.5	573.111
1105.8	561.333
1108.1	567.556
1110.39	569.556
1112.69	567.111
1114.98	571.333
1117.28	558.889
1119.57	570
1121.86	566.889
1124.16	568
1126.45	562.667
1128.74	553.778
1131.03	552.667
1133.32	556
1135.61	552.222
1137.89	543.333
1140.18	542
1142.47	538.889
1144.75	549.778
1147.04	550.667
1149.32	557.111
1151.61	548.889
1153.89	548.444
1156.17	546
1158.45	567.333
1160.73	562.889
1163.01	566.444
1165.29	575.111
1167.57	579.778
1169.85	613.556
1172.12	646
1174.4	716.667
1176.68	763.556
1178.95	742.889
1181.22	717.111
1183.5	646.667
1185.77	626.667
1188.04	593.111
1190.31	587.778
1192.58	583.556
1194.85	601.111
1197.12	601.333
1199.39	604.889
1201.66	593.333
1203.92	568.889
1206.19	581.333
1208.45	563.778
1210.72	562
1212.98	559.556
1215.25	560.222
1217.51	552.889
1219.77	556.889
1222.03	560.222
1224.29	553.556
1226.55	561.778
1228.81	557.556
1231.07	555.333
1233.33	568.889
1235.58	556
1237.84	560.667
1240.09	560.444
1242.35	557.778
1244.6	565.556
1246.86	574
1249.11	571.556
1251.36	566
1253.61	574.889
1255.86	572.667
1258.11	579.556
1260.36	567.111
1262.61	579.333
1264.86	561.778
1267.1	575.778
1269.35	563.333
1271.6	570
1273.84	576.889
1276.08	574.444
1278.33	572.889
1280.57	576.889
1282.81	580.222
1285.05	564.444
1287.29	568.222
1289.53	575.111
1291.77	568.667
1294.01	581.778
1296.25	571.333
1298.48	578
1300.72	576.444
1302.96	567.333
1305.19	570.222
1307.42	570.889
1309.66	567.778
1311.89	569.778
1314.12	573.778
1316.35	571.556
1318.58	565.111
1320.81	577.333
1323.04	574.889
1325.27	579.778
1327.5	570.667
1329.73	590.222
1331.95	565.333
1334.18	571.556
1336.4	569.111
1338.63	578.444
1340.85	580
1343.08	572.444
1345.3	568.889
1347.52	570.889
1349.74	564
1351.96	571.778
1354.18	561.778
1356.4	565.111
1358.61	570.889
1360.83	560
1363.05	565.556
1365.27	566.667
1367.48	571.111
1369.69	571.333
1371.91	572
1374.12	586
1376.33	571.111
1378.55	576.889
1380.76	582
1382.97	573.556
1385.18	574
1387.39	573.111
1389.59	576
1391.8	568.889
1394.01	568.667
1396.21	571.778
1398.42	566.667
1400.63	568.222
1402.83	562.222
1405.03	562.889
1407.24	550
1409.44	552.222
1411.64	558.222
1413.84	573.556
1416.04	548.889
1418.24	559.778
1420.44	569.778
1422.64	545.556
1424.83	549.333
1427.03	553.778
1429.23	557.556
1431.42	554.889
1433.62	546.889
1435.81	556.222
1438	559.111
1440.19	552.667
1442.39	560.222
1444.58	546.222
1446.77	564.444
1448.96	558.889
1451.15	563.333
1453.34	568.444
1455.52	569.556
1457.71	581.111
1459.9	591.556
1462.08	593.111
1464.27	594.889
1466.45	604
1468.64	598.222
1470.82	618.444
1473	620.667
1475.18	635.778
1477.36	632.444
1479.54	619.778
1481.72	592
1483.9	598
1486.08	590.667
1488.26	595.778
1490.43	586.667
1492.61	583.111
1494.78	586.222
1496.96	586.222
1499.13	589.333
1501.31	590.222
1503.48	583.333
1505.65	603.778
1507.82	609.556
1509.99	613.778
1512.16	610
1514.33	613.111
1516.5	614.667
1518.67	621.111
1520.84	631.778
1523	633.556
1525.17	644.444
1527.34	632.889
1529.5	642.445
1531.66	617.333
1533.83	631.111
1535.99	634.222
1538.15	628.889
1540.31	618
1542.47	618.667
1544.63	623.333
1546.79	634
1548.95	617.778
1551.11	633.111
1553.27	641.111
1555.42	630
1557.58	635.333
1559.73	648.667
1561.89	653.333
1564.04	681.778
1566.2	706
1568.35	719.556
1570.5	736.444
1572.65	792.667
1574.8	844.667
1576.95	959.111
1579.1	1093.33
1581.25	1221.33
1583.4	1335.33
1585.55	1291.56
1587.69	1160.67
1589.84	1022.44
1591.99	912.222
1594.13	840.889
1596.27	791.333
1598.42	746
1600.56	711.111
1602.7	682.444
1604.84	660.222
1606.98	659.556
1609.12	630.222
1611.26	623.111
1613.4	622
1615.54	603.333
1617.68	598
1619.81	602
1621.95	582.222
1624.08	572.444
1626.22	559.111
1628.35	552.222
1630.49	559.333
1632.62	547.333
1634.75	541.333
1636.88	530.889
1639.01	522.667
1641.14	532.444
1643.27	524.222
1645.4	524.222
1647.53	506.889
1649.66	510.222
1651.79	503.778
1653.91	505.333
1656.04	499.556
1658.16	496.444
1660.29	487.556
1662.41	488
1664.53	481.778
1666.66	485.556
1668.78	474.444
1670.9	479.333
1673.02	468.667
1675.14	462
1677.26	459.778
1679.38	467.333
1681.49	463.556
1683.61	460.667
1685.73	454.889
1687.84	459.333
1689.96	458.889
1692.07	442.444
1694.19	449.778
1696.3	447.556
1698.41	441.111
1700.52	451.111
1702.64	447.111
1704.75	446.444
1706.86	452.444
1708.97	447.111
1711.07	443.778
1713.18	446
1715.29	434
1717.4	439.778
1719.5	441.111
1721.61	429.111
1723.71	446
1725.82	437.556
1727.92	428.222
1730.02	432.667
1732.12	435.556
1734.23	426.222
1736.33	433.556
1738.43	429.333
1740.53	424.222
1742.63	435.333
1744.72	420.889
1746.82	415.556
1748.92	420.222
1751.02	412
1753.11	417.556
1755.21	420.222
1757.3	420.889
1759.4	421.111
1761.49	420.667
1763.58	414
1765.67	424.222
1767.76	420.444
1769.86	416.444
1771.95	407.556
1774.03	414.667
1776.12	409.556
1778.21	420
1780.3	409.778
1782.39	408.444
1784.47	406.889
1786.56	408.222
1788.64	405.556
1790.73	416
1792.81	411.111
1794.89	412
1796.98	402.444
1799.06	400
1801.14	414.222
1803.22	409.556
1805.3	403.556
1807.38	409.556
1809.46	405.111
1811.54	407.556
1813.61	410.222
1815.69	405.778
1817.77	401.111
1819.84	408.667
1821.92	401.778
1823.99	396.667
1826.06	395.556
1828.14	392.889
1830.21	407.333
1832.28	400.889
1834.35	401.333
1836.42	405.333
1838.49	402.667
1840.56	400.889
1842.63	392
1844.7	389.556
1846.77	402
1848.83	391.556
1850.9	393.333
1852.96	400.444
1855.03	387.111
1857.09	390.222
1859.15	385.111
1861.22	390.667
1863.28	379.556
1865.34	392.889
1867.4	378.889
1869.46	368
1871.52	381.333
1873.58	382
1875.64	387.111
1877.7	386.222
1879.76	381.333
1881.81	374.444
1883.87	373.333
1885.92	383.778
1887.98	375.111
1890.03	380.444
1892.09	380.667
1894.14	378
1896.19	376.889
1898.24	382.667
1900.29	376.444
1902.34	377.333
1904.4	375.556
1906.44	380
1908.49	373.556
1910.54	382.222
1912.59	380.889
1914.63	367.333
1916.68	382
1918.73	373.778
1920.77	377.333
1922.81	371.333
1924.86	377.333
1926.9	373.556
1928.94	378
1930.99	383.111
1933.03	367.556
1935.07	376
1937.11	372.222
1939.15	373.556
1941.19	370.889
1943.22	373.778
1945.26	371.111
1947.3	362.222
1949.33	361.556
1951.37	371.778
1953.4	368
1955.44	369.556
1957.47	368.889
1959.51	372.444
1961.54	361.111
1963.57	365.111
1965.6	358.444
1967.63	358
1969.66	357.333
1971.69	370.667
1973.72	361.333
1975.75	358
1977.78	359.778
1979.8	361.333
1981.83	352
1983.86	359.778
1985.88	355.556
1987.91	352
1989.93	358.222
1991.95	359.333
1993.98	356
1996	350.889
1998.02	343.778
2000.04	351.556
2002.06	361.556
2004.08	347.333
2006.1	354.667
2008.12	351.778
2010.14	352.667
2012.15	363.778
2014.17	359.556
2016.19	346
2018.2	349.778
2020.22	345.333
2022.23	343.333
2024.25	353.556
2026.26	348.889
2028.27	348.889
2030.28	352.889
2032.29	353.333
2034.3	347.111
2036.32	352.667
2038.32	344.444
2040.33	345.111
2042.34	347.333
2044.35	348.889
2046.36	342.444
2048.36	351.333
2050.37	348
2052.37	353.556
2054.38	349.778
2056.38	338
2058.39	347.556
2060.39	340
2062.39	343.111
2064.39	342
2066.39	350
2068.39	350.667
2070.39	340.444
2072.39	353.333
2074.39	346.444
2076.39	342.222
2078.39	337.556
2080.39	347.778
2082.38	347.111
2084.38	351.111
2086.37	330.444
2088.37	339.333
2090.36	334.667
2092.35	338.444
2094.35	346
2096.34	339.333
2098.33	346.889
2100.32	328.889
2102.31	335.556
2104.3	346.667
2106.29	342.444
2108.28	340.889
2110.27	333.111
2112.25	337.111
2114.24	340.222
2116.23	340
2118.21	347.111
2120.2	349.556
2122.18	340.667
2124.17	351.333
2126.15	350.444
2128.13	357.556
2130.11	352.889
2132.09	350.444
2134.08	346
2136.06	338.667
2138.04	345.556
2140.02	341.556
2141.99	347.556
2143.97	347.556
2145.95	339.556
2147.93	336
2149.9	342.222
2151.88	340.222
2153.85	332
2155.83	339.556
2157.8	324.444
2159.77	328.444
2161.75	329.778
2163.72	328
2165.69	332.222
2167.66	332.667
2169.63	335.333
2171.6	335.778
2173.57	322.444
2175.54	327.333
2177.51	321.111
2179.47	324
2181.44	322.889
2183.41	322.667
2185.37	324.667
2187.34	326
2189.3	321.333
2191.27	321.111
2193.23	318.444
2195.19	310
2197.15	312.889
2199.11	318.444
2201.08	321.333
2203.04	327.111
2205	328.667
2206.96	334.889
2208.91	334.222
2210.87	354.222
2212.83	367.556
2214.79	382.889
2216.74	422.222
2218.7	467.556
2220.65	531.111
2222.61	572.667
2224.56	595.333
2226.52	594
2228.47	577.111
2230.42	537.778
2232.37	490.667
2234.32	451.556
2236.27	419.778
2238.22	388.667
2240.17	368.889
2242.12	352.222
2244.07	340.889
2246.02	337.778
2247.97	325.111
2249.91	321.333
2251.86	323.333
2253.8	319.111
2255.75	317.778
2257.69	306.667
2259.64	308.667
2261.58	306.444
2263.52	294.222
2265.46	297.556
2267.4	302.222
2269.35	297.111
2271.29	295.333
2273.23	295.778
2275.16	295.111
2277.1	304.222
2279.04	291.111
2280.98	298.889
2282.92	294.889
2284.85	298.222
2286.79	292.222
2288.72	289.111
2290.66	290.889
2292.59	292.889
2294.52	284.444
2296.46	292
2298.39	290.667
2300.32	288.889
2302.25	286.444
2304.18	284.444
2306.11	280.444
2308.04	289.556
2309.97	284.667
2311.9	289.556
2313.83	283.778
2315.75	290.667
2317.68	280
2319.61	282.444
2321.53	280
2323.46	286
2325.38	283.111
2327.3	288.444
2329.23	278
2331.15	283.333
2333.07	280.889
2334.99	286.222
2336.91	289.333
2338.83	281.556
2340.75	282
2342.67	282
2344.59	283.556
2346.51	290
2348.43	277.111
2350.35	282.222
2352.26	284.444
2354.18	288
2356.09	279.556
2358.01	281.778
2359.92	276.444
2361.83	274.889
2363.75	275.778
2365.66	275.333
2367.57	274.444
2369.48	281.111
2371.39	279.778
2373.31	287.778
2375.21	268.444
2377.12	272.444
2379.03	275.111
2380.94	272.222
2382.85	269.778
2384.76	277.333
2386.66	273.111
2388.57	277.778
2390.47	265.333
2392.38	268.444
2394.28	270
2396.18	261.556
2398.09	266.222
2399.99	263.333
2401.89	265.111
2403.79	269.556
2405.69	266
2407.59	270
2409.49	259.333
2411.39	264
2413.29	258
2415.19	265.111
2417.09	265.333
2418.98	269.556
2420.88	263.556
2422.78	264
2424.67	263.556
2426.57	263.556
2428.46	265.778
2430.35	263.556
2432.25	255.111
2434.14	256
2436.03	259.111
2437.92	260.222
2439.81	257.556
2441.7	264.889
2443.59	260
2445.48	259.556
2447.37	262
2449.26	260.444
2451.15	257.111
2453.03	254.889
