186.85	500.889
189.449	495.111
192.047	509.556
194.645	503.333
197.241	508.667
199.837	501.778
202.431	504.222
205.025	500
207.619	507.111
210.21	495.556
212.802	492.444
215.392	486.889
217.982	494.667
220.57	491.556
223.158	494.444
225.744	499.778
228.331	490.222
230.915	492.222
233.5	491.333
236.083	498.444
238.666	495.333
241.247	487.333
243.827	497.778
246.408	497.333
248.986	501.111
251.565	501.556
254.142	494.667
256.719	509.111
259.294	496.889
261.868	504.667
264.443	504.222
267.015	501.778
269.587	507.778
272.159	498.889
274.729	506.667
277.298	510
279.867	504.889
282.435	517.556
285.001	502.667
287.568	518.889
290.133	512.444
292.697	521.111
295.26	515.778
297.824	518.889
300.385	518.444
302.945	528
305.505	524
308.064	520
310.623	535.778
313.18	514.667
315.737	519.111
318.292	510.889
320.847	519.556
323.402	531.333
325.955	534.889
328.507	534.444
331.058	539.778
333.609	538
336.158	542
338.707	532.222
341.255	542.444
343.802	541.555
346.349	536.667
348.895	552.222
351.439	548.889
353.983	558.667
356.526	579.333
359.068	580.444
361.609	595.555
364.149	588
366.689	586.444
369.227	580.889
371.765	570
374.302	565.778
376.838	562.444
379.374	570
381.908	552.667
384.442	562.444
386.973	554.222
389.505	542.445
392.036	545.333
394.567	538
397.096	533.333
399.625	535.778
402.153	544.444
404.68	541.333
407.206	538
409.73	532.444
412.254	537.333
414.778	532
417.301	529.556
419.823	542.889
422.343	552.667
424.863	542.889
427.383	548.667
429.901	544.667
432.418	547.111
434.935	562.667
437.451	566.222
439.966	566.667
442.48	554.889
444.993	555.333
447.506	566
450.019	539.111
452.528	544
455.039	557.333
457.549	566
460.056	563.111
462.564	560.222
465.07	541.778
467.576	552
470.082	546.444
472.585	548.889
475.089	551.333
477.591	557.555
480.093	547.111
482.595	552.444
485.094	557.778
487.594	563.778
490.091	561.778
492.59	566
495.086	562.667
497.582	568.667
500.076	566.444
502.571	567.556
505.064	546.667
507.558	555.111
510.049	560.667
512.54	578.444
515.03	553.778
517.518	567.778
520.008	563.111
522.495	559.111
524.983	546.889
527.468	552.667
529.954	550.222
532.438	551.555
534.921	557.111
537.404	540.445
539.886	547.778
542.366	553.111
544.848	546.222
547.327	553.556
549.805	556
552.284	562.222
554.76	552.222
557.236	553.556
559.711	564.444
562.186	556.222
564.66	556.222
567.132	560
569.604	561.778
572.076	574.444
574.547	593.333
577.016	622
579.484	674.444
581.952	694.889
584.419	667.778
586.887	637.333
589.352	606.889
591.816	588.889
594.28	573.556
596.743	573.111
599.205	552.444
601.667	559.556
604.127	544.889
606.588	561.778
609.047	552
611.505	559.111
613.963	560
616.419	562
618.875	553.111
621.33	559.556
623.784	558.444
626.238	560.444
628.69	571.778
631.142	565.778
633.593	567.555
636.043	561.778
638.493	564.667
640.941	570.889
643.389	576.222
645.835	564.445
648.281	571.333
650.727	564
653.171	555.111
655.615	555.556
658.058	561.111
660.501	563.778
662.942	566.667
665.382	558.667
667.822	557.556
670.261	557.333
672.699	552.889
675.137	557.333
677.574	554
680.008	552.222
682.443	547.333
684.878	555.778
687.312	555.778
689.743	561.111
692.175	561.333
694.607	560.444
697.037	564.444
699.466	562.222
701.895	558
704.323	573.333
706.749	565.778
709.175	571.111
711.601	565.556
714.025	567.556
716.449	566.889
718.871	566.889
721.294	564.667
723.716	561.333
726.136	558
728.556	570.667
730.975	566.222
733.394	549.333
735.812	564
738.228	560.889
740.644	564.667
743.058	557.333
745.473	560.222
747.886	562.889
750.3	547.556
752.711	551.556
755.123	550.444
757.533	554.889
759.942	552.444
762.351	543.555
764.759	562
767.167	561.111
769.573	559.555
771.979	558
774.383	561.778
776.787	563.111
779.191	569.333
781.593	561.333
783.994	559.778
786.396	558.222
788.796	563.778
791.195	558.444
793.595	556.444
795.992	568.889
798.389	558.444
800.786	556
803.181	557.556
805.576	555.556
807.969	563.556
810.363	566.444
812.755	560.444
815.147	567.111
817.537	572.889
819.927	570.889
822.318	579.111
824.706	588.444
827.093	570.667
829.48	582.889
831.866	569.333
834.251	565.333
836.636	561.778
839.021	568.222
841.404	560
843.786	549.556
846.167	566.889
848.548	559.111
850.928	555.778
853.307	552.889
855.685	554.667
858.063	562.222
860.44	567.111
862.816	547.778
865.192	564.889
867.566	558.222
869.94	558.444
872.313	563.556
874.685	557.111
877.057	560.222
879.428	559.778
881.798	572
884.167	567.556
886.536	570
888.902	558.667
891.269	576
893.636	572.444
896.001	571.778
898.366	557.556
900.73	560.889
903.094	566.667
905.455	563.333
907.817	564
910.178	565.555
912.538	560.222
914.898	558
917.255	558.222
919.613	558.222
921.971	550.222
924.327	555.556
926.682	553.333
929.037	546.222
931.391	550.444
933.744	544
936.096	554.444
938.449	561.556
940.799	553.778
943.149	554.444
945.499	555.111
947.847	559.111
950.195	566.667
952.542	565.556
954.889	561.556
957.235	563.556
959.579	566.444
961.924	562.222
964.266	560
966.609	569.333
968.951	560
971.292	569.556
973.632	564.222
975.972	552.889
978.31	562.445
980.649	560.444
982.986	560.889
985.323	569.111
987.659	552.444
989.994	557.778
992.328	564.444
994.662	570
996.995	571.556
999.326	570
1001.66	577.778
1003.99	560.667
1006.32	557.556
1008.65	564.444
1010.98	567.778
1013.3	572.667
1015.63	572
1017.96	571.333
1020.28	556.889
1022.61	562.444
1024.93	564.222
1027.25	568.889
1029.58	572.889
1031.9	569.111
1034.22	561.333
1036.54	580.444
1038.86	581.778
1041.18	570
1043.49	580
1045.81	584.667
1048.13	603.556
1050.44	591.111
1052.76	615.333
1055.07	617.111
1057.39	639.555
1059.7	657.333
1062.01	679.778
1064.32	758.444
1066.63	855.556
1068.94	977.556
1071.25	1126.89
1073.56	1226.89
1075.87	1214.44
1078.17	1118
1080.48	972.222
1082.79	857.333
1085.09	762.889
1087.39	733.778
1089.7	691.333
1092	696
1094.3	705.556
1096.6	705.333
1098.9	700.444
1101.2	663.778
1103.5	653.333
1105.8	640.889
1108.1	644.222
1110.39	639.333
1112.69	632.222
1114.98	640.889
1117.28	639.556
1119.57	651.556
1121.86	649.778
1124.16	642.889
1126.45	650.444
1128.74	644.889
1131.03	645.778
1133.32	630.667
1135.61	629.778
1137.89	634
1140.18	639.111
1142.47	633.778
1144.75	625.555
1147.04	622.667
1149.32	627.555
1151.61	623.333
1153.89	618.667
1156.17	625.333
1158.45	629.778
1160.73	632
1163.01	626.444
1165.29	644
1167.57	649.111
1169.85	662.444
1172.12	704
1174.4	760.444
1176.68	808
1178.95	803.556
1181.22	772.222
1183.5	697.778
1185.77	673.778
1188.04	649.556
1190.31	651.111
1192.58	646.667
1194.85	659.778
1197.12	665.556
1199.39	663.556
1201.66	662.667
1203.92	647.778
1206.19	631.778
1208.45	618.667
1210.72	612
1212.98	607.778
1215.25	608.667
1217.51	612.667
1219.77	596.667
1222.03	606.222
1224.29	604.667
1226.55	595.111
1228.81	613.556
1231.07	602.667
1233.33	602.222
1235.58	615.111
1237.84	611.778
1240.09	626.222
1242.35	626.444
1244.6	609.111
1246.86	617.333
1249.11	616.444
1251.36	623.333
1253.61	620.222
1255.86	622.444
1258.11	624.667
1260.36	603.556
1262.61	612.667
1264.86	604.444
1267.1	632
1269.35	629.778
1271.6	609.556
1273.84	629.111
1276.08	610.445
1278.33	633.111
1280.57	614.444
1282.81	609.111
1285.05	621.778
1287.29	616
1289.53	619.556
1291.77	625.778
1294.01	608.667
1296.25	629.555
1298.48	639.111
1300.72	627.333
1302.96	634.667
1305.19	621.111
1307.42	633.556
1309.66	632.444
1311.89	627.111
1314.12	618.889
1316.35	621.111
1318.58	630.667
1320.81	624.444
1323.04	624.222
1325.27	627.111
1327.5	617.556
1329.73	618.444
1331.95	603.111
1334.18	620.222
1336.4	619.111
1338.63	634.222
1340.85	616.889
1343.08	615.778
1345.3	617.556
1347.52	616
1349.74	616
1351.96	604.889
1354.18	612.444
1356.4	614.889
1358.61	612.889
1360.83	616.889
1363.05	617.333
1365.27	614.889
1367.48	612.444
1369.69	622.222
1371.91	630.667
1374.12	615.556
1376.33	627.778
1378.55	635.111
1380.76	637.778
1382.97	630.222
1385.18	634.444
1387.39	628.222
1389.59	624
1391.8	618.667
1394.01	617.556
1396.21	615.556
1398.42	604.667
1400.63	626.444
1402.83	611.556
1405.03	629.111
1407.24	626.889
1409.44	627.333
1411.64	620.889
1413.84	610.222
1416.04	622.222
1418.24	616.444
1420.44	622.222
1422.64	624.667
1424.83	624.444
1427.03	619.778
1429.23	623.111
1431.42	632.444
1433.62	644
1435.81	616.222
1438	627.111
1440.19	647.778
1442.39	639.556
1444.58	642.222
1446.77	635.111
1448.96	634.889
1451.15	640.889
1453.34	640.889
1455.52	651.333
1457.71	657.333
1459.9	654.445
1462.08	668.222
1464.27	662.889
1466.45	670
1468.64	678.444
1470.82	668.889
1473	673.556
1475.18	694.444
1477.36	684.222
1479.54	692.444
1481.72	684.889
1483.9	674
1486.08	659.556
1488.26	669.778
1490.43	670.444
1492.61	678.444
1494.78	686.445
1496.96	674.444
1499.13	695.333
1501.31	693.111
1503.48	694.667
1505.65	687.555
1507.82	685.333
1509.99	695.111
1512.16	691.778
1514.33	694.222
1516.5	692.667
1518.67	670.667
1520.84	681.111
1523	674.444
1525.17	651.111
1527.34	671.333
1529.5	667.111
1531.66	664.889
1533.83	674
1535.99	680.444
1538.15	689.778
1540.31	669.111
1542.47	680.667
1544.63	666.667
1546.79	690.222
1548.95	678
1551.11	675.778
1553.27	696.667
1555.42	690.222
1557.58	696.222
1559.73	700.667
1561.89	698.667
1564.04	713.111
1566.2	731.111
1568.35	756.222
1570.5	781.778
1572.65	813.778
1574.8	883.778
1576.95	967.333
1579.1	1111.56
1581.25	1248.67
1583.4	1365.78
1585.55	1365.78
1587.69	1236.67
1589.84	1072.22
1591.99	942.667
1594.13	873.333
1596.27	800.222
1598.42	754.667
1600.56	715.556
1602.7	697.778
1604.84	683.333
1606.98	670.222
1609.12	651.778
1611.26	638.444
1613.4	646
1615.54	618.667
1617.68	618.667
1619.81	604.889
1621.95	617.556
1624.08	606
1626.22	592.889
1628.35	586.222
1630.49	575.333
1632.62	575.556
1634.75	578.889
1636.88	580.667
1639.01	561.778
1641.14	562.444
1643.27	569.556
1645.4	552.889
1647.53	543.111
1649.66	548.444
1651.79	550.222
1653.91	551.556
1656.04	553.778
1658.16	548.222
1660.29	536.222
1662.41	525.778
1664.53	536.444
1666.66	536.222
1668.78	526.667
1670.9	535.111
1673.02	524.889
1675.14	518.889
1677.26	520.889
1679.38	507.556
1681.49	516.444
1683.61	514
1685.73	506.444
1687.84	515.333
1689.96	501.778
1692.07	503.778
1694.19	506.889
1696.3	511.778
1698.41	508
1700.52	493.333
1702.64	504.444
1704.75	506.222
1706.86	503.111
1708.97	496.889
1711.07	492.889
1713.18	491.111
1715.29	500.889
1717.4	495.111
1719.5	489.111
1721.61	491.778
1723.71	492.222
1725.82	487.111
1727.92	484.667
1730.02	490.444
1732.12	486.222
1734.23	486
1736.33	476.889
1738.43	488.889
1740.53	491.778
1742.63	485.778
1744.72	488.667
1746.82	482.667
1748.92	483.778
1751.02	474
1753.11	479.111
1755.21	470.667
1757.3	468
1759.4	471.778
1761.49	468.889
1763.58	470
1765.67	466.889
1767.76	470
1769.86	471.111
1771.95	469.111
1774.03	475.778
1776.12	466
1778.21	478
1780.3	468.444
1782.39	463.333
1784.47	468.222
1786.56	464
1788.64	469.333
1790.73	466
1792.81	464
1794.89	462.222
1796.98	465.333
1799.06	459.778
1801.14	463.778
1803.22	469.333
1805.3	462
1807.38	466.889
1809.46	445.333
1811.54	459.333
1813.61	460.667
1815.69	462
1817.77	458.444
1819.84	444.222
1821.92	465.778
1823.99	458.222
1826.06	451.111
1828.14	447.556
1830.21	448.222
1832.28	460.889
1834.35	443.778
1836.42	449.778
1838.49	435.111
1840.56	449.556
1842.63	448.222
1844.7	453.333
1846.77	449.333
1848.83	447.556
1850.9	441.111
1852.96	439.778
1855.03	435.556
1857.09	440.222
1859.15	430.667
1861.22	436.444
1863.28	440.667
1865.34	441.778
1867.4	434.667
1869.46	447.111
1871.52	438.667
1873.58	436.889
1875.64	432.889
1877.7	438.444
1879.76	445.111
1881.81	433.778
1883.87	432.667
1885.92	431.111
1887.98	433.111
1890.03	434
1892.09	423.778
1894.14	434.222
1896.19	435.778
1898.24	427.111
1900.29	427.778
1902.34	424.222
1904.4	432.889
1906.44	432.667
1908.49	424.444
1910.54	427.778
1912.59	424.222
1914.63	420.889
1916.68	428.889
1918.73	425.556
1920.77	430.889
1922.81	428.444
1924.86	424.444
1926.9	422
1928.94	420.667
1930.99	432.889
1933.03	430.667
1935.07	431.778
1937.11	426.889
1939.15	423.111
1941.19	417.778
1943.22	417.778
1945.26	416
1947.3	423.111
1949.33	413.778
1951.37	416
1953.4	418.222
1955.44	414.667
1957.47	410.667
1959.51	404
1961.54	406
1963.57	406
1965.6	414.667
1967.63	418
1969.66	412
1971.69	408.444
1973.72	408
1975.75	418.444
1977.78	406.889
1979.8	413.556
1981.83	412.444
1983.86	398.889
1985.88	401.111
1987.91	410.444
1989.93	410.444
1991.95	404.222
1993.98	400.444
1996	403.556
1998.02	410.222
2000.04	408.444
2002.06	406.667
2004.08	402.222
2006.1	398.444
2008.12	411.111
2010.14	403.556
2012.15	400.889
2014.17	395.111
2016.19	399.556
2018.2	404.889
2020.22	398.667
2022.23	401.333
2024.25	406.667
2026.26	397.556
2028.27	409.778
2030.28	393.111
2032.29	401.111
2034.3	399.111
2036.32	401.556
2038.32	400.222
2040.33	396.889
2042.34	394.667
2044.35	398.667
2046.36	395.111
2048.36	398
2050.37	404.667
2052.37	385.556
2054.38	397.556
2056.38	396.889
2058.39	392.667
2060.39	396
2062.39	395.333
2064.39	393.556
2066.39	381.111
2068.39	383.333
2070.39	393.556
2072.39	391.333
2074.39	387.111
2076.39	390.222
2078.39	385.111
2080.39	388.222
2082.38	391.778
2084.38	388.667
2086.37	383.111
2088.37	384
2090.36	383.778
2092.35	385.778
2094.35	391.556
2096.34	384.889
2098.33	386.667
2100.32	395.556
2102.31	386.889
2104.3	384
2106.29	385.556
2108.28	378.444
2110.27	392.444
2112.25	391.111
2114.24	388.667
2116.23	388
2118.21	384.222
2120.2	395.778
2122.18	395.111
2124.17	402.889
2126.15	403.556
2128.13	407.556
2130.11	399.111
2132.09	390.889
2134.08	400.444
2136.06	397.111
2138.04	402.222
2140.02	399.111
2141.99	394.222
2143.97	385.778
2145.95	389.556
2147.93	387.778
2149.9	378.222
2151.88	385.333
2153.85	388.667
2155.83	376.889
2157.8	374.667
2159.77	383.778
2161.75	368
2163.72	377.333
2165.69	374.222
2167.66	375.556
2169.63	369.778
2171.6	377.111
2173.57	373.333
2175.54	368.889
2177.51	364
2179.47	373.778
2181.44	362.667
2183.41	369.333
2185.37	361.111
2187.34	362.444
2189.3	364
2191.27	365.556
2193.23	367.778
2195.19	372.667
2197.15	360.667
2199.11	368.889
2201.08	371.111
2203.04	363.111
2205	377.111
2206.96	371.556
2208.91	381.111
2210.87	390.444
2212.83	410
2214.79	434.222
2216.74	465.333
2218.7	503.333
2220.65	557.778
2222.61	614.667
2224.56	638.222
2226.52	653.555
2228.47	624.889
2230.42	588.222
2232.37	540.667
2234.32	509.556
2236.27	462.444
2238.22	425.333
2240.17	417.333
2242.12	398.667
2244.07	387.778
2246.02	389.778
2247.97	376.222
2249.91	376
2251.86	367.333
2253.8	362.667
2255.75	360.667
2257.69	364.222
2259.64	354
2261.58	346.222
2263.52	346
2265.46	335.111
2267.4	343.778
2269.35	348.889
2271.29	338.222
2273.23	345.333
2275.16	340.667
2277.1	336.222
2279.04	334.444
2280.98	335.333
2282.92	338.889
2284.85	334.222
2286.79	341.333
2288.72	329.778
2290.66	340.889
2292.59	336.667
2294.52	332.222
2296.46	332.222
2298.39	327.333
2300.32	330.444
2302.25	326.222
2304.18	322.667
2306.11	329.111
2308.04	324.222
2309.97	328.667
2311.9	330.667
2313.83	325.778
2315.75	322.667
2317.68	321.111
2319.61	321.111
2321.53	329.778
2323.46	327.556
2325.38	319.556
2327.3	319.778
2329.23	324
2331.15	324
2333.07	320.444
2334.99	322.667
2336.91	327.333
2338.83	320
2340.75	320.889
2342.67	328
2344.59	321.778
2346.51	314.889
2348.43	315.778
2350.35	315.333
2352.26	314.889
2354.18	317.333
2356.09	323.333
2358.01	331.556
2359.92	319.556
2361.83	311.778
2363.75	322.222
2365.66	313.556
2367.57	316.222
2369.48	311.556
2371.39	320.222
2373.31	319.333
2375.21	312
2377.12	315.778
2379.03	304.667
2380.94	311.333
2382.85	307.333
2384.76	310.667
2386.66	307.556
2388.57	306.222
2390.47	310
2392.38	303.778
2394.28	299.333
2396.18	300
2398.09	312.222
2399.99	307.556
2401.89	306.667
2403.79	305.556
2405.69	306.222
2407.59	302.667
2409.49	308.222
2411.39	301.111
2413.29	306.889
2415.19	301.111
2417.09	298.444
2418.98	303.778
2420.88	294.667
2422.78	297.778
2424.67	300.444
2426.57	292.222
2428.46	305.111
2430.35	295.111
2432.25	299.333
2434.14	295.778
2436.03	297.778
2437.92	298
2439.81	298.889
2441.7	291.333
2443.59	299.778
2445.48	292.667
2447.37	300.889
2449.26	303.556
2451.15	298
2453.03	295.556
