186.85	548.444
189.449	550.667
192.047	538.444
194.645	558
197.241	544.667
199.837	543.778
202.431	548.222
205.025	550.667
207.619	538.667
210.21	534.444
212.802	541.778
215.392	528.667
217.982	531.555
220.57	538.889
223.158	534
225.744	525.333
228.331	524.667
230.915	531.111
233.5	535.333
236.083	539.333
238.666	529.333
241.247	525.111
243.827	532
246.408	534.889
248.986	541.556
251.565	536
254.142	540.889
256.719	555.333
259.294	557.111
261.868	546.889
264.443	544.444
267.015	549.111
269.587	552.667
272.159	556.444
274.729	552.889
277.298	552.889
279.867	552.889
282.435	549.778
285.001	550.444
287.568	554.444
290.133	555.556
292.697	556
295.26	577.556
297.824	571.778
300.385	575.111
302.945	581.333
305.505	573.556
308.064	580.222
310.623	575.333
313.18	565.778
315.737	570.667
318.292	557.556
320.847	551.556
323.402	562.222
325.955	561.778
328.507	563.111
331.058	568.667
333.609	574.444
336.158	572.667
338.707	570.444
341.255	572.667
343.802	568.667
346.349	580
348.895	589.556
351.439	590.889
353.983	599.555
356.526	615.556
359.068	615.778
361.609	640.889
364.149	643.333
366.689	646.222
369.227	630.444
371.765	617.556
374.302	606.222
376.838	613.333
379.374	606.444
381.908	601.333
384.442	594.889
386.973	577.556
389.505	572.667
392.036	563.333
394.567	574.889
397.096	566.444
399.625	561.111
402.153	579.555
404.68	572.222
407.206	576.667
409.73	576.222
412.254	582.889
414.778	569.333
417.301	575.778
419.823	572.889
422.343	579.111
424.863	579.778
427.383	574.444
429.901	572.889
432.418	580.222
434.935	592
437.451	590.222
439.966	591.778
442.48	591.778
444.993	589.111
447.506	586
450.019	596.667
452.528	586.222
455.039	580.222
457.549	588.444
460.056	591.556
462.564	586.222
465.07	575.778
467.576	584.667
470.082	576.667
472.585	594.667
475.089	584.222
477.591	583.111
480.093	593.778
482.595	588.889
485.094	602.889
487.594	591.333
490.091	600.444
492.59	592.667
495.086	608.445
497.582	601.111
500.076	602
502.571	603.778
505.064	598.889
507.558	598.667
510.049	593.333
512.54	597.333
515.03	589.333
517.518	607.111
520.008	598.222
522.495	582.889
524.983	586.222
527.468	587.556
529.954	584.444
532.438	579.555
534.921	582.889
537.404	581.556
539.886	591.556
542.366	591.778
544.848	613.778
547.327	611.333
549.805	602.444
552.284	599.333
554.76	597.111
557.236	585.111
559.711	601.111
562.186	600.444
564.66	603.556
567.132	602.667
569.604	606.889
572.076	622.222
574.547	645.778
577.016	688.889
579.484	743.111
581.952	780
584.419	768
586.887	740.222
589.352	680.667
591.816	650.444
594.28	623.778
596.743	607.778
599.205	599.111
601.667	611.778
604.127	601.778
606.588	603.111
609.047	603.333
611.505	590.444
613.963	600.222
616.419	603.556
618.875	604.444
621.33	587.778
623.784	610
626.238	614.222
628.69	605.778
631.142	622
633.593	601.333
636.043	622.222
638.493	604.667
640.941	603.556
643.389	612.444
645.835	622.222
648.281	625.778
650.727	617.556
653.171	613.556
655.615	614.889
658.058	599.333
660.501	596
662.942	611.111
665.382	607.333
667.822	593.333
670.261	611.111
672.699	602
675.137	611.778
677.574	600.889
680.008	612.444
682.443	612.667
684.878	613.556
687.312	614
689.743	605.333
692.175	614
694.607	617.111
697.037	610.667
699.466	617.333
701.895	615.333
704.323	629.556
706.749	619.333
709.175	615.111
711.601	620
714.025	618.667
716.449	611.555
718.871	625.333
721.294	618.889
723.716	613.333
726.136	613.111
728.556	611.333
730.975	608.667
733.394	606.444
735.812	610.667
738.228	604.444
740.644	608
743.058	590.667
745.473	602.444
747.886	593.111
750.3	611.333
752.711	593.333
755.123	605.111
757.533	613.111
759.942	614.222
762.351	615.111
764.759	588.667
767.167	603.778
769.573	604.222
771.979	604
774.383	623.333
776.787	622.667
779.191	621.556
781.593	616.889
783.994	621.556
786.396	614.444
788.796	597.778
791.195	605.556
793.595	606.222
795.992	619.333
798.389	618.222
800.786	617.778
803.181	620.444
805.576	609.111
807.969	608.889
810.363	617.778
812.755	621.778
815.147	618.889
817.537	638
819.927	635.111
822.318	622.667
824.706	625.778
827.093	628
829.48	624.889
831.866	620.889
834.251	617.778
836.636	618
839.021	626.444
841.404	615.556
843.786	612.889
846.167	606.889
848.548	622.667
850.928	630
853.307	613.111
855.685	617.111
858.063	608.444
860.44	612.667
862.816	612.222
865.192	619.556
867.566	618.444
869.94	619.556
872.313	620.444
874.685	621.333
877.057	607.111
879.428	616.667
881.798	621.111
884.167	621.111
886.536	625.556
888.902	619.556
891.269	615.778
893.636	621.778
896.001	632.889
898.366	603.333
900.73	618.444
903.094	613.556
905.455	615.333
907.817	611.111
910.178	607.556
912.538	613.333
914.898	602
917.255	601.778
919.613	616.222
921.971	606
924.327	609.333
926.682	627.778
929.037	608
931.391	605.333
933.744	606.667
936.096	610.222
938.449	607.333
940.799	601.111
943.149	612.889
945.499	599.333
947.847	609.778
950.195	607.778
952.542	612.444
954.889	612.444
957.235	618.222
959.579	622
961.924	607.555
964.266	619.111
966.609	612.889
968.951	613.778
971.292	613.556
973.632	600.222
975.972	614.889
978.31	630.444
980.649	611.778
982.986	634
985.323	612.444
987.659	623.333
989.994	612.444
992.328	632.444
994.662	632.444
996.995	634
999.326	633.778
1001.66	622.667
1003.99	639.333
1006.32	626
1008.65	622.667
1010.98	639.555
1013.3	632.444
1015.63	648
1017.96	630.444
1020.28	631.556
1022.61	625.333
1024.93	619.778
1027.25	622.667
1029.58	638.667
1031.9	634.222
1034.22	634
1036.54	634
1038.86	638.889
1041.18	641.556
1043.49	653.111
1045.81	644.222
1048.13	665.556
1050.44	664.889
1052.76	670
1055.07	688.667
1057.39	700.222
1059.7	728.222
1062.01	774.222
1064.32	858
1066.63	998.445
1068.94	1160.89
1071.25	1360.89
1073.56	1481.11
1075.87	1519.11
1078.17	1381.33
1080.48	1195.78
1082.79	1028.89
1085.09	902.889
1087.39	825.333
1089.7	797.778
1092	776
1094.3	770.222
1096.6	775.778
1098.9	752
1101.2	747.778
1103.5	720.444
1105.8	717.111
1108.1	701.111
1110.39	707.778
1112.69	706.889
1114.98	698.444
1117.28	694.667
1119.57	706.444
1121.86	696.889
1124.16	694
1126.45	699.333
1128.74	685.333
1131.03	676.222
1133.32	679.556
1135.61	664.667
1137.89	676
1140.18	668
1142.47	674.222
1144.75	661.111
1147.04	672.444
1149.32	666.889
1151.61	676.667
1153.89	680.222
1156.17	668.889
1158.45	684.889
1160.73	688.889
1163.01	690.445
1165.29	692.667
1167.57	705.111
1169.85	742.222
1172.12	806.889
1174.4	878.667
1176.68	948.222
1178.95	942.222
1181.22	885.111
1183.5	830.444
1185.77	771.778
1188.04	731.556
1190.31	722
1192.58	722
1194.85	726.222
1197.12	736.667
1199.39	752.444
1201.66	745.111
1203.92	727.556
1206.19	708.444
1208.45	700.222
1210.72	686.444
1212.98	691.333
1215.25	676.444
1217.51	683.333
1219.77	683.556
1222.03	672.889
1224.29	682.667
1226.55	690
1228.81	681.778
1231.07	683.111
1233.33	682.667
1235.58	691.778
1237.84	694.889
1240.09	697.111
1242.35	701.333
1244.6	690.444
1246.86	700.667
1249.11	704.222
1251.36	696.889
1253.61	702.222
1255.86	695.333
1258.11	709.556
1260.36	701.111
1262.61	713.333
1264.86	710.444
1267.1	708.889
1269.35	701.333
1271.6	702.444
1273.84	707.556
1276.08	705.778
1278.33	709.333
1280.57	691.111
1282.81	693.556
1285.05	712.222
1287.29	690
1289.53	709.555
1291.77	697.556
1294.01	702.222
1296.25	694.222
1298.48	686.222
1300.72	703.778
1302.96	695.778
1305.19	709.778
1307.42	695.333
1309.66	704.444
1311.89	698.222
1314.12	690.667
1316.35	700.444
1318.58	704.445
1320.81	709.556
1323.04	698.889
1325.27	698.667
1327.5	690.444
1329.73	692.667
1331.95	694.889
1334.18	695.111
1336.4	708.222
1338.63	702.444
1340.85	695.333
1343.08	694.444
1345.3	699.778
1347.52	692.667
1349.74	689.333
1351.96	696.667
1354.18	700
1356.4	693.778
1358.61	699.111
1360.83	702
1363.05	682.667
1365.27	695.555
1367.48	708
1369.69	698.222
1371.91	704.222
1374.12	705.556
1376.33	698.667
1378.55	718.667
1380.76	707.111
1382.97	708.889
1385.18	703.111
1387.39	705.556
1389.59	695.333
1391.8	698.444
1394.01	701.333
1396.21	693.333
1398.42	693.333
1400.63	680.444
1402.83	700.889
1405.03	692.889
1407.24	688.889
1409.44	695.556
1411.64	692.444
1413.84	705.111
1416.04	685.778
1418.24	688.222
1420.44	668.889
1422.64	670
1424.83	670.667
1427.03	680.667
1429.23	666.222
1431.42	667.778
1433.62	676.667
1435.81	679.111
1438	680.222
1440.19	684.667
1442.39	678.444
1444.58	701.778
1446.77	696
1448.96	689.778
1451.15	696
1453.34	716.667
1455.52	704.444
1457.71	714.444
1459.9	721.778
1462.08	708
1464.27	734.889
1466.45	736.222
1468.64	743.111
1470.82	740.222
1473	748.889
1475.18	775.333
1477.36	763.333
1479.54	750.444
1481.72	729.778
1483.9	698.444
1486.08	711.556
1488.26	703.556
1490.43	696
1492.61	700.445
1494.78	712.222
1496.96	708.444
1499.13	702.667
1501.31	711.111
1503.48	724
1505.65	720
1507.82	724.222
1509.99	717.778
1512.16	710.667
1514.33	723.556
1516.5	739.111
1518.67	733.556
1520.84	735.556
1523	758.667
1525.17	746.444
1527.34	743.333
1529.5	749.111
1531.66	762.889
1533.83	756.889
1535.99	761.333
1538.15	758.444
1540.31	767.778
1542.47	771.778
1544.63	769.778
1546.79	766.889
1548.95	764.444
1551.11	753.333
1553.27	773.556
1555.42	782.222
1557.58	770.222
1559.73	794.444
1561.89	814.222
1564.04	827.778
1566.2	829.778
1568.35	848.444
1570.5	890
1572.65	947.333
1574.8	1043.78
1576.95	1148.67
1579.1	1326
1581.25	1523.56
1583.4	1675.78
1585.55	1728
1587.69	1582
1589.84	1393.33
1591.99	1205.33
1594.13	1080.89
1596.27	975.556
1598.42	900.222
1600.56	873.778
1602.7	815.333
1604.84	801.556
1606.98	786.667
1609.12	767.111
1611.26	770.444
1613.4	748.667
1615.54	745.333
1617.68	736.444
1619.81	724.222
1621.95	701.333
1624.08	709.556
1626.22	694.889
1628.35	687.111
1630.49	682
1632.62	674.222
1634.75	684
1636.88	658.445
1639.01	660.444
1641.14	650.444
1643.27	629.333
1645.4	637.556
1647.53	651.111
1649.66	649.778
1651.79	641.556
1653.91	628.667
1656.04	632.889
1658.16	618.667
1660.29	621.556
1662.41	618.222
1664.53	606.667
1666.66	594.889
1668.78	600.444
1670.9	607.778
1673.02	597.555
1675.14	595.111
1677.26	595.111
1679.38	580.222
1681.49	584.667
1683.61	590.444
1685.73	580.667
1687.84	580.444
1689.96	575.333
1692.07	568.667
1694.19	589.555
1696.3	569.556
1698.41	570
1700.52	566.222
1702.64	567.778
1704.75	557.111
1706.86	552.889
1708.97	553.333
1711.07	559.778
1713.18	568
1715.29	549.556
1717.4	556.222
1719.5	553.778
1721.61	546.889
1723.71	554
1725.82	549.333
1727.92	558.444
1730.02	536.444
1732.12	543.555
1734.23	551.333
1736.33	528.889
1738.43	542
1740.53	534.222
1742.63	538.444
1744.72	538
1746.82	525.333
1748.92	532.889
1751.02	531.556
1753.11	534.222
1755.21	528.667
1757.3	524.889
1759.4	525.556
1761.49	532.667
1763.58	531.778
1765.67	526.667
1767.76	509.333
1769.86	517.778
1771.95	526.222
1774.03	517.778
1776.12	521.111
1778.21	518.444
1780.3	523.556
1782.39	518.444
1784.47	525.333
1786.56	529.333
1788.64	523.333
1790.73	512.667
1792.81	525.111
1794.89	516.889
1796.98	518.222
1799.06	500
1801.14	508.889
1803.22	518
1805.3	515.555
1807.38	502.222
1809.46	516.667
1811.54	504.444
1813.61	512.667
1815.69	510.222
1817.77	509.333
1819.84	504.889
1821.92	508.222
1823.99	508.889
1826.06	506
1828.14	504.889
1830.21	514.889
1832.28	504.667
1834.35	501.333
1836.42	508
1838.49	508.889
1840.56	496
1842.63	502.667
1844.7	502
1846.77	502.444
1848.83	500.444
1850.9	494.667
1852.96	500.889
1855.03	479.778
1857.09	494.889
1859.15	489.778
1861.22	488.667
1863.28	489.333
1865.34	495.778
1867.4	486.889
1869.46	490.889
1871.52	484.667
1873.58	486.444
1875.64	488
1877.7	488
1879.76	489.556
1881.81	495.778
1883.87	487.778
1885.92	481.333
1887.98	472.667
1890.03	473.111
1892.09	480.444
1894.14	485.778
1896.19	479.556
1898.24	476
1900.29	470.667
1902.34	484
1904.4	482.889
1906.44	480.444
1908.49	484.444
1910.54	493.333
1912.59	476.222
1914.63	469.333
1916.68	476.444
1918.73	464.889
1920.77	478.222
1922.81	475.333
1924.86	482
1926.9	481.333
1928.94	471.556
1930.99	473.778
1933.03	465.778
1935.07	463.556
1937.11	470.444
1939.15	470.222
1941.19	472
1943.22	463.111
1945.26	467.333
1947.3	458.222
1949.33	460.222
1951.37	465.333
1953.4	460.444
1955.44	458.889
1957.47	468.444
1959.51	462.889
1961.54	456.444
1963.57	454
1965.6	464.667
1967.63	462.444
1969.66	451.333
1971.69	450.444
1973.72	447.333
1975.75	458.667
1977.78	448
1979.8	454
1981.83	447.556
1983.86	443.778
1985.88	442
1987.91	449.556
1989.93	447.556
1991.95	447.556
1993.98	442.444
1996	449.778
1998.02	458.222
2000.04	452.667
2002.06	441.333
2004.08	444.667
2006.1	448.444
2008.12	450.889
2010.14	447.556
2012.15	449.556
2014.17	442.667
2016.19	450.667
2018.2	442.222
2020.22	445.778
2022.23	451.556
2024.25	446.444
2026.26	446.889
2028.27	446.444
2030.28	444.889
2032.29	448
2034.3	442
2036.32	440.667
2038.32	445.556
2040.33	441.778
2042.34	440.222
2044.35	450.889
2046.36	447.111
2048.36	453.333
2050.37	441.111
2052.37	439.333
2054.38	440.667
2056.38	444.444
2058.39	439.111
2060.39	444.222
2062.39	434.889
2064.39	436.667
2066.39	448.889
2068.39	434.889
2070.39	432.889
2072.39	439.556
2074.39	433.111
2076.39	429.556
2078.39	434.667
2080.39	435.778
2082.38	430.222
2084.38	429.778
2086.37	436.667
2088.37	434.444
2090.36	434.222
2092.35	428.889
2094.35	416.222
2096.34	425.778
2098.33	434.444
2100.32	424.222
2102.31	432.667
2104.3	439.556
2106.29	433.778
2108.28	428.889
2110.27	432.889
2112.25	437.333
2114.24	435.333
2116.23	450.889
2118.21	460.889
2120.2	469.556
2122.18	459.778
2124.17	462
2126.15	471.556
2128.13	473.111
2130.11	473.333
2132.09	487.556
2134.08	474.667
2136.06	479.778
2138.04	471.333
2140.02	450.444
2141.99	448
2143.97	452
2145.95	442.889
2147.93	434.889
2149.9	441.556
2151.88	443.778
2153.85	438.667
2155.83	436
2157.8	437.556
2159.77	431.556
2161.75	422.444
2163.72	427.778
2165.69	420.444
2167.66	420.889
2169.63	424.444
2171.6	416.667
2173.57	424
2175.54	416.222
2177.51	414.889
2179.47	422.889
2181.44	407.111
2183.41	404.667
2185.37	416.889
2187.34	408.889
2189.3	402.889
2191.27	395.111
2193.23	416.889
2195.19	404.889
2197.15	410.667
2199.11	413.556
2201.08	402
2203.04	408
2205	414.667
2206.96	421.333
2208.91	421.778
2210.87	439.111
2212.83	456
2214.79	481.778
2216.74	525.333
2218.7	580.889
2220.65	644.889
2222.61	714.444
2224.56	774.889
2226.52	789.333
2228.47	762
2230.42	718
2232.37	680.444
2234.32	602
2236.27	561.556
2238.22	523.778
2240.17	493.111
2242.12	463.556
2244.07	443.556
2246.02	437.111
2247.97	419.556
2249.91	412
2251.86	411.111
2253.8	397.111
2255.75	396.222
2257.69	398
2259.64	387.111
2261.58	390.889
2263.52	388.222
2265.46	382.667
2267.4	378
2269.35	370.667
2271.29	368.889
2273.23	369.778
2275.16	364.889
2277.1	372
2279.04	374.222
2280.98	370.667
2282.92	376.889
2284.85	363.333
2286.79	362.889
2288.72	369.333
2290.66	374.667
2292.59	361.778
2294.52	363.111
2296.46	363.556
2298.39	362.667
2300.32	369.333
2302.25	364
2304.18	366.222
2306.11	356
2308.04	353.111
2309.97	354.889
2311.9	359.111
2313.83	362.222
2315.75	361.333
2317.68	349.111
2319.61	355.333
2321.53	352.444
2323.46	359.778
2325.38	349.333
2327.3	352.222
2329.23	358
2331.15	357.111
2333.07	356
2334.99	350.667
2336.91	344.889
2338.83	350.667
2340.75	349.333
2342.67	344.667
2344.59	347.778
2346.51	350.444
2348.43	350.667
2350.35	351.778
2352.26	350.667
2354.18	356
2356.09	343.111
2358.01	347.333
2359.92	345.778
2361.83	347.556
2363.75	353.333
2365.66	348.889
2367.57	340.889
2369.48	341.556
2371.39	343.333
2373.31	339.333
2375.21	344.444
2377.12	347.333
2379.03	335.556
2380.94	339.333
2382.85	330.889
2384.76	340
2386.66	332.889
2388.57	337.111
2390.47	340
2392.38	332
2394.28	328.667
2396.18	334
2398.09	338
2399.99	335.333
2401.89	342.444
2403.79	332.444
2405.69	330
2407.59	321.778
2409.49	330.667
2411.39	335.111
2413.29	333.778
2415.19	329.556
2417.09	332
2418.98	326.667
2420.88	327.111
2422.78	316.889
2424.67	329.333
2426.57	324.889
2428.46	324.889
2430.35	324
2432.25	325.556
2434.14	324.667
2436.03	328.889
2437.92	322.889
2439.81	324
2441.7	317.333
2443.59	325.556
2445.48	319.111
2447.37	324
2449.26	322.444
2451.15	325.333
2453.03	317.333
