186.85	408.444
189.449	412.667
192.047	418.222
194.645	423.111
197.241	408.889
199.837	412.222
202.431	410.222
205.025	415.111
207.619	420.667
210.21	407.778
212.802	417.556
215.392	404.889
217.982	417.333
220.57	407.778
223.158	411.556
225.744	404.222
228.331	404.889
230.915	413.333
233.5	418.444
236.083	418
238.666	408.889
241.247	410.889
243.827	423.778
246.408	425.111
248.986	414.889
251.565	420.667
254.142	429.778
256.719	432.444
259.294	422
261.868	431.111
264.443	428.444
267.015	433.778
269.587	435.778
272.159	427.778
274.729	426.222
277.298	431.778
279.867	437.778
282.435	425.556
285.001	437.111
287.568	429.556
290.133	428
292.697	440.667
295.26	434.667
297.824	439.778
300.385	434.222
302.945	455.778
305.505	450.667
308.064	440.667
310.623	443.556
313.18	443.556
315.737	435.556
318.292	442.444
320.847	440.667
323.402	450.667
325.955	448
328.507	444.889
331.058	454.889
333.609	460.667
336.158	454.667
338.707	459.556
341.255	467.111
343.802	453.333
346.349	466.444
348.895	459.778
351.439	472.444
353.983	461.556
356.526	474.667
359.068	483.111
361.609	493.556
364.149	491.556
366.689	497.778
369.227	498.444
371.765	476.889
374.302	482.667
376.838	483.111
379.374	481.556
381.908	490
384.442	485.778
386.973	480.889
389.505	472
392.036	460.444
394.567	455.333
397.096	454.222
399.625	461.111
402.153	456.889
404.68	458.222
407.206	465.111
409.73	456.667
412.254	460.222
414.778	459.556
417.301	457.556
419.823	472.222
422.343	467.333
424.863	469.333
427.383	464.889
429.901	468.889
432.418	470.667
434.935	478
437.451	480.444
439.966	478.889
442.48	480.444
444.993	481.333
447.506	476.667
450.019	474.444
452.528	466.222
455.039	473.333
457.549	473.778
460.056	481.111
462.564	479.556
465.07	474.889
467.576	464.444
470.082	453.556
472.585	468.222
475.089	467.778
477.591	470.444
480.093	471.333
482.595	480.889
485.094	475.111
487.594	478.889
490.091	475.778
492.59	489.556
495.086	479.111
497.582	478.667
500.076	474.444
502.571	488
505.064	478.222
507.558	483.333
510.049	471.111
512.54	482
515.03	472.667
517.518	475.778
520.008	487.778
522.495	479.333
524.983	477.556
527.468	470.889
529.954	478.889
532.438	478.889
534.921	471.333
537.404	469.778
539.886	478.667
542.366	471.333
544.848	480.222
547.327	487.333
549.805	484
552.284	478
554.76	479.333
557.236	478.889
559.711	478.444
562.186	487.556
564.66	481.778
567.132	480.889
569.604	482
572.076	499.556
574.547	498.667
577.016	527.556
579.484	539.778
581.952	566.667
584.419	566.889
586.887	549.778
589.352	510.889
591.816	498.889
594.28	486.667
596.743	488.444
599.205	479.111
601.667	474.667
604.127	476
606.588	480
609.047	480.222
611.505	490.222
613.963	483.333
616.419	484.444
618.875	473.556
621.33	484.444
623.784	481.333
626.238	481.556
628.69	486.667
631.142	484.222
633.593	492.222
636.043	482.667
638.493	483.111
640.941	480
643.389	490.444
645.835	494
648.281	485.778
650.727	472
653.171	479.111
655.615	484.444
658.058	483.111
660.501	488.444
662.942	484.222
665.382	474.889
667.822	469.333
670.261	474.222
672.699	481.333
675.137	480.889
677.574	477.333
680.008	473.111
682.443	489.333
684.878	478.444
687.312	485.111
689.743	487.111
692.175	488.889
694.607	482.222
697.037	487.111
699.466	483.111
701.895	484
704.323	493.333
706.749	486
709.175	491.333
711.601	495.111
714.025	486.667
716.449	486.889
718.871	493.111
721.294	474.222
723.716	477.778
726.136	479.111
728.556	487.556
730.975	477.556
733.394	484.222
735.812	481.778
738.228	474.889
740.644	484
743.058	479.556
745.473	470.444
747.886	471.778
750.3	476.889
752.711	478.889
755.123	476.889
757.533	468.444
759.942	472.889
762.351	478
764.759	481.778
767.167	478.444
769.573	480
771.979	481.111
774.383	481.333
776.787	492
779.191	480
781.593	486
783.994	488.889
786.396	486.667
788.796	494.889
791.195	490
793.595	486.222
795.992	490.667
798.389	476.444
800.786	479.778
803.181	484
805.576	480.444
807.969	485.778
810.363	480
812.755	481.778
815.147	492.667
817.537	486.444
819.927	496.444
822.318	497.333
824.706	492.444
827.093	502.444
829.48	486.667
831.866	479.778
834.251	496
836.636	483.333
839.021	488.222
841.404	485.778
843.786	490
846.167	486.667
848.548	483.778
850.928	479.111
853.307	481.111
855.685	483.778
858.063	484
860.44	482.444
862.816	476.667
865.192	487.111
867.566	485.778
869.94	496.667
872.313	484.667
874.685	492
877.057	491.111
879.428	475.556
881.798	485.111
884.167	490
886.536	486
888.902	487.111
891.269	489.556
893.636	503.556
896.001	481.556
898.366	491.556
900.73	486
903.094	491.111
905.455	484.222
907.817	482.222
910.178	489.111
912.538	477.778
914.898	495.111
917.255	481.556
919.613	478.444
921.971	478.667
924.327	480.222
926.682	471.111
929.037	477.778
931.391	478.444
933.744	483.778
936.096	471.778
938.449	478.889
940.799	470.222
943.149	480
945.499	481.778
947.847	480.889
950.195	493.111
952.542	475.333
954.889	482.667
957.235	479.333
959.579	486.889
961.924	483.333
964.266	489.333
966.609	489.778
968.951	494.667
971.292	481.778
973.632	469.778
975.972	490.667
978.31	484.444
980.649	485.111
982.986	489.778
985.323	473.333
987.659	483.556
989.994	484.444
992.328	488.889
994.662	477.111
996.995	488.667
999.326	489.333
1001.66	484.889
1003.99	487.556
1006.32	479.778
1008.65	481.778
1010.98	492
1013.3	485.333
1015.63	499.111
1017.96	489.556
1020.28	485.111
1022.61	501.556
1024.93	493.333
1027.25	486
1029.58	488.889
1031.9	488
1034.22	497.333
1036.54	499.778
1038.86	496.889
1041.18	492.222
1043.49	495.778
1045.81	494.222
1048.13	516.889
1050.44	511.778
1052.76	526.889
1055.07	516
1057.39	537.778
1059.7	527.778
1062.01	553.778
1064.32	589.111
1066.63	653.556
1068.94	735.111
1071.25	823.333
1073.56	890.889
1075.87	920
1078.17	872.889
1080.48	782.889
1082.79	705.778
1085.09	641.111
1087.39	595.556
1089.7	600.222
1092	574.667
1094.3	587.111
1096.6	594.667
1098.9	580
1101.2	571.556
1103.5	568.889
1105.8	544
1108.1	547.778
1110.39	533.556
1112.69	540
1114.98	542.222
1117.28	547.333
1119.57	545.111
1121.86	548.444
1124.16	545.556
1126.45	543.333
1128.74	536
1131.03	518.444
1133.32	519.778
1135.61	503.111
1137.89	519.556
1140.18	510.444
1142.47	517.556
1144.75	517.556
1147.04	502.889
1149.32	511.778
1151.61	515.333
1153.89	516.444
1156.17	522.889
1158.45	513.333
1160.73	517.111
1163.01	520
1165.29	526.667
1167.57	522.222
1169.85	533.333
1172.12	566.889
1174.4	594.889
1176.68	614.444
1178.95	634.444
1181.22	604.667
1183.5	578.667
1185.77	537.778
1188.04	530.444
1190.31	524
1192.58	516
1194.85	528.667
1197.12	529.111
1199.39	531.556
1201.66	542
1203.92	542.444
1206.19	514.444
1208.45	515.111
1210.72	507.556
1212.98	506.444
1215.25	515.333
1217.51	507.778
1219.77	507.111
1222.03	506.222
1224.29	507.111
1226.55	513.556
1228.81	509.333
1231.07	516
1233.33	509.333
1235.58	513.556
1237.84	508.444
1240.09	518.889
1242.35	512.889
1244.6	517.111
1246.86	518.444
1249.11	519.778
1251.36	525.555
1253.61	515.778
1255.86	515.556
1258.11	519.555
1260.36	524.667
1262.61	513.333
1264.86	516.222
1267.1	515.778
1269.35	534
1271.6	514.222
1273.84	530.667
1276.08	523.778
1278.33	523.333
1280.57	506.222
1282.81	508.889
1285.05	509.778
1287.29	524.445
1289.53	520.889
1291.77	510.444
1294.01	526.667
1296.25	525.556
1298.48	498.444
1300.72	524.667
1302.96	521.111
1305.19	523.556
1307.42	518
1309.66	506.222
1311.89	520.222
1314.12	519.333
1316.35	512.667
1318.58	524
1320.81	522.667
1323.04	522.667
1325.27	520.889
1327.5	517.778
1329.73	504.444
1331.95	532.222
1334.18	523.111
1336.4	519.556
1338.63	520.444
1340.85	522
1343.08	515.111
1345.3	514.667
1347.52	512.222
1349.74	526.444
1351.96	516.667
1354.18	518.444
1356.4	522.222
1358.61	515.778
1360.83	516
1363.05	519.111
1365.27	525.333
1367.48	518.444
1369.69	524.222
1371.91	515.333
1374.12	530.444
1376.33	527.333
1378.55	532.667
1380.76	529.556
1382.97	522.889
1385.18	523.778
1387.39	521.111
1389.59	530.444
1391.8	514.889
1394.01	508.222
1396.21	511.556
1398.42	511.556
1400.63	499.778
1402.83	504.222
1405.03	511.333
1407.24	507.556
1409.44	509.556
1411.64	500
1413.84	511.556
1416.04	501.556
1418.24	505.778
1420.44	514
1422.64	493.333
1424.83	492.444
1427.03	505.333
1429.23	510.667
1431.42	500.889
1433.62	499.333
1435.81	501.111
1438	503.111
1440.19	514.889
1442.39	504.667
1444.58	497.778
1446.77	494.222
1448.96	505.778
1451.15	514.444
1453.34	513.333
1455.52	508.889
1457.71	517.778
1459.9	529.333
1462.08	520.444
1464.27	523.111
1466.45	520.222
1468.64	536.444
1470.82	527.111
1473	534.444
1475.18	542.667
1477.36	540.889
1479.54	528.889
1481.72	522.444
1483.9	517.556
1486.08	512.889
1488.26	498.444
1490.43	494.222
1492.61	503.333
1494.78	505.111
1496.96	487.778
1499.13	505.333
1501.31	494.889
1503.48	510.444
1505.65	509.111
1507.82	497.778
1509.99	500.889
1512.16	508
1514.33	525.333
1516.5	510.444
1518.67	520
1520.84	519.555
1523	524.667
1525.17	522.445
1527.34	522.889
1529.5	537.333
1531.66	528
1533.83	521.556
1535.99	523.556
1538.15	530.222
1540.31	517.111
1542.47	531.111
1544.63	532.222
1546.79	528.222
1548.95	526
1551.11	525.333
1553.27	520.222
1555.42	522.444
1557.58	535.111
1559.73	532.445
1561.89	536.889
1564.04	539.333
1566.2	543.333
1568.35	555.778
1570.5	576.667
1572.65	589.333
1574.8	638.667
1576.95	681.778
1579.1	752
1581.25	851.556
1583.4	946.444
1585.55	965.778
1587.69	937.556
1589.84	842.444
1591.99	744.222
1594.13	682.222
1596.27	629.778
1598.42	602.667
1600.56	574
1602.7	560.444
1604.84	546.889
1606.98	545.333
1609.12	538.667
1611.26	534.889
1613.4	519.111
1615.54	518.889
1617.68	512.222
1619.81	511.333
1621.95	501.111
1624.08	499.778
1626.22	492.444
1628.35	496.444
1630.49	484.889
1632.62	480.889
1634.75	468.667
1636.88	485.778
1639.01	473.333
1641.14	472.667
1643.27	470.667
1645.4	468.222
1647.53	475.778
1649.66	464
1651.79	464.889
1653.91	462.889
1656.04	465.778
1658.16	459.778
1660.29	456
1662.41	445.556
1664.53	449.778
1666.66	445.333
1668.78	439.111
1670.9	442.667
1673.02	438
1675.14	442
1677.26	449.111
1679.38	442.222
1681.49	435.556
1683.61	437.333
1685.73	438.222
1687.84	432.444
1689.96	433.778
1692.07	433.111
1694.19	437.556
1696.3	443.778
1698.41	436.444
1700.52	426.667
1702.64	429.556
1704.75	430.222
1706.86	432.222
1708.97	427.333
1711.07	429.778
1713.18	422
1715.29	421.111
1717.4	426.889
1719.5	428.444
1721.61	426
1723.71	420.444
1725.82	425.333
1727.92	423.556
1730.02	431.111
1732.12	416.222
1734.23	416.889
1736.33	418.444
1738.43	418.222
1740.53	408
1742.63	417.778
1744.72	412.889
1746.82	411.778
1748.92	409.111
1751.02	408
1753.11	408.889
1755.21	404.889
1757.3	398
1759.4	412.444
1761.49	407.778
1763.58	403.333
1765.67	406.667
1767.76	402.667
1769.86	401.778
1771.95	400.444
1774.03	402.667
1776.12	399.778
1778.21	403.556
1780.3	394
1782.39	400.444
1784.47	395.556
1786.56	402.222
1788.64	397.111
1790.73	404
1792.81	395.556
1794.89	407.778
1796.98	402.222
1799.06	408
1801.14	399.333
1803.22	396.889
1805.3	395.778
1807.38	399.778
1809.46	393.778
1811.54	391.556
1813.61	397.778
1815.69	389.333
1817.77	405.556
1819.84	390.889
1821.92	394
1823.99	382.889
1826.06	393.556
1828.14	387.111
1830.21	394
1832.28	392.444
1834.35	389.333
1836.42	383.556
1838.49	394.222
1840.56	393.556
1842.63	389.333
1844.7	387.333
1846.77	383.556
1848.83	389.778
1850.9	378.222
1852.96	375.333
1855.03	378
1857.09	392.889
1859.15	384
1861.22	373.111
1863.28	382
1865.34	376
1867.4	376.444
1869.46	377.778
1871.52	387.778
1873.58	372.222
1875.64	379.778
1877.7	382.222
1879.76	375.111
1881.81	376
1883.87	384.667
1885.92	371.111
1887.98	375.556
1890.03	370.667
1892.09	381.333
1894.14	376.667
1896.19	375.556
1898.24	370.667
1900.29	370.667
1902.34	381.111
1904.4	376.889
1906.44	371.556
1908.49	374.889
1910.54	364.667
1912.59	368.444
1914.63	368.222
1916.68	374.667
1918.73	381.111
1920.77	368
1922.81	372.444
1924.86	373.556
1926.9	371.111
1928.94	366.667
1930.99	369.111
1933.03	373.556
1935.07	368.667
1937.11	366
1939.15	370.889
1941.19	361.778
1943.22	359.778
1945.26	365.111
1947.3	366.667
1949.33	363.778
1951.37	350.444
1953.4	353.556
1955.44	355.333
1957.47	361.333
1959.51	361.778
1961.54	353.111
1963.57	357.111
1965.6	364.444
1967.63	364.444
1969.66	352.222
1971.69	354
1973.72	352.222
1975.75	347.556
1977.78	355.333
1979.8	346.889
1981.83	345.556
1983.86	347.778
1985.88	350.222
1987.91	345.111
1989.93	356.222
1991.95	348.444
1993.98	336.222
1996	354
1998.02	348.889
2000.04	348.222
2002.06	350
2004.08	345.778
2006.1	356.222
2008.12	352.889
2010.14	348.889
2012.15	346
2014.17	347.333
2016.19	347.556
2018.2	348.222
2020.22	346.444
2022.23	350
2024.25	349.111
2026.26	349.111
2028.27	350.444
2030.28	351.333
2032.29	345.333
2034.3	350.889
2036.32	341.778
2038.32	344.889
2040.33	336
2042.34	340.444
2044.35	344.667
2046.36	346
2048.36	349.778
2050.37	348.667
2052.37	340.667
2054.38	350.222
2056.38	346.667
2058.39	341.111
2060.39	341.111
2062.39	338
2064.39	339.778
2066.39	342.667
2068.39	346
2070.39	340.667
2072.39	346
2074.39	345.111
2076.39	336.889
2078.39	341.333
2080.39	346
2082.38	345.333
2084.38	345.333
2086.37	332.667
2088.37	332.444
2090.36	335.778
2092.35	324
2094.35	345.556
2096.34	334.667
2098.33	328
2100.32	330.444
2102.31	330.889
2104.3	332
2106.29	328
2108.28	323.556
2110.27	331.333
2112.25	331.111
2114.24	335.333
2116.23	324.889
2118.21	341.778
2120.2	338.444
2122.18	345.111
2124.17	354.889
2126.15	360.889
2128.13	348.444
2130.11	349.111
2132.09	354.222
2134.08	340.222
2136.06	342.222
2138.04	342.222
2140.02	334.889
2141.99	337.556
2143.97	333.556
2145.95	337.333
2147.93	334
2149.9	334.222
2151.88	327.333
2153.85	334.222
2155.83	322.889
2157.8	324.444
2159.77	322.667
2161.75	323.333
2163.72	325.778
2165.69	323.556
2167.66	324.667
2169.63	328.444
2171.6	326.444
2173.57	318.667
2175.54	324
2177.51	320.889
2179.47	316.222
2181.44	316.667
2183.41	312
2185.37	313.556
2187.34	309.556
2189.3	313.778
2191.27	306.222
2193.23	305.556
2195.19	314.889
2197.15	311.111
2199.11	308
2201.08	314.222
2203.04	308.889
2205	315.111
2206.96	314.667
2208.91	311.111
2210.87	323.333
2212.83	334.889
2214.79	342.222
2216.74	362.444
2218.7	397.111
2220.65	424.889
2222.61	461.556
2224.56	488
2226.52	507.111
2228.47	495.778
2230.42	469.778
2232.37	452.889
2234.32	425.111
2236.27	398.444
2238.22	350.222
2240.17	348.667
2242.12	339.111
2244.07	329.333
2246.02	327.111
2247.97	315.778
2249.91	307.111
2251.86	308.667
2253.8	308.667
2255.75	302.444
2257.69	297.778
2259.64	298.667
2261.58	297.333
2263.52	293.778
2265.46	300.667
2267.4	285.111
2269.35	290.667
2271.29	291.111
2273.23	290.667
2275.16	283.778
2277.1	289.556
2279.04	290.667
2280.98	288.444
2282.92	278.667
2284.85	288
2286.79	289.778
2288.72	280.222
2290.66	287.778
2292.59	280.667
2294.52	279.111
2296.46	284.444
2298.39	279.556
2300.32	278.444
2302.25	281.333
2304.18	286.889
2306.11	279.778
2308.04	283.333
2309.97	290
2311.9	276.444
2313.83	283.333
2315.75	280.222
2317.68	274.444
2319.61	279.333
2321.53	277.556
2323.46	280.889
2325.38	278.444
2327.3	273.778
2329.23	277.556
2331.15	270.667
2333.07	270.222
2334.99	280.667
2336.91	270
2338.83	268.222
2340.75	272.222
2342.67	274
2344.59	272.222
2346.51	275.111
2348.43	278.667
2350.35	274.889
2352.26	271.778
2354.18	271.333
2356.09	273.778
2358.01	266.444
2359.92	268
2361.83	272.889
2363.75	272.889
2365.66	266.667
2367.57	266.667
2369.48	265.556
2371.39	266.444
2373.31	261.111
2375.21	260.667
2377.12	264.889
2379.03	265.556
2380.94	264.222
2382.85	261.778
2384.76	266.444
2386.66	266
2388.57	261.111
2390.47	256.667
2392.38	264.222
2394.28	260.889
2396.18	264.889
2398.09	262.222
2399.99	259.556
2401.89	253.778
2403.79	263.111
2405.69	262.667
2407.59	260.222
2409.49	249.556
2411.39	253.556
2413.29	250.444
2415.19	262.222
2417.09	256
2418.98	252.889
2420.88	256
2422.78	258.889
2424.67	253.333
2426.57	253.556
2428.46	255.778
2430.35	250.222
2432.25	255.778
2434.14	254.222
2436.03	255.778
2437.92	253.333
2439.81	250
2441.7	245.333
2443.59	253.778
2445.48	246.222
2447.37	251.111
2449.26	253.778
2451.15	253.556
2453.03	250.222
