186.85	537.778
189.449	530.444
192.047	520.444
194.645	542
197.241	528.889
199.837	528.667
202.431	531.556
205.025	524
207.619	517.111
210.21	515.556
212.802	528
215.392	515.778
217.982	511.556
220.57	509.333
223.158	507.111
225.744	507.556
228.331	516
230.915	508.222
233.5	512.444
236.083	508.667
238.666	502.667
241.247	514.889
243.827	514.889
246.408	502.667
248.986	511.333
251.565	514.444
254.142	515.778
256.719	526.889
259.294	514
261.868	523.333
264.443	531.778
267.015	534.889
269.587	526.667
272.159	530.444
274.729	526.444
277.298	532.444
279.867	542
282.435	542
285.001	537.111
287.568	532
290.133	540.889
292.697	546.889
295.26	544.222
297.824	549.333
300.385	545.111
302.945	552.889
305.505	558
308.064	552.889
310.623	554.222
313.18	552.445
315.737	543.556
318.292	546.889
320.847	537.333
323.402	531.111
325.955	544.444
328.507	544.222
331.058	541.556
333.609	542.889
336.158	548.889
338.707	536.667
341.255	555.778
343.802	542.222
346.349	568.444
348.895	547.778
351.439	552
353.983	560.889
356.526	582.444
359.068	596.667
361.609	603.333
364.149	621.778
366.689	617.333
369.227	602.667
371.765	597.555
374.302	588.667
376.838	581.778
379.374	581.778
381.908	590.667
384.442	572.889
386.973	560.222
389.505	542
392.036	554.667
394.567	536.444
397.096	543.111
399.625	551.333
402.153	540
404.68	557.333
407.206	546.222
409.73	550.222
412.254	551.778
414.778	562
417.301	554.889
419.823	553.333
422.343	548.222
424.863	554.444
427.383	546.444
429.901	551.111
432.418	558.889
434.935	564.667
437.451	570.444
439.966	577.333
442.48	574.444
444.993	574.667
447.506	575.778
450.019	571.778
452.528	564.222
455.039	572.889
457.549	553.333
460.056	568.222
462.564	568.889
465.07	561.778
467.576	545.778
470.082	561.778
472.585	565.111
475.089	553.778
477.591	556.444
480.093	568.889
482.595	566.444
485.094	571.778
487.594	571.111
490.091	577.778
492.59	578.222
495.086	583.111
497.582	578.222
500.076	576
502.571	580.444
505.064	580.667
507.558	574.667
510.049	575.778
512.54	582
515.03	570.222
517.518	574.889
520.008	579.111
522.495	566.222
524.983	577.556
527.468	568
529.954	568
532.438	572.889
534.921	561.333
537.404	573.111
539.886	576.667
542.366	575.111
544.848	566.889
547.327	574.667
549.805	584.222
552.284	580
554.76	579.333
557.236	588.667
559.711	572.667
562.186	577.333
564.66	573.333
567.132	571.333
569.604	581.333
572.076	588.889
574.547	631.556
577.016	663.111
579.484	693.333
581.952	718.889
584.419	718
586.887	685.333
589.352	640.889
591.816	606.222
594.28	594
596.743	597.111
599.205	583.333
601.667	575.111
604.127	586.444
606.588	576.889
609.047	569.333
611.505	584
613.963	576.889
616.419	579.333
618.875	587.111
621.33	576.667
623.784	574.889
626.238	579.111
628.69	576.667
631.142	580.889
633.593	590
636.043	590.444
638.493	570
640.941	598.222
643.389	590.222
645.835	584.889
648.281	583.556
650.727	582.444
653.171	583.111
655.615	586.222
658.058	581.778
660.501	577.333
662.942	576
665.382	579.556
667.822	582
670.261	574
672.699	580
675.137	581.556
677.574	583.778
680.008	574.222
682.443	576
684.878	587.778
687.312	573.556
689.743	579.556
692.175	575.778
694.607	588.667
697.037	575.333
699.466	581.556
701.895	576.889
704.323	592.889
706.749	588.222
709.175	590.889
711.601	591.778
714.025	581.333
716.449	591.556
718.871	584.222
721.294	582.667
723.716	600
726.136	586.889
728.556	591.778
730.975	585.778
733.394	580.444
735.812	588.667
738.228	591.556
740.644	581.778
743.058	578.444
745.473	575.778
747.886	586.222
750.3	588.667
752.711	580.889
755.123	570.889
757.533	579.556
759.942	571.111
762.351	584.444
764.759	589.333
767.167	578.444
769.573	592.222
771.979	591.111
774.383	586.444
776.787	602.889
779.191	599.111
781.593	600.889
783.994	596.889
786.396	590
788.796	594.667
791.195	587.111
793.595	593.556
795.992	597.111
798.389	591.556
800.786	587.333
803.181	599.778
805.576	598.889
807.969	591.111
810.363	600.889
812.755	611.111
815.147	606.444
817.537	606.889
819.927	612.222
822.318	617.778
824.706	612.444
827.093	594.889
829.48	610.889
831.866	612.444
834.251	602.222
836.636	603.778
839.021	595.778
841.404	594.222
843.786	593.778
846.167	581.333
848.548	594.889
850.928	600.444
853.307	599.333
855.685	593.778
858.063	588.889
860.44	596.889
862.816	609.333
865.192	600.444
867.566	593.111
869.94	596.222
872.313	612.444
874.685	596.444
877.057	601.333
879.428	604.444
881.798	594.667
884.167	604.667
886.536	599.111
888.902	608
891.269	616.222
893.636	611.333
896.001	610.222
898.366	598.444
900.73	602.444
903.094	594.667
905.455	601.778
907.817	602.667
910.178	589.333
912.538	601.111
914.898	602.889
917.255	604.889
919.613	599.778
921.971	595.556
924.327	588.667
926.682	591.556
929.037	602.444
931.391	595.555
933.744	600.222
936.096	605.111
938.449	587.111
940.799	603.556
943.149	593.778
945.499	597.111
947.847	581.111
950.195	599.111
952.542	601.778
954.889	594.889
957.235	610.222
959.579	609.556
961.924	603.333
964.266	610
966.609	606.889
968.951	612.667
971.292	607.778
973.632	598.444
975.972	607.778
978.31	599.333
980.649	606.444
982.986	604.222
985.323	598.222
987.659	604.444
989.994	599.556
992.328	601.556
994.662	603.111
996.995	616
999.326	608.667
1001.66	609.111
1003.99	611.333
1006.32	613.778
1008.65	599.111
1010.98	610
1013.3	603.556
1015.63	614
1017.96	596
1020.28	612.889
1022.61	595.556
1024.93	604
1027.25	603.778
1029.58	618
1031.9	605.556
1034.22	611.111
1036.54	614.667
1038.86	623.111
1041.18	619.778
1043.49	612.222
1045.81	627.556
1048.13	629.111
1050.44	642.444
1052.76	652.444
1055.07	661.111
1057.39	665.333
1059.7	694.444
1062.01	747.333
1064.32	811.333
1066.63	928.222
1068.94	1093.33
1071.25	1240
1073.56	1361.78
1075.87	1355.56
1078.17	1248
1080.48	1078.89
1082.79	929.111
1085.09	850.667
1087.39	790
1089.7	751.111
1092	738.889
1094.3	746.444
1096.6	738.444
1098.9	720
1101.2	703.556
1103.5	704.222
1105.8	675.555
1108.1	671.111
1110.39	691.111
1112.69	660.445
1114.98	677.333
1117.28	672.889
1119.57	681.111
1121.86	666.667
1124.16	670.889
1126.45	670.444
1128.74	672
1131.03	657.111
1133.32	657.111
1135.61	663.111
1137.89	644.444
1140.18	648.444
1142.47	655.111
1144.75	658.667
1147.04	650.222
1149.32	652.667
1151.61	658
1153.89	665.111
1156.17	660.222
1158.45	670.222
1160.73	676
1163.01	668.222
1165.29	680.889
1167.57	687.333
1169.85	735.111
1172.12	771.111
1174.4	832.667
1176.68	892.444
1178.95	885.333
1181.22	822.222
1183.5	777.111
1185.77	729.111
1188.04	711.333
1190.31	690.889
1192.58	693.556
1194.85	699.555
1197.12	700
1199.39	726.222
1201.66	716
1203.92	710.889
1206.19	692.444
1208.45	694.222
1210.72	674.889
1212.98	672.667
1215.25	690.889
1217.51	675.555
1219.77	679.111
1222.03	670.222
1224.29	678.889
1226.55	675.111
1228.81	686.222
1231.07	686.889
1233.33	691.555
1235.58	697.778
1237.84	694.445
1240.09	699.556
1242.35	691.111
1244.6	694.222
1246.86	678.889
1249.11	700.889
1251.36	691.778
1253.61	701.778
1255.86	693.556
1258.11	695.333
1260.36	696
1262.61	689.333
1264.86	691.556
1267.1	695.556
1269.35	703.556
1271.6	695.111
1273.84	707.556
1276.08	693.556
1278.33	696.667
1280.57	693.778
1282.81	696.222
1285.05	687.111
1287.29	685.556
1289.53	689.111
1291.77	680
1294.01	679.333
1296.25	684
1298.48	687.111
1300.72	687.111
1302.96	691.778
1305.19	686.667
1307.42	675.333
1309.66	688.667
1311.89	663.556
1314.12	681.778
1316.35	697.778
1318.58	690.444
1320.81	690.222
1323.04	699.778
1325.27	690.444
1327.5	702.444
1329.73	691.556
1331.95	700
1334.18	702.667
1336.4	703.333
1338.63	686.667
1340.85	701.333
1343.08	697.778
1345.3	687.333
1347.52	685.556
1349.74	671.778
1351.96	680.889
1354.18	672.889
1356.4	676.444
1358.61	674.222
1360.83	671.778
1363.05	687.556
1365.27	687.111
1367.48	666.222
1369.69	675.778
1371.91	698
1374.12	686
1376.33	698.667
1378.55	686.444
1380.76	677.111
1382.97	694.889
1385.18	678.222
1387.39	692
1389.59	684.445
1391.8	663.333
1394.01	678
1396.21	678.667
1398.42	667.111
1400.63	673.111
1402.83	664.222
1405.03	662.667
1407.24	670
1409.44	659.333
1411.64	664.444
1413.84	669.111
1416.04	674.222
1418.24	663.333
1420.44	660
1422.64	659.778
1424.83	656.222
1427.03	655.778
1429.23	662.889
1431.42	660.667
1433.62	665.556
1435.81	660.222
1438	662.222
1440.19	667.333
1442.39	660
1444.58	665.778
1446.77	673.778
1448.96	662.444
1451.15	671.556
1453.34	671.556
1455.52	696.889
1457.71	698.444
1459.9	690.667
1462.08	697.111
1464.27	705.778
1466.45	715.778
1468.64	716.889
1470.82	710.222
1473	719.333
1475.18	739.111
1477.36	740.222
1479.54	732.444
1481.72	702.222
1483.9	697.111
1486.08	684.667
1488.26	691.333
1490.43	682.444
1492.61	690
1494.78	687.111
1496.96	687.111
1499.13	691.778
1501.31	684.667
1503.48	682.667
1505.65	688.889
1507.82	687.111
1509.99	681.556
1512.16	708.667
1514.33	689.778
1516.5	696.444
1518.67	696
1520.84	711.556
1523	699.778
1525.17	722.444
1527.34	715.556
1529.5	713.556
1531.66	718.889
1533.83	717.556
1535.99	729.333
1538.15	719.556
1540.31	718.444
1542.47	709.556
1544.63	724.222
1546.79	732.222
1548.95	730.667
1551.11	743.556
1553.27	736.667
1555.42	734
1557.58	742
1559.73	772
1561.89	778.444
1564.04	758.667
1566.2	781.556
1568.35	817.556
1570.5	857.333
1572.65	894
1574.8	974.667
1576.95	1090.22
1579.1	1245.33
1581.25	1425.33
1583.4	1548.22
1585.55	1546.67
1587.69	1400.89
1589.84	1215.11
1591.99	1071.78
1594.13	981.111
1596.27	905.111
1598.42	848.889
1600.56	830.889
1602.7	826
1604.84	792.222
1606.98	769.778
1609.12	756.444
1611.26	752.222
1613.4	745.111
1615.54	722
1617.68	718
1619.81	707.556
1621.95	700.889
1624.08	689.111
1626.22	690.222
1628.35	684.444
1630.49	676.889
1632.62	653.111
1634.75	660
1636.88	666.667
1639.01	646.667
1641.14	649.556
1643.27	636.222
1645.4	632
1647.53	632.444
1649.66	628.444
1651.79	624.444
1653.91	618.667
1656.04	615.111
1658.16	613.556
1660.29	608
1662.41	612.444
1664.53	597.556
1666.66	597.333
1668.78	585.778
1670.9	580.889
1673.02	586.444
1675.14	580
1677.26	566.222
1679.38	555.778
1681.49	563.556
1683.61	581.111
1685.73	558
1687.84	556.889
1689.96	553.778
1692.07	559.778
1694.19	550.222
1696.3	554.222
1698.41	552.222
1700.52	559.556
1702.64	550.222
1704.75	549.111
1706.86	533.778
1708.97	548.222
1711.07	545.556
1713.18	544.889
1715.29	545.333
1717.4	538.889
1719.5	540.222
1721.61	545.333
1723.71	544.889
1725.82	529.778
1727.92	522.222
1730.02	535.778
1732.12	530.444
1734.23	538.667
1736.33	520.667
1738.43	527.556
1740.53	535.556
1742.63	515.556
1744.72	522.889
1746.82	521.556
1748.92	524.444
1751.02	506.444
1753.11	508.889
1755.21	514.889
1757.3	511.111
1759.4	509.556
1761.49	501.111
1763.58	498.667
1765.67	496
1767.76	507.333
1769.86	506.889
1771.95	505.556
1774.03	496.667
1776.12	498.889
1778.21	497.333
1780.3	503.333
1782.39	499.111
1784.47	504.889
1786.56	492.222
1788.64	509.333
1790.73	503.333
1792.81	497.111
1794.89	500.667
1796.98	499.556
1799.06	490.222
1801.14	504
1803.22	495.778
1805.3	496.444
1807.38	488.889
1809.46	495.333
1811.54	487.556
1813.61	497.778
1815.69	491.778
1817.77	491.556
1819.84	495.111
1821.92	489.333
1823.99	490.222
1826.06	497.556
1828.14	491.556
1830.21	486.889
1832.28	486
1834.35	490
1836.42	485.778
1838.49	474
1840.56	477.556
1842.63	488.222
1844.7	484.667
1846.77	482.444
1848.83	483.778
1850.9	470
1852.96	476.889
1855.03	481.778
1857.09	481.556
1859.15	468.889
1861.22	462.444
1863.28	473.556
1865.34	475.556
1867.4	472
1869.46	473.333
1871.52	475.556
1873.58	469.778
1875.64	467.556
1877.7	465.333
1879.76	462
1881.81	468.222
1883.87	472.222
1885.92	466.667
1887.98	467.111
1890.03	457.111
1892.09	460.889
1894.14	468
1896.19	456
1898.24	465.778
1900.29	466.667
1902.34	460
1904.4	467.778
1906.44	464
1908.49	456
1910.54	460.444
1912.59	458.222
1914.63	462.444
1916.68	463.556
1918.73	458.889
1920.77	470
1922.81	466.444
1924.86	448.444
1926.9	466.222
1928.94	452.444
1930.99	463.556
1933.03	462.889
1935.07	448.889
1937.11	445.778
1939.15	448.444
1941.19	452.444
1943.22	447.778
1945.26	445.556
1947.3	453.778
1949.33	446.222
1951.37	446.667
1953.4	454.889
1955.44	448.889
1957.47	437.333
1959.51	442.222
1961.54	441.111
1963.57	454.222
1965.6	442.667
1967.63	440.222
1969.66	432.667
1971.69	445.778
1973.72	446
1975.75	443.778
1977.78	437.556
1979.8	436.667
1981.83	439.778
1983.86	440.889
1985.88	442.444
1987.91	429.333
1989.93	439.333
1991.95	432.222
1993.98	428
1996	438.222
1998.02	431.778
2000.04	432.667
2002.06	439.778
2004.08	434
2006.1	430
2008.12	434.222
2010.14	437.111
2012.15	428.889
2014.17	434.222
2016.19	432.222
2018.2	426.889
2020.22	439.333
2022.23	428.444
2024.25	427.333
2026.26	427.333
2028.27	430.889
2030.28	432
2032.29	430.444
2034.3	424.222
2036.32	427.333
2038.32	420
2040.33	426.889
2042.34	424.444
2044.35	433.111
2046.36	422.889
2048.36	431.111
2050.37	421.333
2052.37	424
2054.38	423.556
2056.38	424.889
2058.39	429.778
2060.39	422.222
2062.39	424.667
2064.39	414.889
2066.39	430.444
2068.39	419.556
2070.39	412.889
2072.39	412
2074.39	421.333
2076.39	417.333
2078.39	412.889
2080.39	412.444
2082.38	414
2084.38	421.778
2086.37	412
2088.37	413.111
2090.36	404.889
2092.35	404.222
2094.35	410.444
2096.34	407.556
2098.33	408
2100.32	413.333
2102.31	416
2104.3	407.778
2106.29	416.444
2108.28	410.667
2110.27	419.111
2112.25	409.778
2114.24	415.778
2116.23	418.889
2118.21	431.111
2120.2	429.556
2122.18	432.667
2124.17	432.222
2126.15	430.444
2128.13	431.111
2130.11	426.667
2132.09	433.111
2134.08	429.556
2136.06	421.111
2138.04	428.667
2140.02	420
2141.99	413.556
2143.97	410.889
2145.95	406
2147.93	416.444
2149.9	409.778
2151.88	408.889
2153.85	411.333
2155.83	401.111
2157.8	406.444
2159.77	401.111
2161.75	396.444
2163.72	403.111
2165.69	403.778
2167.66	395.111
2169.63	395.333
2171.6	405.333
2173.57	396.667
2175.54	388.889
2177.51	394.444
2179.47	390.222
2181.44	385.778
2183.41	396
2185.37	399.778
2187.34	384.444
2189.3	392.889
2191.27	382.889
2193.23	384.222
2195.19	392
2197.15	383.111
2199.11	382
2201.08	392
2203.04	394.444
2205	393.556
2206.96	396
2208.91	394.444
2210.87	410
2212.83	438.444
2214.79	470
2216.74	507.333
2218.7	564
2220.65	621.333
2222.61	672.222
2224.56	717.556
2226.52	728.667
2228.47	701.556
2230.42	647.111
2232.37	605.556
2234.32	569.778
2236.27	518.444
2238.22	476.222
2240.17	449.333
2242.12	432.222
2244.07	410.667
2246.02	396.667
2247.97	401.556
2249.91	404.222
2251.86	394.667
2253.8	386.667
2255.75	376.889
2257.69	376.222
2259.64	372.889
2261.58	384.222
2263.52	365.778
2265.46	362
2267.4	361.333
2269.35	358.667
2271.29	357.778
2273.23	355.778
2275.16	359.111
2277.1	358.444
2279.04	356.889
2280.98	351.111
2282.92	353.556
2284.85	361.333
2286.79	352.222
2288.72	349.556
2290.66	354.889
2292.59	355.778
2294.52	346.222
2296.46	350
2298.39	346.667
2300.32	348.222
2302.25	340.444
2304.18	339.111
2306.11	348.444
2308.04	348
2309.97	332.889
2311.9	348.889
2313.83	341.778
2315.75	347.778
2317.68	345.111
2319.61	340
2321.53	344
2323.46	343.556
2325.38	345.556
2327.3	340.444
2329.23	340.889
2331.15	336.667
2333.07	335.333
2334.99	344.889
2336.91	340.222
2338.83	339.778
2340.75	334.889
2342.67	330.889
2344.59	341.778
2346.51	343.778
2348.43	337.111
2350.35	340.222
2352.26	333.333
2354.18	340
2356.09	336.667
2358.01	329.333
2359.92	333.778
2361.83	338.667
2363.75	336.889
2365.66	325.333
2367.57	328.667
2369.48	329.111
2371.39	334
2373.31	327.111
2375.21	321.778
2377.12	326.222
2379.03	328
2380.94	324
2382.85	323.556
2384.76	327.111
2386.66	322.444
2388.57	321.778
2390.47	321.778
2392.38	325.333
2394.28	325.778
2396.18	326.222
2398.09	319.111
2399.99	323.778
2401.89	317.556
2403.79	322
2405.69	316.889
2407.59	314.444
2409.49	312
2411.39	319.111
2413.29	323.111
2415.19	316.889
2417.09	307.778
2418.98	322.444
2420.88	303.556
2422.78	314.889
2424.67	315.333
2426.57	314
2428.46	306.444
2430.35	313.111
2432.25	308
2434.14	314
2436.03	306.444
2437.92	314
2439.81	308
2441.7	314.667
2443.59	312.889
2445.48	306.222
2447.37	308.889
2449.26	313.111
2451.15	310.444
2453.03	305.778
