#wnum,raman
275,70.4798
276,70.5845
277,68.9293
278,53.0399
279,41.3176
280,41.4222
281,79.858
282,129.047
283,143.225
284,143.33
285,138.038
286,117.396
287,103.939
288,104.044
289,104.942
290,120.253
291,152.618
292,192.221
293,278.031
294,278.135
295,272.839
296,244.356
297,218.122
298,218.225
299,271.288
300,325.627
301,325.729
302,316.071
303,279.83
304,257.262
305,257.362
306,257.461
307,248.675
308,223.4
309,211.311
310,211.407
311,203.03
312,198.886
313,175.029
314,151.908
315,152
316,157.862
317,159.556
318,161.401
319,166.498
320,166.583
321,139.506
322,130.328
323,130.408
324,157.314
325,157.39
326,129.951
327,96.1964
328,69.1995
329,68.8666
330,68.9312
331,69.4601
332,72.2317
333,72.2885
334,43.2744
335,24.105
336,24.1531
337,30.5324
338,31.1414
339,31.18
340,30.5171
341,19.937
342,16.1645
343,16.1891
344,16.2099
345,9.88901
346,9.90202
347,14.3123
348,23.6111
349,24.9976
350,26.2343
351,24.9855
352,8.06001
353,-9.93114
354,-9.95339
355,-7.93665
356,-1.05756
357,4.45113
358,4.41068
359,3.06308
360,3.01461
361,2.87686
362,0.185728
363,0.126624
364,8.13883
365,22.686
366,33.6079
367,38.6431
368,49.7139
369,69.0384
370,105.709
371,156.462
372,199.876
373,218.29
374,236.866
375,278.869
376,312.669
377,329.506
378,343.197
379,367.956
380,408.359
381,441.803
382,441.715
383,441.627
384,449.396
385,463.406
386,480.39
387,498.761
388,519.605
389,532.669
390,532.587
391,515.787
392,515.707
393,526.105
394,553.649
395,553.573
396,535.257
397,510.709
398,493.336
399,483.754
400,469.612
401,461.074
402,447.871
403,430.113
404,430.055
405,427.383
406,420.691
407,400.331
408,400.283
409,404.154
410,404.111
411,393.6
412,381.547
413,359.777
414,329.933
415,303.207
416,296.255
417,292.664
418,251.408
419,217.188
420,202.341
421,202.325
422,215.555
423,232.922
424,232.914
425,186.357
426,151.005
427,151.003
428,152.703
429,160.778
430,160.783
431,148.27
432,118.173
433,92.4883
434,87.1993
435,85.3152
436,72.4211
437,49.8929
438,35.0037
439,20.1533
440,20.1782
441,28.8713
442,39.481
443,39.5111
444,11.9473
445,10.0246
446,10.0596
447,17.9433
448,23.0046
449,23.0441
450,11.1255
451,-1.81862
452,-1.77504
453,12.4606
454,15.8471
455,18.9106
456,24.9583
457,25.0082
458,17.389
459,17.4415
460,24.1495
461,37.3572
462,39.202
463,40.7139
464,60.88
465,72.1827
466,72.2436
467,49.899
468,49.9621
469,53.3876
470,62.3627
471,76.0111
472,76.0787
473,59.4594
474,49.6131
475,43.557
476,43.6288
477,59.343
478,59.4168
479,57.8547
480,57.9304
481,55.3672
482,49.7999
483,22.7905
484,14.1385
485,14.2186
486,40.8158
487,48.6844
488,51.1543
489,71.4772
490,71.5611
491,71.3911
492,62.7858
493,46.6315
494,32.8823
495,32.9695
496,62.882
497,62.9703
498,55.1632
499,55.2525
500,60.2291
501,81.3287
502,109.637
503,109.728
504,95.9225
505,67.5426
506,66.7195
507,66.8115
508,79.7705
509,82.2631
510,82.3556
511,57.9781
512,27.5561
513,9.7966
514,9.88913
515,24.5045
516,35.281
517,35.5032
518,37.5503
519,61.9068
520,81.0789
521,81.17
522,74.7254
523,68.9236
524,65.7855
525,57.5394
526,41.3651
527,33.3273
528,33.4148
529,36.767
530,60.2618
531,71.759
532,71.8434
533,54.8899
534,54.9726
535,55.0542
536,25.8865
537,19.917
538,19.9954
539,33.1943
540,43.1451
541,49.1736
542,59.2439
543,66.6661
544,66.7365
545,57.7669
546,39.0388
547,17.6764
548,17.7405
549,23.1004
550,47.0754
551,65.3833
552,86.8996
553,86.9544
554,59.101
555,48.899
556,47.0345
557,47.0808
558,35.7942
559,20.0629
560,3.62004
561,-0.779403
562,-0.745045
563,15.3934
564,32.4958
565,32.5223
566,14.1298
567,12.7074
568,12.7257
569,15.9535
570,33.5239
571,33.5334
572,31.0613
573,21.3437
574,20.4353
575,20.4324
576,16.1905
577,16.1812
578,16.0629
579,16.047
580,16.0276
581,17.8349
582,34.8694
583,46.713
584,46.6795
585,40.2203
586,19.2201
587,-3.74082
588,-4.83154
589,-4.88381
590,0.954945
591,11.8183
592,13.5145
593,13.4475
594,8.38865
595,8.31479
596,16.861
597,31.7817
598,31.6981
599,17.2434
600,10.6949
601,10.6024
602,17.3777
603,21.8677
604,21.7669
605,16.0029
606,5.57721
607,-3.69756
608,-3.80828
609,3.9948
610,7.84587
611,7.72888
612,7.61011
613,13.3382
614,37.7546
615,37.6314
616,32.5914
617,13.4165
618,13.2902
619,17.2023
620,27.2088
621,40.7127
622,40.5845
623,32.8848
624,32.7566
625,46.7422
626,61.7577
627,90.3532
628,125.879
629,161.003
630,178.983
631,191.014
632,216.867
633,271.319
634,336.518
635,389.455
636,421.806
637,457
638,512.068
639,582.199
640,673.907
641,759.001
642,843.42
643,912.304
644,980.749
645,1013.63
646,1064.46
647,1064.37
648,1046.26
649,973.422
650,875.691
651,805.006
652,771.573
653,729.608
654,653.032
655,575.708
656,528.092
657,511.288
658,498.107
659,431.845
660,370.912
661,370.864
662,370.818
663,375.172
664,387.966
665,387.929
666,360.857
667,308.583
668,271.255
669,260.789
670,260.762
671,260.738
672,258.827
673,257.9
674,257.005
675,257.865
676,262.077
677,268.228
678,268.671
679,268.66
680,248.657
681,220.11
682,214.425
683,213.93
684,209.561
685,195.819
686,185.119
687,185.115
688,205.733
689,223.303
690,225.301
691,225.298
692,220.618
693,200.299
694,200.294
695,215.733
696,246.207
697,246.2
698,220.114
699,192.755
700,185.938
701,183.502
702,174.968
703,164.294
704,160.013
705,157.957
706,157.094
707,141.613
708,127.541
709,125.086
710,125.054
711,147.612
712,174.136
713,184.568
714,184.523
715,179.102
716,155.049
717,123.504
718,85.8701
719,85.8041
720,95.658
721,106.519
722,106.438
723,69.8888
724,57.3708
725,55.3614
726,55.2588
727,64.1713
728,72.2105
729,76.5718
730,76.4443
731,69.1718
732,52.9876
733,51.9346
734,51.7792
735,51.6163
736,44.7829
737,44.6045
738,49.186
739,62.0001
740,61.797
741,61.5852
742,66.2962
743,80.2619
744,88.9002
745,89.0618
746,88.8039
747,63.4068
748,63.1291
749,76.9152
750,123.956
751,123.647
752,101.498
753,101.167
754,111.544
755,111.191
756,59.1733
757,24.8418
758,24.4528
759,34.6959
760,35.0145
761,34.5881
762,32.5248
763,30.706
764,26.4708
765,19.7961
766,16.473
767,1.92364
768,-9.24438
769,-9.77987
770,-8.86071
771,-9.42522
772,-9.42339
773,-7.48034
774,1.60229
775,7.68909
776,7.7416
777,6.40724
778,3.1631
779,-1.71019
780,-3.65637
781,-6.47965
782,-7.18734
783,-2.87067
784,8.8844
785,18.6465
786,26.3819
787,55.9541
788,80.3874
789,79.6148
790,78.8352
791,83.9897
792,141.409
793,160.358
794,159.556
795,158.749
796,223.525
797,291.662
798,330.532
799,352.048
800,372.429
801,397.691
802,441.825
803,490.515
804,527.06
805,571.363
806,607.805
807,629.192
808,661.315
809,685.349
810,705.443
811,747.308
812,799.762
813,849.241
814,889.431
815,904.163
816,903.383
817,850.595
818,798.287
819,750.954
820,737.125
821,731.269
822,698.156
823,662.64
824,620.019
825,615.378
826,601.853
827,599.401
828,573.079
829,571.853
830,571.199
831,577.735
832,578.615
833,609.515
834,608.909
835,620.385
836,641.46
837,666.176
838,665.623
839,665.085
840,675.289
841,717.334
842,754.063
843,821.936
844,911.593
845,945.465
846,966.322
847,1006.43
848,1045.39
849,1094.05
850,1149.43
851,1224.94
852,1263.18
853,1270.56
854,1306.67
855,1350.74
856,1350.47
857,1348.67
858,1348.44
859,1372.42
860,1403.74
861,1465.01
862,1498.51
863,1498.37
864,1445.02
865,1369.64
866,1269.15
867,1182.32
868,1107.12
869,1020.46
870,899.113
871,805.724
872,774.488
873,749.538
874,662.999
875,566.188
876,472.465
877,432.046
878,432.164
879,459.572
880,500.183
881,500.35
882,488.152
883,427.556
884,391.809
885,391.604
886,382.609
887,347.825
888,288.94
889,289.231
890,314.213
891,372.461
892,372.795
893,325.494
894,273.748
895,213.751
896,214.14
897,215.611
898,279.383
899,320.927
900,321.367
901,280.921
902,222.013
903,211.172
904,187.863
905,152.963
906,153.475
907,174.417
908,174.95
909,175.494
910,212.897
911,230.339
912,230.913
913,201.004
914,143.757
915,103.087
916,103.697
917,121.403
918,126.484
919,144.97
920,153.915
921,154.566
922,152.487
923,153.152
924,172.244
925,216.846
926,217.53
927,196.491
928,174.099
929,159.399
930,156.839
931,133.078
932,121.231
933,120.357
934,112.417
935,113.145
936,114.063
937,114.797
938,100.095
939,100.835
940,115.663
941,117.229
942,149.468
943,175.148
944,175.896
945,143.688
946,102.502
947,82.022
948,71.035
949,54.6394
950,46.2286
951,42.1543
952,33.4604
953,27.3721
954,8.89634
955,9.63848
956,14.1531
957,52.3735
958,71.6548
959,72.3856
960,72.8745
961,70.3378
962,71.057
963,39.5651
964,14.2863
965,14.9911
966,38.6948
967,48.7178
968,51.6472
969,52.7985
970,53.4732
971,39.6125
972,7.38655
973,8.0395
974,-1.05358
975,-5.95239
976,-17.2525
977,-16.6327
978,11.3012
979,42.1991
980,44.6628
981,49.8972
982,50.4741
983,51.0429
984,40.2422
985,40.3681
986,40.9127
987,64.0579
988,70.8293
989,75.8325
990,95.347
991,124.877
992,125.376
993,115.454
994,115.938
995,121.255
996,161.408
997,185.697
998,212.468
999,231.348
1000,231.791
1001,177.396
1002,163.469
1003,163.892
1004,204.129
1005,204.54
1006,189.376
1007,160.717
1008,128.81
1009,107.305
1010,107.685
1011,111.41
1012,121.706
1013,122.069
1014,85.0173
1015,59.9741
1016,58.0706
1017,51.906
1018,52.2406
1019,19.4504
1020,19.7742
1021,69.9343
1022,76.1522
1023,76.4603
1024,70.1927
1025,70.4904
1026,78.8434
1027,79.1311
1028,52.1855
1029,52.4633
1030,95.4689
1031,106.951
1032,107.214
1033,100.853
1034,73.2159
1035,46.8763
1036,47.1211
1037,49.9302
1038,82.9813
1039,83.2126
1040,46.1293
1041,41.0961
1042,40.0008
1043,41.5283
1044,69.3504
1045,85.7202
1046,85.9215
1047,48.5822
1048,47.2297
1049,40.4922
1050,40.4595
1051,40.6405
1052,35.5694
1053,34.7563
1054,34.9255
1055,35.9561
1056,36.1176
1057,36.2754
1058,40.4438
1059,40.5941
1060,41.059
1061,48.0636
1062,48.2029
1063,13.4347
1064,13.5669
1065,22.4791
1066,22.6042
1067,21.5966
1068,19.2428
1069,19.3576
1070,14.4982
1071,14.6062
1072,19.1244
1073,19.2258
1074,16.5554
1075,7.56344
1076,7.65503
1077,8.23527
1078,8.32049
1079,2.31779
1080,1.64044
1081,1.71632
1082,1.78915
1083,0.196815
1084,-1.21073
1085,-1.28359
1086,-1.2227
1087,-0.257717
1088,1.57531
1089,4.76626
1090,10.4523
1091,14.8679
1092,20.6892
1093,20.9629
1094,25.9783
1095,44.1875
1096,98.3782
1097,155.05
1098,198.713
1099,249.068
1100,347.782
1101,451.662
1102,559.05
1103,671.953
1104,749.353
1105,814.908
1106,896.851
1107,991.439
1108,1092.47
1109,1184.51
1110,1225.99
1111,1225.99
1112,1177.31
1113,1103.17
1114,1064.27
1115,1029.86
1116,955.703
1117,829.556
1118,760.137
1119,748.764
1120,747.042
1121,725.84
1122,668.274
1123,616.66
1124,553.02
1125,442.976
1126,405.869
1127,392.188
1128,392.152
1129,340.967
1130,233.285
1131,205.352
1132,205.3
1133,252.921
1134,252.86
1135,253.337
1136,261.125
1137,281.361
1138,325.747
1139,350.822
1140,359.716
1141,359.618
1142,359.514
1143,367.836
1144,372.624
1145,442.768
1146,448.06
1147,463.664
1148,478.663
1149,502.827
1150,551.458
1151,661.434
1152,713.554
1153,723.471
1154,746.22
1155,790.08
1156,849.21
1157,909.682
1158,918.77
1159,943.633
1160,990.632
1161,990.367
1162,963.422
1163,958.299
1164,926.953
1165,881.159
1166,880.835
1167,877.989
1168,859.278
1169,858.913
1170,858.534
1171,841.763
1172,754.353
1173,696.549
1174,625.843
1175,527.889
1176,479.617
1177,479.126
1178,478.618
1179,446.857
1180,369.136
1181,308.61
1182,246.904
1183,201.685
1184,179.007
1185,144.304
1186,122.956
1187,122.267
1188,152.696
1189,151.961
1190,121.244
1191,120.461
1192,119.655
1193,92.6998
1194,50.6379
1195,44.4013
1196,43.4918
1197,69.4959
1198,68.532
1199,55.0817
1200,24.2204
1201,11.6814
1202,10.6026
1203,19.3154
1204,18.1763
1205,-8.91637
1206,-19.6328
1207,-20.8662
1208,-14.8858
1209,-16.1835
1210,-21.8215
1211,-23.1827
1212,-17.1206
1213,-6.83472
1214,9.61698
1215,9.43013
1216,7.92202
1217,3.60261
1218,2.04254
1219,4.04739
1220,54.1809
1221,108.121
1222,155.728
1223,171.441
1224,172.129
1225,227.559
1226,335.574
1227,398.347
1228,439.173
1229,506.765
1230,570.486
1231,641.434
1232,731.357
1233,806.831
1234,873.76
1235,952.622
1236,1015.14
1237,1082.33
1238,1191.94
1239,1298.87
1240,1385.55
1241,1411.54
1242,1432.27
1243,1430.96
1244,1539.14
1245,1609.92
1246,1658.14
1247,1706.97
1248,1705.09
1249,1688.02
1250,1682.7
1251,1662.81
1252,1614.73
1253,1598.78
1254,1596.61
1255,1594.77
1256,1585.15
1257,1566.4
1258,1486.68
1259,1400.56
1260,1377.39
1261,1374.71
1262,1369.53
1263,1354.69
1264,1341.42
1265,1339.14
1266,1230.42
1267,1119.03
1268,1103.79
1269,1081.16
1270,972.909
1271,900.107
1272,898.472
1273,896.852
1274,849.316
1275,775.781
1276,716.176
1277,654.095
1278,605.111
1279,561.122
1280,535.206
1281,500.804
1282,484.175
1283,474.409
1284,439.671
1285,423.001
1286,421.63
1287,420.28
1288,357.127
1289,341.601
1290,340.318
1291,378.955
1292,377.717
1293,347.638
1294,286.979
1295,223.871
1296,222.729
1297,224.757
1298,245.22
1299,244.153
1300,217.714
1301,188.93
1302,187.94
1303,218.101
1304,231.519
1305,235.657
1306,272.553
1307,326.473
1308,422.825
1309,502.557
1310,501.785
1311,501.04
1312,539.589
1313,634.997
1314,727.808
1315,811.675
1316,899.503
1317,987.499
1318,1028.6
1319,1064.06
1320,1218.59
1321,1390.58
1322,1501.85
1323,1600.11
1324,1687.7
1325,1788.9
1326,1891.79
1327,1998.4
1328,2046.24
1329,2046.04
1330,2003.02
1331,1977.3
1332,1970.83
1333,1962.03
1334,1860.7
1335,1766.17
1336,1657.17
1337,1537.2
1338,1461.24
1339,1407.92
1340,1300.29
1341,1180.28
1342,1106.63
1343,1047.53
1344,984.951
1345,938.054
1346,894.804
1347,814.351
1348,761.04
1349,742.717
1350,709.356
1351,651.878
1352,573.125
1353,506.316
1354,438.883
1355,367.828
1356,368.434
1357,365.785
1358,351.971
1359,352.655
1360,361.668
1361,362.403
1362,335.808
1363,336.593
1364,358.68
1365,359.513
1366,338.189
1367,334.198
1368,335.101
1369,310.378
1370,289.618
1371,275.146
1372,250.999
1373,199.203
1374,200.236
1375,219.757
1376,220.831
1377,203.024
1378,204.137
1379,252.128
1380,282.305
1381,298.764
1382,311.65
1383,312.854
1384,313.31
1385,298.432
1386,293.781
1387,261.465
1388,245.598
1389,246.899
1390,248.216
1391,212.596
1392,213.941
1393,229.297
1394,230.668
1395,189.892
1396,191.288
1397,241.173
1398,242.593
1399,243.559
1400,229.435
1401,219.153
1402,220.615
1403,268.091
1404,269.572
1405,249.442
1406,223.395
1407,185.007
1408,171.203
1409,172.722
1410,174.247
1411,149.709
1412,105.798
1413,87.4166
1414,88.9626
1415,118.822
1416,120.375
1417,111.548
1418,113.108
1419,146.513
1420,148.077
1421,117.257
1422,118.824
1423,126.527
1424,129.267
1425,130.833
1426,132.399
1427,124.411
1428,116.064
1429,24.5737
1430,26.1304
1431,21.2512
1432,22.8009
1433,24.3464
1434,30.9265
1435,41.0581
1436,59.594
1437,90.1648
1438,91.6822
1439,93.1925
1440,101.839
1441,112.05
1442,119.17
1443,120.647
1444,86.719
1445,88.1771
1446,82.3064
1447,47.0827
1448,-5.96549
1449,-4.55173
1450,28.9123
1451,55.2993
1452,63.7988
1453,65.1613
1454,66.5101
1455,92.446
1456,128.154
1457,129.46
1458,129.124
1459,127.239
1460,124.127
1461,103.457
1462,42.8185
1463,10.0233
1464,9.81221
1465,1.71016
1466,2.86406
1467,4.31684
1468,5.43284
1469,-20.7841
1470,-19.7076
1471,-18.3946
1472,39.8518
1473,102.577
1474,160.888
1475,184.592
1476,185.55
1477,128.127
1478,129.047
1479,144.349
1480,145.232
1481,146.096
1482,196.089
1483,249.84
1484,250.651
1485,214.866
1486,210.647
1487,194.937
1488,147.93
1489,145.521
1490,146.229
1491,171.693
1492,199.42
1493,213.247
1494,213.89
1495,177.582
1496,117.429
1497,118.024
1498,180.577
1499,207.431
1500,207.98
1501,199.621
1502,192.56
1503,171.384
1504,138.289
1505,138.115
1506,138.577
1507,139.025
1508,108.147
1509,89.9365
1510,82.5173
1511,82.91
1512,90.4203
1513,90.7863
1514,87.2716
1515,87.6115
1516,114.968
1517,117.421
1518,117.723
1519,110.85
1520,105.348
1521,71.0619
1522,30.0441
1523,30.2847
1524,70.9481
1525,79.0849
1526,79.2905
1527,54.3247
1528,32.3447
1529,22.1857
1530,22.3462
1531,22.4956
1532,14.654
1533,14.7818
1534,13.9761
1535,7.81568
1536,-4.83185
1537,-4.74572
1538,9.42565
1539,17.3531
1540,17.4096
1541,17.4567
1542,16.8274
1543,15.2974
1544,12.4165
1545,13.498
1546,13.5012
1547,16.54
1548,35.8196
1549,46.1226
1550,46.0944
1551,44.2183
1552,44.1758
1553,55.1564
1554,55.1004
1555,12.2978
1556,3.82397
1557,3.74927
1558,42.4493
1559,42.3633
1560,39.6656
1561,28.5172
1562,28.4156
1563,38.2421
1564,66.736
1565,96.9316
1566,159.451
1567,214.051
1568,233.901
1569,276.128
1570,317.032
1571,329.976
1572,383.743
1573,419.784
1574,435.028
1575,483.794
1576,558.597
1577,589.644
1578,599.395
1579,599.24
1580,561.442
1581,561.284
1582,555.643
1583,531.791
1584,492.886
1585,486.569
1586,472.048
1587,471.885
1588,471.721
1589,461.241
1590,448.757
1591,444.504
1592,416.334
1593,372.618
1594,372.454
1595,372.29
1596,355.576
1597,338.959
1598,304.239
1599,304.077
1600,303.915
1601,249.227
1602,211.226
1603,211.067
1604,213.727
1605,295.253
1606,295.096
1607,225.709
1608,225.554
1609,249.964
1610,256.291
1611,256.14
1612,173.351
1613,173.202
1614,204.627
1615,204.481
1616,183.118
1617,147.356
1618,103.713
1619,103.572
1620,143.361
1621,158.168
1622,167.342
1623,176.745
1624,176.97
1625,188.325
1626,188.194
1627,188.065
1628,225.264
1629,225.138
1630,164.753
1631,155.668
1632,148.036
1633,147.363
1634,147.245
1635,175.666
1636,175.55
1637,155.95
1638,104.994
1639,104.883
1640,180.615
1641,180.507
1642,134.406
1643,133.254
1644,133.15
1645,133.048
1646,146.325
1647,146.225
1648,107.357
1649,107.26
1650,107.164
1651,82.473
1652,68.5532
1653,68.4611
1654,115.902
1655,115.812
1656,115.723
1657,119.961
1658,119.875
1659,35.9136
1660,35.8291
1661,73.5047
1662,85.6936
1663,99.6468
1664,102.605
1665,123.569
1666,123.489
1667,123.411
1668,114.217
1669,102.851
1670,54.6861
1671,-4.79869
1672,-4.87456
1673,2.46916
1674,25.4712
1675,65.8061
1676,65.7325
1677,21.1498
1678,5.23837
1679,5.16694
1680,33.6294
1681,38.8356
1682,44.0845
1683,70.4566
1684,102.973
1685,102.908
1686,66.3507
1687,66.2872
1688,61.7853
1689,40.3271
1690,13.3245
1691,13.266
1692,25.1314
1693,28.7553
1694,28.7011
1695,27.3681
1696,27.3169
1697,28.2453
1698,53.2353
1699,53.189
1700,43.7523
1701,39.6547
1702,39.6136
1703,39.5742
1704,41.6841
1705,41.6485
1706,52.9434
1707,63.4289
1708,63.3992
1709,71.13
1710,71.1044
1711,64.8245
1712,64.2851
1713,56.7982
1714,56.7811
1715,70.0329
1716,117.612
1717,117.602
1718,98.8914
1719,52.9067
1720,33.7056
1721,13.5021
1722,13.5036
1723,93.4392
1724,93.4456
1725,113.245
1726,113.257
1727,142.455
1728,142.472
1729,119.733
1730,86.0416
1731,86.0659
1732,114.873
1733,132.167
1734,154.647
1735,154.681
1736,116.562
1737,61.819
1738,28.7085
1739,5.88873
1740,5.93721
1741,31.1018
1742,66.3836
1743,74.3095
1744,106.724
1745,138.873
1746,138.938
1747,108.941
1748,64.0825
1749,59.4779
1750,59.554
1751,62.3235
1752,75.4853
1753,83.9825
1754,84.0697
1755,28.2568
1756,28.3495
1757,62.1952
1758,62.2934
1759,48.6462
1760,48.7499
1761,53.0147
1762,84.2933
1763,128.307
1764,128.422
1765,112.345
1766,100.912
1767,101.034
1768,126.655
1769,126.783
1770,76.0479
1771,72.1156
1772,66.8641
1773,67.0026
1774,75.4367
1775,87.0313
1776,87.1775
1777,50.8833
1778,51.0345
1779,72.0621
1780,72.2183
1781,72.3769
1782,113.109
1783,157.839
1784,158.005
1785,128.1
1786,127.298
1787,100.645
1788,90.5625
1789,80.824
1790,80.3069
1791,65.6308
1792,50.024
1793,50.2096
1794,51.2786
1795,62.3121
1796,63.0027
1797,85.2914
1798,100.017
1799,100.215
1800,67.0684
1801,32.6227
1802,24.5628
1803,24.767
1804,63.0133
1805,63.2207
1806,63.4296
1807,83.9632
1808,99.0174
1809,99.2307
1810,90.4816
1811,26.9643
1812,24.1913
1813,19.84
1814,13.6168
1815,13.8375
1816,37.9025
1817,38.1253
1818,34.0396
1819,9.15869
1820,9.38436
1821,35.4737
1822,99.5802
1823,99.8082
1824,100.037
1825,123.683
1826,130.056
1827,124.144
1828,104.926
1829,41.9766
1830,20.3939
1831,8.40052
1832,8.63258
1833,4.35606
1834,1.54597
1835,-3.36636
1836,-3.13401
1837,0.629647
1838,21.5216
1839,21.7538
1840,21.986
1841,28.0222
1842,54.5726
1843,61.1023
1844,61.3345
1845,52.9845
1846,53.2166
1847,53.4487
1848,50.367
1849,50.5991
