#wnum,raman
275,37.0203
276,41.3897
277,47.9733
278,49.2632
279,49.1542
280,32.1164
281,32.0074
282,32.1492
283,41.2363
284,43.5035
285,44.6315
286,45.8116
287,47.0272
288,48.2185
289,51.3728
290,51.2636
291,37.7704
292,6.09465
293,5.98525
294,17.0266
295,59.4317
296,59.3221
297,55.133
298,29.7553
299,10.5689
300,10.4589
301,11.7121
302,29.8404
303,40.1047
304,39.994
305,37.9986
306,31.1217
307,27.9956
308,27.8842
309,40.7293
310,40.6174
311,36.7659
312,30.7565
313,24.9801
314,17.3933
315,17.2801
316,30.481
317,35.5218
318,35.4076
319,30.7788
320,30.6638
321,38.3409
322,49.1075
323,48.9913
324,42.7217
325,38.3005
326,38.183
327,38.065
328,33.6647
329,19.6271
330,19.5075
331,23.9513
332,31.665
333,31.798
334,32.537
335,32.4144
336,28.1233
337,27.9993
338,39.8311
339,39.7056
340,37.612
341,19.3456
342,19.2178
343,19.5136
344,25.7997
345,35.9695
346,38.1265
347,37.9944
348,28.6466
349,28.5126
350,42.7121
351,42.5761
352,24.3484
353,-4.02605
354,-4.16533
355,16.8846
356,43.643
357,43.5006
358,23.8695
359,15.0132
360,14.4833
361,14.3375
362,21.2713
363,31.8498
364,31.7021
365,12.997
366,0.506815
367,0.35766
368,0.891182
369,5.07924
370,6.20841
371,9.65261
372,19.9229
373,31.9143
374,31.7636
375,31.6128
376,36.4405
377,52.3557
378,52.2051
379,45.6408
380,39.678
381,39.5282
382,49.2075
383,49.0584
384,35.141
385,31.2053
386,31.0576
387,51.3011
388,52.5807
389,53.5879
390,63.5919
391,70.7495
392,70.6059
393,40.0104
394,27.7792
395,24.6906
396,20.1311
397,19.9922
398,34.5729
399,54.258
400,54.1224
401,30.3829
402,14.1898
403,14.0578
404,22.4452
405,41.7811
406,41.653
407,36.534
408,36.4088
409,44.4447
410,59.611
411,67.0225
412,66.9036
413,66.0111
414,56.1923
415,47.6211
416,47.5088
417,52.2448
418,55.4341
419,63.8204
420,73.3783
421,75.4412
422,75.3401
423,75.241
424,76.9599
425,85.2642
426,102.58
427,121.003
428,130.799
429,132.083
430,131.998
431,122.164
432,109.577
433,109.499
434,121.115
435,129.603
436,129.532
437,114.787
438,105.269
439,97.6511
440,91.7004
441,91.5274
442,91.47
443,93.957
444,101.03
445,112.564
446,118.435
447,118.389
448,109.395
449,103.389
450,103.35
451,103.314
452,101.332
453,92.1819
454,80.2243
455,68.4899
456,55.9913
457,49.643
458,47.6073
459,46.1243
460,40.367
461,40.3546
462,67.1081
463,77.0664
464,77.0608
465,47.9921
466,47.9912
467,50.8203
468,60.7401
469,61.0388
470,63.7634
471,63.7737
472,59.9588
473,53.8179
474,53.8348
475,52.9862
476,53.0075
477,43.7077
478,39.6324
479,39.66
480,56.6204
481,56.6521
482,53.0557
483,26.5344
484,8.86577
485,8.90555
486,25.3568
487,25.4005
488,22.3319
489,19.9932
490,20.0426
491,30.2797
492,30.3328
493,20.2235
494,17.5828
495,17.6412
496,22.0578
497,28.4799
498,34.0208
499,34.0861
500,25.5306
501,16.6855
502,16.3375
503,16.4093
504,31.173
505,46.4274
506,46.5038
507,32.6367
508,21.4243
509,21.5051
510,26.0781
511,26.1616
512,25.9213
513,23.3459
514,22.0265
515,22.1152
516,26.0953
517,26.3996
518,30.5833
519,30.6769
520,29.4422
521,-0.288949
522,-0.413606
523,-0.31572
524,13.389
525,13.4889
526,13.5898
527,16.4253
528,48.1772
529,48.2809
530,26.2085
531,7.99082
532,8.09714
533,31.7114
534,33.3941
535,33.5029
536,21.6787
537,21.789
538,22.713
539,28.9078
540,36.2717
541,39.1251
542,39.8029
543,39.3531
544,37.1366
545,29.7823
546,29.8982
547,38.8869
548,39.0039
549,24.1251
550,11.7894
551,5.68997
552,5.80855
553,16.2882
554,36.5071
555,47.1842
556,47.304
557,42.6905
558,42.8108
559,43.5938
560,52.6018
561,52.7225
562,46.0584
563,26.4206
564,26.5414
565,28.9826
566,29.1035
567,23.6185
568,14.7409
569,14.8615
570,19.6046
571,19.7248
572,16.6328
573,15.1544
574,15.2737
575,31.9313
576,32.05
577,31.826
578,11.7164
579,11.8337
580,15.16
581,37.5284
582,42.5058
583,42.6209
584,17.8374
585,17.9512
586,32.2653
587,45.9824
588,52.1093
589,52.22
590,42.0695
591,21.8868
592,21.9947
593,23.8631
594,23.969
595,7.37105
596,-2.25345
597,-2.15086
598,5.0455
599,7.06897
600,8.78631
601,13.1897
602,13.2865
603,13.5241
604,26.4415
605,26.5349
606,23.8051
607,3.56986
608,3.65984
609,36.3936
610,55.0021
611,55.0887
612,42.8814
613,28.3949
614,16.8387
615,16.9208
616,23.5728
617,29.18
618,37.71
619,37.7876
620,28.4172
621,11.4912
622,11.5655
623,30.1297
624,30.2017
625,28.6302
626,28.6999
627,30.3392
628,38.7177
629,45.8275
630,53.6243
631,60.3423
632,62.671
633,62.7327
634,40.2081
635,20.2867
636,20.3449
637,20.4019
638,20.0116
639,15.297
640,9.98443
641,-1.29851
642,-1.24754
643,17.8094
644,39.6352
645,39.6826
646,30.3423
647,21.678
648,13.9757
649,14.0185
650,26.3632
651,32.1658
652,32.2053
653,24.4282
654,24.4656
655,25.6147
656,28.4037
657,28.438
658,26.1146
659,12.7837
660,12.8151
661,13.1008
662,28.0894
663,37.3871
664,43.7955
665,44.5465
666,44.5724
667,44.5975
668,47.0617
669,47.9058
670,47.9283
671,45.1287
672,43.9579
673,43.9779
674,43.9971
675,40.5937
676,37.0407
677,32.543
678,27.9774
679,26.5482
680,26.5425
681,21.1767
682,7.5898
683,7.60205
684,9.15333
685,20.8889
686,41.4108
687,56.6963
688,56.7049
689,39.1827
690,39.1898
691,40.6173
692,40.623
693,39.7167
694,33.7211
695,31.6989
696,31.3602
697,31.3623
698,31.8471
699,31.8478
700,24.0749
701,24.0742
702,38.88
703,54.5133
704,54.5104
705,45.4069
706,25.4379
707,1.82127
708,1.81546
709,17.2227
710,26.8058
711,26.7977
712,19.2565
713,12.2762
714,12.266
715,21.3923
716,53.3516
717,73.2093
718,73.196
719,70.9335
720,66.4167
721,58.1375
722,45.4992
723,38.9607
724,38.9426
725,53.6763
726,53.6565
727,33.861
728,30.07
729,30.0476
730,36.4568
731,36.4326
732,25.6304
733,25.6043
734,30.0349
735,36.9956
736,48.2217
737,48.1919
738,19.8856
739,9.54984
740,9.51697
741,34.1893
742,34.1543
743,27.2632
744,13.737
745,-2.84284
746,-2.88218
747,30.6481
748,61.2315
749,61.1889
750,39.2813
751,26.7256
752,16.6551
753,16.6089
754,22.4498
755,31.3125
756,44.1348
757,49.0383
758,48.9883
759,43.7669
760,34.7002
761,23.9809
762,23.9285
763,27.6024
764,29.2319
765,31.997
766,31.9429
767,22.5821
768,12.5449
769,12.4897
770,13.9101
771,17.5105
772,17.4546
773,16.942
774,1.46451
775,1.40826
776,38.8339
777,48.3049
778,48.2486
779,31.622
780,29.0832
781,28.4413
782,20.8644
783,5.70015
784,5.38798
785,5.3325
786,13.6559
787,35.0779
788,47.1019
789,47.0475
790,33.9974
791,16.7685
792,0.880098
793,0.827399
794,29.2114
795,43.4623
796,43.4111
797,37.4687
798,25.3491
799,14.9399
800,14.8911
801,19.6905
802,19.6431
803,16.3975
804,16.3516
805,18.4163
806,22.8343
807,26.8187
808,31.2792
809,46.2874
810,50.2338
811,52.1997
812,52.1605
813,57.2536
814,59.659
815,71.084
816,87.9493
817,87.9152
818,82.0006
819,69.6869
820,67.9773
821,67.9475
822,68.3765
823,68.349
824,66.9537
825,42.0995
826,22.6271
827,19.0637
828,19.0422
829,30.4315
830,32.0903
831,32.0725
832,32.056
833,32.4204
834,46.6037
835,46.591
836,32.6741
837,19.3659
838,8.63367
839,8.62632
840,27.3168
841,39.9667
842,39.9635
843,27.9763
844,20.4419
845,19.4814
846,19.4837
847,32.5223
848,39.7093
849,41.6731
850,41.6811
851,21.8128
852,21.8236
853,30.7119
854,55.2671
855,63.5002
856,63.5169
857,58.9629
858,50.7115
859,46.5844
860,46.2326
861,46.2567
862,51.2125
863,54.817
864,69.9687
865,91.341
866,100.765
867,101.505
868,110.468
869,130.072
870,152.084
871,183.611
872,210.272
873,218.592
874,232.942
875,274.052
876,319.348
877,369.061
878,410.089
879,450.981
880,501.91
881,516.546
882,518.913
883,536.266
884,552.209
885,552.266
886,545.704
887,536.32
888,498.922
889,448.314
890,395.27
891,351.429
892,285.717
893,223.06
894,200.611
895,190.305
896,158.959
897,116.126
898,116.19
899,116.689
900,116.752
901,106.893
902,87.109
903,69.5537
904,55.048
905,55.1086
906,63.1671
907,68.4005
908,68.458
909,63.2563
910,48.1932
911,43.4877
912,43.5394
913,43.5895
914,43.4864
915,36.3281
916,36.3722
917,36.4141
918,26.2292
919,-4.80986
920,-4.77526
921,-4.61546
922,3.44703
923,16.3874
924,20.3794
925,20.4008
926,18.9546
927,18.1769
928,18.0214
929,15.3609
930,15.3698
931,31.4311
932,31.4351
933,23.0967
934,19
935,18.9968
936,38.3811
937,38.3732
938,23.9321
939,23.9196
940,30.0428
941,30.0258
942,24.4581
943,20.6582
944,20.6345
945,32.6127
946,34.1559
947,42.6303
948,52.5422
949,53.2096
950,53.173
951,46.101
952,46.0603
953,48.8784
954,48.8336
955,22.7358
956,7.42704
957,7.3762
958,7.32338
959,0.54504
960,0.158512
961,0.0997829
962,20.9005
963,20.8379
964,5.44364
965,5.37721
966,24.09
967,24.0198
968,9.32338
969,9.24945
970,14.9492
971,17.1245
972,17.045
973,16.9638
974,25.6688
975,25.5839
976,10.2728
977,7.80147
978,7.71131
979,29.2938
980,29.2002
981,25.4994
982,19.1529
983,13.5355
984,6.88518
985,-2.66571
986,-2.76963
987,2.49936
988,11.8932
989,14.8535
990,22.6406
991,29.5728
992,29.8338
993,32.207
994,32.0916
995,21.2586
996,5.82088
997,5.70219
998,31.9766
999,31.856
1000,15.8085
1001,15.6863
1002,34.9109
1003,34.7873
1004,31.7627
1005,10.3784
1006,2.16886
1007,2.04315
1008,2.05819
1009,6.3647
1010,13.0715
1011,25.0964
1012,45.2443
1013,45.1172
1014,42.5044
1015,21.682
1016,21.555
1017,28.1585
1018,28.0319
1019,21.6157
1020,11.9896
1021,11.8639
1022,12.2887
1023,35.1936
1024,46.0799
1025,48.6673
1026,48.5443
1027,69.1974
1028,77.0041
1029,76.8833
1030,76.7633
1031,75.0571
1032,72.0854
1033,70.7533
1034,70.6373
1035,70.5224
1036,74.1641
1037,74.0516
1038,101.551
1039,122.382
1040,130.51
1041,142.292
1042,151.621
1043,151.517
1044,150.067
1045,149.966
1046,155.24
1047,175.173
1048,187.187
1049,187.092
1050,169.784
1051,146.86
1052,141.686
1053,141.598
1054,151.316
1055,151.451
1056,151.369
1057,149.133
1058,143.22
1059,133.575
1060,128.089
1061,126.162
1062,115.328
1063,94.281
1064,89.9201
1065,89.2478
1066,79.9965
1067,79.9352
1068,89.045
1069,88.9877
1070,88.9323
1071,97.1146
1072,97.0633
1073,95.4846
1074,55.0697
1075,55.0242
1076,59.7397
1077,80.2995
1078,95.6063
1079,101.91
1080,101.977
1081,104.133
1082,112.586
1083,122.052
1084,125.179
1085,129.494
1086,154.19
1087,167.753
1088,167.733
1089,167.715
1090,177.179
1091,177.164
1092,147.97
1093,143.701
1094,143.692
1095,149.121
1096,161.427
1097,168.57
1098,168.599
1099,175.991
1100,186.492
1101,186.494
1102,174.256
1103,151.468
1104,151.475
1105,169.946
1106,169.956
1107,136.932
1108,125.45
1109,119.203
1110,102.147
1111,84.448
1112,84.4651
1113,85.6321
1114,85.6512
1115,79.8283
1116,79.8491
1117,83.9357
1118,83.9581
1119,79.6042
1120,71.6283
1121,64.1365
1122,62.6618
1123,62.687
1124,62.7126
1125,60.8782
1126,47.8992
1127,43.5696
1128,43.5961
1129,47.6161
1130,59.4539
1131,72.9893
1132,73.0157
1133,56.9091
1134,14.4664
1135,14.4921
1136,41.84
1137,70.0348
1138,70.0591
1139,61.9217
1140,46.1237
1141,37.0323
1142,34.9221
1143,34.8458
1144,34.8655
1145,39.9029
1146,39.9204
1147,39.9367
1148,55.292
1149,58.3443
1150,58.3567
1151,34.6915
1152,25.3604
1153,22.8375
1154,19.9938
1155,19.9981
1156,28.848
1157,52.8445
1158,52.843
1159,34.1478
1160,26.9221
1161,25.4392
1162,25.2762
1163,16.9754
1164,12.9717
1165,12.9541
1166,17.9758
1167,30.7207
1168,30.695
1169,21.4501
1170,18.655
1171,17.6093
1172,13.5257
1173,7.69612
1174,7.65198
1175,9.98458
1176,10.1139
1177,29.5858
1178,29.5278
1179,27.4144
1180,27.349
1181,35.3343
1182,35.2611
1183,22.5287
1184,22.4475
1185,27.0914
1186,41.8912
1187,41.7971
1188,12.6134
1189,0.922614
1190,0.815096
1191,35.7561
1192,35.6392
1193,34.9463
1194,-7.84583
1195,-7.97756
1196,17.3965
1197,35.0633
1198,50.1595
1199,52.675
1200,52.5189
1201,38.9337
1202,29.8358
1203,29.666
1204,50.4978
1205,50.3191
1206,37.109
1207,25.9903
1208,25.7988
1209,33.567
1210,47.9106
1211,47.7071
1212,1.07871
1213,0.86738
1214,35.0828
1215,34.8639
1216,11.1221
1217,10.8961
1218,23.602
1219,23.3689
1220,14.2894
1221,14.0497
1222,15.1859
1223,14.9398
1224,-0.619136
1225,-0.871486
1226,8.67384
1227,23.7759
1228,28.5573
1229,28.7551
1230,29.8512
1231,38.0057
1232,55.5402
1233,66.7443
1234,66.7283
1235,66.4495
1236,60.016
1237,44.6463
1238,10.7098
1239,3.39181
1240,3.10271
1241,20.6176
1242,42.2361
1243,46.7815
1244,46.4854
1245,44.3925
1246,44.0935
1247,61.2071
1248,60.9053
1249,60.6022
1250,71.9656
1251,71.6602
1252,70.153
1253,54.6186
1254,46.9397
1255,45.3049
1256,44.9948
1257,47.7371
1258,62.2062
1259,76.673
1260,76.3604
1261,70.3363
1262,56.0617
1263,49.2284
1264,48.9144
1265,52.0585
1266,56.2676
1267,62.2082
1268,84.8786
1269,84.8051
1270,84.4905
1271,75.0299
1272,74.7157
1273,86.9277
1274,124.004
1275,141.278
1276,140.965
1277,117.118
1278,105.104
1279,94.2899
1280,88.3386
1281,82.66
1282,82.3505
1283,82.0418
1284,64.3065
1285,61.0412
1286,60.7349
1287,62.8085
1288,62.5041
1289,45.7333
1290,45.4309
1291,50.3133
1292,67.1763
1293,66.8772
1294,48.1648
1295,47.8681
1296,51.9288
1297,84.0216
1298,83.7288
1299,63.9113
1300,63.3601
1301,62.9819
1302,48.8799
1303,47.4027
1304,47.1187
1305,62.6083
1306,63.7565
1307,63.4772
1308,16.0061
1309,5.35578
1310,5.08156
1311,34.1562
1312,33.8855
1313,33.6166
1314,54.2926
1315,54.0274
1316,49.7211
1317,38.558
1318,38.2985
1319,49.6844
1320,49.4288
1321,49.1031
1322,48.8516
1323,48.6021
1324,48.1338
1325,34.8675
1326,32.6277
1327,32.3866
1328,31.0306
1329,30.7939
1330,47.1179
1331,58.8414
1332,59.3757
1333,59.148
1334,44.2951
1335,44.072
1336,59.885
1337,59.6665
1338,52.5193
1339,40.4029
1340,40.1916
1341,39.9827
1342,38.3109
1343,38.1069
1344,48.176
1345,62.9228
1346,71.8825
1347,71.6884
1348,70.6422
1349,63.607
1350,38.2982
1351,17.0394
1352,16.4655
1353,11.4446
1354,-1.52139
1355,-1.69516
1356,35.5825
1357,53.9298
1358,53.764
1359,52.2766
1360,29.9945
1361,29.837
1362,36.7619
1363,36.61
1364,21.4489
1365,21.303
1366,43.6788
1367,43.5389
1368,43.196
1369,36.3086
1370,17.7907
1371,17.6632
1372,34.2499
1373,42.9854
1374,42.8677
1375,31.5525
1376,7.59978
1377,4.10624
1378,4.00205
1379,21.799
1380,48.449
1381,48.3552
1382,38.2512
1383,23.6038
1384,23.5209
1385,30.114
1386,50.454
1387,56.566
1388,57.8799
1389,62.832
1390,62.7715
1391,51.8761
1392,46.6278
1393,34.8327
1394,33.472
1395,33.431
1396,46.3653
1397,55.7933
1398,66.5319
1399,66.5069
1400,64.6887
1401,31.3868
1402,31.3741
1403,60.5004
1404,60.4961
1405,54.5807
1406,54.5848
1407,57.0807
1408,78.3769
1409,78.5862
1410,78.6074
1411,65.1076
1412,52.3382
1413,52.3723
1414,53.2335
1415,89.1992
1416,89.2465
1417,65.1024
1418,65.1586
1419,74.9495
1420,80.6174
1421,101.873
1422,101.947
1423,83.6432
1424,67.1723
1425,67.2598
1426,85.9325
1427,113.662
1428,113.763
1429,113.869
1430,114.543
1431,136.18
1432,152.253
1433,152.377
1434,112.431
1435,107.68
1436,107.818
1437,150.861
1438,151.008
1439,136.715
1440,136.87
1441,153.878
1442,170.799
1443,182.818
1444,203.882
1445,204.06
1446,205.525
1447,227.7
1448,308.272
1449,308.468
1450,270.771
1451,270.975
1452,271.245
1453,274.407
1454,274.624
1455,272.804
1456,254.406
1457,251.109
1458,230.335
1459,225.265
1460,225.472
1461,225.716
1462,230.299
1463,230.551
1464,207.102
1465,168.382
1466,142.241
1467,125.874
1468,126.144
1469,136.781
1470,150.195
1471,156.166
1472,156.448
1473,142.871
1474,116.979
1475,96.5155
1476,96.8089
1477,118.607
1478,136.988
1479,137.289
1480,132.657
1481,132.963
1482,133.271
1483,117.505
1484,110.498
1485,110.812
1486,138.537
1487,138.854
1488,137.744
1489,128.131
1490,104.12
1491,104.444
1492,119.015
1493,119.341
1494,101.953
1495,96.064
1496,93.8498
1497,94.1791
1498,99.5622
1499,102.867
1500,104.129
1501,104.46
1502,85.0041
1503,79.6015
1504,79.5032
1505,73.9924
1506,61.5939
1507,50.3193
1508,50.6489
1509,75.6301
1510,98.8899
1511,99.2171
1512,65.4689
1513,43.72
1514,44.0437
1515,62.0023
1516,99.5885
1517,103.734
1518,104.051
1519,72.5176
1520,72.8312
1521,73.1426
1522,67.2039
1523,44.4154
1524,37.5643
1525,32.3607
1526,32.6594
1527,47.1583
1528,48.2194
1529,50.6966
1530,71.0817
1531,71.3644
1532,58.964
1533,47.3326
1534,47.6041
1535,54.0636
1536,56.3401
1537,56.5993
1538,36.7749
1539,28.8004
1540,18.7291
1541,14.7365
1542,14.9722
1543,37.4361
1544,52.8621
1545,53.0821
1546,39.0102
1547,39.2191
1548,53.7472
1549,53.9443
1550,29.2507
1551,-12.3922
1552,-12.2137
1553,23.5439
1554,30.9699
1555,38.7276
1556,66.3974
1557,80.1692
1558,80.3109
1559,76.2731
1560,64.3499
1561,63.4448
1562,61.9539
1563,53.9573
1564,34.5941
1565,34.6976
1566,65.4181
1567,82.0359
1568,82.1245
1569,55.4191
1570,55.4983
1571,55.771
1572,86.8452
1573,86.9109
1574,84.9729
1575,85.03
1576,85.0829
1577,64.1243
1578,64.1692
1579,111.666
1580,111.703
1581,100.279
1582,89.241
1583,89.2674
1584,114.738
1585,114.757
1586,82.992
1587,45.5315
1588,45.5415
1589,46.2335
1590,49.6274
1591,49.6284
1592,51.6376
1593,77.0014
1594,95.8071
1595,95.7974
1596,95.7851
1597,125.559
1598,125.542
1599,89.3321
1600,72.2697
1601,72.246
1602,77.6575
1603,77.6297
1604,65.4058
1605,45.4348
1606,45.4012
1607,67.1238
1608,71.2832
1609,71.2446
1610,71.2044
1611,80.3646
1612,86.4354
1613,94.0788
1614,94.033
1615,98.3447
1616,114.182
1617,114.132
1618,62.3565
1619,62.3049
1620,67.7591
1621,82.1262
1622,93.1392
1623,93.084
1624,80.7331
1625,69.113
1626,68.702
1627,61.6837
1628,61.625
1629,92.1081
1630,92.0485
1631,75.9025
1632,64.9352
1633,64.8744
1634,63.0428
1635,62.9813
1636,57.2708
1637,52.3311
1638,35.5505
1639,17.9582
1640,15.7758
1641,15.7136
1642,23.8657
1643,40.2278
1644,41.3676
1645,41.3057
1646,27.271
1647,27.2095
1648,33.7968
1649,47.3689
1650,65.8421
1651,93.8913
1652,98.6032
1653,98.5439
1654,98.4849
1655,109.599
1656,109.541
1657,88.2817
1658,58.333
1659,39.9769
1660,39.9214
1661,39.8667
1662,38.5496
1663,11.4112
1664,11.3586
1665,29.0956
1666,64.7615
1667,84.3966
1668,84.3474
1669,68.0305
1670,67.9831
1671,73.2567
1672,77.4251
1673,77.3806
1674,71.359
1675,51.2027
1676,51.1613
1677,109.484
1678,109.445
1679,83.4322
1680,81.3261
1681,78.4881
1682,49.5592
1683,49.5256
1684,72.9162
1685,72.8849
1686,61.2833
1687,61.2544
1688,80.573
1689,80.5467
1690,68.1756
1691,32.7885
1692,32.766
1693,46.6172
1694,70.551
1695,70.5323
1696,58.974
1697,21.1991
1698,15.0811
1699,15.0675
1700,46.9959
1701,62.3474
1702,87.3864
1703,101.23
1704,101.223
1705,61.9463
1706,61.9421
1707,61.9391
1708,39.5289
1709,39.5286
1710,63.4407
1711,63.443
1712,28.7062
1713,28.7112
1714,58.298
1715,58.3056
1716,25.7285
1717,25.7387
1718,44.8728
1719,48.4932
1720,59.9781
1721,102.37
1722,102.386
1723,65.3489
1724,65.3681
1725,73.4595
1726,73.4811
1727,73.0143
1728,38.3987
1729,2.44282
1730,-1.20119
1731,-1.17357
1732,70.1178
1733,95.7785
1734,95.8097
1735,46.5163
1736,46.5498
1737,48.1201
1738,58.9076
1739,58.9448
1740,58.9833
1741,63.0587
1742,80.0517
1743,87.2454
1744,87.2888
1745,67.0383
1746,67.0842
1747,73.1721
1748,76.1071
1749,98.9963
1750,138.888
1751,138.94
1752,90.8078
1753,48.1535
1754,7.35267
1755,7.40987
1756,11.7558
1757,52.5339
1758,52.5948
1759,25.8418
1760,25.9051
1761,70.3089
1762,70.3745
1763,70.4413
1764,72.6614
1765,92.1101
1766,92.1804
1767,92.2518
1768,134.824
1769,151.084
1770,151.159
1771,129.667
1772,101.383
1773,56.6624
1774,56.7413
1775,100.327
1776,104.862
1777,104.944
1778,79.7002
1779,58.2956
1780,51.9474
1781,52.0327
1782,67.7269
1783,87.0443
1784,93.7907
1785,93.8792
1786,116.031
1787,116.12
1788,91.2025
1789,91.2936
1790,92.3858
1791,92.478
1792,55.6068
1793,53.8396
1794,53.9332
1795,68.108
1796,68.2024
1797,43.9722
1798,44.0672
1799,44.1624
1800,31.3068
1801,26.2581
1802,26.3538
1803,58.3208
1804,98.2504
1805,101.692
1806,101.788
1807,89.1881
1808,62.3326
1809,32.98
1810,33.0751
1811,28.2533
1812,13.9544
1813,-3.58656
1814,-3.49284
1815,0.127095
1816,13.4978
1817,42.2561
1818,81.5748
1819,99.6126
1820,99.704
1821,67.6265
1822,27.2601
1823,27.3506
1824,41.2959
1825,112.663
1826,112.753
1827,53.3078
1828,32.4079
1829,32.4973
1830,63.4559
1831,65.2962
1832,65.3852
1833,65.4741
1834,73.5206
1835,84.4976
1836,85.6339
1837,105.01
1838,105.098
1839,65.4861
1840,59.0976
1841,59.186
1842,59.2743
1843,65.043
1844,79.16
1845,79.2484
1846,68.0767
1847,62.9843
1848,63.0726
1849,63.1609
