#wnum,raman
275,11.3461
276,11.3301
277,10.728
278,10.0828
279,9.15124
280,8.38183
281,8.36577
282,11.9672
283,15.1929
284,15.1768
285,13.7931
286,11.4138
287,7.88677
288,4.5769
289,3.79825
290,3.78214
291,4.1866
292,6.639
293,8.56071
294,8.54454
295,7.45335
296,6.20573
297,4.92161
298,4.90535
299,5.06133
300,6.26385
301,7.82164
302,9.2237
303,9.20728
304,4.8326
305,0.581479
306,-0.340631
307,-0.357218
308,0.378235
309,3.49135
310,3.80228
311,3.78554
312,3.76877
313,5.02426
314,13.2372
315,17.3416
316,17.3248
317,13.686
318,11.3392
319,9.45106
320,7.52485
321,5.51475
322,3.87972
323,3.86292
324,4.17808
325,5.22403
326,7.15649
327,9.14443
328,10.3016
329,10.2849
330,8.59744
331,4.47681
332,3.95444
333,3.93795
334,6.36565
335,6.44768
336,6.43134
337,6.35928
338,6.28368
339,6.14601
340,4.70984
341,3.99535
342,3.97938
343,6.82807
344,9.74602
345,12.2741
346,12.3451
347,12.3295
348,7.86713
349,5.57371
350,5.55833
351,6.35999
352,8.24697
353,9.93972
354,9.92467
355,6.26024
356,2.71352
357,2.47736
358,2.29109
359,2.27648
360,2.81669
361,3.48858
362,4.66786
363,6.41787
364,8.76299
365,10.6948
366,10.6808
367,8.507
368,6.63151
369,5.59025
370,5.44234
371,5.42886
372,7.55744
373,10.4613
374,16.3155
375,19.2196
376,19.2066
377,13.3273
378,9.84843
379,9.7804
380,9.76778
381,11.8282
382,14.7489
383,14.7365
384,14.0043
385,12.3378
386,10.405
387,8.9415
388,8.25216
389,7.62734
390,6.33342
391,4.25809
392,2.31841
393,0.303428
394,0.291944
395,2.43159
396,9.667
397,9.65571
398,6.05847
399,-0.256964
400,-0.26809
401,1.84919
402,1.83817
403,1.3789
404,1.36801
405,1.39788
406,2.45375
407,4.34311
408,6.53901
409,6.52846
410,2.51622
411,0.594953
412,0.584643
413,3.17244
414,5.40577
415,7.21645
416,7.20649
417,5.55989
418,3.75563
419,3.74596
420,5.02922
421,6.18195
422,6.99024
423,7.65891
424,8.37078
425,8.36173
426,7.89173
427,7.33162
428,7.32291
429,9.68232
430,10.8763
431,10.8679
432,10.8597
433,11.6774
434,16.7734
435,16.7655
436,15.9426
437,14.1479
438,14.1404
439,17.3443
440,17.337
441,16.0803
442,13.1594
443,6.83901
444,2.10094
445,2.09428
446,7.87289
447,11.0263
448,11.21
449,11.3293
450,12.5202
451,13.462
452,13.4562
453,13.3914
454,12.6455
455,8.36021
456,6.19107
457,6.18578
458,9.91096
459,11.7357
460,11.8123
461,12.0271
462,13.3656
463,13.3609
464,9.84596
465,1.85089
466,-0.390252
467,-0.394604
468,1.80019
469,2.89375
470,3.85987
471,5.77646
472,8.31084
473,8.30706
474,4.86233
475,3.15189
476,3.14847
477,4.45501
478,4.45184
479,4.0247
480,3.00362
481,1.2678
482,1.2652
483,2.48695
484,5.86426
485,9.13057
486,12.2102
487,12.2084
488,10.6098
489,8.32437
490,8.32312
491,11.6812
492,14.6932
493,17.0735
494,17.073
495,15.2268
496,12.3911
497,11.0747
498,11.075
499,12.3076
500,18.2325
501,19.019
502,19.0202
503,15.2156
504,14.2334
505,14.2352
506,14.3545
507,15.2503
508,15.2528
509,14.3784
510,14.3814
511,19.3288
512,26.3183
513,26.322
514,21.3971
515,15.5629
516,14.5145
517,14.5192
518,16.6828
519,21.716
520,21.7213
521,20.4505
522,16.5093
523,13.6731
524,10.9972
525,10.8365
526,10.8432
527,13.0023
528,17.2363
529,17.2437
530,15.5615
531,11.549
532,11.1499
533,11.1581
534,11.5894
535,12.3082
536,12.317
537,11.349
538,10.0811
539,8.48656
540,6.6964
541,4.25896
542,0.588458
543,0.598556
544,1.57918
545,4.86806
546,4.87865
547,2.46984
548,2.48074
549,2.93266
550,2.94385
551,1.73794
552,0.117046
553,0.128651
554,1.80182
555,3.54029
556,5.15004
557,5.37985
558,5.39206
559,5.40438
560,6.11708
561,8.67454
562,8.68715
563,7.44363
564,5.38211
565,2.17925
566,2.17759
567,2.19061
568,5.79671
569,5.80986
570,1.87159
571,1.48476
572,1.49807
573,3.17882
574,3.19221
575,3.20564
576,4.22384
577,6.99927
578,7.13169
579,7.1452
580,7.15871
581,9.27723
582,12.7483
583,14.9987
584,16.6668
585,16.6803
586,15.499
587,13.3416
588,10.427
589,7.82982
590,7.8431
591,8.28154
592,8.72364
593,9.69822
594,9.71123
595,9.22056
596,8.63935
597,8.65209
598,8.66472
599,8.60454
600,8.61694
601,9.11645
602,9.66072
603,10.2009
604,10.2261
605,10.3295
606,11.8493
607,13.7131
608,13.7243
609,12.8066
610,12.8174
611,16.0213
612,19.8361
613,19.8462
614,18.4127
615,14.4354
616,8.73379
617,8.65378
618,8.66266
619,8.84657
620,8.85488
621,5.85672
622,5.86442
623,10.4961
624,10.5032
625,4.3965
626,-1.00157
627,-0.995573
628,-0.146517
629,1.10614
630,2.52911
631,7.66603
632,16.9717
633,16.9757
634,14.5713
635,7.37875
636,7.38188
637,10.8377
638,13.2389
639,14.4612
640,14.4633
641,11.1353
642,11.137
643,13.4671
644,16.5545
645,16.5556
646,12.8034
647,12.8041
648,15.7989
649,18.5691
650,18.9164
651,19.2396
652,19.9383
653,19.9382
654,18.4997
655,15.3661
656,14.7993
657,14.7988
658,15.701
659,17.3513
660,18.8603
661,18.8596
662,18.7453
663,17.7226
664,15.9679
665,15.2
666,15.1991
667,15.7101
668,18.6384
669,21.1264
670,21.1255
671,18.4524
672,16.2425
673,15.5312
674,15.5303
675,15.9179
676,16.3523
677,16.3514
678,15.9854
679,15.461
680,14.989
681,14.7281
682,14.7077
683,13.7065
684,6.21164
685,0.689496
686,0.689049
687,4.4217
688,6.23053
689,6.91715
690,8.42381
691,11.2984
692,14.196
693,16.9969
694,16.997
695,15.4751
696,10.2536
697,10.254
698,13.8271
699,14.6167
700,14.6173
701,14.618
702,15.218
703,15.2421
704,15.243
705,13.6479
706,13.649
707,16.2228
708,16.2241
709,12.9526
710,12.6772
711,12.6788
712,12.6805
713,12.2629
714,7.30749
715,7.30945
716,9.33627
717,9.3384
718,6.48175
719,6.22556
720,6.22794
721,9.34956
722,9.50692
723,9.56897
724,10.3819
725,11.3764
726,11.3793
727,6.33389
728,5.54568
729,5.54875
730,8.50016
731,8.50336
732,7.11511
733,6.72242
734,6.7258
735,7.3494
736,8.6526
737,9.80912
738,12.5234
739,14.1438
740,14.1475
741,14.1513
742,14.2524
743,18.1536
744,18.1574
745,16.2813
746,13.3656
747,12.3917
748,12.3957
749,12.8446
750,13.1004
751,13.1043
752,10.9863
753,10.9902
754,14.1619
755,14.9029
756,14.9067
757,13.4658
758,13.0731
759,12.6473
760,12.2604
761,12.2641
762,12.3699
763,12.548
764,12.5515
765,11.5222
766,10.5115
767,9.68138
768,8.54733
769,6.14313
770,4.49082
771,4.49365
772,6.85422
773,8.44174
774,8.80978
775,9.755
776,11.6674
777,11.6694
778,11.2025
779,8.94034
780,5.8284
781,2.74349
782,0.423937
783,-0.786548
784,-0.785868
785,5.34238
786,8.61422
787,8.6143
788,8.61418
789,10.9823
790,11.2809
791,11.2803
792,5.31271
793,5.31177
794,12.5201
795,18.434
796,19.0877
797,19.0862
798,15.6875
799,11.6747
800,10.2833
801,9.2115
802,9.20953
803,10.0488
804,11.9969
805,14.4893
806,14.487
807,9.39853
808,5.85328
809,5.85084
810,8.28803
811,9.84671
812,10.6217
813,10.6191
814,7.87001
815,7.86738
816,11.75
817,11.7474
818,9.44268
819,6.80589
820,6.80323
821,9.56159
822,9.55895
823,9.55632
824,10.7105
825,16.6424
826,17.6561
827,17.6536
828,15.7306
829,14.9336
830,14.9312
831,15.902
832,15.8997
833,14.9467
834,9.14264
835,5.75696
836,5.34514
837,5.34307
838,7.85605
839,7.85411
840,6.20945
841,6.20763
842,8.46397
843,14.3756
844,16.1047
845,16.1031
846,16.0848
847,14.3789
848,11.2748
849,6.10703
850,6.10588
851,8.40162
852,11.5717
853,11.5708
854,8.98422
855,6.17347
856,3.30673
857,3.30613
858,3.45399
859,5.43849
860,9.36596
861,12.8607
862,14.3517
863,14.3516
864,7.43827
865,3.37752
866,3.37765
867,9.59401
868,9.59431
869,8.25329
870,6.1803
871,5.59504
872,5.25699
873,5.25767
874,5.63149
875,11.0793
876,12.873
877,12.8739
878,11.0001
879,11.0012
880,12.9967
881,18.5852
882,18.5865
883,18.045
884,8.58201
885,8.58349
886,11.7417
887,14.3129
888,14.3145
889,9.82137
890,9.51882
891,9.44382
892,9.44561
893,8.20456
894,8.20641
895,8.77414
896,8.77604
897,7.5495
898,7.55143
899,15.4696
900,20.1492
901,20.1512
902,14.9749
903,10.5268
904,10.5288
905,12.5265
906,19.2454
907,19.2472
908,13.0435
909,8.43188
910,6.679
911,6.68074
912,8.70163
913,10.6433
914,13.6024
915,14.7549
916,14.7563
917,13.001
918,9.25744
919,5.45924
920,2.36936
921,-0.504187
922,-0.50334
923,0.55448
924,2.15009
925,3.25984
926,4.08824
927,5.38185
928,7.17401
929,11.2769
930,11.2769
931,10.9824
932,6.35451
933,6.35429
934,8.26385
935,9.08345
936,9.53985
937,11.2578
938,15.2152
939,15.2146
940,7.9774
941,7.97663
942,8.08497
943,11.6876
944,11.6867
945,8.32044
946,6.02388
947,6.02279
948,6.21915
949,13.6306
950,13.6294
951,4.95974
952,4.10053
953,4.09918
954,4.09778
955,2.34088
956,1.65581
957,1.6543
958,3.0698
959,3.06822
960,2.8837
961,2.88205
962,4.73661
963,7.04608
964,8.63551
965,10.9696
966,15.2628
967,15.2609
968,8.46283
969,6.00568
970,6.00375
971,8.30178
972,9.77654
973,9.77453
974,9.50725
975,7.31656
976,4.9364
977,4.93426
978,6.70346
979,13.3516
980,13.3494
981,9.67488
982,8.12783
983,7.98654
984,7.6346
985,6.75804
986,6.75558
987,12.0083
988,13.8468
989,13.8443
990,13.8416
991,16.1863
992,22.1112
993,22.1084
994,15.5584
995,9.02936
996,4.34569
997,4.34269
998,6.51062
999,10.7166
1000,16.8889
1001,16.8856
1002,13.1209
1003,13.1175
1004,17.0462
1005,17.0426
1006,13.3912
1007,5.14741
1008,5.14352
1009,10.1164
1010,10.1123
1011,6.64117
1012,6.63685
1013,8.28766
1014,9.57315
1015,11.3989
1016,11.3941
1017,4.12997
1018,3.82621
1019,3.82094
1020,7.12692
1021,7.12135
1022,7.1156
1023,10.9373
1024,10.9312
1025,10.7211
1026,8.49937
1027,8.49273
1028,11.9119
1029,12.1838
1030,12.449
1031,12.4415
1032,11.4289
1033,9.23844
1034,7.8115
1035,5.20273
1036,-0.488002
1037,-0.496891
1038,9.33226
1039,9.32287
1040,7.80771
1041,7.59967
1042,7.58954
1043,9.67803
1044,9.66742
1045,5.81101
1046,3.17581
1047,3.1645
1048,6.02469
1049,9.02116
1050,9.00918
1051,1.86752
1052,1.85511
1053,6.46157
1054,6.44873
1055,6.05784
1056,5.64344
1057,5.54373
1058,3.66236
1059,-0.502751
1060,-0.516825
1061,4.29383
1062,4.27938
1063,3.64606
1064,1.89154
1065,1.87662
1066,3.9316
1067,3.91642
1068,3.90113
1069,4.93697
1070,9.77571
1071,9.76016
1072,6.64374
1073,5.5478
1074,5.5321
1075,5.71434
1076,6.52844
1077,7.31582
1078,7.39279
1079,8.56663
1080,11.9455
1081,15.6478
1082,18.5902
1083,20.8134
1084,25.0918
1085,29.6148
1086,35.9881
1087,43.5753
1088,44.7366
1089,44.7217
1090,43.048
1091,43.0333
1092,43.5127
1093,43.4983
1094,39.9665
1095,37.6788
1096,35.4129
1097,32.4049
1098,27.4752
1099,24.8936
1100,24.8804
1101,30.5762
1102,30.5634
1103,24.1228
1104,20.159
1105,16.8762
1106,16.8643
1107,18.6763
1108,18.7774
1109,18.7661
1110,14.0566
1111,11.8577
1112,10.0254
1113,7.51963
1114,7.18891
1115,7.17896
1116,8.9101
1117,18.8658
1118,29.2059
1119,31.6182
1120,32.4582
1121,32.5966
1122,32.5884
1123,30.3124
1124,26.9522
1125,24.76
1126,23.9727
1127,21.6096
1128,15.9311
1129,14.6296
1130,14.6232
1131,14.617
1132,14.4195
1133,13.9103
1134,12.4229
1135,10.6886
1136,10.6646
1137,10.4714
1138,6.23589
1139,6.23153
1140,7.88014
1141,11.4829
1142,11.4792
1143,11.4757
1144,18.4566
1145,18.4534
1146,16.6627
1147,11.2746
1148,11.272
1149,15.4521
1150,15.4499
1151,14.753
1152,14.533
1153,14.7494
1154,16.2636
1155,21.7228
1156,21.7215
1157,18.6119
1158,16.2481
1159,13.3338
1160,9.39091
1161,6.43005
1162,6.42952
1163,8.6714
1164,10.8385
1165,13.192
1166,13.1919
1167,7.27866
1168,7.27867
1169,11.9874
1170,11.9876
1171,4.13152
1172,-0.437204
1173,-0.43693
1174,4.39059
1175,14.4852
1176,21.9044
1177,22.3662
1178,22.3667
1179,18.1198
1180,13.123
1181,10.2058
1182,10.2065
1183,10.5556
1184,11.3429
1185,11.3437
1186,11.3445
1187,15.0753
1188,15.0763
1189,9.99658
1190,5.29855
1191,5.2996
1192,16.605
1193,16.7311
1194,17.9525
1195,20.0831
1196,23.1573
1197,23.1586
1198,20.918
1199,18.693
1200,14.0993
1201,14.1007
1202,16.4215
1203,19.6225
1204,19.6241
1205,19.43
1206,14.8106
1207,11.6044
1208,11.606
1209,12.6497
1210,18.1779
1211,18.1795
1212,16.6984
1213,13.1058
1214,7.29469
1215,7.29623
1216,14.2507
1217,14.2522
1218,6.0697
1219,6.07111
1220,13.4536
1221,13.4549
1222,10.2165
1223,10.2177
1224,10.5947
1225,15.1434
1226,19.0776
1227,19.0786
1228,12.9215
1229,12.9222
1230,14.9258
1231,14.9264
1232,14.3127
1233,14.313
1234,16.2311
1235,16.2312
1236,11.518
1237,3.99395
1238,-0.77866
1239,-0.779188
1240,4.77794
1241,7.31836
1242,7.31737
1243,5.65929
1244,5.65805
1245,6.94326
1246,8.01001
1247,8.67349
1248,9.95286
1249,10.8054
1250,13.3946
1251,16.0252
1252,16.9968
1253,16.9947
1254,10.4722
1255,10.4701
1256,13.5878
1257,16.8271
1258,16.8248
1259,9.14045
1260,3.75987
1261,3.04647
1262,3.04416
1263,8.35917
1264,13.4729
1265,13.4706
1266,12.2041
1267,10.3878
1268,10.3856
1269,17.3467
1270,19.7192
1271,19.7172
1272,14.2137
1273,6.35705
1274,5.22415
1275,5.22231
1276,6.10281
1277,6.1011
1278,2.36394
1279,0.641677
1280,0.640215
1281,3.44208
1282,3.4408
1283,0.519185
1284,-0.0294135
1285,-0.0303846
1286,0.616603
1287,1.64675
1288,3.35334
1289,4.65779
1290,4.65742
1291,4.65718
1292,9.19988
1293,12.7158
1294,12.716
1295,10.5208
1296,10.5213
1297,11.2801
1298,16.2434
1299,19.7271
1300,19.7283
1301,16.8713
1302,16.0774
1303,15.3842
1304,14.9717
1305,14.0857
1306,12.3518
1307,12.2265
1308,12.2292
1309,13.845
1310,13.848
1311,13.8512
1312,16.0088
1313,16.0124
1314,11.4753
1315,11.4794
1316,16.3753
1317,23.0606
1318,23.0653
1319,16.5118
1320,12.9701
1321,12.9754
1322,14.8932
1323,17.5984
1324,17.6043
1325,14.7938
1326,10.5917
1327,9.89474
1328,9.90151
1329,13.2497
1330,14.5035
1331,15.4209
1332,15.6305
1333,15.8712
1334,15.8792
1335,14.7153
1336,7.49829
1337,7.5069
1338,13.5698
1339,14.3153
1340,14.3245
1341,10.0504
1342,5.873
1343,5.88274
1344,11.3237
1345,11.3338
1346,2.0986
1347,2.10905
1348,8.34645
1349,13.1417
1350,13.1527
1351,10.0448
1352,4.19254
1353,4.20397
1354,7.40878
1355,9.87771
1356,9.94754
1357,10.7248
1358,11.0726
1359,11.0848
1360,10.0135
1361,10.026
1362,14.6477
1363,16.088
1364,16.1009
1365,15.8179
1366,11.702
1367,11.1791
1368,11.1923
1369,12.5089
1370,14.4129
1371,14.8235
1372,15.4099
1373,15.9992
1374,19.7488
1375,26.1881
1376,29.0027
1377,29.0165
1378,24.5995
1379,24.6134
1380,26.8539
1381,26.8678
1382,25.396
1383,25.4099
1384,25.7076
1385,26.6895
1386,26.7033
1387,21.1527
1388,14.5281
1389,14.5418
1390,14.5554
1391,13.1826
1392,13.1961
1393,15.1481
1394,15.1614
1395,13.6105
1396,11.5169
1397,11.5298
1398,12.7076
1399,12.7202
1400,10.5751
1401,8.12651
1402,8.1385
1403,11.5682
1404,13.0658
1405,13.0772
1406,11.9877
1407,10.1081
1408,10.1187
1409,15.8905
1410,15.9005
1411,11.7443
1412,11.7537
1413,15.8697
1414,15.8784
1415,3.61845
1416,3.62644
1417,4.55781
1418,5.58211
1419,6.95343
1420,9.67017
1421,12.8623
1422,19.3326
1423,19.3376
1424,15.6585
1425,11.6622
1426,11.6658
1427,14.7384
1428,14.7409
1429,14.4319
1430,14.241
1431,13.1871
1432,13.1874
1433,13.093
1434,6.91348
1435,0.640274
1436,-1.56001
1437,-1.5629
1438,2.90513
1439,6.88742
1440,10.5234
1441,12.113
1442,12.1318
1443,12.2603
1444,12.3631
1445,14.0808
1446,17.5509
1447,17.5421
1448,16.1309
1449,15.5307
1450,15.5204
1451,23.4253
1452,24.4698
1453,24.4581
1454,21.6374
1455,12.1484
1456,9.64214
1457,9.62884
1458,14.312
1459,18.0728
1460,24.027
1461,24.0123
1462,19.6243
1463,17.5911
1464,17.5755
1465,19.6302
1466,19.614
1467,19.5975
1468,22.594
1469,29.0705
1470,29.0533
1471,17.5876
1472,17.57
1473,25.3424
1474,25.3244
1475,20.3262
1476,16.4601
1477,16.4416
1478,19.0314
1479,19.0125
1480,16.0056
1481,13.9714
1482,13.9522
1483,13.9329
1484,9.1384
1485,4.00736
1486,3.98776
1487,4.09733
1488,4.07759
1489,2.89201
1490,-0.088928
1491,-0.10884
1492,6.78766
1493,9.23809
1494,9.46921
1495,9.44919
1496,9.41067
1497,7.57622
1498,7.55623
1499,8.69964
1500,8.6797
1501,7.18702
1502,5.81418
1503,5.79439
1504,7.91701
1505,13.1816
1506,13.162
1507,8.14954
1508,8.13019
1509,8.1324
1510,8.11328
1511,1.89372
1512,1.87486
1513,7.78136
1514,12.2856
1515,19.3476
1516,19.3294
1517,13.3435
1518,7.23866
1519,7.22095
1520,9.54405
1521,11.018
1522,11.0009
1523,10.0867
1524,9.68209
1525,8.13061
1526,0.661208
1527,0.645245
1528,1.7594
1529,7.31867
1530,10.9811
1531,10.9662
1532,6.06435
1533,6.04996
1534,15.9154
1535,17.4231
1536,17.4096
1537,15.7024
1538,12.592
1539,11.8311
1540,11.8189
1541,14.4281
1542,17.1998
1543,17.1885
1544,15.8662
1545,14.143
1546,13.3175
1547,10.7634
1548,10.7538
1549,11.261
1550,13.3117
1551,13.8275
1552,13.8194
1553,11.745
1554,11.7377
1555,18.8479
1556,18.8413
1557,10.4669
1558,10.4611
1559,10.7096
1560,13.5582
1561,15.0991
1562,15.0949
1563,11.3013
1564,11.1665
1565,11.1635
1566,10.1
1567,8.89138
1568,7.4367
1569,7.43531
1570,7.64705
1571,13.1028
1572,18.3773
1573,18.3776
1574,15.4602
1575,8.02893
1576,-0.0335826
1577,-0.0316624
1578,0.741116
1579,9.35396
1580,16.082
1581,17.5617
1582,17.5657
1583,14.3457
1584,12.5717
1585,12.5575
1586,11.2689
1587,11.275
1588,13.1236
1589,17.2426
1590,20.1358
1591,20.1437
1592,16.338
1593,16.0939
1594,16.103
1595,18.4389
1596,20.4334
1597,21.4406
1598,24.5518
1599,24.563
1600,24.5746
1601,25.0641
1602,37.3655
1603,37.3782
1604,27.1163
1605,27.1298
1606,29.5492
1607,31.1779
1608,35.7719
1609,35.7871
1610,25.0563
1611,9.18123
1612,9.19744
1613,30.0978
1614,30.1147
1615,26.5181
1616,20.5912
1617,20.6091
1618,24.56
1619,24.9239
1620,26.5777
1621,26.6697
1622,26.6891
1623,19.4171
1624,16.1909
1625,16.2112
1626,20.0153
1627,20.0361
1628,15.539
1629,13.9797
1630,14.0011
1631,22.4232
1632,25.5281
1633,25.5501
1634,23.5657
1635,19.5227
1636,17.1309
1637,17.1536
1638,22.3504
1639,31.2355
1640,31.2585
1641,19.2723
1642,17.2702
1643,16.76
1644,16.7499
1645,14.3543
1646,7.17148
1647,7.19501
1648,17.4512
1649,19.2313
1650,19.2548
1651,16.9814
1652,17.0049
1653,19.2053
1654,23.3874
1655,25.8402
1656,26.3262
1657,25.8864
1658,23.9692
1659,16.7309
1660,16.7199
1661,16.7423
1662,18.3227
1663,18.3447
1664,10.8866
1665,10.9082
1666,23.9001
1667,26.7696
1668,26.7921
1669,26.8125
1670,33.7497
1671,33.7694
1672,28.7607
1673,23.1323
1674,20.74
1675,13.1976
1676,0.354249
1677,-1.29472
1678,-1.27793
1679,5.2591
1680,17.7076
1681,35.2145
1682,35.2294
1683,19.09
1684,13.501
1685,13.5145
1686,17.6324
1687,21.7809
1688,26.1459
1689,26.1578
1690,20.7473
1691,20.7583
1692,28.3112
1693,28.3213
1694,14.836
1695,12.5955
1696,11.6992
1697,10.7194
1698,10.2724
1699,10.2801
1700,14.7015
1701,23.1157
1702,23.1223
1703,16.4366
1704,16.4424
1705,20.3328
1706,20.3498
1707,20.3545
1708,19.632
1709,16.9813
1710,15.8129
1711,12.4241
1712,5.19304
1713,5.19546
1714,7.40621
1715,7.40788
1716,7.40917
1717,10.6183
1718,14.0765
1719,18.005
1720,19.8895
1721,19.8889
1722,19.2339
1723,15.4986
1724,15.4969
1725,24.1426
1726,29.303
1727,29.9243
1728,29.9211
1729,21.6554
1730,9.79883
1731,7.53482
1732,7.53003
1733,10.6277
1734,10.6221
1735,9.88824
1736,3.84374
1737,3.83694
1738,7.59857
1739,7.83423
1740,8.93054
1741,12.5795
1742,12.5706
1743,9.69378
1744,9.68401
1745,17.5843
1746,21.0824
1747,21.0713
1748,12.9466
1749,5.62871
1750,-0.646338
1751,-0.659275
1752,2.95956
1753,8.76464
1754,12.8011
1755,12.7864
1756,9.82798
1757,5.86731
1758,5.85128
1759,22.7702
1760,22.7534
1761,18.3759
1762,13.2378
1763,13.2198
1764,15.5817
1765,20.2223
1766,20.2032
1767,14.6201
1768,6.451
1769,4.64228
1770,4.6218
1771,12.4323
1772,12.4112
1773,11.151
1774,9.95051
1775,9.92845
1776,11.5485
1777,11.5258
1778,6.82502
1779,2.4701
1780,-0.135288
1781,-0.159091
1782,12.4371
1783,12.4127
1784,6.17731
1785,6.15247
1786,8.88917
1787,10.3449
1788,12.5145
1789,12.6345
1790,12.6086
1791,12.4675
1792,12.4411
1793,16.6284
1794,16.6017
1795,14.7955
1796,14.7684
1797,14.7412
1798,10.6125
1799,10.5849
1800,13.0176
1801,14.9882
1802,14.9603
1803,12.593
1804,10.9777
1805,10.9369
1806,9.37245
1807,8.18612
1808,8.15745
1809,13.1518
1810,13.1229
1811,13.0403
1812,9.67702
1813,7.32985
1814,4.51192
1815,4.48264
1816,13.5248
1817,22.9022
1818,22.8727
1819,20.997
1820,8.9628
1821,3.87194
1822,3.84225
1823,9.76603
1824,9.73625
1825,4.47327
1826,4.44342
1827,5.39016
1828,12.0699
1829,12.0399
1830,8.12003
1831,6.42662
1832,6.39661
1833,6.36657
1834,6.39136
1835,9.21176
1836,25.8289
1837,30.0339
1838,30.0039
1839,18.6463
1840,14.0868
1841,10.6161
1842,10.3111
1843,3.12116
1844,3.09105
1845,14.4569
1846,15.2877
1847,15.2576
1848,6.11026
1849,6.08014
