#wnum,raman
275,27.0272
276,27.0287
277,34.8607
278,42.7568
279,45.7806
280,47.7202
281,49.1942
282,50.0755
283,50.0769
284,46.3816
285,41.6808
286,38.7052
287,37.29
288,35.6444
289,33.0556
290,30.3823
291,28.8279
292,27.9401
293,23.8816
294,18.6504
295,14.215
296,11.6
297,9.15994
298,7.083
299,5.76501
300,4.62938
301,2.16814
302,0.455391
303,0.455472
304,5.49134
305,6.13742
306,6.13704
307,1.72334
308,1.72262
309,2.0664
310,3.45621
311,4.84605
312,6.08458
313,7.78385
314,9.68161
315,9.67942
316,9.67329
317,8.82038
318,7.47559
319,5.98274
320,5.97926
321,8.12671
322,8.12265
323,4.59821
324,-0.572877
325,-0.577885
326,3.61583
327,5.00804
328,5.00206
329,4.99576
330,5.35823
331,8.35623
332,10.844
333,12.3821
334,12.3742
335,9.29232
336,4.34362
337,4.33484
338,6.31423
339,6.66279
340,6.65311
341,6.64313
342,6.92857
343,11.5889
344,11.5781
345,9.79225
346,6.7943
347,6.78255
348,9.25736
349,11.0421
350,11.7405
351,11.9231
352,11.9099
353,11.401
354,9.72401
355,7.58574
356,7.57139
357,8.31202
358,9.46846
359,9.45324
360,8.56286
361,7.77756
362,6.93058
363,6.9142
364,7.16018
365,8.71038
366,8.69313
367,8.12787
368,8.11003
369,8.72312
370,9.75294
371,10.128
372,10.1089
373,8.76641
374,3.72721
375,-0.67397
376,-0.694234
377,0.259243
378,1.72248
379,3.61903
380,5.39531
381,6.12125
382,6.81806
383,10.4079
384,15.0082
385,16.7705
386,16.7477
387,15.6243
388,11.9897
389,10.9013
390,10.8779
391,17.9777
392,18.2845
393,18.2606
394,15.0986
395,12.3862
396,9.75461
397,7.82242
398,6.99854
399,6.9742
400,9.83272
401,13.5249
402,13.5004
403,11.257
404,8.90758
405,5.67251
406,5.648
407,6.76415
408,12.8971
409,12.8726
410,11.7438
411,11.7194
412,11.9704
413,14.8897
414,15.2797
415,15.2556
416,14.55
417,13.1131
418,11.9272
419,7.46382
420,2.72691
421,2.70345
422,5.53201
423,8.66369
424,11.66
425,12.7133
426,12.6906
427,8.54253
428,6.0267
429,6.00448
430,6.19991
431,11.2384
432,12.7239
433,12.7025
434,4.25215
435,4.23114
436,6.77463
437,13.4961
438,16.5484
439,18.5829
440,18.5631
441,14.886
442,11.1674
443,5.77993
444,5.55985
445,5.54132
446,13.9372
447,16.2899
448,16.2722
449,14.2793
450,14.1333
451,14.0628
452,12.4282
453,9.84516
454,9.82926
455,12.4858
456,15.8989
457,15.8839
458,15.8693
459,18.5319
460,24.7595
461,24.7458
462,18.1377
463,11.3436
464,11.331
465,13.8156
466,13.8037
467,8.5926
468,7.98056
469,7.96966
470,11.3189
471,11.3086
472,9.91227
473,7.69814
474,4.4876
475,4.4788
476,5.95178
477,9.04715
478,9.03942
479,6.61487
480,3.72746
481,-0.0715212
482,-0.0778209
483,3.08238
484,9.74711
485,9.74189
486,6.90035
487,4.33203
488,2.49172
489,2.48798
490,4.3849
491,8.26277
492,10.8486
493,12.7403
494,12.7384
495,10.6007
496,8.61461
497,8.61389
498,10.5581
499,10.5581
500,9.88614
501,8.87687
502,8.09191
503,7.44766
504,6.81362
505,6.21446
506,6.2172
507,6.94658
508,7.36513
509,7.36903
510,7.37331
511,9.2289
512,11.6611
513,14.45
514,17.565
515,17.5713
516,17.4491
517,15.5001
518,15.5075
519,16.0169
520,16.6342
521,17.6169
522,19.4083
523,22.8065
524,22.8161
525,20.8034
526,13.8469
527,13.8576
528,14.562
529,14.5735
530,8.61944
531,7.22308
532,7.23557
533,14.5536
534,14.5668
535,14.0579
536,12.285
537,12.2992
538,12.3137
539,9.80242
540,6.02956
541,6.04501
542,7.92266
543,8.62191
544,8.63826
545,8.27473
546,7.50336
547,7.29664
548,7.31413
549,9.36795
550,9.38599
551,6.01054
552,1.71222
553,-0.0178863
554,0.00116983
555,0.154666
556,3.80152
557,6.76784
558,8.13726
559,8.71848
560,8.73891
561,8.74653
562,8.76737
563,10.7953
564,10.8165
565,10.1566
566,10.1782
567,10.3092
568,11.9469
569,16.2668
570,21.4054
571,21.4278
572,12.6937
573,4.59761
574,2.19474
575,1.86834
576,1.89139
577,5.56623
578,8.92283
579,11.8428
580,12.0866
581,12.1101
582,10.1798
583,7.35017
584,4.42506
585,4.22812
586,4.25189
587,4.91614
588,5.45215
589,5.476
590,5.39945
591,4.70404
592,3.50893
593,2.04715
594,2.07094
595,4.45328
596,7.0748
597,10.7186
598,10.7422
599,9.56186
600,1.35541
601,1.37877
602,9.81684
603,11.4207
604,11.4437
605,8.31698
606,8.33977
607,13.7191
608,16.5018
609,16.7184
610,16.7406
611,14.572
612,12.4503
613,11.2342
614,9.96123
615,7.90589
616,5.64588
617,5.66658
618,7.04289
619,8.24774
620,8.26765
621,7.37689
622,5.95782
623,5.48267
624,5.50138
625,9.35762
626,9.37565
627,7.0129
628,4.48313
629,4.50009
630,7.51782
631,8.98786
632,9.0345
633,9.04985
634,7.14462
635,6.2018
636,6.21582
637,6.22937
638,5.44879
639,4.89486
640,4.90694
641,11.9833
642,11.9943
643,9.97354
644,3.41361
645,0.953262
646,-1.04377
647,-1.03556
648,-0.599086
649,2.37053
650,9.69702
651,11.9077
652,11.9131
653,7.51503
654,7.29573
655,7.29956
656,9.28361
657,12.7739
658,12.7763
659,8.55906
660,6.33594
661,6.33705
662,10.0291
663,11.5452
664,11.5451
665,10.3002
666,5.00468
667,5.00354
668,9.95491
669,13.4814
670,13.4793
671,6.7257
672,6.72303
673,9.74479
674,9.7416
675,9.07517
676,8.5522
677,8.54831
678,9.90685
679,17.9776
680,27.5946
681,27.5899
682,22.7747
683,18.024
684,15.8669
685,15.8617
686,18.2328
687,20.2244
688,20.2188
689,16.1484
690,16.1426
691,21.0687
692,24.846
693,24.9942
694,24.9881
695,23.3055
696,21.4256
697,16.8201
698,12.2284
699,12.2222
700,20.6145
701,27.1216
702,27.7466
703,27.7405
704,24.0583
705,19.5246
706,19.5186
707,20.3345
708,22.3978
709,25.4057
710,25.3999
711,23.9991
712,23.6206
713,23.6149
714,24.4824
715,24.4769
716,20.9322
717,20.9269
718,27.6526
719,27.6475
720,18.6216
721,6.70643
722,6.70163
723,6.69694
724,3.80092
725,1.12688
726,1.12251
727,12.2807
728,12.9818
729,12.9777
730,12.2926
731,12.2888
732,15.6722
733,15.6687
734,10.2936
735,6.95669
736,5.63644
737,5.63339
738,7.11456
739,8.91706
740,8.91439
741,8.87158
742,6.50135
743,4.02321
744,4.02106
745,7.31966
746,7.31778
747,4.93529
748,1.77212
749,1.49949
750,1.49813
751,3.23497
752,5.6214
753,9.30258
754,13.7459
755,13.7452
756,12.7748
757,10.9796
758,10.9793
759,10.9791
760,9.74128
761,9.74136
762,11.0829
763,16.2661
764,16.2665
765,13.7702
766,10.7642
767,9.41903
768,9.41998
769,9.93727
770,11.5089
771,11.5102
772,10.6986
773,8.6234
774,5.61571
775,5.61744
776,7.70647
777,9.94036
778,9.94238
779,9.9445
780,12.2318
781,12.5366
782,12.5389
783,7.20282
784,5.32238
785,5.325
786,6.86555
787,11.1607
788,14.4659
789,14.4688
790,13.6506
791,8.3098
792,1.88407
793,1.88716
794,3.07746
795,3.08062
796,1.9321
797,0.345306
798,-0.132565
799,-0.129302
800,6.24574
801,10.8995
802,10.9029
803,6.33909
804,6.34241
805,13.3395
806,16.45
807,16.4533
808,14.3189
809,6.40518
810,1.6758
811,1.67913
812,5.86873
813,7.78939
814,8.25665
815,8.25991
816,6.10019
817,6.10341
818,8.76064
819,11.4334
820,11.4365
821,11.4396
822,11.9191
823,11.9221
824,11.7611
825,9.64852
826,9.65135
827,10.9274
828,10.9301
829,10.7031
830,10.7056
831,17.428
832,24.259
833,24.2613
834,24.2316
835,22.4553
836,20.3136
837,17.5462
838,14.0851
839,14.0868
840,14.7247
841,14.7261
842,9.88766
843,9.88878
844,10.2229
845,17.6001
846,17.6007
847,16.3519
848,12.2739
849,6.61541
850,2.6583
851,2.01002
852,2.00949
853,5.56325
854,8.67514
855,8.67392
856,8.3041
857,4.24015
858,-0.714444
859,-0.716692
860,2.58471
861,4.1107
862,4.34771
863,4.87759
864,9.17126
865,12.237
866,12.233
867,11.1162
868,9.08106
869,8.6677
870,8.66281
871,11.5328
872,11.5275
873,8.06171
874,4.69925
875,1.54754
876,1.54149
877,1.56082
878,3.85807
879,5.3341
880,6.83751
881,9.78999
882,12.2159
883,12.2087
884,8.34191
885,5.27281
886,3.19176
887,1.37554
888,0.175587
889,0.167615
890,3.59559
891,7.5626
892,9.3577
893,10.9578
894,12.6108
895,12.6022
896,10.4837
897,2.55268
898,2.5438
899,8.07117
900,12.1238
901,12.1147
902,11.0348
903,6.53087
904,3.8627
905,3.85331
906,6.00165
907,5.99214
908,5.98258
909,6.67866
910,10.4187
911,10.409
912,8.02029
913,5.36733
914,4.28892
915,4.27905
916,7.05486
917,8.50481
918,8.49485
919,6.32148
920,3.92141
921,1.82203
922,1.81197
923,3.71131
924,5.6766
925,7.65163
926,9.97345
927,13.0056
928,12.9954
929,11.3371
930,11.3269
931,14.8607
932,17.28
933,17.2698
934,11.7744
935,11.7642
936,14.6253
937,15.8787
938,15.8685
939,14.0691
940,8.85343
941,8.84321
942,11.6038
943,12.9993
944,12.989
945,9.92779
946,9.71194
947,9.59611
948,9.58585
949,9.91681
950,10.0709
951,10.0606
952,8.37337
953,5.22345
954,3.21604
955,3.08288
956,2.36911
957,-0.283782
958,-0.294201
959,3.68536
960,7.29407
961,7.2836
962,6.08531
963,6.07482
964,7.69678
965,7.68629
966,6.29181
967,6.28133
968,10.276
969,10.2656
970,8.37525
971,5.79521
972,4.24
973,4.22966
974,5.46246
975,5.45218
976,2.57809
977,2.56789
978,3.85404
979,11.9885
980,11.9784
981,11.7125
982,7.17822
983,0.271109
984,0.261276
985,3.90128
986,5.60492
987,5.59529
988,5.58572
989,10.2491
990,14.7692
991,15.4988
992,15.6861
993,15.6769
994,15.6678
995,20.4104
996,27.5422
997,31.6377
998,34.4013
999,39.6171
1000,46.4174
1001,51.5259
1002,54.4156
1003,55.7538
1004,55.7456
1005,53.957
1006,48.0302
1007,42.3301
1008,33.2927
1009,23.433
1010,15.1365
1011,7.60444
1012,5.99293
1013,5.7475
1014,3.7095
1015,1.10815
1016,1.1006
1017,2.71575
1018,2.70825
1019,-0.0479298
1020,-0.0554076
1021,4.10986
1022,8.04509
1023,10.4851
1024,10.4777
1025,8.1449
1026,8.13739
1027,13.6901
1028,22.6886
1029,23.5027
1030,23.4951
1031,23.0507
1032,22.6319
1033,19.3688
1034,14.7917
1035,11.7066
1036,9.51058
1037,9.42089
1038,9.41276
1039,11.9811
1040,17.7282
1041,17.7198
1042,11.7766
1043,4.90902
1044,3.36237
1045,1.96672
1046,1.5713
1047,1.5621
1048,1.91657
1049,2.58423
1050,2.85778
1051,2.84791
1052,1.79519
1053,0.77121
1054,0.76075
1055,2.74177
1056,6.55747
1057,11.8953
1058,11.8839
1059,11.6502
1060,7.90355
1061,1.62709
1062,-0.195597
1063,-0.208229
1064,0.370859
1065,0.357663
1066,0.344179
1067,4.80637
1068,4.79229
1069,3.86142
1070,-1.03432
1071,-1.04931
1072,1.7269
1073,3.18189
1074,4.41384
1075,4.91797
1076,5.38099
1077,12.8576
1078,25.1285
1079,28.7404
1080,30.1221
1081,32.9764
1082,44.3799
1083,55.3947
1084,65.4483
1085,76.3232
1086,89.6044
1087,92.4753
1088,92.4574
1089,87.8897
1090,73.2268
1091,57.7985
1092,48.0221
1093,38.3598
1094,29.8154
1095,22.3353
1096,19.1941
1097,16.7962
1098,14.7402
1099,13.3401
1100,12.4968
1101,11.828
1102,10.4165
1103,8.51885
1104,7.15347
1105,7.13563
1106,7.42812
1107,10.7637
1108,10.746
1109,8.17663
1110,8.15915
1111,8.26895
1112,8.25164
1113,6.54022
1114,6.52311
1115,9.53202
1116,11.4138
1117,11.397
1118,9.48503
1119,9.46848
1120,9.45205
1121,8.86442
1122,7.80798
1123,2.27204
1124,1.15395
1125,1.1382
1126,9.84609
1127,13.6728
1128,14.6801
1129,14.6649
1130,12.1373
1131,8.14153
1132,6.21914
1133,6.20464
1134,18.1853
1135,18.1711
1136,12.2913
1137,11.5432
1138,11.5296
1139,14.0959
1140,15.0008
1141,14.9878
1142,10.5152
1143,9.49218
1144,9.47967
1145,9.46735
1146,8.62304
1147,5.87512
1148,5.3622
1149,5.35066
1150,9.67899
1151,9.80742
1152,9.79646
1153,5.08227
1154,5.07172
1155,5.26557
1156,5.25541
1157,3.46259
1158,2.96016
1159,2.9506
1160,7.5373
1161,14.0251
1162,17.8454
1163,19.0958
1164,19.0872
1165,15.7468
1166,10.7665
1167,5.41235
1168,5.4046
1169,13.5126
1170,13.5053
1171,10.3988
1172,5.51275
1173,0.905219
1174,0.898638
1175,8.57149
1176,8.82875
1177,8.82274
1178,5.79614
1179,4.3728
1180,4.36734
1181,9.55989
1182,10.7508
1183,10.7459
1184,10.7412
1185,16.7504
1186,18.4173
1187,18.413
1188,13.1701
1189,5.46384
1190,5.4601
1191,7.66875
1192,16.5191
1193,16.5158
1194,16.5127
1195,16.6662
1196,16.6633
1197,14.4439
1198,9.32089
1199,6.40463
1200,5.9645
1201,5.96231
1202,9.49654
1203,13.0733
1204,13.0715
1205,11.5848
1206,5.10863
1207,5.10708
1208,10.8002
1209,14.0958
1210,16.118
1211,18.5822
1212,18.5811
1213,16.6831
1214,7.32578
1215,7.32481
1216,9.52446
1217,9.52358
1218,7.12619
1219,6.36585
1220,6.36505
1221,7.83843
1222,10.5043
1223,10.5036
1224,10.4749
1225,8.76072
1226,5.96368
1227,5.96286
1228,7.66277
1229,9.85346
1230,11.0153
1231,11.0144
1232,5.38283
1233,1.31435
1234,0.100013
1235,-0.858707
1236,-0.860049
1237,0.260021
1238,5.64385
1239,9.09437
1240,9.41501
1241,9.41333
1242,11.8958
1243,11.894
1244,10.2372
1245,10.2354
1246,15.0146
1247,18.6563
1248,18.6546
1249,16.6908
1250,10.4294
1251,5.39403
1252,4.93165
1253,4.9301
1254,7.58496
1255,10.1107
1256,11.6007
1257,12.5555
1258,12.5543
1259,11.9348
1260,8.93183
1261,8.93103
1262,11.6299
1263,11.9664
1264,11.966
1265,11.9658
1266,12.9176
1267,14.7417
1268,14.7419
1269,12.7162
1270,11.9502
1271,11.0162
1272,6.45141
1273,4.31155
1274,4.31294
1275,6.55176
1276,11.3588
1277,11.385
1278,11.3873
1279,10.0794
1280,10.0822
1281,10.0852
1282,9.68755
1283,8.89335
1284,8.8971
1285,11.0944
1286,22.6425
1287,22.6471
1288,13.7778
1289,11.6501
1290,11.6555
1291,21.694
1292,21.7
1293,18.716
1294,18.7226
1295,18.7295
1296,17.5485
1297,17.556
1298,18.4489
1299,21.5907
1300,21.6891
1301,21.6979
1302,18.7698
1303,17.6348
1304,17.6446
1305,17.6546
1306,15.526
1307,15.5368
1308,20.3785
1309,21.605
1310,21.6168
1311,17.234
1312,17.2341
1313,16.9361
1314,12.9578
1315,12.9712
1316,22.4475
1317,29.0792
1318,29.0936
1319,25.6858
1320,19.6968
1321,15.366
1322,15.3817
1323,18.0162
1324,29.8596
1325,29.8762
1326,23.8622
1327,13.0395
1328,10.3019
1329,7.8889
1330,6.94574
1331,6.96417
1332,13.6521
1333,18.1998
1334,18.2191
1335,16.9028
1336,12.8233
1337,12.8434
1338,21.1239
1339,21.1445
1340,17.3691
1341,14.6012
1342,14.6226
1343,14.6443
1344,14.3738
1345,11.2747
1346,5.31718
1347,4.34852
1348,4.37127
1349,6.14624
1350,8.26091
1351,9.93419
1352,11.0704
1353,16.2607
1354,24.9074
1355,24.9315
1356,23.83
1357,17.5259
1358,8.91904
1359,5.4127
1360,5.22619
1361,1.70809
1362,0.743477
1363,0.768589
1364,9.63136
1365,9.65667
1366,8.24781
1367,5.69536
1368,5.72088
1369,7.9988
1370,14.8119
1371,14.8376
1372,14.8633
1373,15.3719
1374,15.3976
1375,12.5154
1376,8.30368
1377,8.32942
1378,12.3721
1379,12.3978
1380,12.0324
1381,12.058
1382,13.2169
1383,15.9307
1384,15.9561
1385,9.24359
1386,4.03896
1387,4.06406
1388,5.48471
1389,5.68968
1390,5.71439
1391,7.57701
1392,9.8795
1393,12.9467
1394,16.4507
1395,21.0937
1396,21.1174
1397,19.0135
1398,16.1847
1399,15.6525
1400,11.2841
1401,2.19775
1402,2.21994
1403,11.8419
1404,15.9511
1405,15.9724
1406,14.6748
1407,11.6047
1408,9.15344
1409,7.27839
1410,7.29793
1411,8.33057
1412,10.8932
1413,10.9116
1414,7.31226
1415,-1.06057
1416,-1.04356
1417,0.0759318
1418,9.34346
1419,16.2789
1420,16.2942
1421,13.9929
1422,5.54091
1423,3.37516
1424,3.38871
1425,4.79121
1426,4.80397
1427,3.76456
1428,3.57439
1429,3.58602
1430,-0.0534795
1431,-0.0425797
1432,7.53247
1433,9.61629
1434,9.62616
1435,8.04012
1436,6.82041
1437,4.69734
1438,3.32714
1439,3.33543
1440,8.40122
1441,10.5141
1442,10.9835
1443,14.2025
1444,18.4923
1445,18.4989
1446,17.3175
1447,10.2219
1448,10.2278
1449,14.8613
1450,18.0407
1451,18.0459
1452,6.20639
1453,6.21117
1454,7.66373
1455,16.5069
1456,23.0768
1457,23.6331
1458,23.6369
1459,15.5033
1460,14.4131
1461,14.4164
1462,14.4195
1463,13.3709
1464,13.1962
1465,13.1988
1466,13.5321
1467,14.1548
1468,14.4171
1469,14.681
1470,18.8736
1471,25.0966
1472,25.1634
1473,25.6399
1474,27.3446
1475,27.3458
1476,26.6397
1477,22.7842
1478,18.4127
1479,14.4855
1480,8.70663
1481,8.70709
1482,8.70026
1483,8.70047
1484,-0.194398
1485,-0.194435
1486,7.87075
1487,7.87048
1488,4.69855
1489,2.26025
1490,2.25965
1491,10.1262
1492,18.3958
1493,18.3949
1494,8.5611
1495,8.56002
1496,11.3732
1497,11.7531
1498,12.186
1499,12.1846
1500,12.1831
1501,13.2095
1502,13.8386
1503,13.8369
1504,13.4843
1505,13.1537
1506,12.9664
1507,11.9116
1508,11.5117
1509,11.4442
1510,7.90473
1511,7.90259
1512,8.75109
1513,20.5104
1514,20.5081
1515,12.4753
1516,12.473
1517,13.6473
1518,15.3191
1519,15.3166
1520,11.4445
1521,11.4419
1522,13.7812
1523,13.7785
1524,5.71148
1525,5.7087
1526,18.8543
1527,18.8515
1528,11.9575
1529,11.9545
1530,9.91
1531,9.88191
1532,4.59114
1533,4.58796
1534,9.86684
1535,9.86355
1536,8.80825
1537,8.80484
1538,13.0034
1539,13.0159
1540,12.9962
1541,12.5668
1542,10.3529
1543,6.40925
1544,6.40535
1545,11.3771
1546,15.1931
1547,18.0389
1548,18.0347
1549,17.2605
1550,15.1286
1551,13.5698
1552,12.953
1553,12.9483
1554,14.3245
1555,14.3195
1556,14.1128
1557,12.3085
1558,4.84712
1559,4.84171
1560,9.43579
1561,9.43011
1562,1.28531
1563,1.27934
1564,6.22277
1565,6.21649
1566,1.17475
1567,-0.731976
1568,-0.738763
1569,3.38024
1570,9.47059
1571,19.8678
1572,19.8604
1573,11.5485
1574,10.1832
1575,10.1754
1576,15.6183
1577,19.0585
1578,20.4871
1579,20.479
1580,18.4203
1581,14.6177
1582,8.24649
1583,5.74547
1584,5.73706
1585,11.3628
1586,13.1896
1587,13.1812
1588,8.10826
1589,8.09977
1590,11.4149
1591,16.3293
1592,16.3208
1593,14.4068
1594,6.41324
1595,6.40489
1596,14.3574
1597,20.8797
1598,25.9426
1599,25.9345
1600,25.9264
1601,30.2399
1602,35.3542
1603,38.8767
1604,39.1017
1605,39.0941
1606,37.8843
1607,36.1602
1608,27.0849
1609,13.738
1610,10.1868
1611,9.94848
1612,9.94159
1613,9.93481
1614,4.37514
1615,4.3686
1616,18.425
1617,22.0129
1618,22.0067
1619,17.9929
1620,13.5539
1621,10.279
1622,10.2274
1623,10.2219
1624,13.2066
1625,21.7725
1626,27.1203
1627,27.1153
1628,20.8937
1629,18.787
1630,14.8443
1631,6.74675
1632,6.36713
1633,6.3629
1634,11.0162
1635,11.0336
1636,11.0298
1637,3.75707
1638,3.75345
1639,3.74995
1640,1.76411
1641,1.76084
1642,4.73721
1643,9.80809
1644,14.0485
1645,17.4482
1646,18.9908
1647,18.9882
1648,13.0958
1649,5.5678
1650,5.56549
1651,8.70408
1652,14.2148
1653,14.2127
1654,10.1026
1655,8.17538
1656,6.87115
1657,6.86944
1658,9.55519
1659,14.1208
1660,14.1193
1661,14.0169
1662,14.0155
1663,14.0142
1664,9.01652
1665,9.01531
1666,10.0771
1667,10.076
1668,5.69906
1669,5.69799
1670,7.79577
1671,12.0742
1672,16.8947
1673,17.8864
1674,17.8854
1675,7.47973
1676,7.47874
1677,7.49944
1678,10.7972
1679,11.13
1680,11.1289
1681,11.1278
1682,8.34119
1683,8.34
1684,10.7023
1685,10.701
1686,10.3294
1687,10.328
1688,14.9509
1689,14.9493
1690,9.73428
1691,9.73249
1692,21.9638
1693,22.3675
1694,22.3654
1695,15.2566
1696,13.807
1697,13.8045
1698,18.1052
1699,18.5207
1700,23.0185
1701,32.0321
1702,32.0287
1703,22.1075
1704,13.5192
1705,9.15227
1706,9.14807
1707,9.14363
1708,10.6344
1709,10.6295
1710,24.3679
1711,24.3625
1712,10.7945
1713,10.7885
1714,14.1077
1715,14.1011
1716,8.0776
1717,3.4942
1718,3.4865
1719,14.9564
1720,14.948
1721,8.04967
1722,8.04045
1723,30.1895
1724,30.1794
1725,28.7188
1726,21.6509
1727,15.1284
1728,10.0631
1729,10.0508
1730,17.5638
1731,22.9643
1732,22.9504
1733,22.0691
1734,15.365
1735,15.3494
1736,15.3333
1737,6.01639
1738,-1.42446
1739,-1.44242
1740,1.97
1741,11.1673
1742,14.8424
1743,15.6131
1744,34.1687
1745,34.1472
1746,29.7602
1747,11.7797
1748,8.08091
1749,4.20131
1750,4.17719
1751,14.1134
1752,33.5044
1753,33.4788
1754,26.1858
1755,25.4609
1756,23.5526
1757,10.9923
1758,10.9646
1759,20.8775
1760,20.849
1761,11.1958
1762,11.1666
1763,12.0772
1764,23.6769
1765,23.6467
1766,15.008
1767,7.62629
1768,7.59514
1769,8.9619
1770,8.93016
1771,8.13265
1772,8.10036
1773,18.6869
1774,25.3725
1775,25.3394
1776,21.1494
1777,15.0567
1778,15.023
1779,16.1323
1780,19.4468
1781,19.4124
1782,9.30722
1783,9.27247
1784,22.26
1785,22.2249
1786,12.5585
1787,9.9986
1788,9.96302
1789,19.3208
1790,19.285
1791,6.20349
1792,6.16735
1793,12.6727
1794,12.6363
1795,10.6727
1796,10.6361
1797,15.4348
1798,15.398
1799,15.3611
1800,15.9535
1801,18.7044
1802,19.3639
1803,19.3266
1804,12.8786
1805,3.16123
1806,1.60268
1807,1.56513
1808,6.40437
1809,6.51421
1810,9.27631
1811,14.7227
1812,18.9888
1813,18.951
1814,13.6062
1815,12.3825
1816,12.3445
1817,14.5935
1818,14.5554
1819,11.6157
1820,11.5776
1821,12.8047
1822,19.0061
1823,18.9679
1824,14.6852
1825,4.78966
1826,4.7514
1827,5.28974
1828,5.25145
1829,5.21314
1830,12.7221
1831,12.6837
1832,6.18466
1833,-0.0156083
1834,-0.0539906
1835,0.148603
1836,2.95323
1837,8.38552
1838,8.3471
1839,6.18934
1840,1.00594
1841,0.967501
1842,1.26511
1843,9.79548
1844,23.0271
1845,22.9886
1846,8.89381
1847,8.85535
1848,9.383
1849,12.0538
