#wnum,raman
275,2282.63
276,2284.68
277,2174.97
278,2038.67
279,1893.93
280,1744.47
281,1608.09
282,1501.38
283,1405.98
284,1312.6
285,1218.44
286,1118.87
287,1011.34
288,903.962
289,853.28
290,809.116
291,768.442
292,729.595
293,690.34
294,630.3
295,572.33
296,527.625
297,491.793
298,453.107
299,406.885
300,361.209
301,321.265
302,283.606
303,264.523
304,266.505
305,268.481
306,233.378
307,187.408
308,159.264
309,151.061
310,143.603
311,129.115
312,116.045
313,104.832
314,95.2459
315,92.8068
316,94.695
317,96.5732
318,88.2833
319,70.0002
320,51.7998
321,33.6423
322,15.2496
323,6.75607
324,-0.782613
325,1.0044
326,12.2204
327,18.956
328,20.7034
329,17.3501
330,13.415
331,9.74944
332,11.4395
333,35.8762
334,37.9841
335,39.6277
336,7.74666
337,-11.5551
338,-10.6183
339,-9.04098
340,4.75645
341,20.5637
342,22.0898
343,17.2369
344,15.6767
345,17.1513
346,19.8089
347,21.2492
348,17.7676
349,19.1735
350,35.9077
351,37.2791
352,31.5788
353,5.80865
354,1.55527
355,2.85758
356,10.3257
357,25.2918
358,27.3194
359,28.5523
360,2.23433
361,-1.36542
362,-0.184689
363,11.17
364,12.3159
365,8.63294
366,5.83462
367,3.33802
368,0.263048
369,-8.18048
370,-7.13917
371,0.699455
372,32.613
373,57.4959
374,58.7729
375,59.729
376,53.6638
377,45.1892
378,46.0959
379,53.1112
380,53.9857
381,39.9544
382,22.6829
383,23.5103
384,46.7984
385,60.6736
386,61.4551
387,57.7022
388,55.8174
389,54.4613
390,46.0235
391,28.4654
392,29.1592
393,34.3161
394,44.5247
395,45.1765
396,18.4314
397,19.0559
398,42.6012
399,68.5537
400,69.1383
401,56.1029
402,56.6616
403,69.5761
404,70.1095
405,63.2161
406,48.2421
407,43.7211
408,44.2054
409,49.0544
410,68.8495
411,88.6174
412,89.0548
413,87.8053
414,81.3707
415,70.7421
416,69.5317
417,69.9133
418,74.5846
419,74.9448
420,74.2191
421,74.5584
422,76.1401
423,76.459
424,76.176
425,75.3557
426,71.7155
427,66.2711
428,66.5411
429,69.7531
430,72.2252
431,72.4673
432,72.7005
433,74.8062
434,91.2552
435,91.4619
436,89.448
437,82.1168
438,82.298
439,96.588
440,96.7528
441,81.6528
442,73.4737
443,73.6147
444,80.6095
445,89.2952
446,98.875
447,102.547
448,102.65
449,100.994
450,96.5139
451,91.818
452,91.2431
453,91.3116
454,92.5505
455,97.7489
456,101.998
457,102.04
458,100.739
459,99.2733
460,97.5625
461,95.9495
462,92.1436
463,88.3966
464,88.3965
465,88.3907
466,88.0476
467,79.6745
468,73.161
469,73.1333
470,73.7342
471,73.6961
472,70.7315
473,70.6833
474,76.7527
475,83.3758
476,86.3858
477,87.1061
478,87.0339
479,81.186
480,71.7836
481,53.1256
482,45.6103
483,45.516
484,59.3942
485,59.2916
486,52.3016
487,45.0378
488,44.6309
489,44.5126
490,51.1935
491,58.4256
492,58.2962
493,49.6644
494,49.059
495,48.9191
496,54.2766
497,59.0733
498,63.7443
499,72.7394
500,86.9479
501,86.7888
502,73.4065
503,48.7726
504,33.1228
505,27.7209
506,27.5475
507,62.4155
508,69.7003
509,69.5191
510,46.801
511,45.8091
512,45.6206
513,47.9979
514,50.4619
515,52.8902
516,57.5879
517,62.2718
518,69.9145
519,78.0748
520,77.8693
521,62.5149
522,49.4615
523,49.2505
524,50.2346
525,50.0202
526,48.518
527,48.0509
528,47.8317
529,48.8425
530,52.4885
531,56.1471
532,57.3025
533,57.5536
534,62.6876
535,74.5832
536,74.3533
537,69.4351
538,54.4136
539,42.9075
540,32.7495
541,32.5143
542,36.2586
543,41.0531
544,40.8152
545,40.5766
546,49.5387
547,63.6043
548,63.3635
549,46.9445
550,31.3828
551,29.0557
552,28.8124
553,36.3688
554,48.7423
555,48.4976
556,40.5154
557,40.2699
558,44.3193
559,48.0372
560,47.7907
561,40.061
562,39.814
563,52.6286
564,52.3814
565,51.1684
566,41.1808
567,31.2197
568,26.7662
569,26.5186
570,43.0953
571,50.0526
572,49.8052
573,49.5579
574,54.2626
575,63.7685
576,65.898
577,65.6513
578,63.163
579,58.187
580,53.1054
581,44.31
582,36.0792
583,35.8343
584,39.5959
585,42.2216
586,43.4149
587,45.1501
588,47.9754
589,47.733
590,43.7203
591,34.1499
592,33.909
593,34.8681
594,39.4756
595,46.8106
596,54.2367
597,65.4565
598,65.2191
599,64.2707
600,35.0094
601,34.7739
602,51.0659
603,72.0345
604,71.801
605,63.4553
606,51.5818
607,38.308
608,32.5497
609,32.3199
610,35.2072
611,47.3127
612,53.2521
613,53.0254
614,42.1529
615,41.9277
616,44.6104
617,51.0674
618,63.26
619,71.7498
620,71.5286
621,65.6016
622,65.3821
623,68.6843
624,68.4665
625,67.9076
626,65.562
627,62.9293
628,60.3794
629,51.6354
630,48.3218
631,48.1097
632,72.9336
633,72.7231
634,52.9109
635,34.3664
636,34.1584
637,51.2894
638,51.0828
639,36.0128
640,33.1018
641,32.8976
642,32.6941
643,31.1081
644,25.1242
645,24.9229
646,25.461
647,25.2611
648,25.3575
649,26.6049
650,36.3817
651,46.3135
652,51.8773
653,56.4065
654,56.2112
655,52.4755
656,52.2814
657,61.3176
658,61.1247
659,45.2853
660,25.9558
661,25.7645
662,30.579
663,30.3887
664,27.6356
665,27.4462
666,46.7515
667,46.5629
668,42.143
669,20.088
670,19.9006
671,23.9573
672,23.7705
673,6.23059
674,5.45232
675,5.26645
676,15.5008
677,26.2239
678,33.9238
679,33.7388
680,23.8223
681,11.5738
682,-3.25922
683,-3.44375
684,13.4582
685,38.8612
686,41.2653
687,41.0814
688,39.5071
689,36.8546
690,31.7671
691,22.0958
692,21.9138
693,25.6373
694,35.2707
695,35.0904
696,32.1004
697,30.2269
698,28.7281
699,28.5505
700,29.7285
701,29.5526
702,21.8269
703,16.2856
704,16.1124
705,21.2886
706,27.1154
707,33.487
708,33.3179
709,30.0855
710,24.5131
711,22.0131
712,21.8489
713,24.398
714,30.5446
715,31.2035
716,32.1045
717,35.4512
718,50.6683
719,56.7032
720,56.5503
721,56.3991
722,66.1019
723,80.5248
724,80.3784
725,53.6521
726,53.5092
727,56.6153
728,67.3746
729,67.2371
730,67.1015
731,67.5054
732,67.3736
733,66.7558
734,56.1587
735,56.0328
736,56.4672
737,62.2204
738,69.596
739,77.0932
740,77.6686
741,77.628
742,78.0603
743,78.7452
744,82.8261
745,90.4364
746,90.3339
747,84.7282
748,74.7785
749,74.6828
750,75.2601
751,79.6887
752,79.6
753,78.7768
754,60.5465
755,46.7066
756,45.7949
757,45.7178
758,58.6704
759,58.5982
760,55.6193
761,31.7288
762,21.203
763,21.1404
764,21.2022
765,21.7024
766,22.9383
767,29.6725
768,36.8041
769,40.0077
770,39.9621
771,35.6988
772,25.1218
773,22.7526
774,22.7168
775,26.5426
776,37.9275
777,48.0988
778,48.0729
779,48.0495
780,50.4882
781,56.2046
782,61.0895
783,61.076
784,60.5413
785,39.4851
786,19.8783
787,12.1543
788,12.1532
789,20.018
790,37.647
791,45.0274
792,45.0361
793,43.0466
794,29.8552
795,29.8712
796,45.8271
797,45.848
798,35.6593
799,30.6405
800,30.6686
801,64.0473
802,64.0803
803,45.7299
804,45.2884
805,45.3284
806,47.9401
807,47.9848
808,45.2993
809,40.5145
810,35.714
811,28.4798
812,20.82
813,20.6001
814,20.6609
815,27.9165
816,43.1796
817,47.4938
818,47.5636
819,47.6356
820,58.6069
821,76.4599
822,79.2498
823,79.3304
824,71.7553
825,57.3624
826,57.4492
827,84.8604
828,105.734
829,105.827
830,105.922
831,110
832,110.099
833,102.707
834,83.9955
835,84.1
836,97.9987
837,98.107
838,67.6478
839,52.2583
840,52.3717
841,52.4869
842,24.9459
843,25.0643
844,39.7112
845,113.48
846,113.603
847,72.1654
848,48.7094
849,48.8368
850,50.3825
851,50.5125
852,49.7198
853,46.2879
854,43.8672
855,42.6889
856,42.825
857,51.5318
858,64.706
859,84.6711
860,109.296
861,127.364
862,135.674
863,135.817
864,100.867
865,64.1104
866,50.3693
867,40.5094
868,40.6557
869,39.4915
870,37.5748
871,33.9257
872,34.0739
873,64.1318
874,79.8555
875,80.0044
876,72.6353
877,55.5474
878,39.1405
879,39.2897
880,39.4389
881,37.0661
882,26.8324
883,15.2253
884,1.7531
885,-0.272631
886,-0.125064
887,7.40534
888,25.4566
889,30.5964
890,30.7418
891,22.0907
892,22.2346
893,28.982
894,34.4385
895,39.173
896,44.919
897,51.5541
898,51.6924
899,26.6211
900,17.3052
901,17.4399
902,28.7978
903,41.9054
904,47.4215
905,47.5506
906,34.8358
907,17.457
908,4.18709
909,4.30961
910,42.6499
911,49.9472
912,50.0642
913,47.7483
914,47.8612
915,54.2657
916,54.3744
917,50.1197
918,46.7053
919,44.5208
920,29.9015
921,7.67516
922,7.21482
923,7.3064
924,17.4653
925,32.7315
926,32.8148
927,18.3131
928,16.8193
929,16.8937
930,35.5993
931,47.483
932,54.701
933,54.7626
934,45.8614
935,38.722
936,33.1212
937,33.1688
938,37.4169
939,37.4571
940,-1.3968
941,-1.36425
942,19.5287
943,58.9075
944,58.9282
945,48.4578
946,21.8459
947,-7.47279
948,-7.46875
949,8.39624
950,8.39203
951,3.62574
952,3.61368
953,8.48336
954,12.6459
955,12.6228
956,11.7848
957,11.7549
958,12.4519
959,24.894
960,31.5798
961,31.5375
962,23.8729
963,23.8249
964,30.3569
965,36.0967
966,36.0411
967,34.084
968,10.498
969,10.4357
970,32.9001
971,41.7196
972,41.6513
973,30.8324
974,30.7607
975,30.6875
976,26.1516
977,26.0755
978,28.8397
979,55.1772
980,71.953
981,83.5607
982,83.4792
983,85.0164
984,84.9333
985,107.552
986,128.526
987,138.107
988,149.039
989,168.457
990,188.437
991,217.738
992,246.094
993,253.611
994,255.263
995,261.462
996,270.299
997,273.796
998,278.479
999,296.363
1000,328.363
1001,364.583
1002,398.85
1003,403.867
1004,403.787
1005,378.725
1006,315.256
1007,243.191
1008,238.425
1009,235.513
1010,202.612
1011,168.713
1012,121.414
1013,72.9967
1014,72.9261
1015,75.3663
1016,75.2979
1017,48.2691
1018,36.159
1019,36.0941
1020,43.4169
1021,62.2414
1022,76.8614
1023,76.8013
1024,76.7425
1025,89.0218
1026,104.199
1027,110.091
1028,113.904
1029,135.137
1030,156.013
1031,155.963
1032,141.617
1033,141.57
1034,138.682
1035,130.831
1036,98.6034
1037,71.5286
1038,55.2452
1039,40.4637
1040,29.165
1041,20.0792
1042,20.0441
1043,21.3135
1044,46.3352
1045,51.1436
1046,51.1137
1047,30.348
1048,30.3208
1049,38.6697
1050,46.3026
1051,54.3998
1052,54.3776
1053,50.3251
1054,39.0423
1055,21.931
1056,14.1648
1057,14.1489
1058,15.2618
1059,17.8625
1060,22.1954
1061,30.0882
1062,30.0782
1063,16.9629
1064,5.65265
1065,5.64614
1066,11.5534
1067,11.9744
1068,13.1858
1069,17.0354
1070,19.6042
1071,22.0518
1072,22.0529
1073,21.9538
1074,15.358
1075,11.4871
1076,11.4822
1077,11.4885
1078,11.4957
1079,9.69013
1080,3.77862
1081,3.78868
1082,11.8674
1083,11.8793
1084,-0.71661
1085,-0.70292
1086,6.23559
1087,25.2191
1088,33.0901
1089,33.2966
1090,33.3147
1091,33.3336
1092,51.6842
1093,74.6016
1094,74.6231
1095,64.6278
1096,64.6511
1097,74.8092
1098,74.8342
1099,42.3912
1100,42.0989
1101,42.1265
1102,49.4296
1103,56.7123
1104,56.7424
1105,52.6458
1106,45.5637
1107,39.9072
1108,35.0749
1109,29.6119
1110,29.6467
1111,44.0779
1112,61.4502
1113,68.9942
1114,75.9482
1115,80.4531
1116,81.9543
1117,81.9941
1118,78.5898
1119,70.9414
1120,62.2447
1121,46.712
1122,28.9562
1123,11.6554
1124,6.0023
1125,6.04687
1126,34.3817
1127,48.0609
1128,50.346
1129,52.984
1130,53.7801
1131,53.8274
1132,40.9687
1133,41.0168
1134,54.8781
1135,54.9268
1136,51.8967
1137,44.3221
1138,42.0751
1139,39.6296
1140,38.7225
1141,36.5003
1142,24.9634
1143,14.7991
1144,8.10598
1145,7.31262
1146,7.36326
1147,11.5741
1148,11.6247
1149,10.299
1150,10.3495
1151,10.3999
1152,10.2711
1153,8.79644
1154,-2.30953
1155,-2.2598
1156,1.8177
1157,32.4596
1158,52.1558
1159,58.2877
1160,58.3365
1161,34.9434
1162,34.9919
1163,51.9633
1164,52.0117
1165,33.9521
1166,34.0003
1167,40.4348
1168,54.8011
1169,72.1462
1170,74.1784
1171,74.2265
1172,61.0059
1173,32.3039
1174,32.3521
1175,53.3977
1176,59.2951
1177,59.3434
1178,59.3919
1179,70.8358
1180,91.3479
1181,91.3966
1182,87.3115
1183,49.1551
1184,15.4633
1185,15.5124
1186,19.9155
1187,40.5885
1188,40.6379
1189,33.0929
1190,9.18379
1191,9.23352
1192,25.6037
1193,36.8653
1194,38.245
1195,38.2952
1196,24.7626
1197,17.8308
1198,12.8835
1199,11.0152
1200,10.615
1201,8.33956
1202,8.39049
1203,20.206
1204,46.8049
1205,46.8561
1206,44.7979
1207,44.8493
1208,55.8752
1209,63.7053
1210,63.757
1211,61.165
1212,52.9963
1213,53.0482
1214,77.5876
1215,77.6396
1216,69.6506
1217,60.915
1218,59.9129
1219,59.9651
1220,59.5367
1221,55.8652
1222,41.9531
1223,30.8363
1224,26.9087
1225,19.0304
1226,0.00654651
1227,0.0583759
1228,36.6392
1229,48.9336
1230,48.9851
1231,49.0364
1232,56.6683
1233,71.1965
1234,81.0601
1235,81.1107
1236,76.5936
1237,64.3817
1238,44.3792
1239,41.0836
1240,41.133
1241,53.7039
1242,53.7526
1243,53.2855
1244,38.1096
1245,38.1571
1246,44.8546
1247,44.9013
1248,38.1329
1249,16.7352
1250,13.5495
1251,10.355
1252,4.40923
1253,-2.20055
1254,-2.15775
1255,-0.72353
1256,32.3882
1257,45.3276
1258,45.368
1259,31.6406
1260,31.68
1261,31.7189
1262,30.9919
1263,23.889
1264,12.604
1265,12.6412
1266,16.9519
1267,30.2045
1268,30.2406
1269,25.0225
1270,25.0581
1271,25.3025
1272,29.806
1273,33.7869
1274,33.8215
1275,29.903
1276,27.7414
1277,26.9565
1278,22.4154
1279,18.4846
1280,18.5184
1281,19.7646
1282,24.7552
1283,25.4144
1284,25.4482
1285,21.5227
1286,15.5862
1287,12.0602
1288,12.0941
1289,16.4269
1290,21.7975
1291,27.5242
1292,27.5586
1293,26.6394
1294,21.9088
1295,21.9436
1296,37.2836
1297,47.2238
1298,47.2594
1299,32.6612
1300,27.4661
1301,23.1131
1302,23.1497
1303,23.1865
1304,6.81904
1305,6.85654
1306,19.2083
1307,51.2439
1308,62.9441
1309,62.9831
1310,55.3236
1311,40.4652
1312,40.5053
1313,40.5459
1314,35.6142
1315,24.8829
1316,3.00442
1317,1.60646
1318,1.64923
1319,20.6913
1320,20.735
1321,20.7792
1322,25.9998
1323,33.211
1324,48.9568
1325,49.003
1326,37.9866
1327,15.9346
1328,7.32132
1329,6.83658
1330,6.88548
1331,17.2602
1332,43.1931
1333,52.094
1334,52.1452
1335,52.1969
1336,73.2037
1337,93.435
1338,93.4885
1339,89.7358
1340,66.5798
1341,62.0258
1342,62.0815
1343,62.1379
1344,35.9045
1345,15.4257
1346,15.4838
1347,18.4634
1348,52.052
1349,52.1117
1350,46.4018
1351,30.3823
1352,28.4486
1353,28.5106
1354,51.8907
1355,51.9538
1356,39.0201
1357,28.6625
1358,27.9407
1359,22.4659
1360,17.3393
1361,17.4053
1362,37.1837
1363,57.7115
1364,64.2208
1365,64.2887
1366,28.5132
1367,12.6546
1368,10.9626
1369,11.0322
1370,16.5126
1371,24.4061
1372,32.0011
1373,32.0723
1374,32.1437
1375,43.8674
1376,67.5482
1377,76.6899
1378,81.3091
1379,83.2158
1380,83.2891
1381,65.556
1382,41.632
1383,17.4852
1384,17.5594
1385,18.4087
1386,44.4366
1387,48.843
1388,48.9177
1389,44.8614
1390,37.1582
1391,21.9219
1392,21.9969
1393,41.1391
1394,41.2141
1395,30.1211
1396,18.7451
1397,18.82
1398,28.9685
1399,29.3094
1400,29.384
1401,-1.96431
1402,-1.89011
1403,28.4954
1404,28.5693
1405,24.6154
1406,14.3581
1407,14.4315
1408,16.8422
1409,24.237
1410,26.7569
1411,27.4015
1412,46.6815
1413,75.7308
1414,75.8036
1415,58.2588
1416,38.7365
1417,17.8113
1418,17.884
1419,18.708
1420,18.7807
1421,18.8734
1422,23.3456
1423,27.9493
1424,28.0222
1425,28.0952
1426,35.616
1427,45.1259
1428,59.1617
1429,59.235
1430,36.5818
1431,36.1642
1432,36.2378
1433,51.9542
1434,54.1235
1435,54.1975
1436,13.9309
1437,14.0051
1438,18.5251
1439,42.1676
1440,69.7793
1441,69.854
1442,47.6564
1443,47.7314
1444,64.0374
1445,64.1127
1446,64.1881
1447,65.5541
1448,78.6005
1449,78.6763
1450,78.7523
1451,90.14
1452,90.2162
1453,82.2284
1454,63.1484
1455,63.2249
1456,72.2643
1457,72.341
1458,72.4177
1459,79.7836
1460,86.3475
1461,86.4243
1462,76.6556
1463,47.2115
1464,47.0634
1465,47.1402
1466,50.5029
1467,51.1384
1468,51.2151
1469,55.6856
1470,76.2364
1471,98.3012
1472,98.3774
1473,70.175
1474,55.2789
1475,55.3546
1476,78.3574
1477,114.027
1478,114.102
1479,108.727
1480,84.0328
1481,60.2965
1482,51.8125
1483,51.8858
1484,56.056
1485,56.1284
1486,46.8723
1487,46.9436
1488,52.9191
1489,61.8883
1490,66.7686
1491,66.8376
1492,59.6658
1493,40.5279
1494,14.7652
1495,12.4488
1496,12.514
1497,13.8811
1498,15.1759
1499,27.0757
1500,39.8951
1501,45.5246
1502,45.5842
1503,36.3852
1504,32.7098
1505,32.766
1506,41.8695
1507,50.1359
1508,50.1884
1509,24.0881
1510,12.7069
1511,10.4939
1512,6.47395
1513,1.70223
1514,1.74643
1515,22.6558
1516,38.041
1517,52.2134
1518,54.368
1519,54.4041
1520,53.9605
1521,51.9665
1522,23.5223
1523,23.5512
1524,39.4838
1525,67.5537
1526,67.7054
1527,67.7264
1528,61.9652
1529,61.9819
1530,63.1029
1531,63.1152
1532,31.8433
1533,26.4227
1534,22.92
1535,18.8255
1536,7.90963
1537,4.09987
1538,4.09524
1539,14.9955
1540,29.4939
1541,45.0862
1542,45.0707
1543,28.3798
1544,28.3587
1545,56.4119
1546,56.3848
1547,32.6504
1548,20.657
1549,18.9395
1550,8.92192
1551,-6.3373
1552,-6.38334
1553,3.67112
1554,19.3678
1555,36.5564
1556,62.3728
1557,62.3111
1558,38.9825
1559,31.426
1560,31.3557
1561,45.5036
1562,47.7342
1563,61.5269
1564,100.886
1565,100.803
1566,85.206
1567,74.7538
1568,70.2294
1569,53.6403
1570,33.8262
1571,28.3248
1572,28.2265
1573,31.2153
1574,39.4858
1575,63.9585
1576,84.0544
1577,87.2998
1578,91.3822
1579,91.2718
1580,80.1404
1581,58.5925
1582,58.4778
1583,92.7951
1584,121.607
1585,121.488
1586,118.42
1587,87.8769
1588,87.7552
1589,90.4639
1590,90.3402
1591,84.6962
1592,43.6772
1593,43.551
1594,76.298
1595,113.216
1596,140.552
1597,140.423
1598,127.319
1599,127.189
1600,127.059
1601,122.762
1602,114.538
1603,114.407
1604,119.905
1605,119.773
1606,107.116
1607,92.6019
1608,92.4689
1609,128.022
1610,127.888
1611,80.3296
1612,71.5343
1613,71.4007
1614,98.7701
1615,98.6365
1616,90.5348
1617,59.3223
1618,46.4943
1619,46.3608
1620,49.8747
1621,49.7414
1622,24.516
1623,24.383
1624,35.0201
1625,49.7315
1626,64.7411
1627,64.6089
1628,61.425
1629,53.8911
1630,44.5549
1631,26.2979
1632,13.8927
1633,13.7621
1634,22.0139
1635,41.9624
1636,67.7182
1637,67.5891
1638,66.3263
1639,53.5361
1640,53.4081
1641,86.5235
1642,86.3964
1643,75.8807
1644,48.5759
1645,47.5411
1646,47.4158
1647,53.5708
1648,53.4465
1649,35.9647
1650,17.4108
1651,17.288
1652,21.5417
1653,21.4198
1654,20.2357
1655,20.1148
1656,31.3017
1657,47.5296
1658,78.6522
1659,125.207
1660,125.088
1661,98.4882
1662,87.2931
1663,78.6995
1664,70.9407
1665,63.9769
1666,40.0182
1667,39.9037
1668,53.5159
1669,53.4024
1670,15.5191
1671,9.83037
1672,9.71837
1673,15.337
1674,20.6449
1675,25.2832
1676,31.3828
1677,49.3358
1678,52.7749
1679,52.6662
1680,43.5038
1681,32.5131
1682,17.463
1683,17.3559
1684,25.3769
1685,41.4952
1686,41.3893
1687,25.7501
1688,25.6449
1689,32.9403
1690,36.0812
1691,35.977
1692,35.8731
1693,63.0396
1694,93.5749
1695,93.4718
1696,19.8705
1697,15.5892
1698,15.4869
1699,38.3859
1700,55.7523
1701,55.6505
1702,52.3824
1703,22.6854
1704,9.97813
1705,9.87689
1706,32.8886
1707,64.4203
1708,64.8654
1709,64.7644
1710,22.2323
1711,19.3459
1712,19.2449
1713,43.4251
1714,50.2845
1715,50.1832
1716,12.5269
1717,4.79306
1718,-0.842931
1719,-0.944826
1720,-0.899059
1721,14.8895
1722,14.787
1723,14.7767
1724,14.6738
1725,40.7767
1726,40.6734
1727,40.5699
1728,51.5732
1729,63.8876
1730,63.7836
1731,52.878
1732,34.2309
1733,34.1263
1734,41.1905
1735,41.0856
1736,40.9805
1737,49.7096
1738,49.6041
1739,43.7622
1740,18.824
1741,7.14289
1742,7.03664
1743,23.7986
1744,44.5933
1745,44.4864
1746,41.4677
1747,41.3604
1748,56.8173
1749,56.7095
1750,53.0788
1751,52.9705
1752,77.6108
1753,77.502
1754,54.2558
1755,42.7495
1756,42.0415
1757,41.6964
1758,41.5862
1759,23.8998
1760,23.789
1761,41.0786
1762,40.967
1763,40.8551
1764,68.4767
1765,101.132
1766,101.019
1767,84.1554
1768,41.6179
1769,41.5035
1770,52.2627
1771,52.2066
1772,52.0906
1773,21.7437
1774,7.97722
1775,7.85959
1776,15.8019
1777,15.683
1778,12.7352
1779,5.03661
1780,4.68265
1781,4.56117
1782,9.2913
1783,18.1506
1784,34.9926
1785,55.2753
1786,82.226
1787,101.497
1788,101.37
1789,91.1339
1790,60.1732
1791,35.4686
1792,16.248
1793,15.3642
1794,2.28458
1795,-3.16356
1796,-3.29811
1797,51.409
1798,62.7216
1799,68.8713
1800,71.348
1801,71.2086
1802,71.0683
1803,77.4912
1804,116.705
1805,116.563
1806,90.0934
1807,55.1321
1808,25.8031
1809,25.6577
1810,28.3274
1811,56.9557
1812,78.6463
1813,83.4286
1814,83.2805
1815,64.4949
1816,62.7017
1817,56.4676
1818,54.7636
1819,54.6134
1820,80.4101
1821,80.2592
1822,80.1081
1823,114.186
1824,114.035
1825,107.724
1826,84.0957
1827,72.7885
1828,64.0382
1829,58.0593
1830,49.679
1831,49.526
1832,52.8101
1833,52.6568
1834,55.8474
1835,64.0134
1836,93.6251
1837,97.8504
1838,97.6968
1839,27.3696
1840,27.2159
1841,74.292
1842,74.1382
1843,69.6661
1844,69.5122
1845,106.726
1846,106.572
1847,91.0616
1848,73.4602
1849,70.8165
