#wnum,raman
275,15.4067
276,12.1009
277,12.0969
278,10.9929
279,10.9889
280,13.0229
281,16.8161
282,23.2845
283,29.9604
284,32.7042
285,32.7002
286,32.1503
287,24.996
288,18.7661
289,15.7968
290,14.245
291,14.241
292,14.2369
293,11.1348
294,5.60211
295,1.45796
296,1.45373
297,5.6538
298,8.20339
299,9.0146
300,10.8215
301,13.5258
302,13.5212
303,13.4287
304,9.84763
305,7.09639
306,6.95175
307,6.94685
308,5.22094
309,3.59702
310,3.59184
311,4.39489
312,4.38951
313,4.38401
314,6.84243
315,6.8367
316,6.51795
317,6.19531
318,6.18918
319,13.1081
320,13.8993
321,13.8927
322,10.9747
323,10.7425
324,10.7354
325,7.21192
326,2.66811
327,0.931253
328,0.92346
329,2.26177
330,3.48673
331,5.0454
332,5.46444
333,5.45559
334,3.82784
335,3.81852
336,4.43476
337,5.9623
338,8.35259
339,8.34226
340,6.42215
341,1.86093
342,-0.463257
343,-0.518234
344,-0.529969
345,8.09227
346,14.0388
347,14.0263
348,5.92134
349,3.04427
350,3.03093
351,4.20072
352,5.3909
353,7.35653
354,8.40051
355,9.16044
356,10.776
357,14.4343
358,14.4193
359,12.6477
360,10.2961
361,8.04106
362,6.02485
363,6.00898
364,5.21108
365,5.16569
366,5.14941
367,6.67267
368,6.83855
369,6.82191
370,4.05919
371,4.04235
372,6.40076
373,6.38374
374,5.52962
375,5.51244
376,6.90062
377,11.5123
378,11.4949
379,6.8437
380,4.09173
381,4.07424
382,6.72582
383,9.24673
384,11.9209
385,11.9033
386,10.3027
387,7.11855
388,7.10093
389,9.31129
390,11.6992
391,12.6501
392,12.6326
393,9.89393
394,6.05838
395,4.84533
396,4.7691
397,3.96491
398,1.11468
399,1.09735
400,2.04921
401,4.45232
402,4.43516
403,3.84002
404,3.823
405,3.80604
406,3.92236
407,5.07681
408,8.22174
409,8.20511
410,5.89828
411,3.04689
412,2.60227
413,2.58603
414,3.72937
415,4.76049
416,4.74458
417,3.27817
418,2.89204
419,2.21538
420,2.19996
421,3.18499
422,6.7919
423,6.77687
424,3.27684
425,2.07685
426,2.06225
427,4.03675
428,6.01673
429,8.64367
430,9.23712
431,9.22329
432,9.20963
433,11.2657
434,16.0866
435,16.0734
436,12.8494
437,12.8366
438,13.1386
439,16.0298
440,16.0175
441,15.2417
442,12.8886
443,10.6185
444,9.03118
445,4.71115
446,0.489673
447,0.478705
448,6.95795
449,10.0682
450,10.0578
451,9.16948
452,9.15947
453,9.68511
454,10.7038
455,13.1394
456,13.1302
457,9.62505
458,5.53118
459,5.52253
460,6.18671
461,6.70614
462,7.48503
463,9.70547
464,9.69779
465,9.73342
466,10.4483
467,12.969
468,12.9621
469,9.76687
470,8.00149
471,7.99513
472,9.25148
473,9.24549
474,7.52439
475,7.51876
476,10.5823
477,14.452
478,14.4469
479,13.2317
480,13.2269
481,13.5388
482,15.8284
483,15.8241
484,14.9613
485,14.9574
486,14.9537
487,12.7793
488,3.62013
489,3.11454
490,3.11137
491,10.5374
492,10.5345
493,10.1895
494,10.1868
495,10.9023
496,10.9839
497,11.4063
498,11.6222
499,11.6202
500,11.4566
501,10.5865
502,8.71757
503,7.52793
504,6.98349
505,6.98201
506,8.96665
507,12.0422
508,12.0409
509,10.3107
510,8.67144
511,8.25835
512,8.25729
513,9.10544
514,11.128
515,11.1271
516,9.38609
517,6.7714
518,6.19686
519,6.08374
520,5.23914
521,3.43121
522,2.63241
523,2.63146
524,2.63048
525,1.6083
526,-0.522918
527,-0.524021
528,2.52859
529,3.79025
530,4.22122
531,4.21995
532,4.21865
533,3.32748
534,2.05447
535,1.82318
536,1.82179
537,5.19091
538,7.19518
539,7.19375
540,5.17365
541,3.50659
542,2.7239
543,2.3665
544,1.22402
545,1.22263
546,1.86946
547,3.91417
548,6.04078
549,8.52506
550,8.5238
551,6.44564
552,5.10151
553,5.10036
554,7.41203
555,11.1336
556,11.1326
557,10.4146
558,5.60123
559,2.9882
560,2.01952
561,0.758143
562,0.757488
563,1.22183
564,1.22131
565,0.768495
566,0.768122
567,1.69514
568,2.00395
569,2.00381
570,1.73614
571,1.73618
572,5.22553
573,6.22256
574,6.22287
575,5.63689
576,5.63739
577,6.79382
578,7.67084
579,7.67164
580,6.70812
581,6.19364
582,6.19476
583,8.6059
584,9.01591
585,9.01736
586,2.67203
587,2.67371
588,4.84839
589,7.74652
590,7.74855
591,3.94614
592,3.94842
593,7.2161
594,9.86969
595,9.87234
596,9.52092
597,6.42908
598,6.4321
599,8.50432
600,16.2419
601,16.2453
602,14.5249
603,12.1657
604,12.1695
605,12.1734
606,9.26104
607,-0.174147
608,-0.16985
609,1.10305
610,4.61078
611,6.55196
612,6.80528
613,6.81024
614,6.81535
615,8.0713
616,11.7635
617,14.4748
618,16.3118
619,16.3177
620,13.0673
621,8.62075
622,7.14588
623,7.15236
624,9.60305
625,16.0996
626,16.1066
627,13.2683
628,9.57566
629,9.58314
630,11.8919
631,11.8997
632,7.71065
633,7.71881
634,8.01525
635,9.8984
636,10.0716
637,10.0804
638,10.006
639,9.17019
640,7.47735
641,5.2766
642,5.28632
643,5.99136
644,6.63257
645,6.64281
646,5.33384
647,4.90623
648,4.8269
649,3.60309
650,-0.0382888
651,-0.0270304
652,2.51736
653,7.40441
654,7.41617
655,4.38386
656,3.11091
657,2.9857
658,2.99813
659,3.46488
660,3.79119
661,3.80412
662,3.30272
663,2.55659
664,1.95069
665,1.6444
666,1.60269
667,1.44494
668,1.0121
669,1.02633
670,5.15572
671,9.60189
672,9.6166
673,6.24472
674,3.65756
675,2.88724
676,2.90258
677,5.20036
678,7.40887
679,7.42467
680,7.44062
681,7.53789
682,8.82382
683,8.88828
684,8.90482
685,8.53839
686,5.99423
687,3.57429
688,2.30422
689,2.32146
690,2.38145
691,6.65131
692,10.4429
693,12.5129
694,12.5308
695,11.1191
696,10.4112
697,10.4294
698,14.9568
699,14.9753
700,4.65661
701,0.486352
702,0.505177
703,2.87513
704,9.37431
705,14.6304
706,14.6496
707,10.1888
708,7.97965
709,7.54241
710,6.70035
711,5.02597
712,5.04568
713,6.76712
714,10.4191
715,13.7819
716,16.0615
717,16.0815
718,10.6829
719,6.23052
720,4.45737
721,4.47756
722,6.37721
723,6.9118
724,6.93206
725,0.254131
726,0.274417
727,2.499
728,5.75659
729,7.71774
730,8.4792
731,8.49947
732,7.44292
733,6.39837
734,5.97447
735,5.99463
736,8.6198
737,8.63987
738,7.46395
739,7.48391
740,8.30835
741,10.3697
742,10.3895
743,8.14638
744,7.1912
745,7.21069
746,7.54488
747,8.70057
748,8.71974
749,5.51577
750,5.5347
751,6.78632
752,10.3536
753,10.3721
754,3.47907
755,3.49727
756,7.4114
757,12.3877
758,16.451
759,16.4684
760,12.0278
761,2.92582
762,2.94269
763,6.86842
764,9.71519
765,10.904
766,10.9514
767,10.9671
768,10.1895
769,7.92055
770,5.51962
771,5.36577
772,5.37335
773,4.92114
774,4.3845
775,4.39789
776,4.8599
777,5.09474
778,5.16892
779,5.18095
780,2.51817
781,-0.411493
782,-0.521986
783,-0.51146
784,2.19378
785,6.50277
786,8.79804
787,8.80706
788,8.59577
789,7.714
790,7.72194
791,8.83307
792,10.4711
793,10.478
794,7.58706
795,7.59331
796,9.47511
797,12.2944
798,16.4507
799,17.4604
800,17.4651
801,13.4006
802,11.5935
803,10.5072
804,9.10446
805,7.48039
806,7.48329
807,9.13327
808,9.13561
809,9.03364
810,9.03543
811,10.4276
812,10.4289
813,10.3248
814,4.49713
815,4.4976
816,6.93239
817,6.93235
818,4.08076
819,1.20073
820,1.19993
821,1.97788
822,6.72539
823,11.2186
824,11.2168
825,6.39794
826,6.24894
827,6.24647
828,9.56391
829,15.4276
830,15.4245
831,9.5784
832,2.10292
833,2.09908
834,5.60912
835,6.66185
836,6.65734
837,5.37515
838,2.54281
839,2.53765
840,6.36334
841,9.21996
842,9.21415
843,7.40529
844,6.31549
845,6.23168
846,6.22501
847,8.80456
848,11.8552
849,13.6274
850,13.6199
851,11.9607
852,11.9528
853,12.0185
854,12.0102
855,7.74962
856,3.59506
857,3.58605
858,4.85679
859,4.84735
860,-0.691806
861,-0.701686
862,6.2974
863,10.8551
864,10.8446
865,10.834
866,10.9064
867,12.5922
868,12.7074
869,13.4312
870,15.7641
871,18.8183
872,25.1103
873,30.7494
874,35.4914
875,42.4478
876,49.4505
877,50.2204
878,50.3464
879,51.8485
880,57.3109
881,69.3595
882,78.3238
883,78.3121
884,76.1712
885,73.4785
886,69.0245
887,64.9143
888,60.1348
889,54.0161
890,46.1892
891,40.4875
892,36.2088
893,30.4892
894,28.306
895,28.2573
896,24.5572
897,18.2222
898,14.4047
899,13.4037
900,12.2245
901,10.7221
902,9.32127
903,6.12565
904,2.88809
905,2.37555
906,2.36493
907,4.40878
908,7.05147
909,7.04098
910,6.70111
911,5.9918
912,5.25364
913,5.24329
914,6.27488
915,6.26459
916,2.68767
917,-0.238854
918,-0.249068
919,0.378033
920,0.367867
921,0.357729
922,2.35923
923,8.5557
924,8.54566
925,8.49376
926,8.34627
927,8.33635
928,9.15606
929,9.14625
930,8.73661
931,4.04044
932,1.371
933,1.3614
934,4.71524
935,9.29675
936,12.3233
937,12.3139
938,10.3631
939,10.3539
940,15.6215
941,15.6124
942,12.43
943,8.82454
944,8.42334
945,8.13355
946,7.40268
947,7.39403
948,8.7331
949,9.20041
950,9.19199
951,7.50611
952,5.884
953,4.37273
954,4.36462
955,4.73144
956,4.72348
957,4.3161
958,3.12028
959,0.463162
960,0.455509
961,1.27974
962,5.15651
963,8.05799
964,10.7884
965,10.7812
966,10.0399
967,7.43431
968,3.99973
969,1.48093
970,0.155833
971,0.149002
972,3.89467
973,5.94259
974,5.93597
975,5.45566
976,5.44917
977,6.97353
978,6.96718
979,6.84617
980,5.59673
981,5.4358
982,5.14583
983,4.07652
984,3.23475
985,3.22882
986,3.22648
987,4.11591
988,4.73094
989,5.45198
990,7.36629
991,9.82694
992,11.4546
993,12.7028
994,14.9099
995,18.8738
996,21.7347
997,21.7293
998,21.3566
999,21.3513
1000,25.7224
1001,25.7172
1002,19.5807
1003,18.8082
1004,18.8029
1005,20.3106
1006,21.8154
1007,21.8102
1008,14.4107
1009,8.3083
1010,6.90233
1011,4.38782
1012,1.25492
1013,-0.573307
1014,-0.57869
1015,1.74207
1016,4.69076
1017,8.15708
1018,8.15158
1019,6.5121
1020,6.50658
1021,8.19893
1022,11.62
1023,12.3538
1024,12.3483
1025,11.8934
1026,8.94213
1027,3.45592
1028,3.45054
1029,4.44297
1030,6.27105
1031,6.2658
1032,4.82657
1033,4.82144
1034,10.0375
1035,14.4722
1036,16.5975
1037,16.5926
1038,16.5879
1039,16.8866
1040,20.2296
1041,20.2252
1042,14.6144
1043,14.6101
1044,15.9683
1045,15.9642
1046,13.6751
1047,9.16833
1048,9.16461
1049,12.8202
1050,12.8168
1051,12.5388
1052,12.5356
1053,13.7504
1054,13.7474
1055,12.0823
1056,12.0796
1057,13.008
1058,13.0056
1059,6.8138
1060,5.40147
1061,5.39948
1062,5.39763
1063,3.40089
1064,3.39933
1065,5.17138
1066,10.9257
1067,10.9246
1068,10.6238
1069,6.7606
1070,5.56002
1071,5.55951
1072,5.55915
1073,4.26826
1074,1.42354
1075,1.42364
1076,5.3636
1077,5.364
1078,6.18902
1079,7.75941
1080,13.6831
1081,13.6842
1082,11.9987
1083,12
1084,17.3739
1085,18.632
1086,18.8253
1087,19.6804
1088,19.6825
1089,17.5137
1090,14.0464
1091,14.049
1092,14.3597
1093,18.5247
1094,18.5277
1095,18.5308
1096,18.3156
1097,17.9493
1098,17.615
1099,17.5902
1100,16.1503
1101,14.5749
1102,13.853
1103,13.4559
1104,12.8846
1105,11.3179
1106,11.3223
1107,14.4106
1108,14.4152
1109,8.20422
1110,4.31168
1111,4.31652
1112,6.15793
1113,11.1086
1114,11.1137
1115,4.87887
1116,-0.377552
1117,-0.372336
1118,1.59705
1119,5.30894
1120,6.72334
1121,6.72877
1122,5.08272
1123,5.08826
1124,5.20202
1125,5.48454
1126,6.03928
1127,6.04509
1128,4.24464
1129,2.85951
1130,2.56656
1131,2.57267
1132,3.29768
1133,3.41182
1134,3.51089
1135,4.43714
1136,5.29525
1137,6.26333
1138,7.14573
1139,8.44022
1140,12.4664
1141,12.4734
1142,6.88872
1143,6.89588
1144,8.77547
1145,8.78284
1146,8.27497
1147,4.39462
1148,2.87625
1149,2.06386
1150,2.07172
1151,3.15274
1152,4.20952
1153,5.00895
1154,5.81651
1155,5.82489
1156,3.19715
1157,3.20575
1158,3.94929
1159,12.3659
1160,12.3748
1161,9.40421
1162,8.93576
1163,8.94499
1164,9.32684
1165,10.2104
1166,10.2199
1167,8.73915
1168,6.70576
1169,4.94127
1170,3.79689
1171,0.259064
1172,0.269239
1173,10.3517
1174,12.7713
1175,12.7818
1176,12.7924
1177,13.9669
1178,16.0212
1179,18.7937
1180,18.8047
1181,16.5754
1182,16.5865
1183,17.0652
1184,17.0765
1185,10.1178
1186,3.79648
1187,3.29697
1188,3.30859
1189,7.27512
1190,7.98333
1191,7.99516
1192,8.00705
1193,11.6911
1194,24.406
1195,24.4181
1196,23.2723
1197,17.5084
1198,12.781
1199,10.8283
1200,10.8405
1201,11.896
1202,11.9083
1203,10.6103
1204,2.87267
1205,2.1276
1206,2.13998
1207,3.757
1208,5.83998
1209,7.3018
1210,8.45679
1211,9.03614
1212,9.04845
1213,8.59361
1214,6.51196
1215,6.52417
1216,13.5607
1217,14.2582
1218,14.4735
1219,14.2823
1220,13.1961
1221,9.88507
1222,6.67628
1223,4.55798
1224,3.93144
1225,3.94293
1226,5.06585
1227,7.85606
1228,12.9896
1229,13.0006
1230,6.70113
1231,5.97605
1232,5.98665
1233,8.07586
1234,9.26563
1235,11.5141
1236,17.2637
1237,17.2734
1238,6.28228
1239,0.929475
1240,0.938633
1241,3.27315
1242,6.52322
1243,8.39311
1244,8.88423
1245,9.01752
1246,14.1381
1247,14.1455
1248,6.31737
1249,-0.476629
1250,-0.560284
1251,-0.553925
1252,4.33157
1253,7.85064
1254,7.85615
1255,6.38044
1256,3.04936
1257,3.05409
1258,3.86988
1259,6.67008
1260,8.51294
1261,8.51672
1262,6.38439
1263,6.38774
1264,7.03606
1265,7.03901
1266,4.69884
1267,4.70141
1268,9.34346
1269,17.76
1270,22.7835
1271,22.7854
1272,18.888
1273,16.6039
1274,16.6053
1275,16.9024
1276,16.9036
1277,16.9046
1278,18.3528
1279,22.6492
1280,23.0903
1281,23.0908
1282,20.8333
1283,18.2527
1284,12.1746
1285,5.37759
1286,2.6135
1287,2.61349
1288,8.56406
1289,12.0208
1290,12.0205
1291,12.0202
1292,13.7031
1293,13.7026
1294,11.7031
1295,7.89172
1296,7.89104
1297,7.89029
1298,7.16456
1299,7.16369
1300,7.47907
1301,7.47809
1302,5.16525
1303,5.16417
1304,6.02673
1305,6.02555
1306,4.01167
1307,1.83359
1308,1.83228
1309,4.28521
1310,4.53428
1311,4.53285
1312,9.00306
1313,9.00157
1314,5.57385
1315,4.16577
1316,4.16417
1317,7.53551
1318,8.67834
1319,8.67666
1320,8.34595
1321,7.21078
1322,4.78442
1323,4.78263
1324,7.031
1325,10.2936
1326,16.3515
1327,19.1161
1328,19.1141
1329,17.0241
1330,14.0616
1331,12.3667
1332,12.0305
1333,12.0285
1334,9.19858
1335,6.65582
1336,4.84854
1337,4.60737
1338,3.90233
1339,3.8121
1340,-0.16297
1341,-0.165248
1342,2.27217
1343,5.50961
1344,8.88379
1345,8.88139
1346,1.33185
1347,1.3294
1348,10.393
1349,10.7802
1350,10.7777
1351,10.7751
1352,11.0089
1353,11.7783
1354,13.3779
1355,13.3753
1356,12.0574
1357,9.24506
1358,5.95329
1359,5.95067
1360,7.95141
1361,7.94878
1362,3.90884
1363,3.90619
1364,7.10836
1365,9.21369
1366,9.50244
1367,9.49977
1368,7.38606
1369,7.38338
1370,11.4587
1371,11.456
1372,9.60981
1373,4.46638
1374,-0.158702
1375,-0.16142
1376,0.992009
1377,5.10777
1378,10.5671
1379,15.0779
1380,17.4029
1381,18.7307
1382,18.728
1383,14.2338
1384,8.34337
1385,8.3407
1386,8.33804
1387,5.29108
1388,5.28845
1389,6.06027
1390,9.0072
1391,14.3117
1392,15.5018
1393,15.4992
1394,11.5933
1395,5.23823
1396,5.23579
1397,12.9804
1398,12.978
1399,5.81068
1400,5.80834
1401,9.1428
1402,11.9467
1403,11.9444
1404,10.1769
1405,8.43583
1406,8.43365
1407,13.8663
1408,14.9666
1409,14.9645
1410,7.95978
1411,2.29299
1412,2.29096
1413,9.18112
1414,9.91247
1415,11.2102
1416,12.1054
1417,12.1035
1418,8.06986
1419,7.43823
1420,7.43633
1421,13.7103
1422,13.7084
1423,13.1292
1424,11.502
1425,10.5998
1426,10.5191
1427,10.5172
1428,3.57858
1429,3.57667
1430,6.40213
1431,10.5899
1432,11.7115
1433,11.7095
1434,9.29415
1435,9.29213
1436,16.6478
1437,20.6501
1438,20.648
1439,15.0316
1440,13.927
1441,13.9248
1442,17.6701
1443,18.8755
1444,19.3793
1445,19.3767
1446,17.1142
1447,17.1116
1448,17.8317
1449,21.9682
1450,21.9653
1451,19.8647
1452,19.1535
1453,19.1503
1454,21.1994
1455,25.8969
1456,25.8933
1457,20.694
1458,20.6901
1459,24.3231
1460,24.3189
1461,22.233
1462,17.6947
1463,14.9691
1464,12.9381
1465,12.0954
1466,12.0901
1467,11.1868
1468,10.52
1469,8.87362
1470,8.86731
1471,8.86073
1472,8.70257
1473,4.62467
1474,4.61725
1475,9.37928
1476,9.86153
1477,9.85318
1478,6.81983
1479,-0.988458
1480,-0.997824
1481,-0.0916507
1482,6.42481
1483,9.82752
1484,9.85481
1485,9.8058
1486,8.73246
1487,8.72085
1488,9.27385
1489,9.26169
1490,4.40335
1491,4.39069
1492,15.8281
1493,15.815
1494,9.06812
1495,7.03297
1496,4.71396
1497,4.7
1498,4.86938
1499,6.14885
1500,8.37092
1501,8.35629
1502,7.54405
1503,5.7966
1504,5.78155
1505,8.90737
1506,8.89208
1507,3.29847
1508,3.28299
1509,3.95551
1510,7.10537
1511,10.9482
1512,13.5748
1513,13.5589
1514,13.3332
1515,12.4922
1516,8.48164
1517,8.46567
1518,8.80214
1519,15.0055
1520,16.1414
1521,16.2962
1522,16.2802
1523,15.2839
1524,14.7356
1525,14.7197
1526,17.9417
1527,18.0072
1528,18.8423
1529,19.3927
1530,19.3771
1531,15.3896
1532,12.6678
1533,11.0724
1534,11.0571
1535,12.1203
1536,18.3432
1537,21.1814
1538,21.1665
1539,17.398
1540,17.2973
1541,17.2827
1542,21.1646
1543,21.4285
1544,21.4144
1545,18.6697
1546,18.6558
1547,24.8311
1548,24.8175
1549,15.9263
1550,15.913
1551,15.8998
1552,14.3349
1553,8.50573
1554,8.49299
1555,13.7147
1556,13.7022
1557,9.20056
1558,9.18845
1559,9.53343
1560,10.6078
1561,13.6273
1562,20.3386
1563,20.3273
1564,14.1071
1565,9.36773
1566,9.21257
1567,9.2019
1568,15.1605
1569,15.1502
1570,12.2735
1571,12.2635
1572,18.2256
1573,18.2159
1574,11.4942
1575,11.4848
1576,13.4758
1577,22.18
1578,22.171
1579,17.5996
1580,16.5178
1581,12.4394
1582,12.431
1583,10.8556
1584,9.6337
1585,9.62578
1586,13.093
1587,13.0853
1588,6.16171
1589,6.15431
1590,14.182
1591,16.6875
1592,16.6804
1593,12.8165
1594,10.19
1595,10.1833
1596,10.4622
1597,13.9493
1598,13.9429
1599,6.94635
1600,3.61597
1601,3.60977
1602,7.94347
1603,11.1712
1604,12.2978
1605,13.0605
1606,13.6556
1607,14.1281
1608,14.1223
1609,5.99364
1610,4.99797
1611,4.87688
1612,4.30027
1613,4.29462
1614,11.7177
1615,11.7121
1616,10.3852
1617,6.91386
1618,3.85074
1619,3.84506
1620,11.6325
1621,14.0604
1622,15.6579
1623,16.8113
1624,16.8054
1625,14.5859
1626,9.14917
1627,4.75062
1628,4.74447
1629,14.4095
1630,17.2142
1631,17.2078
1632,13.1289
1633,7.53031
1634,7.52353
1635,10.4013
1636,10.3942
1637,7.05681
1638,2.63311
1639,2.62559
1640,2.82882
1641,5.67426
1642,5.66619
1643,3.79667
1644,1.79682
1645,-0.961606
1646,-0.970523
1647,3.90143
1648,16.6749
1649,18.8807
1650,18.8709
1651,18.9802
1652,19.7547
1653,19.8271
1654,21.3241
1655,24.0423
1656,24.0316
1657,14.0518
1658,6.20043
1659,0.540365
1660,0.529234
1661,9.88207
1662,17.4666
1663,17.4552
1664,9.40979
1665,9.2545
1666,9.24296
1667,13.3572
1668,16.7284
1669,16.7168
1670,16.7051
1671,18.159
1672,21.7231
1673,21.7115
1674,17.2049
1675,10.469
1676,8.20456
1677,8.193
1678,12.9284
1679,19.1348
1680,19.1233
1681,8.10584
1682,2.63022
1683,2.61898
1684,3.23295
1685,3.22187
1686,0.651194
1687,0.640285
1688,9.43281
1689,16.7819
1690,16.7713
1691,8.55998
1692,8.29131
1693,8.28105
1694,13.5736
1695,13.5636
1696,6.44235
1697,6.43263
1698,8.393
1699,17.0903
1700,17.081
1701,13.9206
1702,13.6871
1703,13.6783
1704,17.9167
1705,22.0301
1706,22.0218
1707,20.5402
1708,14.656
1709,8.09416
1710,8.08663
1711,8.28908
1712,20.0757
1713,20.0688
1714,14.9018
1715,14.8952
1716,17.1119
1717,17.1057
1718,16.2228
1719,10.0093
1720,10.0038
1721,11.3106
1722,14.2399
1723,14.235
1724,7.93864
1725,7.93417
1726,9.17401
1727,20.1374
1728,24.5834
1729,24.5797
1730,18.4982
1731,11.0009
1732,2.80684
1733,0.0234577
1734,0.0208911
1735,0.539866
1736,2.79487
1737,13.2023
1738,13.2006
1739,6.44773
1740,6.44641
1741,12.3231
1742,16.5704
1743,19.0008
1744,19.112
1745,19.1117
1746,19.1116
1747,18.8727
1748,10.3193
1749,5.69669
1750,3.27757
1751,3.27841
1752,6.83074
1753,8.06943
1754,8.93565
1755,8.9372
1756,8.84029
1757,7.6329
1758,7.63496
1759,19.11
1760,22.5785
1761,22.581
1762,18.9969
1763,14.4922
1764,7.79438
1765,6.27348
1766,6.27674
1767,9.66395
1768,11.0419
1769,14.4992
1770,20.1819
1771,20.4606
1772,20.4645
1773,17.4952
1774,17.4993
1775,17.5148
1776,17.5191
1777,17.0992
1778,10.4846
1779,5.89279
1780,5.89746
1781,13.5879
1782,15.0542
1783,15.059
1784,14.0038
1785,8.13646
1786,1.67206
1787,1.67698
1788,13.4038
1789,13.4087
1790,13.4137
1791,15.5028
1792,18.8639
1793,18.8688
1794,18.8573
1795,5.54223
1796,5.54697
1797,5.14417
1798,1.0926
1799,1.09714
1800,8.51526
1801,8.51962
1802,-0.677347
1803,-0.673203
1804,9.3485
1805,10.9581
1806,10.9619
1807,9.39426
1808,7.8824
1809,7.88594
1810,8.24888
1811,10.5931
1812,15.3293
1813,20.4372
1814,20.4404
1815,16.9485
1816,5.72989
1817,1.78338
1818,1.78631
1819,6.16088
1820,8.91591
1821,10.7678
1822,15.0386
1823,19.5661
1824,19.5687
1825,5.94467
1826,4.38238
1827,4.38497
1828,7.61632
1829,10.4216
1830,22.7794
1831,22.7819
1832,19.6055
1833,9.63773
1834,4.85762
1835,4.86008
1836,13.2129
1837,15.2954
1838,15.2978
1839,9.16756
1840,9.16998
1841,7.69087
1842,7.69329
1843,7.6957
1844,12.5358
1845,12.5382
1846,4.60369
1847,4.60611
1848,8.27565
1849,8.27806
