#wnum,raman
275,11.425
276,13.5886
277,18.6728
278,26.9698
279,26.864
280,25.5767
281,23.1773
282,19.5529
283,19.4471
284,21.2215
285,26.7385
286,26.6326
287,17.8925
288,10.2606
289,7.92382
290,7.81789
291,10.1739
292,20.5875
293,20.4815
294,17.359
295,13.2279
296,13.1218
297,24.0545
298,23.9483
299,23.7241
300,15.9135
301,10.4395
302,7.12751
303,7.02098
304,15.8733
305,16.4249
306,16.3181
307,7.3785
308,7.27153
309,11.9723
310,14.8043
311,14.697
312,12.1865
313,8.87654
314,4.63414
315,4.52632
316,7.34987
317,7.5111
318,7.40282
319,0.125682
320,-1.43452
321,-1.54332
322,1.24741
323,13.2571
324,18.1292
325,18.0198
326,11.8097
327,11.7002
328,14.1056
329,17.4253
330,17.3158
331,16.3113
332,15.3142
333,15.2048
334,15.9797
335,16.4843
336,17.4289
337,17.6613
338,23.3798
339,23.2713
340,14.8627
341,1.97211
342,1.86436
343,11.5837
344,19.9506
345,23.7235
346,26.0057
347,32.9264
348,38.3506
349,38.2452
350,19.0569
351,5.02817
352,4.92411
353,10.0796
354,13.8885
355,15.1732
356,15.0794
357,15.6875
358,18.4658
359,23.5598
360,27.8596
361,30.0044
362,30.9209
363,34.4229
364,34.3808
365,34.2842
366,33.579
367,25.4577
368,14.4025
369,4.1321
370,4.03911
371,4.28273
372,19.9397
373,19.849
374,19.0709
375,9.96822
376,9.88
377,13.2307
378,17.3773
379,22.0078
380,21.9231
381,20.1985
382,14.4174
383,14.3354
384,17.2645
385,17.1844
386,10.3193
387,7.57259
388,7.49532
389,9.7743
390,11.7348
391,14.3318
392,14.2585
393,13.7142
394,10.6321
395,9.96376
396,9.89471
397,10.9691
398,17.7889
399,17.7231
400,17.5076
401,12.7167
402,12.6543
403,20.2987
404,28.719
405,28.66
406,23.0901
407,21.9185
408,21.863
409,24.4691
410,24.416
411,24.3641
412,27.1537
413,47.4011
414,59.8396
415,59.7926
416,57.3398
417,48.1557
418,30.8829
419,22.1164
420,22.0757
421,31.3371
422,46.7006
423,58.6874
424,62.5731
425,62.7743
426,66.421
427,72.2438
428,74.0127
429,75.7775
430,80.7407
431,85.6931
432,85.6676
433,85.6434
434,87.6948
435,93.1422
436,93.1217
437,85.3338
438,79.4146
439,79.3979
440,83.9571
441,83.9428
442,83.3934
443,68.3912
444,64.7477
445,64.738
446,72.8083
447,72.801
448,58.4002
449,58.395
450,63.9277
451,72.5088
452,72.5068
453,69.1263
454,63.1234
455,54.337
456,45.2719
457,45.2749
458,45.7245
459,45.7293
460,39.0571
461,28.581
462,22.6869
463,22.695
464,33.34
465,50.3424
466,50.3528
467,49.9092
468,43.1523
469,38.8413
470,34.0727
471,32.7867
472,32.5813
473,30.7074
474,26.7672
475,22.8651
476,22.8353
477,21.2592
478,18.6104
479,17.0157
480,16.7596
481,17.0514
482,18.2262
483,25.0291
484,25.2583
485,25.2773
486,19.5809
487,17.5583
488,14.8092
489,10.984
490,11.0035
491,14.2304
492,22.5276
493,32.3957
494,32.4149
495,14.5908
496,9.62812
497,9.64688
498,18.8472
499,23.955
500,26.128
501,26.1456
502,19.3801
503,13.2581
504,13.2746
505,13.6079
506,17.6494
507,17.6643
508,17.5113
509,15.94
510,15.9532
511,22.3417
512,23.8509
513,23.8619
514,22.9234
515,22.9329
516,27.0197
517,31.0246
518,37.4477
519,40.0913
520,40.0961
521,40.0999
522,41.6718
523,41.6733
524,32.0815
525,20.5964
526,10.7062
527,3.57573
528,-2.13893
529,-2.14493
530,6.03675
531,15.3675
532,15.3574
533,10.2197
534,9.2333
535,9.21908
536,14.3756
537,24.2241
538,28.9199
539,28.9002
540,23.2699
541,23.2475
542,26.4212
543,26.3962
544,26.1617
545,24.9651
546,9.48075
547,-1.47307
548,-1.50495
549,10.0816
550,14.3121
551,14.2763
552,14.2392
553,21.1603
554,26.0837
555,26.043
556,15.8131
557,8.01799
558,7.97396
559,11.5338
560,16.9573
561,16.9101
562,15.6379
563,9.457
564,9.40701
565,12.6109
566,12.5778
567,12.5252
568,7.96642
569,7.9122
570,15.8132
571,24.9668
572,35.4907
573,35.4335
574,32.2194
575,24.415
576,19.4983
577,13.3901
578,13.3299
579,24.1151
580,31.7755
581,31.8568
582,31.6514
583,23.0705
584,4.38104
585,4.31751
586,7.48757
587,7.4233
588,4.64193
589,4.57701
590,6.59692
591,19.0298
592,18.964
593,2.70412
594,2.63795
595,10.5672
596,28.557
597,38.5867
598,38.6878
599,38.6209
600,21.872
601,8.91362
602,4.49406
603,4.42702
604,6.57586
605,9.58636
606,12.6811
607,14.4172
608,14.3503
609,6.33217
610,4.93739
611,4.8709
612,9.73874
613,23.3252
614,32.592
615,32.5262
616,15.7235
617,14.4033
618,14.3383
619,19.604
620,21.3424
621,22.6854
622,24.3254
623,24.262
624,20.5352
625,20.4725
626,19.4615
627,15.2656
628,15.2042
629,15.244
630,25.1496
631,25.0896
632,20.5558
633,20.4968
634,29.7583
635,30.5661
636,30.5087
637,23.8153
638,23.7592
639,25.0183
640,24.9634
641,15.2099
642,15.1562
643,20.4278
644,31.5556
645,33.187
646,33.1359
647,25.1907
648,13.2175
649,13.1686
650,28.8254
651,43.7828
652,43.736
653,41.904
654,38.7996
655,38.7551
656,39.6429
657,46.8054
658,46.7634
659,34.4566
660,23.1675
661,20.4436
662,16.6374
663,16.5995
664,16.8718
665,16.8356
666,4.05372
667,4.01918
668,5.50691
669,17.8657
670,21.5061
671,22.9521
672,27.9824
673,36.6824
674,40.1616
675,40.1341
676,35.016
677,27.5641
678,20.4867
679,18.4832
680,18.4602
681,22.741
682,35.1433
683,35.123
684,5.40512
685,3.65095
686,3.63347
687,30.799
688,32.0564
689,32.0417
690,27.9336
691,20.8974
692,20.8855
693,37.6054
694,37.5952
695,34.8123
696,12.5984
697,12.5911
698,19.5685
699,22.2322
700,22.2276
701,16.9728
702,4.91415
703,4.91225
704,6.86355
705,22.7861
706,25.2774
707,25.2791
708,23.6789
709,21.9254
710,19.3739
711,14.7993
712,13.1286
713,13.1355
714,17.887
715,19.7075
716,19.717
717,18.535
718,12.9444
719,12.9564
720,15.2333
721,15.247
722,9.20474
723,4.01175
724,4.02788
725,21.8546
726,33.0747
727,34.8225
728,37.0554
729,40.9337
730,40.9545
731,29.5565
732,16.4441
733,16.4672
734,28.5972
735,28.6218
736,18.0167
737,10.7312
738,10.7578
739,11.8436
740,18.9721
741,20.5424
742,20.5717
743,10.741
744,6.4992
745,6.5304
746,9.9613
747,21.5143
748,21.5473
749,21.3263
750,10.5054
751,10.5401
752,12.9922
753,13.2535
754,13.2898
755,13.3266
756,15.1083
757,15.1461
758,15.1808
759,13.7792
760,12.8269
761,12.8665
762,16.419
763,23.7969
764,26.2569
765,26.2981
766,25.5381
767,22.4996
768,19.4422
769,15.0288
770,11.144
771,8.09952
772,8.1429
773,8.31099
774,16.5684
775,25.0401
776,32.6441
777,32.6886
778,19.0098
779,15.2382
780,15.2833
781,35.2021
782,44.2433
783,44.2886
784,43.176
785,26.9689
786,15.5119
787,15.5575
788,16.2635
789,16.309
790,15.907
791,10.5502
792,3.72903
793,3.77432
794,9.27486
795,13.0588
796,17.5462
797,17.591
798,7.87006
799,7.91437
800,12.0454
801,31.4709
802,31.5145
803,18.7273
804,9.86321
805,5.53461
806,5.57684
807,8.64479
808,8.68623
809,7.73536
810,7.77592
811,8.45064
812,18.4295
813,18.4686
814,8.14227
815,8.18025
816,10.6632
817,15.3556
818,15.3918
819,15.4273
820,17.7012
821,24.1539
822,34.4469
823,39.4789
824,39.5108
825,23.5305
826,21.1643
827,21.1937
828,23.5612
829,23.6696
830,24.1182
831,24.1441
832,22.0606
833,15.756
834,10.2986
835,8.59389
836,8.61461
837,14.1382
838,27.9122
839,39.2462
840,43.9603
841,43.9752
842,32.6231
843,16.0137
844,6.03125
845,-2.50165
846,-4.12829
847,-4.12124
848,9.37167
849,34.4903
850,46.0989
851,46.1011
852,39.2365
853,30.6388
854,30.6382
855,34.5589
856,49.8272
857,51.5372
858,54.3491
859,58.5706
860,75.773
861,77.3748
862,77.37
863,68.8188
864,64.385
865,64.3798
866,74.2996
867,91.5197
868,110.634
869,129.178
870,151.129
871,163.609
872,178.997
873,217.083
874,255.068
875,279.807
876,303.113
877,340.935
878,387.443
879,445.733
880,486.955
881,486.957
882,489.416
883,489.42
884,513.629
885,520.516
886,520.523
887,497.816
888,444.97
889,394.293
890,372.427
891,347.092
892,318.062
893,287.362
894,244.448
895,206.507
896,173.138
897,145.909
898,128.455
899,122.702
900,113.45
901,91.9215
902,71.1173
903,68.7976
904,68.8204
905,89.0902
906,89.1141
907,64.3592
908,38.2982
909,36.3981
910,36.4238
911,36.4498
912,17.2157
913,11.5069
914,11.5337
915,28.0205
916,35.5626
917,39.9086
918,41.8695
919,42.0379
920,42.4857
921,42.5286
922,45.1909
923,49.8063
924,49.8327
925,34.5512
926,21.4592
927,18.0616
928,16.297
929,15.2675
930,14.9226
931,14.9461
932,16.9051
933,17.7808
934,18.4132
935,19.4087
936,22.0757
937,25.2485
938,26.9931
939,27.0103
940,18.4583
941,18.4735
942,22.638
943,24.7246
944,24.7362
945,24.6055
946,23.0672
947,22.5762
948,22.5825
949,22.5874
950,15.184
951,1.54272
952,-2.29351
953,-2.29503
954,-0.993031
955,1.83302
956,7.0444
957,16.5699
958,23.6539
959,23.6422
960,17.0697
961,12.2765
962,12.2597
963,15.8992
964,15.8791
965,11.0143
966,8.03317
967,6.95775
968,5.76615
969,5.73762
970,14.3042
971,21.53
972,21.4964
973,14.8822
974,6.36319
975,6.32465
976,13.8315
977,23.8357
978,23.7922
979,16.6116
980,11.904
981,10.8007
982,7.0335
983,-0.746102
984,-1.03141
985,-1.08656
986,0.40936
987,0.350961
988,0.29098
989,2.57709
990,4.60872
991,7.5418
992,10.0503
993,12.6353
994,12.5664
995,9.34669
996,3.05721
997,2.98426
998,22.5367
999,22.4612
1000,20.3255
1001,8.979
1002,1.49737
1003,1.41701
1004,25.6084
1005,25.5258
1006,20.7285
1007,5.62335
1008,-2.04814
1009,-2.13493
1010,9.28802
1011,28.1079
1012,33.152
1013,33.0618
1014,28.7642
1015,22.9394
1016,22.8473
1017,30.377
1018,30.284
1019,19.7599
1020,13.6902
1021,13.5963
1022,16.674
1023,30.6332
1024,37.5917
1025,37.4975
1026,27.5841
1027,27.4902
1028,31.1915
1029,41.4949
1030,56.3338
1031,60.5574
1032,60.4652
1033,57.6281
1034,56.7127
1035,56.6223
1036,63.8837
1037,69.0905
1038,69.4264
1039,76.9983
1040,103.151
1041,128.909
1042,128.825
1043,124.372
1044,124.29
1045,128.728
1046,134.616
1047,145.428
1048,145.351
1049,125.94
1050,121.432
1051,121.36
1052,134.991
1053,153.39
1054,153.323
1055,144.912
1056,144.848
1057,146.07
1058,146.009
1059,132.37
1060,106.687
1061,91.6637
1062,91.1469
1063,91.0953
1064,106.238
1065,106.19
1066,87.4236
1067,83.1956
1068,82.7044
1069,55.7464
1070,55.7088
1071,69.9252
1072,96.9938
1073,96.9626
1074,90.3088
1075,76.7943
1076,61.9737
1077,61.9512
1078,67.1831
1079,75.0575
1080,83.2932
1081,83.2796
1082,83.8078
1083,98.3533
1084,141.695
1085,141.691
1086,129.963
1087,109.142
1088,108.93
1089,108.935
1090,142.166
1091,149.665
1092,149.676
1093,137.624
1094,137.641
1095,138.755
1096,152.079
1097,165.814
1098,165.84
1099,156.549
1100,147.289
1101,146.734
1102,146.769
1103,146.806
1104,143.096
1105,104.764
1106,96.5079
1107,96.5535
1108,113.054
1109,114.007
1110,114.059
1111,108.825
1112,98.7315
1113,80.1911
1114,66.5926
1115,61.2583
1116,61.3223
1117,83.1097
1118,93.6666
1119,93.7361
1120,88.4749
1121,84.1603
1122,81.2586
1123,65.0268
1124,60.1003
1125,60.1799
1126,60.2612
1127,59.0352
1128,49.125
1129,38.542
1130,31.9752
1131,32.0637
1132,32.793
1133,38.8485
1134,49.9333
1135,57.9158
1136,58.0105
1137,52.4159
1138,31.1889
1139,31.2868
1140,47.7276
1141,58.8834
1142,60.0117
1143,60.1133
1144,46.328
1145,36.0476
1146,36.1515
1147,36.256
1148,29.4834
1149,26.9047
1150,27.011
1151,40.6787
1152,40.7858
1153,29.5265
1154,29.6343
1155,37.1757
1156,38.0301
1157,38.1385
1158,35.1212
1159,28.1601
1160,28.2687
1161,30.5024
1162,35.1844
1163,35.9642
1164,36.0723
1165,33.3985
1166,29.1693
1167,29.2764
1168,27.2973
1169,26.414
1170,26.5197
1171,26.6937
1172,29.0319
1173,29.1356
1174,28.9621
1175,24.8038
1176,24.9051
1177,30.197
1178,37.3943
1179,42.1313
1180,42.2285
1181,37.8121
1182,34.668
1183,27.9019
1184,20.8836
1185,19.7142
1186,19.8035
1187,33.761
1188,33.8472
1189,22.802
1190,8.04484
1191,8.12588
1192,23.0422
1193,30.9415
1194,32.2383
1195,32.3116
1196,28.3799
1197,12.5429
1198,-5.06556
1199,-5.00094
1200,11.7897
1201,18.7154
1202,22.4804
1203,25.3441
1204,28.3906
1205,42.288
1206,42.3374
1207,33.9073
1208,2.33807
1209,2.38147
1210,22.9375
1211,23.2393
1212,27.4394
1213,27.4753
1214,39.5574
1215,43.0474
1216,43.3827
1217,52.5999
1218,52.6272
1219,36.4829
1220,20.1095
1221,16.4603
1222,16.4813
1223,16.5007
1224,16.8458
1225,26.0565
1226,58.3263
1227,61.8888
1228,61.9013
1229,46.4653
1230,26.2725
1231,26.2811
1232,37.0154
1233,50.8738
1234,57.8242
1235,59.7803
1236,59.7829
1237,58.3598
1238,53.0452
1239,46.5718
1240,40.1673
1241,34.992
1242,34.9468
1243,34.9422
1244,44.6713
1245,46.5496
1246,46.5422
1247,41.7183
1248,41.1353
1249,40.8749
1250,35.0611
1251,35.0495
1252,59.4179
1253,79.3378
1254,79.3239
1255,74.2732
1256,53.0948
1257,49.4017
1258,49.3849
1259,59.1265
1260,59.1084
1261,59.0896
1262,64.759
1263,64.739
1264,64.4082
1265,62.382
1266,62.3602
1267,63.7016
1268,68.2211
1269,73.0927
1270,88.8907
1271,92.4836
1272,92.4584
1273,83.3376
1274,83.3113
1275,85.1577
1276,86.1067
1277,86.5992
1278,101.687
1279,107.194
1280,107.164
1281,97.6515
1282,88.4321
1283,79.0304
1284,64.8869
1285,53.0098
1286,52.9771
1287,54.8567
1288,65.0611
1289,75.4739
1290,76.9105
1291,76.8748
1292,57.4758
1293,38.1235
1294,37.323
1295,37.2848
1296,37.8643
1297,43.3363
1298,44.3137
1299,45.0405
1300,54.3651
1301,54.3228
1302,51.1664
1303,39.2655
1304,29.9261
1305,22.2204
1306,22.1741
1307,24.6882
1308,35.9933
1309,45.4289
1310,45.3792
1311,41.8473
1312,22.645
1313,19.1971
1314,19.1437
1315,32.0965
1316,36.1487
1317,36.0923
1318,27.7618
1319,18.7692
1320,18.7047
1321,18.644
1322,17.7058
1323,17.6428
1324,20.0808
1325,20.0155
1326,12.376
1327,12.3082
1328,25.1127
1329,34.6559
1330,34.5843
1331,34.401
1332,33.9212
1333,33.8456
1334,24.5787
1335,20.9738
1336,18.5024
1337,18.421
1338,2.39149
1339,-4.22439
1340,-4.31037
1341,5.08597
1342,28.9098
1343,36.9718
1344,36.88
1345,25.7722
1346,14.6255
1347,14.53
1348,31.2795
1349,43.7584
1350,45.9574
1351,45.8577
1352,38.5896
1353,32.2564
1354,32.1542
1355,38.6518
1356,46.0242
1357,45.9201
1358,36.5902
1359,24.2253
1360,9.49628
1361,9.39016
1362,12.169
1363,23.3848
1364,24.4531
1365,24.3459
1366,11.791
1367,11.6836
1368,24.2635
1369,36.8298
1370,53.9585
1371,53.8512
1372,39.8378
1373,30.7969
1374,23.4552
1375,8.61497
1376,1.12191
1377,1.01645
1378,12.6048
1379,26.8549
1380,38.0375
1381,37.9342
1382,37.8316
1383,42.6861
1384,42.585
1385,36.4428
1386,22.9568
1387,7.47303
1388,7.37541
1389,21.4048
1390,36.0517
1391,46.6579
1392,46.5645
1393,39.8923
1394,26.8466
1395,26.7569
1396,29.9728
1397,42.7774
1398,47.9951
1399,49.7874
1400,58.7113
1401,58.6302
1402,47.1724
1403,24.4426
1404,24.3662
1405,51.2079
1406,66.7455
1407,66.6743
1408,59.7753
1409,55.4159
1410,48.2577
1411,36.9665
1412,28.2837
1413,28.224
1414,42.0986
1415,73.7091
1416,84.2913
1417,84.2399
1418,81.8904
1419,74.9123
1420,63.4261
1421,55.9078
1422,55.8675
1423,64.3777
1424,80.638
1425,88.7964
1426,96.3869
1427,96.3585
1428,68.3518
1429,35.0237
1430,35.0028
1431,48.2356
1432,77.6992
1433,96.6858
1434,96.6752
1435,96.6672
1436,105.384
1437,113.645
1438,113.645
1439,112.91
1440,112.915
1441,117.201
1442,117.868
1443,117.882
1444,114.498
1445,114.518
1446,166.895
1447,175.676
1448,179.474
1449,182.65
1450,193.057
1451,203.205
1452,219.159
1453,237.656
1454,237.7
1455,235.534
1456,235.011
1457,233.447
1458,222.498
1459,196.719
1460,177.169
1461,168.413
1462,165.379
1463,165.448
1464,165.519
1465,141.461
1466,141.538
1467,129.378
1468,128.589
1469,114.793
1470,114.674
1471,114.969
1472,130.103
1473,152.243
1474,152.34
1475,133.099
1476,111.358
1477,103.897
1478,104.002
1479,104.109
1480,90.8011
1481,90.9122
1482,96.1403
1483,96.2551
1484,78.929
1485,79.0474
1486,79.0273
1487,79.1491
1488,68.4769
1489,68.6019
1490,89.3579
1491,89.4858
1492,87.002
1493,86.2511
1494,79.7935
1495,79.9267
1496,78.007
1497,68.62
1498,42.0984
1499,42.2358
1500,51.1319
1501,51.2709
1502,51.4108
1503,64.2458
1504,64.387
1505,50.7952
1506,31.0007
1507,27.7024
1508,27.8454
1509,28.72
1510,37.815
1511,56.0973
1512,60.5446
1513,60.6885
1514,41.7625
1515,15.0522
1516,15.1958
1517,15.3391
1518,13.4984
1519,13.641
1520,36.6014
1521,40.9205
1522,41.0615
1523,33.6659
1524,33.8055
1525,33.9442
1526,26.3143
1527,13.5136
1528,12.965
1529,13.0997
1530,32.7095
1531,51.3372
1532,51.468
1533,39.8784
1534,23.2022
1535,23.3285
1536,28.108
1537,31.1799
1538,31.301
1539,54.1759
1540,54.2931
1541,29.9847
1542,21.0435
1543,21.1543
1544,31.9826
1545,56.552
1546,56.6558
1547,38.5544
1548,23.4021
1549,23.4981
1550,25.7905
1551,25.8809
1552,25.8006
1553,23.9138
1554,21.2996
1555,7.33485
1556,-6.2059
1557,-6.13432
1558,38.5874
1559,42.2088
1560,42.2704
1561,27.1853
1562,18.4579
1563,18.5099
1564,26.7923
1565,31.0852
1566,33.252
1567,33.4163
1568,33.3284
1569,24.7484
1570,24.7793
1571,37.2548
1572,37.28
1573,28.6357
1574,26.3285
1575,26.3454
1576,26.3597
1577,3.38614
1578,3.39508
1579,40.4633
1580,40.5804
1581,40.5817
1582,20.0634
1583,20.0598
1584,22.2397
1585,42.2707
1586,42.2599
1587,39.2057
1588,39.1902
1589,39.1726
1590,15.1033
1591,15.0812
1592,18.9513
1593,33.198
1594,38.5673
1595,43.2244
1596,60.1245
1597,60.0898
1598,51.4369
1599,51.3983
1600,52.064
1601,56.5948
1602,62.1242
1603,62.078
1604,39.5393
1605,29.6133
1606,29.5617
1607,35.723
1608,35.6678
1609,27.2044
1610,16.7599
1611,16.1832
1612,16.1213
1613,19.9565
1614,21.0044
1615,22.6927
1616,43.3789
1617,68.9836
1618,75.3325
1619,75.2598
1620,48.7294
1621,48.6537
1622,41.0272
1623,30.6126
1624,14.4648
1625,14.3834
1626,36.5105
1627,47.2388
1628,52.525
1629,52.4382
1630,44.6917
1631,37.2833
1632,21.4214
1633,5.74037
1634,5.64714
1635,49.928
1636,49.8323
1637,39.4218
1638,39.3237
1639,45.8205
1640,67.7308
1641,67.6292
1642,49.3047
1643,33.8093
1644,33.7042
1645,36.8062
1646,42.8033
1647,61.3583
1648,61.2487
1649,50.7883
1650,36.536
1651,36.4232
1652,54.7523
1653,57.3442
1654,57.2281
1655,52.1599
1656,44.4963
1657,44.377
1658,37.2496
1659,37.1283
1660,44.8061
1661,55.7624
1662,75.4347
1663,75.3092
1664,63.8457
1665,60.1772
1666,59.4083
1667,59.2786
1668,22.4155
1669,22.2836
1670,53.0233
1671,52.8894
1672,48.6877
1673,47.4921
1674,45.6404
1675,39.569
1676,39.4296
1677,40.892
1678,40.7504
1679,36.6902
1680,36.5464
1681,53.1273
1682,52.9812
1683,52.834
1684,54.589
1685,65.8778
1686,65.7271
1687,45.8554
1688,38.3762
1689,38.2219
1690,64.1077
1691,74.9133
1692,74.7553
1693,66.6003
1694,43.4628
1695,43.3009
1696,54.3868
1697,60.1421
1698,59.9762
1699,50.9196
1700,42.6012
1701,34.2604
1702,34.0889
1703,55.7634
1704,64.2223
1705,64.0464
1706,37.907
1707,19.3785
1708,19.198
1709,24.7695
1710,26.9443
1711,26.7742
1712,26.5874
1713,36.7761
1714,45.4317
1715,45.2398
1716,32.3418
1717,32.1463
1718,33.3471
1719,49.5197
1720,49.3187
1721,29.4743
1722,29.2696
1723,35.4743
1724,35.2658
1725,4.94966
1726,-2.13244
1727,-2.34702
1728,14.7541
1729,29.4498
1730,35.2993
1731,42.0148
1732,48.5858
1733,48.3592
1734,41.0633
1735,36.9387
1736,36.7063
1737,42.6928
1738,42.4566
1739,26.7619
1740,26.5219
1741,55.5542
1742,55.3105
1743,37.3983
1744,34.926
1745,34.6768
1746,45.2598
1747,57.6241
1748,66.0167
1749,65.7603
1750,37.3976
1751,37.1376
1752,44.9057
1753,44.6423
1754,44.3771
1755,54.1196
1756,53.8509
1757,35.863
1758,33.0291
1759,31.0988
1760,30.8232
1761,20.9728
1762,0.559317
1763,-1.63379
1764,-1.91626
1765,23.0834
1766,72.4274
1767,72.14
1768,33.5343
1769,7.28349
1770,4.47139
1771,4.17782
1772,23.4604
1773,50.3856
1774,50.0878
1775,37.7244
1776,37.424
1777,36.167
1778,35.8641
1779,35.56
1780,41.9636
1781,64.2825
1782,63.975
1783,59.0748
1784,45.7322
1785,44.8457
1786,40.643
1787,40.3304
1788,33.7229
1789,4.13775
1790,3.82248
1791,24.4187
1792,32.1698
1793,33.3782
1794,33.0598
1795,57.9974
1796,57.6775
1797,52.4018
1798,52.0806
1799,69.0329
1800,71.8997
1801,71.5768
1802,48.4167
1803,41.6172
1804,37.3142
1805,36.9396
1806,35.9737
1807,35.6477
1808,35.3214
1809,29.5279
1810,29.2007
1811,41.0765
1812,68.4935
1813,68.1653
1814,57.8712
1815,57.5424
1816,85.1286
1817,84.7993
1818,68.5099
1819,49.7278
1820,34.3653
1821,24.4885
1822,24.1581
1823,52.133
1824,51.8023
1825,37.2136
1826,7.26067
1827,6.92954
1828,21.669
1829,63.8029
1830,63.4715
1831,63.1399
1832,68.7622
1833,69.4931
1834,71.812
1835,74.2299
1836,73.8981
1837,54.4445
1838,50.5874
1839,50.2555
1840,49.9236
1841,29.2636
1842,28.9317
1843,35.3829
1844,43.3798
1845,44.8241
1846,44.4921
1847,41.1095
1848,33.6418
1849,27.1412
