#wnum,raman
275,8.75437
276,7.50301
277,4.45367
278,0.189298
279,-0.144182
280,-0.122102
281,0.92963
282,3.6008
283,6.28119
284,6.30328
285,5.70653
286,5.72865
287,5.75849
288,6.08728
289,7.12388
290,8.23759
291,9.1518
292,9.82207
293,9.84434
294,6.81853
295,4.86181
296,4.88417
297,8.75258
298,8.775
299,8.53383
300,6.02992
301,6.05246
302,7.20771
303,8.95195
304,12.1461
305,15.2972
306,15.9848
307,16.0076
308,14.2313
309,10.2404
310,7.7027
311,7.72566
312,8.75046
313,9.67272
314,10.5896
315,10.6127
316,10.4343
317,9.68689
318,9.71016
319,9.73347
320,9.6906
321,6.82023
322,6.23276
323,6.25623
324,8.63352
325,8.65707
326,2.60797
327,1.39957
328,1.42321
329,6.04743
330,8.8098
331,10.2919
332,10.3156
333,9.20752
334,7.115
335,4.51229
336,1.88183
337,1.9057
338,4.93789
339,4.96178
340,4.74574
341,2.16525
342,2.18917
343,7.21541
344,11.5979
345,11.7479
346,11.7718
347,9.2641
348,5.37282
349,5.39672
350,5.84183
351,8.29653
352,8.69394
353,8.71777
354,7.17572
355,3.4871
356,3.51085
357,6.01424
358,11.5688
359,11.5924
360,9.31876
361,8.35772
362,8.3812
363,8.99645
364,10.1713
365,10.2112
366,10.2345
367,6.97153
368,4.25852
369,4.28154
370,4.48793
371,7.5277
372,12.3177
373,12.3403
374,11.3347
375,9.58551
376,9.60784
377,12.543
378,12.5651
379,8.53615
380,8.1499
381,8.1716
382,11.4486
383,12.5428
384,12.5641
385,12.2844
386,11.4168
387,10.9904
388,10.5362
389,9.9704
390,9.9906
391,10.5852
392,10.605
393,5.39155
394,0.363225
395,0.382376
396,4.26289
397,7.70139
398,10.0803
399,12.7876
400,14.2068
401,15.4084
402,15.4257
403,14.3521
404,13.0876
405,11.5248
406,9.95608
407,9.10688
408,8.74802
409,8.76328
410,10.8779
411,12.8352
412,15.2651
413,16.241
414,16.2545
415,9.97395
416,6.04918
417,6.06151
418,7.45579
419,9.06696
420,10.7562
421,11.1597
422,11.1698
423,10.5931
424,4.80986
425,-0.931758
426,-0.923447
427,2.17917
428,5.33415
429,8.64275
430,12.3158
431,13.9264
432,14.9655
433,15.3721
434,15.5294
435,15.9934
436,16.0017
437,16.0051
438,15.5439
439,14.9099
440,12.7358
441,8.27209
442,3.82472
443,2.64347
444,2.64427
445,2.9825
446,5.9754
447,8.47326
448,9.46134
449,9.46046
450,8.19356
451,5.87456
452,3.49263
453,1.09268
454,0.538327
455,0.535633
456,1.68249
457,4.05618
458,6.66151
459,8.64068
460,9.87708
461,9.8728
462,8.88151
463,7.23567
464,7.23066
465,8.38932
466,8.38386
467,7.85662
468,7.52251
469,7.51642
470,8.21372
471,10.7553
472,14.2608
473,14.254
474,12.5334
475,12.5262
476,13.2053
477,15.8268
478,15.8191
479,8.33546
480,4.40994
481,4.40173
482,6.2536
483,7.37165
484,7.36299
485,6.95116
486,4.03589
487,2.22803
488,2.21884
489,2.68208
490,5.72821
491,9.31626
492,9.30658
493,6.06633
494,6.05643
495,6.15273
496,7.42626
497,7.41604
498,5.40088
499,5.03936
500,5.02886
501,5.10826
502,5.09758
503,5.02792
504,5.01706
505,5.1683
506,6.70362
507,10.2693
508,12.6119
509,12.6007
510,12.4824
511,12.471
512,12.6663
513,12.6548
514,8.17393
515,4.06944
516,1.31137
517,0.0841147
518,0.0722945
519,3.41098
520,6.6025
521,9.45543
522,9.44338
523,7.3509
524,6.60889
525,6.59669
526,13.2028
527,16.6124
528,16.6001
529,16.5656
530,9.67358
531,2.13917
532,1.39747
533,1.31517
534,1.30253
535,-0.354032
536,-0.366775
537,5.15071
538,11.9686
539,15.5827
540,17.7667
541,17.7538
542,14.7488
543,12.5914
544,10.2999
545,8.19929
546,8.18639
547,9.79276
548,10.7179
549,10.9632
550,10.9504
551,9.26378
552,7.91597
553,7.90334
554,8.68569
555,10.8628
556,14.8039
557,18.5224
558,18.8818
559,18.8696
560,17.6219
561,16.2715
562,15.4908
563,14.8728
564,14.3238
565,13.9645
566,13.953
567,14.8731
568,15.3129
569,15.3018
570,11.6063
571,8.5668
572,7.29798
573,7.28735
574,7.81113
575,9.91652
576,12.753
577,16.0845
578,18.9598
579,19.909
580,20.7538
581,20.7443
582,20.426
583,20.36
584,20.2469
585,19.5291
586,16.2661
587,13.455
588,13.4466
589,13.6923
590,16.837
591,19.8135
592,19.8057
593,13.503
594,13.4955
595,15.5776
596,17.0083
597,17.0012
598,10.2552
599,10.2484
600,10.9501
601,13.2392
602,14.8075
603,14.8014
604,10.1201
605,3.84072
606,0.135939
607,-0.400785
608,-0.406277
609,9.05893
610,16.388
611,16.383
612,16.378
613,19.3261
614,24.9649
615,24.9604
616,22.8962
617,21.4064
618,21.4025
619,21.3987
620,20.8447
621,19.8543
622,18.8002
623,17.2643
624,15.983
625,15.3544
626,15.352
627,16.2748
628,16.2728
629,15.8855
630,13.3223
631,12.8609
632,12.8597
633,13.46
634,15.6994
635,17.9465
636,21.1719
637,21.6132
638,21.6134
639,14.241
640,7.95259
641,5.08155
642,5.08257
643,6.31412
644,9.91223
645,9.91391
646,8.81799
647,7.12224
648,4.72993
649,4.73249
650,6.77135
651,10.0917
652,11.3456
653,11.349
654,11.2772
655,8.77522
656,6.76906
657,5.84683
658,5.85133
659,6.78821
660,8.33611
661,12.1469
662,14.7942
663,14.7997
664,8.02099
665,5.42852
666,5.43467
667,5.44101
668,4.71921
669,4.72594
670,5.25494
671,10.516
672,10.5232
673,6.07172
674,6.07938
675,12.1534
676,14.9956
677,15.0038
678,8.93665
679,8.94518
680,12.4957
681,15.3366
682,17.1879
683,17.1971
684,10.7189
685,7.63165
686,7.64125
687,13.0689
688,13.3859
689,13.3959
690,10.0083
691,3.24413
692,3.2545
693,5.75162
694,13.3226
695,13.3333
696,13.3441
697,13.4178
698,18.04
699,18.0511
700,14.1302
701,9.21575
702,6.04642
703,4.12103
704,4.13241
705,5.63052
706,5.64199
707,2.86876
708,2.8803
709,3.04941
710,4.55861
711,5.90036
712,7.28947
713,8.5563
714,9.09123
715,9.1028
716,6.89667
717,4.92579
718,3.46145
719,3.47289
720,4.84874
721,4.86008
722,4.2197
723,-0.213671
724,-0.202532
725,-0.113157
726,2.27007
727,7.05699
728,7.46395
729,7.47467
730,4.18604
731,4.19657
732,5.0438
733,5.05415
734,3.71199
735,2.9331
736,2.94314
737,3.31602
738,5.80135
739,8.39264
740,12.849
741,16.3343
742,16.3437
743,13.25
744,10.9164
745,9.68482
746,9.69371
747,9.89659
748,10.8565
749,18.0238
750,21.9762
751,21.9844
752,13.0081
753,8.56606
754,8.5738
755,8.95478
756,10.3929
757,11.847
758,12.4421
759,12.449
760,10.3387
761,6.84112
762,6.31234
763,6.31847
764,6.32439
765,5.72833
766,5.73383
767,7.58874
768,10.1669
769,10.7451
770,10.7497
771,9.29939
772,6.77404
773,3.75525
774,0.0467996
775,0.0501066
776,5.46247
777,10.5564
778,10.5589
779,8.51944
780,8.50794
781,8.50951
782,8.51078
783,8.51426
784,8.76691
785,10.245
786,10.2449
787,9.55565
788,7.73017
789,3.23502
790,-0.847315
791,-0.849145
792,2.52338
793,5.08078
794,6.59297
795,6.58972
796,3.32722
797,3.32331
798,5.83008
799,11.3901
800,14.6603
801,15.4126
802,15.4072
803,9.51976
804,6.28454
805,6.27838
806,6.97202
807,10.0403
808,10.0334
809,8.08337
810,6.57209
811,6.56461
812,12.7799
813,12.772
814,11.5816
815,11.5734
816,15.8927
817,15.8842
818,14.3425
819,9.72267
820,8.32251
821,8.13869
822,8.12954
823,10.2751
824,10.2657
825,9.62664
826,9.61709
827,11.3643
828,11.3546
829,5.27431
830,4.65495
831,4.64506
832,10.9769
833,13.2508
834,13.2408
835,13.1165
836,8.81114
837,6.20954
838,6.14489
839,5.70714
840,2.43686
841,2.42672
842,3.20026
843,4.57294
844,4.56283
845,3.00338
846,2.99332
847,10.74
848,13.1291
849,13.1191
850,12.5132
851,12.5033
852,12.4935
853,11.8979
854,11.8883
855,14.2231
856,17.9637
857,19.5035
858,19.5369
859,21.957
860,27.8519
861,32.7346
862,34.5615
863,36.5908
864,41.8597
865,46.4768
866,49.6739
867,49.6654
868,47.6818
869,37.101
870,30.3358
871,27.2462
872,22.2254
873,14.3199
874,12.4798
875,12.472
876,12.4644
877,10.5517
878,9.78639
879,9.779
880,14.0121
881,14.0049
882,8.66708
883,5.56765
884,4.86063
885,4.8537
886,5.80577
887,5.79897
888,3.94641
889,2.61666
890,2.61004
891,3.45773
892,4.55421
893,5.92734
894,6.84788
895,7.13852
896,7.23236
897,7.34794
898,7.34163
899,5.36207
900,5.3558
901,9.55177
902,9.54553
903,8.56625
904,3.69602
905,3.68979
906,7.4015
907,7.39525
908,-0.466593
909,-0.47287
910,4.33502
911,9.00193
912,9.26157
913,10.2352
914,17.575
915,20.2191
916,20.2128
917,13.2562
918,10.0357
919,8.16687
920,5.14829
921,4.66121
922,4.65508
923,15.4326
924,20.8436
925,20.8376
926,18.4406
927,14.8374
928,11.1837
929,8.75167
930,8.74594
931,10.1187
932,15.1476
933,15.1421
934,12.189
935,12.1836
936,11.2956
937,10.6535
938,4.82605
939,4.67429
940,4.6693
941,7.72536
942,8.33189
943,9.01059
944,12.7
945,14.9715
946,14.967
947,14.9626
948,14.9599
949,19.5123
950,19.5082
951,12.3844
952,7.29137
953,6.03116
954,6.02742
955,7.50889
956,8.72232
957,9.72953
958,9.72616
959,5.73179
960,1.82525
961,1.82215
962,4.84722
963,4.84431
964,2.77422
965,2.77148
966,6.43725
967,10.1262
968,13.2415
969,13.2391
970,8.75594
971,8.65611
972,8.65395
973,12.8494
974,13.6952
975,14.7601
976,15.4033
977,15.4015
978,15.2402
979,14.971
980,14.5243
981,12.5513
982,8.71366
983,2.72943
984,2.3679
985,2.36661
986,4.98834
987,5.67628
988,5.87419
989,5.95765
990,5.87198
991,5.7018
992,5.20352
993,1.76108
994,0.259396
995,0.258443
996,6.4572
997,9.95579
998,10.1112
999,10.1103
1000,6.1974
1001,6.19649
1002,7.42867
1003,10.4538
1004,13.0643
1005,13.0633
1006,8.17705
1007,1.17036
1008,1.16933
1009,1.68681
1010,1.6857
1011,1.04209
1012,-0.133629
1013,-0.474123
1014,-0.475428
1015,2.0608
1016,4.04852
1017,5.31474
1018,5.37895
1019,5.37744
1020,5.03702
1021,5.03547
1022,5.44693
1023,7.45183
1024,7.45027
1025,5.73795
1026,5.73641
1027,8.11069
1028,14.0473
1029,14.0459
1030,12.2169
1031,8.58645
1032,3.69601
1033,1.58037
1034,1.57914
1035,2.73753
1036,5.20199
1037,5.20095
1038,0.219553
1039,0.218679
1040,1.82794
1041,4.98794
1042,4.98735
1043,3.74343
1044,2.08755
1045,2.08727
1046,5.27778
1047,10.4731
1048,10.4731
1049,10.7989
1050,12.4306
1051,12.6072
1052,12.6078
1053,3.89565
1054,3.89658
1055,8.95886
1056,11.4656
1057,11.467
1058,9.07313
1059,4.03031
1060,4.03223
1061,9.45087
1062,16.5928
1063,18.4796
1064,18.4822
1065,15.9937
1066,12.4796
1067,12.4828
1068,13.3326
1069,13.3363
1070,12.2476
1071,12.2516
1072,14.9681
1073,14.9726
1074,13.8671
1075,11.9121
1076,10.0759
1077,8.99251
1078,8.99802
1079,10.4212
1080,12.8933
1081,12.8995
1082,11.4477
1083,9.72457
1084,9.5565
1085,9.43921
1086,8.47902
1087,7.49066
1088,2.47378
1089,2.48173
1090,4.13073
1091,11.629
1092,16.0832
1093,16.092
1094,14.8077
1095,12.3274
1096,12.3369
1097,21.3632
1098,21.3731
1099,17.9428
1100,17.9532
1101,27.2799
1102,27.2908
1103,24.1041
1104,24.1153
1105,27.2379
1106,31.7517
1107,35.9777
1108,41.2574
1109,46.7273
1110,48.658
1111,48.6706
1112,45.9643
1113,44.1579
1114,43.9719
1115,43.3511
1116,42.975
1117,36.6226
1118,30.7131
1119,28.3387
1120,26.1917
1121,22.9911
1122,20.1399
1123,19.8796
1124,19.6965
1125,17.7089
1126,14.3196
1127,10.3137
1128,5.70293
1129,5.71771
1130,10.105
1131,11.9282
1132,11.9431
1133,10.6558
1134,7.70366
1135,7.71847
1136,10.3326
1137,13.065
1138,14.7886
1139,14.8033
1140,8.21485
1141,8.22931
1142,8.93753
1143,15.1421
1144,15.1957
1145,15.1702
1146,12.7471
1147,10.1247
1148,9.54464
1149,9.55799
1150,10.9821
1151,11.5
1152,11.5128
1153,7.52427
1154,3.01041
1155,-0.477126
1156,-0.46539
1157,3.65122
1158,6.50962
1159,8.7564
1160,10.7808
1161,11.5664
1162,11.5765
1163,11.5862
1164,12.9408
1165,17.6954
1166,22.0034
1167,24.7662
1168,24.7743
1169,22.7958
1170,20.4745
1171,17.5701
1172,15.3816
1173,14.8881
1174,14.3863
1175,14.3921
1176,15.2921
1177,20.8212
1178,20.8258
1179,15.7429
1180,14.0489
1181,14.0524
1182,15.8709
1183,15.8736
1184,15.8758
1185,15.9928
1186,17.2838
1187,17.2847
1188,14.4305
1189,9.0216
1190,5.54362
1191,5.54266
1192,7.76668
1193,7.76473
1194,7.76228
1195,8.50301
1196,8.49953
1197,7.41972
1198,-1.15825
1199,-1.16336
1200,3.18095
1201,8.62019
1202,13.2466
1203,13.2394
1204,7.45515
1205,7.44695
1206,7.44561
1207,7.98503
1208,7.99307
1209,10.2514
1210,14.0088
1211,13.998
1212,8.86908
1213,4.47812
1214,4.39032
1215,4.37807
1216,16.3903
1217,16.3774
1218,5.81293
1219,5.61934
1220,5.60555
1221,7.56258
1222,8.5587
1223,8.54412
1224,14.2633
1225,16.0597
1226,16.0445
1227,16.029
1228,17.7168
1229,19.0484
1230,19.0324
1231,18.2573
1232,13.8807
1233,13.8643
1234,14.7246
1235,18.4221
1236,22.1173
1237,22.1004
1238,20.496
1239,17.924
1240,17.9069
1241,17.8898
1242,14.6127
1243,14.3557
1244,14.3384
1245,17.289
1246,18.8059
1247,18.7886
1248,16.6223
1249,13.0001
1250,5.38315
1251,3.29345
1252,3.27624
1253,8.56705
1254,14.6392
1255,18.2378
1256,18.2208
1257,15.8816
1258,10.2577
1259,10.2409
1260,13.6232
1261,23.3276
1262,26.8054
1263,26.789
1264,24.3554
1265,20.7822
1266,20.7661
1267,22.182
1268,22.1662
1269,20.1236
1270,17.7614
1271,17.746
1272,17.7333
1273,17.7183
1274,14.1628
1275,13.3499
1276,13.3354
1277,18.5395
1278,18.5252
1279,14.9473
1280,14.9334
1281,15.5699
1282,17.2637
1283,19.2008
1284,19.5782
1285,19.5653
1286,18.7951
1287,18.7826
1288,19.0407
1289,20.6547
1290,20.6427
1291,20.3813
1292,19.5204
1293,18.5258
1294,16.5773
1295,14.3074
1296,6.55012
1297,5.33891
1298,5.32847
1299,9.0358
1300,9.02575
1301,8.98996
1302,8.98029
1303,8.97081
1304,8.26161
1305,4.44852
1306,4.43961
1307,4.43088
1308,3.77368
1309,3.76532
1310,4.68762
1311,8.39003
1312,8.38222
1313,6.56886
1314,6.56141
1315,10.2484
1316,17.2391
1317,21.2661
1318,21.2593
1319,18.0001
1320,11.5945
1321,11.5882
1322,14.9609
1323,23.9976
1324,26.6132
1325,29.3157
1326,29.541
1327,30.9299
1328,44.5152
1329,55.8937
1330,55.8887
1331,55.8839
1332,60.4273
1333,65.9744
1334,73.4418
1335,77.1858
1336,77.1815
1337,74.7111
1338,68.6547
1339,62.5282
1340,56.5939
1341,49.7325
1342,40.6337
1343,40.6298
1344,41.0356
1345,41.0316
1346,33.0494
1347,25.6084
1348,23.766
1349,22.4
1350,21.9179
1351,19.437
1352,13.1583
1353,6.27274
1354,-1.15452
1355,-1.15946
1356,11.7523
1357,11.747
1358,11.1838
1359,5.65717
1360,1.79519
1361,1.78928
1362,11.896
1363,12.7374
1364,12.7311
1365,9.94798
1366,9.94144
1367,10.3978
1368,12.3554
1369,12.3486
1370,0.141524
1371,0.134511
1372,9.80616
1373,9.799
1374,5.95716
1375,5.94986
1376,9.2964
1377,10.5878
1378,11.2752
1379,14.0089
1380,14.0013
1381,13.2132
1382,9.37734
1383,9.3697
1384,9.36205
1385,7.67554
1386,5.29556
1387,5.28786
1388,7.28837
1389,8.19773
1390,9.46219
1391,11.1764
1392,11.1687
1393,7.32421
1394,7.31655
1395,9.00876
1396,14.1116
1397,20.051
1398,20.0435
1399,5.29052
1400,0.487266
1401,0.479805
1402,5.26466
1403,11.0511
1404,16.139
1405,19.3319
1406,19.3246
1407,18.8065
1408,17.9969
1409,17.2875
1410,15.5626
1411,15.5557
1412,17.7999
1413,24.9683
1414,24.9615
1415,20.6833
1416,11.5458
1417,3.57285
1418,3.5663
1419,5.23625
1420,5.22983
1421,5.22346
1422,13.0588
1423,21.8006
1424,21.7944
1425,11.8913
1426,11.8853
1427,11.8793
1428,6.98324
1429,6.97734
1430,9.47361
1431,13.9832
1432,13.9774
1433,12.3558
1434,10.3579
1435,10.3523
1436,15.804
1437,15.7985
1438,14.8277
1439,12.516
1440,12.1045
1441,8.9752
1442,2.1852
1443,2.17989
1444,5.40941
1445,8.84124
1446,11.5775
1447,13.3167
1448,14.4699
1449,18.955
1450,18.9498
1451,17.5084
1452,11.5405
1453,11.5353
1454,14.6403
1455,14.635
1456,11.6674
1457,8.40341
1458,7.7608
1459,7.75547
1460,9.3716
1461,12.2738
1462,12.2684
1463,12.4425
1464,12.437
1465,18.322
1466,20.7459
1467,20.7402
1468,17.8571
1469,12.6451
1470,6.21505
1471,5.20988
1472,5.20365
1473,17.2964
1474,17.2899
1475,15.8558
1476,15.8491
1477,15.8423
1478,7.55364
1479,0.312005
1480,0.304708
1481,3.06782
1482,10.0653
1483,10.0575
1484,6.67691
1485,3.537
1486,3.52859
1487,6.29512
1488,10.0985
1489,14.7671
1490,19.6087
1491,19.5992
1492,6.94882
1493,5.73364
1494,5.72331
1495,7.30725
1496,7.29636
1497,7.08444
1498,3.8832
1499,3.8714
1500,3.79216
1501,-0.123598
1502,-0.13639
1503,1.1185
1504,4.6664
1505,4.65254
1506,3.42629
1507,1.04613
1508,1.03116
1509,1.15615
1510,4.4264
1511,10.5499
1512,16.2291
1513,18.4529
1514,18.4355
1515,10.3565
1516,6.03252
1517,6.00597
1518,5.98683
1519,8.57265
1520,11.4036
1521,11.3831
1522,7.04174
1523,0.262544
1524,-1.25437
1525,-1.27685
1526,11.056
1527,16.1607
1528,16.1368
1529,14.022
1530,13.9321
1531,13.9069
1532,12.9715
1533,8.64412
1534,7.61835
1535,7.59165
1536,13.0616
1537,13.0343
1538,6.66034
1539,1.56306
1540,1.53488
1541,6.37722
1542,6.34855
1543,5.36713
1544,4.38388
1545,4.3546
1546,6.40194
1547,7.55694
1548,10.748
1549,15.4923
1550,18.0092
1551,17.9791
1552,16.9236
1553,14.6893
1554,10.1548
1555,10.1245
1556,10.4498
1557,10.4194
1558,9.9175
1559,9.88719
1560,11.184
1561,11.1537
1562,10.9678
1563,9.53182
1564,6.40789
1565,5.27908
1566,5.2493
1567,11.5359
1568,18.838
1569,18.8086
1570,14.4435
1571,14.4145
1572,14.3857
1573,3.35172
1574,3.32334
1575,17.6716
1576,28.8863
1577,28.8587
1578,22.7976
1579,14.0146
1580,11.1016
1581,11.075
1582,19.2665
1583,31.4373
1584,31.4117
1585,28.8248
1586,22.2493
1587,22.2248
1588,29.1661
1589,38.4409
1590,38.4175
1591,38.3946
1592,37.5199
1593,36.4637
1594,26.4983
1595,21.3956
1596,20.4185
1597,20.1173
1598,20.0974
1599,21.1472
1600,21.1282
1601,17.7189
1602,17.7008
1603,18.3991
1604,18.382
1605,16.8052
1606,16.0781
1607,16.0625
1608,16.0474
1609,13.6764
1610,9.58751
1611,9.57396
1612,9.68784
1613,14.214
1614,14.2021
1615,9.04858
1616,9.03769
1617,9.02734
1618,3.94487
1619,3.93562
1620,6.33729
1621,11.6442
1622,15.1313
1623,15.1243
1624,13.9808
1625,13.9749
1626,13.9696
1627,12.554
1628,12.5498
1629,12.8574
1630,13.3336
1631,13.3311
1632,11.7708
1633,11.7696
1634,11.7689
1635,10.8541
1636,10.8545
1637,19.0422
1638,19.0439
1639,13.078
1640,8.13942
1641,8.14285
1642,9.53088
1643,9.53549
1644,1.85331
1645,1.85912
1646,11.4435
1647,16.7087
1648,16.7163
1649,15.2266
1650,12.8928
1651,3.90014
1652,2.48061
1653,2.49117
1654,11.0619
1655,11.0736
1656,8.83756
1657,2.97033
1658,2.98384
1659,21.092
1660,21.1067
1661,14.8849
1662,14.9008
1663,14.7796
1664,15.2307
1665,15.9164
1666,24.6918
1667,24.7105
1668,19.1163
1669,11.8127
1670,11.4468
1671,11.4678
1672,18.3653
1673,21.7911
1674,21.8138
1675,7.61252
1676,7.63633
1677,9.61382
1678,11.3142
1679,11.3396
1680,6.60155
1681,6.62803
1682,9.37422
1683,13.168
1684,13.196
1685,10.2037
1686,6.33964
1687,6.3692
1688,6.59086
1689,8.58976
1690,9.1784
1691,10.0009
1692,14.5921
1693,24.5951
1694,36.291
1695,36.3244
1696,28.4351
1697,16.1385
1698,9.6155
1699,9.65064
1700,13.6339
1701,17.3744
1702,17.4108
1703,9.41327
1704,9.45046
1705,12.5493
1706,19.3634
1707,19.4018
1708,9.44476
1709,8.6625
1710,8.70189
1711,8.74162
1712,3.72099
1713,3.76137
1714,13.0033
1715,13.0443
1716,9.88317
1717,7.79655
1718,6.59712
1719,6.63924
1720,7.01372
1721,7.27481
1722,11.8401
1723,19.6309
1724,19.6743
1725,14.7483
1726,14.792
1727,20.9422
1728,20.9863
1729,18.1747
1730,6.96348
1731,7.00807
1732,7.08888
1733,7.13374
1734,0.766707
1735,0.811786
1736,7.96312
1737,14.8695
1738,14.9148
1739,13.0791
1740,13.1245
1741,20.7531
1742,20.7986
1743,7.67956
1744,7.72508
1745,12.804
1746,12.8495
1747,12.8949
1748,15.7764
1749,15.8218
1750,5.85977
1751,5.90495
1752,18.7859
1753,24.6667
1754,27.8398
1755,27.8845
1756,26.6209
1757,16.0393
1758,12.3427
1759,12.3867
1760,16.196
1761,16.3427
1762,16.386
1763,16.005
1764,16.0478
1765,16.0903
1766,9.88235
1767,9.44264
1768,9.48418
1769,9.52536
1770,4.26415
1771,4.30458
1772,6.93206
1773,6.97167
1774,4.27453
1775,-1.08467
1776,-1.0464
1777,10.7476
1778,10.7849
1779,-0.422574
1780,-0.386158
1781,6.43578
1782,15.6871
1783,15.7222
1784,9.44959
1785,5.20736
1786,5.24127
1787,10.7084
1788,17.1948
1789,21.7438
1790,21.7763
1791,17.6473
1792,17.6791
1793,19.6705
1794,19.7018
1795,17.8996
1796,17.9303
1797,18.722
1798,21.5356
1799,23.214
1800,23.2437
1801,18.4636
1802,7.99665
1803,8.02575
1804,16.924
1805,27.4787
1806,41.1768
1807,41.2052
1808,36.329
1809,19.971
1810,19.9989
1811,20.516
1812,22.5498
1813,22.5774
1814,17.0169
1815,17.0442
1816,18.1413
1817,19.512
1818,19.539
1819,16.5
1820,12.9136
1821,12.4992
1822,12.5259
1823,19.6651
1824,26.5823
1825,29.5488
1826,29.5753
1827,15.1936
1828,15.2201
1829,18.0353
1830,26.6304
1831,26.6567
1832,19.8752
1833,9.83691
1834,9.86318
1835,12.3338
1836,18.8633
1837,18.8895
1838,15.47
1839,15.4962
1840,20.9598
1841,22.8969
1842,23.9321
1843,23.9583
1844,21.4487
1845,17.74
1846,12.7048
1847,8.52838
1848,7.49196
1849,7.51813
