#wnum,raman
275,4.87506
276,7.52806
277,7.44864
278,7.81382
279,7.7344
280,2.37628
281,2.29686
282,8.11198
283,17.4079
284,26.7567
285,36.371
286,39.7971
287,39.7176
288,37.0104
289,25.4671
290,13.3233
291,13.2438
292,21.6874
293,35.5282
294,35.4487
295,32.4862
296,21.7891
297,7.56389
298,-0.540527
299,-0.620241
300,3.81537
301,11.6988
302,22.1214
303,32.5949
304,38.8133
305,39.4491
306,39.3692
307,38.1652
308,38.0853
309,41.4937
310,42.0159
311,41.936
312,40.5622
313,39.8959
314,39.8162
315,40.2589
316,53.4965
317,57.2369
318,57.1574
319,44.4496
320,44.3701
321,73.3839
322,100.18
323,100.101
324,96.2705
325,96.1912
326,97.1382
327,102.999
328,114.501
329,136.881
330,156.036
331,155.956
332,153.935
333,139.917
334,139.621
335,137.047
336,131.25
337,110.493
338,82.214
339,80.931
340,80.8509
341,80.7705
342,72.3768
343,59.21
344,59.129
345,65.361
346,68.7931
347,68.7111
348,58.257
349,48.9477
350,36.0544
351,29.3586
352,29.2744
353,42.587
354,42.5017
355,36.6977
356,36.6112
357,37.6865
358,53.6831
359,55.4307
360,55.3414
361,47.0104
362,29.1851
363,16.6092
364,16.5166
365,23.8964
366,26.7263
367,26.7986
368,26.7021
369,11.9717
370,-4.82837
371,-4.92815
372,20.0559
373,36.25
374,38.0272
375,44.3147
376,64.6451
377,82.0496
378,81.9432
379,71.8196
380,64.5834
381,60.5537
382,60.4448
383,70.4775
384,95.1243
385,123.189
386,132.528
387,135.65
388,139.11
389,156.773
390,176.874
391,188.79
392,188.679
393,186.393
394,169.668
395,152.54
396,141.294
397,136.062
398,131.825
399,111.38
400,92.2664
401,85.2259
402,84.9925
403,77.7732
404,64.0153
405,53.3627
406,47.3226
407,47.2151
408,63.5073
409,65.0912
410,64.9853
411,49.1963
412,45.0125
413,39.6206
414,34.4339
415,32.7478
416,31.283
417,26.2815
418,26.1807
419,33.6791
420,45.4151
421,45.3165
422,42.7997
423,27.1051
424,24.399
425,24.3036
426,38.8185
427,58.1221
428,58.0294
429,51.3573
430,43.5357
431,43.4458
432,47.9593
433,47.8713
434,41.2656
435,41.1797
436,41.8709
437,41.8797
438,45.4005
439,45.3187
440,41.7881
441,20.0128
442,19.9342
443,29.114
444,57.3461
445,70.8021
446,70.728
447,65.7504
448,56.1098
449,50.5412
450,50.4717
451,50.0281
452,49.961
453,42.168
454,38.3529
455,38.2893
456,50.2343
457,64.5135
458,77.6229
459,77.5641
460,74.3986
461,74.3422
462,92.0663
463,109.2
464,115.517
465,115.466
466,101.435
467,83.8819
468,75.0789
469,75.032
470,74.9864
471,73.1036
472,57.0237
473,46.1478
474,45.573
475,46.0668
476,47.7914
477,52.1899
478,52.1533
479,46.9877
480,36.5509
481,36.5174
482,38.5098
483,38.4784
484,31.0572
485,24.3547
486,23.2794
487,23.252
488,34.5297
489,46.4931
490,49.0844
491,49.2453
492,50.0638
493,50.0418
494,44.8244
495,43.8752
496,43.8557
497,46.8184
498,50.6275
499,59.7476
500,76.6534
501,76.6376
502,75.5273
503,69.6952
504,66.3746
505,66.3613
506,69.2694
507,80.4086
508,83.79
509,83.7788
510,83.5416
511,75.8596
512,63.9946
513,49.9498
514,47.6777
515,45.064
516,45.0555
517,37.1543
518,23.8247
519,14.612
520,14.6043
521,29.543
522,29.9034
523,29.896
524,17.4779
525,17.4705
526,20.581
527,23.6398
528,32.0478
529,32.0398
530,30.7486
531,30.7402
532,34.0563
533,41.2673
534,41.258
535,41.2483
536,38.8955
537,30.7139
538,27.2244
539,27.2127
540,39.6138
541,44.9267
542,52.783
543,52.7688
544,38.7975
545,9.88892
546,9.87233
547,14.8942
548,21.0837
549,25.9512
550,36.174
551,36.1526
552,36.9056
553,37.7222
554,44.3007
555,44.2746
556,32.6966
557,23.6669
558,10.4733
559,4.45496
560,4.42214
561,22.0013
562,21.9655
563,7.03553
564,6.99645
565,17.5761
566,31.8925
567,36.266
568,36.7669
569,36.7189
570,24.1938
571,24.142
572,32.3064
573,44.685
574,44.6269
575,44.2899
576,35.8004
577,22.3827
578,11.7329
579,-4.34471
580,-4.41654
581,-2.98959
582,19.1838
583,40.3815
584,60.7497
585,60.6663
586,50.2611
587,33.227
588,30.1993
589,30.1077
590,36.8992
591,43.1219
592,43.0249
593,29.5894
594,29.4891
595,35.7738
596,40.2209
597,40.116
598,40.0098
599,40.4656
600,47.6706
601,52.6937
602,71.4168
603,82.3392
604,82.2259
605,78.103
606,75.5409
607,74.65
608,65.3551
609,64.6887
610,63.9742
611,53.4513
612,42.3909
613,42.2708
614,41.9412
615,35.6135
616,9.2931
617,9.1713
618,21.9562
619,51.0273
620,66.7442
621,74.3634
622,74.2406
623,62.6985
624,62.5756
625,68.221
626,83.0687
627,108.539
628,109.99
629,109.867
630,80.4474
631,75.068
632,74.5803
633,74.4592
634,70.9585
635,70.8383
636,72.5727
637,72.4535
638,61.2681
639,49.1313
640,49.0138
641,65.426
642,84.2905
643,84.175
644,84.0604
645,107.904
646,142.605
647,142.493
648,141.049
649,140.938
650,154.71
651,178.224
652,181.862
653,181.755
654,164.954
655,140.841
656,115.974
657,90.6265
658,69.6312
659,67.2843
660,63.8098
661,43.036
662,26.598
663,26.5018
664,49.8724
665,65.8541
666,65.7612
667,63.8109
668,54.1348
669,51.0705
670,50.9821
671,56.9149
672,56.8288
673,19.1328
674,9.81821
675,9.73556
676,28.6691
677,36.7765
678,43.1089
679,43.0309
680,39.5837
681,39.508
682,42.1105
683,44.7279
684,47.6043
685,50.4928
686,52.3059
687,54.4249
688,56.9171
689,56.8507
690,52.4244
691,32.3335
692,32.2705
693,42.4703
694,54.2762
695,54.2166
696,27.2781
697,27.2207
698,35.4671
699,35.412
700,31.6395
701,31.5865
702,37.9948
703,56.3246
704,58.0787
705,59.5334
706,64.167
707,77.8183
708,77.7726
709,55.3918
710,50.104
711,50.0613
712,71.4405
713,75.3435
714,75.3037
715,74.1016
716,73.1721
717,73.1349
718,73.6408
719,73.6053
720,43.4117
721,11.4881
722,11.455
723,11.6262
724,15.5363
725,20.3262
726,20.296
727,13.3432
728,4.52446
729,-0.361826
730,-0.389459
731,12.4679
732,40.6224
733,40.5965
734,30.2344
735,30.2095
736,35.358
737,35.3342
738,32.3326
739,32.3097
740,33.904
741,63.4433
742,63.4217
743,45.6254
744,37.421
745,37.4005
746,37.3804
747,23.8005
748,11.9426
749,11.9233
750,20.3186
751,20.6644
752,20.6458
753,18.2898
754,17.1632
755,16.7398
756,16.5409
757,16.0098
758,13.5925
759,11.6805
760,4.20486
761,4.18716
762,9.08183
763,54.4851
764,54.4673
765,34.4467
766,11.1022
767,11.084
768,28.0756
769,28.0571
770,18.0079
771,7.58911
772,-3.78202
773,-3.80147
774,0.0159006
775,9.20912
776,9.27086
777,9.25062
778,9.23032
779,10.5512
780,12.0633
781,14.6636
782,16.2249
783,16.205
784,16.1853
785,33.8636
786,54.9385
787,57.6892
788,60.0594
789,60.5708
790,62.1694
791,78.62
792,117.582
793,150.801
794,167.76
795,183.227
796,186.105
797,186.093
798,179.754
799,169.885
800,163.788
801,163.758
802,157.936
803,138.948
804,122.942
805,120.179
806,116.494
807,96.3336
808,74.7702
809,74.77
810,74.7386
811,73.4455
812,51.8285
813,47.2095
814,46.4495
815,46.4567
816,41.0439
817,36.4459
818,33.1711
819,33.1835
820,37.5403
821,55.2982
822,62.5695
823,62.5874
824,57.3509
825,49.2652
826,49.2873
827,53.7833
828,61.5529
829,65.1935
830,67.1573
831,69.4368
832,78.1273
833,81.5017
834,81.5355
835,74.7858
836,61.3807
837,61.4191
838,61.7033
839,72.6189
840,76.3732
841,77.5385
842,77.5844
843,77.2276
844,74.6869
845,74.7375
846,77.3768
847,80.5091
848,85.3741
849,120.989
850,155.13
851,177.083
852,201.002
853,220.429
854,242.594
855,295.866
856,354.553
857,386.162
858,396.284
859,396.355
860,350.744
861,303.873
862,262.234
863,218.539
864,178.461
865,142.205
866,118.989
867,108.327
868,96.1878
869,95.7354
870,95.8188
871,111.164
872,111.249
873,83.0397
874,55.4326
875,44.7198
876,41.5287
877,41.6168
878,50.1209
879,50.2097
880,39.4634
881,39.5529
882,36.2619
883,35.5733
884,14.2421
885,4.6623
886,4.75208
887,4.84173
888,-2.39541
889,-2.30618
890,1.75674
891,15.5045
892,20.1251
893,25.8127
894,25.9003
895,25.9877
896,27.328
897,27.4146
898,28.0281
899,28.1138
900,38.1743
901,38.2591
902,32.7065
903,15.3384
904,15.4217
905,22.584
906,37.6567
907,37.7384
908,36.6211
909,34.0101
910,24.0583
911,24.1375
912,28.9948
913,47.1122
914,52.0721
915,52.1485
916,37.1448
917,37.2196
918,55.4826
919,60.4942
920,60.5666
921,-2.78375
922,-2.71314
923,4.65517
924,30.2318
925,30.2998
926,11.263
927,3.94949
928,4.01515
929,20.4931
930,31.1282
931,38.2058
932,50.7671
933,54.3883
934,54.45
935,38.9387
936,4.11577
937,4.17595
938,32.2236
939,32.2829
940,32.0655
941,32.1239
942,36.2455
943,44.1672
944,44.2246
945,29.4183
946,29.4751
947,34.516
948,58.2203
949,82.4336
950,82.4895
951,49.5753
952,17.9709
953,18.0264
954,19.3715
955,28.7699
956,28.8251
957,19.5481
958,19.6032
959,25.0027
960,36.3969
961,49.1218
962,59.7586
963,61.1884
964,66.5559
965,78.1578
966,92.7679
967,110.564
968,120.99
969,121.046
970,85.3519
971,61.4839
972,61.5403
973,61.5968
974,56.3801
975,46.0016
976,46.0588
977,47.4261
978,47.4837
979,30.4199
980,30.4779
981,37.2143
982,37.2728
983,20.231
984,20.29
985,38.182
986,53.1395
987,53.1992
988,40.5433
989,29.6405
990,18.9174
991,18.9781
992,21.344
993,23.7481
994,23.8096
995,20.7651
996,0.658412
997,0.720675
998,21.5149
999,40.159
1000,51.2276
1001,51.2909
1002,40.1337
1003,32.5865
1004,32.6505
1005,40.5748
1006,40.6393
1007,37.9112
1008,28.0626
1009,28.1278
1010,27.307
1011,23.6747
1012,23.7406
1013,32.8285
1014,32.8948
1015,33.2404
1016,37.94
1017,60.2049
1018,60.272
1019,28.9511
1020,18.0949
1021,18.1624
1022,25.2248
1023,30.0132
1024,47.4452
1025,63.1312
1026,63.1994
1027,56.5419
1028,54.1517
1029,52.6079
1030,52.6764
1031,44.7318
1032,36.4895
1033,36.5581
1034,51.851
1035,62.9331
1036,63.0017
1037,54.3503
1038,46.9334
1039,41.2583
1040,19.9135
1041,19.9818
1042,20.4792
1043,32.9215
1044,32.9894
1045,31.5194
1046,20.7726
1047,20.8398
1048,43.7207
1049,58.7667
1050,58.8332
1051,40.9649
1052,41.0308
1053,53.1122
1054,53.1774
1055,16.2265
1056,16.2909
1057,19.5627
1058,19.7122
1059,19.7753
1060,3.63344
1061,3.69547
1062,11.2418
1063,42.8143
1064,70.5964
1065,70.656
1066,51.732
1067,51.7904
1068,56.6857
1069,63.8265
1070,63.8827
1071,54.281
1072,26.6289
1073,8.02078
1074,3.34064
1075,3.39262
1076,18.8457
1077,31.9708
1078,32.0199
1079,30.1314
1080,7.24027
1081,7.28622
1082,44.8797
1083,44.9234
1084,32.1978
1085,20.526
1086,10.1574
1087,10.1962
1088,23.4632
1089,36.7364
1090,36.7712
1091,31.5241
1092,31.556
1093,44.8814
1094,44.9104
1095,36.3725
1096,36.3983
1097,60.7256
1098,65.9378
1099,67.5251
1100,67.6111
1101,72.1257
1102,85.4549
1103,86.1448
1104,86.1567
1105,59.1313
1106,43.7608
1107,40.0679
1108,40.0718
1109,23.3334
1110,23.3331
1111,47.1329
1112,64.2585
1113,69.9051
1114,69.8958
1115,69.2071
1116,54.9271
1117,45.0394
1118,31.7732
1119,13.1623
1120,2.71136
1121,2.6845
1122,11.3702
1123,11.3379
1124,-1.07469
1125,-1.11264
1126,14.0983
1127,21.4737
1128,22.3525
1129,27.168
1130,34.8278
1131,39.1777
1132,42.8244
1133,53.6869
1134,53.7817
1135,53.7136
1136,8.61182
1137,-5.50245
1138,-5.58011
1139,14.6782
1140,40.5883
1141,40.5013
1142,26.6214
1143,26.1121
1144,26.0164
1145,25.9179
1146,21.5326
1147,13.709
1148,13.6028
1149,28.9613
1150,28.8503
1151,7.32115
1152,7.20569
1153,11.6651
1154,11.5455
1155,11.4239
1156,22.5947
1157,45.6404
1158,54.823
1159,59.7094
1160,59.5791
1161,55.6035
1162,55.4703
1163,95.6976
1164,123.949
1165,135.702
1166,160.215
1167,202.399
1168,202.259
1169,186.872
1170,177.654
1171,175.615
1172,168.098
1173,151.262
1174,135.181
1175,108.413
1176,91.6065
1177,72.1411
1178,52.1103
1179,51.9627
1180,72.4053
1181,92.4269
1182,92.2784
1183,64.3908
1184,31.2925
1185,24.1293
1186,16.5782
1187,13.7386
1188,13.5897
1189,41.4716
1190,58.1847
1191,58.0361
1192,32.2581
1193,27.379
1194,27.2312
1195,31.7152
1196,36.9031
1197,42.9504
1198,42.8043
1199,41.9683
1200,41.4482
1201,23.4682
1202,-0.757772
1203,-0.900897
1204,11.3091
1205,11.1675
1206,14.9473
1207,21.6074
1208,48.3262
1209,48.1883
1210,52.0637
1211,52.9264
1212,92.3684
1213,92.2352
1214,84.4065
1215,67.2968
1216,67.1084
1217,62.8579
1218,58.1358
1219,58.011
1220,79.6348
1221,91.3912
1222,91.2713
1223,86.2551
1224,84.4492
1225,84.3347
1226,108.394
1227,125.453
1228,128.238
1229,141.892
1230,179.426
1231,208.994
1232,224.995
1233,249.9
1234,287.677
1235,303.671
1236,303.579
1237,298.854
1238,293.606
1239,280.533
1240,249.36
1241,223.181
1242,217.797
1243,211.156
1244,192.206
1245,173.228
1246,147.703
1247,123.911
1248,112.297
1249,112.235
1250,116.234
1251,120.397
1252,120.342
1253,109.524
1254,109.474
1255,114.908
1256,126.3
1257,126.257
1258,120.327
1259,102.216
1260,99.9397
1261,99.9055
1262,100.457
1263,100.427
1264,81.8717
1265,80.2579
1266,80.2345
1267,94.7211
1268,94.7018
1269,80.8603
1270,80.8451
1271,81.7904
1272,98.2208
1273,110.443
1274,110.435
1275,110.43
1276,127.239
1277,160.975
1278,170.503
1279,170.505
1280,155.908
1281,138.329
1282,138.336
1283,138.344
1284,124.888
1285,94.5018
1286,94.5144
1287,94.9633
1288,94.9786
1289,93.332
1290,68.4018
1291,38.2809
1292,38.3011
1293,46.2155
1294,46.2379
1295,45.01
1296,39.3695
1297,39.3947
1298,45.981
1299,46.0079
1300,23.8185
1301,-5.06046
1302,-5.03155
1303,38.1991
1304,65.6713
1305,73.0712
1306,73.1029
1307,61.5272
1308,61.5605
1309,77.714
1310,86.0902
1311,94.756
1312,105.215
1313,105.253
1314,102.277
1315,102.317
1316,131.505
1317,182.628
1318,193.557
1319,200.133
1320,250.587
1321,306.716
1322,332.38
1323,354.397
1324,360.531
1325,360.584
1326,355.369
1327,352.889
1328,320.657
1329,286.408
1330,270.295
1331,250.179
1332,231.404
1333,222.52
1334,222.586
1335,222.653
1336,172.044
1337,120.861
1338,111.34
1339,106.837
1340,106.513
1341,106.986
1342,117.354
1343,117.432
1344,99.7912
1345,74.9286
1346,74.5003
1347,74.5824
1348,97.2069
1349,97.2911
1350,74.3391
1351,64.1867
1352,64.2738
1353,64.3617
1354,55.4721
1355,55.5617
1356,73.9662
1357,104.97
1358,138.185
1359,138.277
1360,114.134
1361,93.5206
1362,87.295
1363,87.3897
1364,134.705
1365,175.456
1366,209.524
1367,209.62
1368,183.739
1369,183.836
1370,235.607
1371,235.704
1372,226.625
1373,212.457
1374,198.998
1375,173.713
1376,152.226
1377,148.902
1378,139.768
1379,139.044
1380,136.51
1381,125.821
1382,108.672
1383,81.9569
1384,70.235
1385,70.3261
1386,74.6459
1387,74.735
1388,59.0801
1389,59.1668
1390,67.2174
1391,67.3013
1392,56.9951
1393,57.076
1394,57.1553
1395,55.1942
1396,55.2699
1397,56.1531
1398,56.2248
1399,42.477
1400,38.273
1401,38.3382
1402,38.4011
1403,36.4078
1404,36.4657
1405,40.6764
1406,47.3489
1407,47.3986
1408,36.2576
1409,27.3622
1410,17.8994
1411,13.0966
1412,13.1308
1413,32.7522
1414,34.9226
1415,34.9464
1416,27.1468
1417,-7.93062
1418,-7.91807
1419,3.42322
1420,21.5966
1421,50.5794
1422,60.4481
1423,64.4137
1424,71.8935
1425,85.1617
1426,85.1451
1427,65.0775
1428,54.3774
1429,54.3508
1430,59.4537
1431,78.4812
1432,78.4452
1433,72.2382
1434,16.4839
1435,16.439
1436,44.7242
1437,81.1134
1438,81.3579
1439,81.3018
1440,60.7771
1441,60.7158
1442,87.4469
1443,87.3805
1444,85.2367
1445,85.1654
1446,88.8348
1447,88.7588
1448,66.9905
1449,66.9101
1450,74.825
1451,74.7402
1452,40.8634
1453,36.9036
1454,36.8126
1455,52.056
1456,51.9611
1457,40.8321
1458,22.3317
1459,22.2312
1460,22.129
1461,15.2493
1462,15.1436
1463,42.9725
1464,47.2757
1465,47.1651
1466,47.053
1467,49.2221
1468,60.5185
1469,60.4019
1470,60.284
1471,58.6849
1472,58.5642
1473,44.5848
1474,28.883
1475,15.0103
1476,14.8846
1477,48.8417
1478,48.7136
1479,18.8773
1480,5.31159
1481,5.1803
1482,31.1711
1483,53.0794
1484,52.9452
1485,41.4532
1486,29.0906
1487,19.8898
1488,19.7519
1489,25.7174
1490,42.5513
1491,42.411
1492,26.1059
1493,25.9642
1494,27.5906
1495,51.2665
1496,51.1229
1497,25.1932
1498,25.0484
1499,25.0314
1500,27.754
1501,27.6076
1502,27.4606
1503,51.8084
1504,55.2611
1505,55.1128
1506,48.306
1507,43.5914
1508,43.442
1509,65.4877
1510,76.5495
1511,76.3992
1512,76.2486
1513,83.2531
1514,83.102
1515,41.6964
1516,14.5109
1517,14.3592
1518,26.867
1519,26.715
1520,26.5628
1521,13.9032
1522,13.7507
1523,13.5982
1524,44.9991
1525,49.1591
1526,49.0063
1527,47.3468
1528,40.9483
1529,40.7954
1530,40.6425
1531,50.115
1532,65.8808
1533,65.7279
1534,65.5751
1535,74.1159
1536,73.9631
1537,64.9057
1538,50.1828
1539,30.3906
1540,12.5631
1541,-4.07527
1542,-4.22761
1543,5.38524
1544,16.4017
1545,20.6333
1546,20.482
1547,28.8295
1548,29.5068
1549,49.3738
1550,61.1284
1551,72.4472
1552,72.3001
1553,114.684
1554,114.539
1555,125.119
1556,151.743
1557,179.673
1558,179.533
1559,161.356
1560,161.22
1561,190.427
1562,210.128
1563,209.996
1564,208.128
1565,167.329
1566,167.203
1567,168.462
1568,168.34
1569,124.927
1570,124.074
1571,112.06
1572,111.947
1573,67.3517
1574,67.2437
1575,73.8621
1576,77.0594
1577,77.9965
1578,77.8987
1579,61.3439
1580,61.2516
1581,80.5731
1582,80.4864
1583,77.2798
1584,77.1988
1585,90.095
1586,90.0201
1587,82.5456
1588,68.085
1589,57.0971
1590,47.6967
1591,47.6375
1592,68.8816
1593,68.8288
1594,55.7869
1595,55.7409
1596,62.2817
1597,65.1198
1598,84.5003
1599,122.025
1600,153.371
1601,182.554
1602,183.224
1603,189.561
1604,196.637
1605,234.403
1606,260.635
1607,263.471
1608,292.596
1609,365.104
1610,365.112
1611,320.546
1612,320.562
1613,344.341
1614,350.102
1615,356.809
1616,356.84
1617,348.358
1618,348.397
1619,359.078
1620,359.124
1621,348.078
1622,290.862
1623,269.38
1624,240.697
1625,183.261
1626,183.33
1627,193.874
1628,193.949
1629,174.401
1630,171.933
1631,145.957
1632,146.046
1633,152.315
1634,152.41
1635,146.023
1636,146.125
1637,151.097
1638,177.3
1639,205.182
1640,209.416
1641,214.52
1642,225.878
1643,229.016
1644,236.641
1645,266.935
1646,283.789
1647,312.065
1648,320.396
1649,320.531
1650,293.99
1651,289.995
1652,290.136
1653,231.932
1654,216.4
1655,216.546
1656,227.323
1657,249.456
1658,249.606
1659,179.181
1660,149.764
1661,144.353
1662,142.089
1663,107.477
1664,107.632
1665,101.039
1666,101.195
1667,101.352
1668,114.226
1669,114.382
1670,40.5016
1671,17.4991
1672,17.1382
1673,17.2929
1674,17.447
1675,45.9256
1676,46.0779
1677,32.3261
1678,32.4761
1679,96.7436
1680,96.8908
1681,70.7157
1682,28.1807
1683,14.7539
1684,14.8939
1685,35.0606
1686,57.6301
1687,57.7633
1688,29.7251
1689,12.7466
1690,-7.07534
1691,-6.95305
1692,17.9662
1693,50.2717
1694,57.8267
1695,57.9371
1696,45.9053
1697,44.8415
1698,44.9429
1699,16.4637
1700,16.5592
1701,37.0163
1702,37.6097
1703,37.6963
1704,25.6248
1705,6.3979
1706,6.47556
1707,6.55024
1708,5.07348
1709,5.14224
1710,26.1654
1711,26.2282
1712,21.8546
1713,21.9115
1714,62.0829
1715,62.1338
1716,20.6827
1717,2.79384
1718,2.83587
1719,14.8439
1720,22.7367
1721,22.7698
1722,14.8753
1723,14.9024
1724,35.3289
1725,84.1011
1726,84.1192
1727,80.5938
1728,47.1919
1729,15.2459
1730,15.2519
1731,39.6648
1732,91.6055
1733,91.6025
1734,87.0457
1735,31.2021
1736,12.4744
1737,12.459
1738,33.0428
1739,33.0212
1740,26.4227
1741,24.3098
1742,24.2788
1743,-3.10059
1744,-3.13787
1745,23.2304
1746,35.6219
1747,35.5754
1748,14.6669
1749,14.6144
1750,62.7458
1751,62.6876
1752,34.787
1753,34.7232
1754,55.6235
1755,55.5543
1756,37.267
1757,9.01455
1758,8.93762
1759,48.9082
1760,48.8263
1761,33.5675
1762,33.4809
1763,35.5475
1764,35.4564
1765,-0.228277
1766,-0.323804
1767,15.3758
1768,77.8474
1769,77.7457
1770,49.1822
1771,33.0072
1772,32.3246
1773,17.4566
1774,17.3454
1775,18.5069
1776,27.1258
1777,32.0599
1778,40.592
1779,50.6303
1780,78.3368
1781,78.2142
1782,66.6493
1783,22.7753
1784,22.6485
1785,41.424
1786,56.5602
1787,56.4296
1788,48.2025
1789,48.0695
1790,68.2106
1791,68.0754
1792,35.7216
1793,35.5269
1794,35.3887
1795,35.2495
1796,64.0625
1797,65.0913
1798,64.9496
1799,64.807
1800,81.3056
1801,89.8888
1802,89.744
1803,82.6778
1804,82.5318
1805,84.1089
1806,83.9616
1807,59.4968
1808,38.3009
1809,38.1521
1810,53.3399
1811,71.9471
1812,71.797
1813,53.0467
1814,52.8958
1815,63.0285
1816,62.8769
1817,62.725
1818,85.7467
1819,119.132
1820,118.979
1821,84.5875
1822,84.4344
1823,94.8084
1824,100.098
1825,99.9446
1826,65.3551
1827,51.2597
1828,51.1056
1829,28.9616
1830,28.8073
1831,50.6844
1832,50.729
1833,67.6748
1834,95.453
1835,95.2984
1836,74.6076
1837,74.4529
1838,77.4919
1839,77.3372
1840,74.9705
1841,50.2388
1842,25.6488
1843,25.494
1844,36.8851
1845,53.136
1846,52.9812
1847,23.3688
1848,23.214
1849,23.0592
