#wnum,raman
275,1304.12
276,1305.71
277,1237.69
278,1169.66
279,1086.94
280,1001.2
281,929.533
282,880.274
283,831.016
284,767.29
285,702.696
286,652.897
287,617.791
288,581.994
289,535.615
290,489.236
291,456.035
292,430.842
293,402.94
294,378.271
295,353.86
296,333.732
297,314.674
298,293.197
299,266.257
300,238.978
301,224.585
302,213.486
303,197.821
304,176.326
305,154.896
306,145.294
307,134.781
308,121.963
309,107.952
310,95.5114
311,90.6491
312,85.5898
313,79.5728
314,73.4288
315,66.5409
316,57.5746
317,48.4565
318,38.6493
319,28.9467
320,30.4202
321,44.6387
322,47.9257
323,49.3787
324,40.9957
325,36.3224
326,34.1274
327,34.8378
328,36.2527
329,37.6594
330,28.2544
331,11.7622
332,4.71751
333,6.08934
334,10.0897
335,23.7438
336,38.8358
337,40.1695
338,29.6733
339,26.1691
340,27.4721
341,32.739
342,34.0205
343,26.8526
344,18.7196
345,7.692
346,8.63621
347,9.86051
348,28.2333
349,29.4332
350,15.5151
351,8.26147
352,9.42339
353,20.6826
354,21.8181
355,21.0542
356,18.133
357,15.0003
358,11.9219
359,1.31734
360,-11.6859
361,-10.6492
362,-3.83973
363,7.98977
364,9.72141
365,11.0483
366,12.3248
367,13.2731
368,12.991
369,4.6783
370,-2.82105
371,-1.93064
372,3.01406
373,8.04305
374,13.1946
375,14.3377
376,15.1576
377,11.6081
378,7.07569
379,1.70605
380,2.47138
381,11.8585
382,24.7074
383,26.6135
384,27.3258
385,24.4808
386,16.9331
387,9.29828
388,5.57935
389,3.87324
390,4.50915
391,11.6895
392,12.3007
393,7.24981
394,7.83673
395,9.36496
396,26.6429
397,27.1941
398,25.9542
399,24.9651
400,25.4815
401,32.7777
402,33.2714
403,27.7158
404,24.1052
405,24.5656
406,25.0149
407,23.6868
408,21.0269
409,17.4408
410,12.7677
411,13.1639
412,18.7281
413,26.8008
414,27.1662
415,20.1509
416,20.4962
417,23.721
418,30.3958
419,40.6573
420,51.2392
421,51.5361
422,43.5987
423,36.2431
424,35.0867
425,33.9412
426,27.6452
427,19.7452
428,19.9781
429,25.0849
430,32.3643
431,47.8883
432,60.3667
433,60.5566
434,46.9159
435,41.6573
436,41.8223
437,45.9999
438,50.4772
439,54.8264
440,58.1139
441,60.5982
442,60.716
443,56.6039
444,50.8734
445,45.3154
446,41.1732
447,41.254
448,52.5789
449,52.6454
450,49.004
451,41.0829
452,41.1286
453,57.902
454,69.3815
455,69.5185
456,69.5376
457,52.6613
458,34.1461
459,29.9509
460,29.9446
461,34.5506
462,47.5407
463,49.7533
464,49.7228
465,35.1043
466,35.0621
467,46.0553
468,46.0018
469,32.9298
470,17.6891
471,17.6191
472,30.9199
473,39.865
474,42.8913
475,45.807
476,48.3138
477,50.817
478,50.8108
479,51.0374
480,51.7895
481,55.485
482,55.3596
483,50.4243
484,42.2787
485,34.8328
486,27.6574
487,27.5095
488,35.7829
489,37.8776
490,37.7169
491,28.4234
492,28.2546
493,33.2353
494,33.0584
495,24.9115
496,24.7269
497,31.517
498,50.5876
499,50.3919
500,38.1068
501,27.5239
502,26.4382
503,25.4802
504,25.2672
505,25.3611
506,25.5509
507,25.8234
508,26.9258
509,31.6503
510,36.4114
511,44.2449
512,52.5625
513,52.3219
514,44.8221
515,38.1453
516,36.4767
517,36.2252
518,39.9494
519,40.5354
520,40.2763
521,21.3743
522,13.7517
523,13.4855
524,17.7718
525,17.501
526,12.7277
527,9.69221
528,8.54717
529,8.26803
530,14.2169
531,20.1158
532,21.5205
533,22.042
534,22.6468
535,23.3145
536,23.2222
537,22.9286
538,22.6335
539,28.4035
540,36.0718
541,35.7722
542,29.8241
543,22.1032
544,8.88778
545,2.78462
546,2.47855
547,12.3749
548,18.2845
549,20.9509
550,23.6194
551,25.8406
552,27.9711
553,32.28
554,32.8295
555,32.5147
556,21.7225
557,18.4662
558,18.1492
559,20.7393
560,20.4211
561,18.8322
562,17.6959
563,17.3763
564,19.9198
565,31.7226
566,41.2676
567,40.9466
568,38.4948
569,35.2805
570,31.5994
571,26.9932
572,21.1694
573,15.5558
574,12.9375
575,12.5844
576,12.2628
577,15.7826
578,22.9145
579,34.5937
580,44.8788
581,46.134
582,45.8136
583,44.9006
584,41.4318
585,36.5762
586,30.5868
587,23.9222
588,14.6703
589,14.3532
590,17.6701
591,32.2556
592,31.9404
593,25.3417
594,22.5573
595,22.2443
596,24.3261
597,29.5684
598,34.8108
599,35.6707
600,35.6151
601,42.6582
602,62.0161
603,61.7105
604,44.9292
605,12.8323
606,12.3487
607,12.0475
608,18.7945
609,29.029
610,37.7555
611,40.6949
612,43.6122
613,44.7534
614,44.4611
615,43.0314
616,37.9373
617,37.6493
618,45.244
619,49.6939
620,49.4103
621,45.8948
622,39.4135
623,31.9627
624,31.6854
625,41.0636
626,40.7896
627,32.2001
628,17.5026
629,15.6737
630,15.4065
631,21.553
632,32.0219
633,33.0926
634,32.8325
635,27.8013
636,25.445
637,23.0849
638,20.4478
639,20.1971
640,22.1079
641,35.2646
642,37.8513
643,37.6085
644,30.2703
645,29.0514
646,28.6145
647,26.6216
648,23.5879
649,23.2107
650,22.9823
651,24.0786
652,25.1237
653,26.1686
654,31.2045
655,37.3767
656,40.932
657,41.9241
658,42.7852
659,42.801
660,42.7145
661,54.8
662,54.5979
663,51.485
664,22.0792
665,21.884
666,25.7187
667,25.5282
668,24.7097
669,17.19
670,17.0066
671,21.5844
672,21.4057
673,12.4233
674,12.2493
675,24.3817
676,37.3178
677,43.9919
678,46.5651
679,46.4031
680,39.4356
681,31.2956
682,22.1667
683,22.0145
684,33.3758
685,39.5862
686,39.4414
687,31.765
688,25.7753
689,20.5762
690,20.4413
691,26.3058
692,26.7466
693,26.6191
694,23.1878
695,19.2818
696,15.3254
697,15.2079
698,15.4964
699,15.7004
700,15.6849
701,16.1769
702,20.0287
703,23.8889
704,24.0541
705,23.9565
706,19.6878
707,14.54
708,14.45
709,24.4725
710,33.2158
711,36.5221
712,39.8478
713,42.7128
714,45.2021
715,45.1295
716,43.2613
717,38.6423
718,30.5356
719,23.9533
720,23.7043
721,23.6466
722,34.834
723,46.048
724,45.9976
725,39.7919
726,36.3834
727,36.2875
728,34.9202
729,28.8612
730,28.8254
731,31.7162
732,36.0888
733,36.0601
734,25.8744
735,20.923
736,20.8475
737,20.8281
738,19.9669
739,19.9523
740,45.5398
741,61.7829
742,61.7751
743,41.8457
744,39.6255
745,39.6245
746,40.8735
747,40.8769
748,39.1574
749,33.2195
750,27.2419
751,27.2541
752,27.694
753,37.7124
754,53.7554
755,53.776
756,45.6862
757,39.1267
758,39.1535
759,43.5158
760,53.0074
761,59.1733
762,59.2081
763,49.7195
764,42.2533
765,37.2568
766,37.2992
767,40.8908
768,46.978
769,50.8021
770,51.4916
771,51.543
772,46.5976
773,41.1194
774,35.1025
775,33.9839
776,34.0438
777,35.5667
778,35.6298
779,35.6944
780,35.766
781,36.2851
782,39.6581
783,44.4858
784,47.4432
785,48.1651
786,48.2398
787,45.416
788,42.4311
789,30.6384
790,30.1641
791,30.2451
792,47.6995
793,47.7828
794,45.6184
795,38.4414
796,29.4948
797,29.5823
798,32.8565
799,39.7142
800,39.8044
801,38.3872
802,38.479
803,38.5717
804,38.1851
805,28.4269
806,19.5507
807,12.4976
808,5.39403
809,-2.12161
810,-2.02462
811,2.94585
812,17.8044
813,27.0412
814,31.6713
815,31.7707
816,21.5041
817,16.4649
818,16.5659
819,18.7883
820,25.4018
821,27.0456
822,27.1487
823,26.7423
824,26.8463
825,39.3214
826,39.4265
827,31.1224
828,31.2284
829,33.3691
830,33.4762
831,32.8892
832,28.7854
833,28.8939
834,33.0086
835,33.1182
836,33.1958
837,26.0346
838,11.8878
839,11.9992
840,40.1539
841,40.2663
842,38.6933
843,13.6018
844,11.3657
845,11.48
846,18.1409
847,24.317
848,24.4325
849,10.2725
850,10.3888
851,11.4061
852,19.6329
853,29.4608
854,38.3353
855,38.4536
856,37.6878
857,33.1207
858,33.24
859,35.3796
860,51.5377
861,51.658
862,39.8241
863,28.9937
864,29.1149
865,29.2363
866,17.7705
867,13.3193
868,13.4414
869,19.7392
870,19.8618
871,8.96487
872,9.08782
873,19.1847
874,19.308
875,9.51782
876,-0.609201
877,-0.485561
878,0.562542
879,3.67186
880,6.61364
881,12.6354
882,18.6069
883,18.7311
884,12.1384
885,12.2628
886,13.535
887,18.8389
888,28.9402
889,33.2663
890,33.3911
891,29.1925
892,28.72
893,28.8449
894,30.7065
895,32.6567
896,32.7817
897,27.9751
898,24.4194
899,22.9205
900,19.5677
901,9.98548
902,6.73729
903,6.86229
904,12.4435
905,13.3131
906,13.6237
907,17.2892
908,17.8868
909,18.0115
910,7.72256
911,7.84707
912,10.3255
913,10.4498
914,1.98632
915,-0.693792
916,-0.569873
917,5.52368
918,13.7109
919,16.8285
920,16.9518
921,13.2635
922,13.3866
923,28.0745
924,40.5218
925,50.6134
926,50.736
927,31.3336
928,24.3023
929,24.4246
930,33.9105
931,36.2167
932,36.3386
933,20.9702
934,14.3979
935,14.5195
936,43.7503
937,43.8717
938,28.4231
939,19.5842
940,19.7052
941,21.226
942,21.3467
943,21.4673
944,22.0678
945,22.1881
946,20.5197
947,20.6397
948,33.7238
949,43.0187
950,43.1382
951,18.8414
952,11.3175
953,11.4365
954,11.5553
955,7.87955
956,4.92233
957,5.04051
958,5.94034
959,10.6208
960,10.7383
961,8.33234
962,2.03714
963,2.15391
964,6.63103
965,10.0161
966,12.7656
967,19.3193
968,29.3575
969,29.4726
970,13.3096
971,8.10548
972,8.21967
973,8.33352
974,-0.194158
975,-0.0809823
976,0.982026
977,10.7734
978,10.8855
979,10.9973
980,13.6445
981,28.1247
982,28.2353
983,5.37022
984,5.48003
985,13.7222
986,27.7521
987,40.2039
988,40.3121
989,31.3202
990,23.6749
991,23.7817
992,31.2434
993,37.2963
994,42.9234
995,45.0174
996,45.1218
997,40.2713
998,30.0599
999,30.1628
1000,33.083
1001,37.0374
1002,40.2536
1003,43.9318
1004,47.9017
1005,51.5335
1006,54.5224
1007,54.6206
1008,33.4942
1009,11.3348
1010,5.79677
1011,4.05987
1012,4.15466
1013,6.08108
1014,6.1744
1015,6.26696
1016,9.16307
1017,25.9727
1018,26.0629
1019,24.036
1020,15.9378
1021,6.48574
1022,6.57252
1023,19.2546
1024,33.694
1025,37.1365
1026,37.2196
1027,31.0548
1028,25.9041
1029,25.9842
1030,26.14
1031,26.2181
1032,22.4595
1033,22.5354
1034,32.3258
1035,32.3995
1036,20.6456
1037,18.8109
1038,15.8515
1039,14.8269
1040,-1.95628
1041,-1.88974
1042,-0.408025
1043,11.2961
1044,25.3964
1045,27.0725
1046,27.133
1047,22.3505
1048,22.4086
1049,22.4657
1050,18.1623
1051,3.35145
1052,-0.291003
1053,-0.238223
1054,12.9745
1055,33.644
1056,33.6938
1057,18.3995
1058,18.4474
1059,23.7262
1060,32.1723
1061,37.1794
1062,38.1743
1063,38.2179
1064,34.387
1065,24.3272
1066,14.8955
1067,13.4866
1068,11.939
1069,10.9317
1070,10.9703
1071,17.5136
1072,20.628
1073,20.6647
1074,10.5042
1075,4.02489
1076,4.0599
1077,5.07025
1078,17.3761
1079,17.4096
1080,3.67651
1081,3.70908
1082,14.5196
1083,18.9761
1084,19.0075
1085,19.0384
1086,21.9652
1087,26.1467
1088,28.4404
1089,30.5402
1090,33.8463
1091,37.3694
1092,38.6731
1093,38.7017
1094,32.167
1095,27.534
1096,27.562
1097,30.4939
1098,30.5216
1099,23.4894
1100,23.5168
1101,28.8732
1102,28.9003
1103,22.1073
1104,20.3252
1105,20.3273
1106,20.3541
1107,20.3809
1108,20.5964
1109,32.8634
1110,39.9899
1111,40.0167
1112,40.0435
1113,45.5453
1114,50.3162
1115,50.4136
1116,50.4696
1117,59.3627
1118,68.5775
1119,76.4106
1120,76.4379
1121,69.5867
1122,52.363
1123,40.9197
1124,40.9475
1125,53.2614
1126,85.2257
1127,85.2538
1128,68.9751
1129,60.7963
1130,57.7844
1131,52.7023
1132,45.7211
1133,35.3255
1134,21.6291
1135,21.6582
1136,35.4947
1137,35.524
1138,26.6357
1139,13.4841
1140,2.98044
1141,3.01014
1142,30.9345
1143,30.9644
1144,21.6397
1145,18.5065
1146,18.5366
1147,23.8264
1148,23.8567
1149,13.9493
1150,13.9797
1151,18.8726
1152,18.9031
1153,18.9847
1154,19.0575
1155,19.5387
1156,24.1401
1157,29.633
1158,36.9804
1159,37.0111
1160,29.9353
1161,4.19964
1162,4.23033
1163,14.7204
1164,21.2431
1165,23.9276
1166,26.0856
1167,27.8737
1168,28.9665
1169,28.9968
1170,26.2829
1171,20.2724
1172,20.3025
1173,34.8109
1174,47.5806
1175,56.7623
1176,56.7918
1177,36.0943
1178,16.3078
1179,0.657846
1180,0.686614
1181,7.57976
1182,21.6815
1183,24.1868
1184,24.2147
1185,20.14
1186,20.1673
1187,32.327
1188,32.3536
1189,24.3118
1190,14.0749
1191,14.1006
1192,15.4443
1193,15.4692
1194,2.13206
1195,2.15613
1196,5.21404
1197,6.32215
1198,6.34488
1199,4.58461
1200,1.64253
1201,1.66377
1202,3.02467
1203,17.2443
1204,33.6753
1205,33.6943
1206,23.7859
1207,12.6223
1208,10.4222
1209,10.4388
1210,30.4152
1211,30.4304
1212,21.2458
1213,21.2596
1214,39.8518
1215,41.1189
1216,41.1304
1217,31.3837
1218,16.9252
1219,16.9343
1220,25.7887
1221,25.7961
1222,24.5022
1223,20.035
1224,20.0396
1225,22.2592
1226,42.2616
1227,42.2633
1228,23.8006
1229,23.8002
1230,28.6023
1231,29.2438
1232,29.2402
1233,29.2354
1234,34.0841
1235,34.077
1236,21.8861
1237,10.9119
1238,7.31713
1239,7.30502
1240,27.9801
1241,29.0693
1242,29.0532
1243,18.4902
1244,13.3785
1245,7.27342
1246,-2.94174
1247,-2.96506
1248,15.065
1249,21.5178
1250,21.4901
1251,14.4351
1252,14.4047
1253,16.7615
1254,23.5003
1255,23.466
1256,19.0253
1257,18.9885
1258,23.0267
1259,33.8991
1260,41.9937
1261,41.9524
1262,25.4874
1263,23.9623
1264,23.9179
1265,40.5552
1266,42.382
1267,42.3348
1268,34.8539
1269,25.6702
1270,11.0153
1271,10.9646
1272,15.354
1273,26.5436
1274,26.4907
1275,26.3878
1276,26.3335
1277,26.2786
1278,20.7546
1279,16.4861
1280,16.4294
1281,22.1729
1282,25.7023
1283,29.248
1284,33.3257
1285,37.3476
1286,38.4016
1287,38.3416
1288,27.9689
1289,17.1047
1290,17.0435
1291,17.5287
1292,35.6365
1293,50.9619
1294,50.8995
1295,48.6556
1296,47.7156
1297,47.6526
1298,51.1368
1299,51.0735
1300,36.352
1301,24.1962
1302,24.1325
1303,27.1333
1304,27.0694
1305,25.4369
1306,25.2721
1307,24.6557
1308,17.6092
1309,17.5451
1310,31.4166
1311,41.6891
1312,41.6252
1313,40.4887
1314,40.4249
1315,45.5618
1316,57.3443
1317,57.2808
1318,45.6244
1319,45.5611
1320,47.3311
1321,48.8888
1322,48.826
1323,41.2987
1324,40.1397
1325,40.0774
1326,28.237
1327,25.5473
1328,25.4857
1329,25.4242
1330,23.6455
1331,23.5845
1332,45.0264
1333,46.9633
1334,46.903
1335,38.2499
1336,35.6813
1337,35.6218
1338,38.7088
1339,38.6499
1340,28.5187
1341,28.4604
1342,36.257
1343,36.1992
1344,17.7197
1345,13.1404
1346,13.0835
1347,21.7234
1348,35.8049
1349,43.3914
1350,43.3357
1351,37.8937
1352,26.5392
1353,26.4844
1354,35.7161
1355,35.6619
1356,27.031
1357,26.9773
1358,36.1159
1359,38.4808
1360,38.428
1361,30.2854
1362,17.6072
1363,17.5552
1364,22.332
1365,32.5702
1366,39.1558
1367,39.1048
1368,26.8657
1369,26.8152
1370,31.9329
1371,39.6945
1372,41.2257
1373,41.1761
1374,30.893
1375,24.9478
1376,24.8988
1377,41.7528
1378,48.824
1379,48.7756
1380,34.7028
1381,34.6548
1382,40.7939
1383,47.3765
1384,47.3288
1385,36.9126
1386,24.5467
1387,24.4994
1388,28.8891
1389,50.2843
1390,50.2371
1391,36.8995
1392,28.83
1393,28.7829
1394,38.8002
1395,51.2668
1396,61.1992
1397,65.0218
1398,65.6234
1399,65.576
1400,65.1771
1401,64.5857
1402,63.8616
1403,63.6145
1404,57.6607
1405,46.2654
1406,44.7247
1407,44.6758
1408,51.1607
1409,55.5789
1410,55.5292
1411,45.5082
1412,42.142
1413,42.0912
1414,44.4559
1415,48.8983
1416,56.7604
1417,56.7077
1418,40.4556
1419,11.6654
1420,-0.464796
1421,-2.52819
1422,-2.58378
1423,5.89842
1424,8.36478
1425,12.8854
1426,30.5323
1427,39.1768
1428,39.1178
1429,35.9193
1430,35.8594
1431,37.8393
1432,43.5663
1433,47.687
1434,48.1415
1435,48.0798
1436,42.6081
1437,36.8217
1438,31.0328
1439,23.9501
1440,23.8871
1441,26.0437
1442,45.234
1443,49.8499
1444,49.7862
1445,43.7555
1446,35.9205
1447,35.7219
1448,35.658
1449,59.653
1450,59.5891
1451,58.1852
1452,29.391
1453,15.2067
1454,15.1429
1455,21.2935
1456,21.2299
1457,3.39961
1458,3.33619
1459,15.2857
1460,32.1433
1461,33.3736
1462,33.3108
1463,33.2482
1464,38.161
1465,59.6475
1466,59.5856
1467,36.8023
1468,36.7409
1469,40.0421
1470,48.2285
1471,48.1679
1472,41.5596
1473,20.1975
1474,17.2333
1475,17.174
1476,28.6415
1477,34.7168
1478,34.6586
1479,31.2571
1480,31.1996
1481,37.8515
1482,66.8085
1483,66.7523
1484,46.8254
1485,46.7699
1486,48.9751
1487,48.9205
1488,40.2361
1489,33.5339
1490,31.0612
1491,22.427
1492,22.3746
1493,23.1009
1494,28.0709
1495,28.0198
1496,27.9692
1497,31.6318
1498,31.5821
1499,25.0862
1500,25.0374
1501,25.541
1502,56.3497
1503,56.3023
1504,53.6361
1505,24.3022
1506,20.4515
1507,20.3287
1508,20.2835
1509,9.19845
1510,9.1542
1511,24.5826
1512,24.5392
1513,13.9674
1514,2.19197
1515,1.21845
1516,1.17681
1517,4.90434
1518,4.86354
1519,4.82316
1520,14.2576
1521,33.6485
1522,45.3876
1523,45.3488
1524,4.59898
1525,4.56102
1526,16.7513
1527,16.7141
1528,11.1864
1529,11.15
1530,34.1543
1531,34.1186
1532,29.4793
1533,29.4443
1534,60.0314
1535,59.9971
1536,49.7369
1537,45.6643
1538,39.6522
1539,1.76834
1540,-1.75081
1541,-1.78331
1542,12.428
1543,13.7821
1544,13.7506
1545,19.637
1546,26.7856
1547,35.1148
1548,41.7484
1549,41.7189
1550,26.6462
1551,1.98368
1552,1.95577
1553,12.3631
1554,25.6281
1555,26.4496
1556,26.4241
1557,26.3992
1558,28.0408
1559,35.9108
1560,41.9537
1561,41.9317
1562,29.7298
1563,23.4999
1564,23.4803
1565,36.4447
1566,53.5186
1567,53.5015
1568,40.3862
1569,22.0319
1570,11.9758
1571,11.9623
1572,21.1944
1573,35.37
1574,49.9426
1575,62.6803
1576,62.6718
1577,28.8928
1578,22.097
1579,16.3885
1580,16.3843
1581,16.3813
1582,23.8835
1583,55.8354
1584,61.7271
1585,63.4644
1586,74.8482
1587,74.852
1588,55.8903
1589,37.2597
1590,37.2672
1591,40.0472
1592,59.7364
1593,59.7476
1594,47.5978
1595,47.6116
1596,55.3896
1597,55.4058
1598,49.1448
1599,49.1637
1600,49.1839
1601,38.8212
1602,38.844
1603,53.4628
1604,53.4882
1605,42.2943
1606,30.207
1607,29.7559
1608,24.4221
1609,21.9224
1610,21.9558
1611,33.2326
1612,36.7506
1613,39.4313
1614,49.7232
1615,59.9717
1616,66.5879
1617,66.6306
1618,31.8667
1619,12.2019
1620,12.2486
1621,19.1479
1622,31.4245
1623,32.4448
1624,33.9771
1625,40.8748
1626,40.9294
1627,36.8801
1628,22.7452
1629,8.47124
1630,8.53093
1631,20.2189
1632,20.2811
1633,25.4563
1634,30.1125
1635,41.4653
1636,41.5325
1637,17.2471
1638,17.3168
1639,24.2209
1640,24.293
1641,24.3664
1642,41.4357
1643,41.5114
1644,36.7982
1645,36.8763
1646,50.2544
1647,58.1673
1648,58.2488
1649,40.0998
1650,28.3468
1651,28.4316
1652,42.2376
1653,42.3246
1654,40.1883
1655,38.1952
1656,37.7075
1657,33.3521
1658,33.4442
1659,50.2268
1660,53.444
1661,53.5391
1662,35.2254
1663,15.677
1664,15.7748
1665,16.067
1666,28.9429
1667,29.0434
1668,23.9454
1669,13.1045
1670,13.2074
1671,25.4335
1672,34.9719
1673,35.0772
1674,4.88737
1675,4.99401
1676,10.7652
1677,12.9529
1678,18.6754
1679,43.7928
1680,43.9027
1681,24.1357
1682,24.2467
1683,23.092
1684,22.4556
1685,14.9921
1686,15.1051
1687,18.5389
1688,23.8161
1689,23.9303
1690,22.0644
1691,22.1794
1692,22.2947
1693,13.8717
1694,-0.649416
1695,-0.533292
1696,16.621
1697,18.2132
1698,18.33
1699,25.9643
1700,26.0814
1701,-0.402338
1702,-0.284808
1703,10.0772
1704,24.0528
1705,25.6114
1706,25.7295
1707,25.8478
1708,27.3995
1709,27.518
1710,10.1125
1711,10.2312
1712,19.9873
1713,20.1061
1714,9.16567
1715,1.49208
1716,1.61106
1717,20.0971
1718,23.4236
1719,23.5427
1720,9.57674
1721,2.79542
1722,2.91452
1723,27.6522
1724,36.863
1725,38.4368
1726,38.5558
1727,38.6747
1728,50.5829
1729,50.7017
1730,32.8369
1731,15.9644
1732,9.73288
1733,9.85122
1734,25.7151
1735,27.8002
1736,28.3464
1737,31.6085
1738,35.0831
1739,39.0362
1740,54.1178
1741,71.485
1742,71.6015
1743,40.635
1744,40.751
1745,42.0853
1746,44.6325
1747,44.7475
1748,17.7176
1749,17.8319
1750,37.4021
1751,37.5155
1752,24.0138
1753,24.1264
1754,47.3743
1755,47.4859
1756,43.6113
1757,34.5261
1758,33.2789
1759,33.3882
1760,43.555
1761,43.6631
1762,35.4085
1763,15.1832
1764,15.2892
1765,18.3531
1766,21.1369
1767,21.2406
1768,32.398
1769,32.5001
1770,26.459
1771,11.3458
1772,-2.55228
1773,-2.45377
1774,0.917413
1775,7.63011
1776,21.7305
1777,27.9301
1778,28.0242
1779,9.70124
1780,9.79366
1781,34.4768
1782,47.7359
1783,47.826
1784,8.76701
1785,8.85577
1786,12.6468
1787,30.7618
1788,36.6445
1789,36.7307
1790,36.8163
1791,40.349
1792,54.5645
1793,62.8066
1794,62.8901
1795,44.2787
1796,35.0769
1797,28.4778
1798,19.7839
1799,12.5741
1800,12.6549
1801,22.8683
1802,43.1759
1803,43.2556
1804,26.6628
1805,26.7418
1806,26.8205
1807,21.8052
1808,6.22067
1809,6.29849
1810,11.127
1811,39.9021
1812,39.9792
1813,24.0996
1814,24.1763
1815,24.7086
1816,52.7887
1817,52.8649
1818,43.6985
1819,43.7743
1820,58.781
1821,58.8566
1822,52.7669
1823,51.5211
1824,49.9434
1825,50.0185
1826,50.4638
1827,50.5388
1828,41.3485
1829,21.9124
1830,21.2884
1831,21.3631
1832,12.2392
1833,12.1534
1834,12.2279
1835,12.3025
1836,12.6875
1837,31.9034
1838,31.9778
1839,29.1385
1840,29.2129
1841,28.7872
1842,28.8616
1843,24.9684
1844,25.0428
1845,35.713
1846,46.3795
1847,46.4539
1848,25.7322
1849,25.8065
