#wnum,raman
275,8.40697
276,9.91365
277,12.2403
278,16.1911
279,16.1929
280,15.8641
281,15.8659
282,21.3396
283,22.6904
284,22.6921
285,16.9897
286,15.4865
287,15.4882
288,15.8364
289,15.8381
290,15.8398
291,18.5071
292,26.1345
293,26.1361
294,24.9441
295,18.876
296,16.4521
297,16.4536
298,17.7059
299,22.7276
300,24.5626
301,24.5639
302,18.3445
303,17.0278
304,17.0289
305,17.0299
306,15.2079
307,11.1119
308,10.1167
309,10.1174
310,10.118
311,9.94573
312,8.64581
313,7.59414
314,7.06907
315,6.72103
316,6.1934
317,5.70763
318,5.70716
319,5.80188
320,5.80108
321,4.94411
322,4.94296
323,6.02115
324,7.04451
325,7.04278
326,3.93274
327,1.15701
328,0.942173
329,0.939559
330,2.09834
331,4.01094
332,5.66845
333,6.61113
334,7.23733
335,7.23318
336,6.74882
337,4.55339
338,-0.166537
339,-0.939024
340,-0.94466
341,3.21996
342,3.21373
343,1.67968
344,1.67289
345,3.69481
346,6.70947
347,6.70195
348,4.9793
349,4.97135
350,6.09642
351,7.35197
352,8.64646
353,9.70647
354,9.69768
355,7.31335
356,5.08911
357,4.63843
358,4.4752
359,4.33686
360,4.09602
361,3.31918
362,1.27227
363,0.973453
364,0.963867
365,3.1007
366,7.57374
367,14.5412
368,14.5598
369,14.5502
370,12.3613
371,12.3519
372,17.3521
373,19.5111
374,19.5018
375,19.4927
376,21.8814
377,29.6176
378,30.3271
379,30.3185
380,29.1272
381,29.1188
382,33.7036
383,35.6622
384,36.6233
385,36.6156
386,33.7819
387,29.0288
388,28.8533
389,28.8465
390,32.0798
391,38.0553
392,38.0492
393,35.2116
394,28.8844
395,28.879
396,29.5135
397,30.8995
398,33.5414
399,35.3863
400,35.6086
401,35.3783
402,34.0175
403,30.2284
404,26.4107
405,23.5044
406,19.7
407,19.6977
408,20.081
409,21.2911
410,21.7434
411,21.7423
412,20.4276
413,18.4378
414,17.0238
415,16.0664
416,16.0666
417,16.8744
418,17.6655
419,18.7104
420,20.6245
421,21.6527
422,21.6545
423,19.9998
424,15.4608
425,10.8673
426,9.07014
427,8.79546
428,8.50685
429,6.95049
430,5.65798
431,5.66196
432,7.21793
433,11.5786
434,17.9397
435,17.9446
436,11.1966
437,3.57223
438,3.57773
439,7.83197
440,10.8979
441,12.3838
442,12.3901
443,9.25979
444,6.56619
445,6.57298
446,8.41051
447,9.42879
448,9.96399
449,9.97142
450,9.15067
451,6.23463
452,4.68979
453,4.27309
454,3.3246
455,0.512418
456,-0.261945
457,-0.253501
458,1.87226
459,4.66773
460,8.41886
461,11.4533
462,11.7704
463,12.1022
464,12.1114
465,10.4799
466,8.72974
467,7.42469
468,7.43424
469,9.82593
470,13.5863
471,13.5961
472,13.2067
473,11.9126
474,10.9142
475,9.98176
476,9.27913
477,8.53292
478,6.85588
479,4.69206
480,4.70261
481,7.59221
482,10.7777
483,11.7861
484,11.7969
485,11.5563
486,9.0516
487,9.06257
488,9.60165
489,9.61272
490,9.57014
491,6.68115
492,6.69233
493,8.35592
494,11.0649
495,13.804
496,13.8153
497,11.8541
498,6.90531
499,6.91662
500,7.9001
501,7.91141
502,7.74063
503,7.75191
504,10.3527
505,15.6528
506,15.664
507,15.4614
508,13.1443
509,12.4393
510,12.3444
511,11.6534
512,10.2934
513,8.94286
514,8.95367
515,9.56614
516,11.5976
517,12.4884
518,12.4989
519,12.0965
520,12.1067
521,14.7331
522,16.2194
523,16.5041
524,16.5138
525,14.0262
526,9.29303
527,9.30232
528,10.1623
529,13.661
530,15.2086
531,16.3822
532,16.4716
533,16.4797
534,14.8548
535,9.79727
536,9.80476
537,10.8542
538,13.0634
539,13.0702
540,6.55798
541,6.56416
542,10.2143
543,14.3305
544,15.4585
545,15.4634
546,12.3542
547,5.76238
548,5.76632
549,6.1583
550,6.16151
551,5.62375
552,4.69511
553,4.69715
554,8.65486
555,13.2648
556,17.2307
557,17.8792
558,17.8791
559,16.2606
560,13.0434
561,9.62573
562,7.80783
563,7.16744
564,5.25494
565,-0.234533
566,-0.238719
567,1.68039
568,10.0025
569,9.99658
570,8.85182
571,8.84477
572,13.9324
573,13.9242
574,10.3242
575,2.40632
576,2.39621
577,9.07822
578,9.06683
579,6.29625
580,4.54366
581,4.5303
582,7.25524
583,11.2363
584,15.5017
585,15.4856
586,7.90888
587,4.77294
588,4.75467
589,8.34225
590,10.1869
591,10.1664
592,8.42732
593,2.4019
594,0.485655
595,0.462028
596,1.3269
597,1.30166
598,1.2756
599,1.94747
600,6.34398
601,6.3154
602,3.82779
603,-0.76421
604,-1.24664
605,-1.27872
606,3.01764
607,9.98659
608,14.2431
609,14.9846
610,14.9484
611,12.5848
612,10.4548
613,10.4164
614,10.3773
615,8.40289
616,1.06885
617,1.02784
618,1.25335
619,5.77433
620,6.31238
621,6.61518
622,6.57138
623,6.5456
624,7.85692
625,12.4428
626,16.9878
627,17.8538
628,17.8074
629,15.8744
630,13.915
631,13.8676
632,17.0124
633,19.1269
634,19.3194
635,19.8103
636,26.9986
637,34.8828
638,40.5312
639,45.0121
640,48.88
641,51.6211
642,53.7175
643,58.0701
644,62.2687
645,62.2189
646,61.9274
647,58.9181
648,55.4907
649,51.8289
650,47.456
651,42.9926
652,42.2713
653,41.6488
654,38.7787
655,34.538
656,30.4483
657,27.3264
658,23.5974
659,18.8832
660,18.8341
661,19.0588
662,24.5145
663,24.4658
664,21.3381
665,18.7423
666,17.0625
667,17.0146
668,18.8097
669,19.7887
670,19.7413
671,16.2341
672,13.0574
673,9.57784
674,9.5314
675,11.3023
676,13.3271
677,13.2815
678,12.165
679,12.1198
680,13.4053
681,14.5226
682,15.2822
683,15.2382
684,13.9288
685,13.8854
686,15.9772
687,19.8824
688,20.6405
689,20.68
690,20.6382
691,21.6584
692,22.2827
693,22.2419
694,21.9765
695,21.9364
696,22.014
697,22.0855
698,22.0464
699,17.9978
700,6.96996
701,2.57156
702,2.53391
703,7.61744
704,9.20392
705,10.1914
706,11.09
707,11.907
708,13.1675
709,15.2243
710,15.1897
711,11.8208
712,11.7869
713,14.2364
714,23.6382
715,23.6054
716,22.0804
717,18.6116
718,14.5931
719,14.5618
720,16.5013
721,21.6011
722,21.6824
723,21.6527
724,20.9931
725,20.1502
726,18.803
727,16.5622
728,16.5146
729,16.4871
730,18.0322
731,19.2915
732,20.3151
733,20.289
734,19.0223
735,16.6852
736,12.8619
737,12.8373
738,13.2273
739,16.3634
740,17.4314
741,17.4082
742,15.2601
743,10.6187
744,7.41199
745,5.88279
746,4.61155
747,4.21425
748,4.19319
749,9.1541
750,14.7249
751,16.3096
752,16.3981
753,18.0563
754,20.8511
755,20.8319
756,11.5369
757,7.76989
758,7.75152
759,12.6535
760,13.8601
761,13.8424
762,13.1221
763,10.853
764,9.29676
765,9.27992
766,9.38722
767,14.2317
768,17.2972
769,17.2811
770,14.9929
771,12.2208
772,9.34138
773,5.69852
774,1.07141
775,-1.33387
776,-1.34904
777,-0.490703
778,4.63594
779,10.2044
780,11.7314
781,11.8702
782,13.4661
783,16.4069
784,16.3933
785,16.3237
786,16.3107
787,18.5939
788,20.0036
789,19.9917
790,19.3513
791,19.0651
792,19.0545
793,20.9907
794,25.703
795,30.7659
796,39.0819
797,43.6519
798,43.6444
799,43.6375
800,46.5404
801,56.0976
802,56.0926
803,53.3217
804,53.3181
805,55.3509
806,58.1228
807,59.0514
808,59.8258
809,63.0687
810,66.857
811,68.7871
812,68.7896
813,67.4617
814,60.4746
815,60.4795
816,64.2011
817,64.2077
818,63.8919
819,58.3292
820,56.8999
821,55.1443
822,49.0152
823,42.3693
824,42.3821
825,44.1045
826,45.3093
827,45.3248
828,43.8209
829,40.6788
830,40.6971
831,42.7049
832,43.0526
833,43.0736
834,36.5272
835,36.5501
836,39.9877
837,43.5317
838,46.3716
839,47.2563
840,47.2838
841,47.3123
842,49.6333
843,54.9551
844,56.4921
845,56.5242
846,55.6281
847,47.2422
848,47.2769
849,56.7651
850,65.5219
851,65.9096
852,65.9755
853,69.626
854,73.2276
855,73.2684
856,72.9166
857,72.5463
858,70.8125
859,70.5651
860,70.6099
861,73.7475
862,75.9494
863,75.9964
864,71.2346
865,66.0413
866,57.9525
867,50.6976
868,46.7799
869,41.9996
870,35.5389
871,29.1097
872,25.4501
873,25.0822
874,22.9162
875,16.1266
876,9.74237
877,4.26807
878,4.01141
879,4.06739
880,11.1848
881,11.2415
882,9.7925
883,7.18753
884,3.49464
885,3.55255
886,7.31898
887,10.9021
888,10.9607
889,10.6291
890,4.53958
891,1.57723
892,1.63634
893,7.43049
894,7.48973
895,7.48082
896,7.5401
897,13.6138
898,13.673
899,8.79996
900,7.00462
901,7.06358
902,9.09773
903,9.15639
904,8.87236
905,8.93063
906,8.98866
907,8.27987
908,5.80856
909,2.55576
910,-1.16908
911,-1.11258
912,-0.628401
913,2.10619
914,7.9255
915,11.3166
916,11.3712
917,9.71375
918,9.7677
919,14.5497
920,14.6029
921,12.6823
922,12.7348
923,20.6657
924,20.7176
925,17.8973
926,12.159
927,8.38826
928,5.21051
929,5.13499
930,5.18496
931,7.38422
932,11.5034
933,13.3055
934,13.5219
935,13.5703
936,12.5433
937,12.5911
938,15.4536
939,18.6876
940,19.9715
941,20.4471
942,21.3875
943,21.4335
944,18.1839
945,17.1258
946,17.1709
947,19.9137
948,19.9582
949,10.9964
950,6.96289
951,7.00654
952,9.83684
953,15.5071
954,15.5498
955,12.4492
956,10.6637
957,10.7055
958,11.1827
959,12.3791
960,12.8548
961,12.8954
962,10.6255
963,7.04215
964,6.96796
965,7.00727
966,13.719
967,13.7576
968,12.1658
969,9.12457
970,9.16223
971,9.72763
972,17.659
973,17.6957
974,15.4564
975,9.09975
976,9.13532
977,9.92765
978,11.0484
979,11.5815
980,11.6156
981,11.6493
982,11.9365
983,21.3682
984,21.4008
985,20.8967
986,15.7221
987,15.7535
988,16.5089
989,16.5394
990,15.9372
991,15.2336
992,15.1807
993,11.655
994,11.6834
995,12.2558
996,18.5494
997,20.6254
998,20.8198
999,20.8458
1000,20.9754
1001,22.2469
1002,26.8358
1003,28.3684
1004,28.3919
1005,23.2981
1006,14.877
1007,11.2835
1008,11.3049
1009,15.5511
1010,20.6036
1011,21.0726
1012,21.0917
1013,20.3998
1014,20.4177
1015,24.759
1016,27.0914
1017,27.1073
1018,25.2138
1019,15.8915
1020,9.90148
1021,9.91472
1022,11.3208
1023,17.3815
1024,20.2198
1025,20.2302
1026,19.6843
1027,18.3658
1028,18.3739
1029,19.3549
1030,19.3613
1031,18.6221
1032,16.0596
1033,13.1544
1034,9.46158
1035,7.22054
1036,6.45911
1037,6.37239
1038,6.37193
1039,7.91346
1040,10.5383
1041,13.8404
1042,21.0149
1043,25.6912
1044,25.685
1045,21.7699
1046,13.3199
1047,10.4337
1048,10.4232
1049,15.7617
1050,20.8054
1051,25.6713
1052,25.6565
1053,17.6719
1054,12.1574
1055,12.139
1056,12.5144
1057,18.6464
1058,19.9039
1059,20.9808
1060,22.2189
1061,26.9916
1062,26.9645
1063,17.453
1064,11.8024
1065,11.742
1066,11.7388
1067,15.6311
1068,20.1786
1069,24.078
1070,25.9332
1071,25.8935
1072,24.3231
1073,19.5974
1074,16.3928
1075,16.347
1076,21.334
1077,21.285
1078,14.3334
1079,14.2812
1080,18.3363
1081,18.2806
1082,3.95811
1083,-3.18525
1084,-3.24608
1085,0.611766
1086,11.6917
1087,22.1526
1088,22.0851
1089,21.7639
1090,21.6932
1091,23.7115
1092,28.3714
1093,30.8235
1094,30.747
1095,23.7593
1096,23.6802
1097,27.2062
1098,30.6792
1099,31.0776
1100,30.9937
1101,30.9088
1102,33.6983
1103,41.4707
1104,50.2652
1105,59.0474
1106,70.0896
1107,79.2548
1108,79.1632
1109,79.9239
1110,80.6809
1111,89.0091
1112,89.2845
1113,89.1891
1114,88.0671
1115,79.2458
1116,70.1158
1117,69.8255
1118,69.9196
1119,70.7014
1120,70.6021
1121,65.902
1122,58.3809
1123,53.1942
1124,45.7244
1125,44.3591
1126,42.463
1127,37.5186
1128,23.944
1129,23.1804
1130,23.0775
1131,24.7165
1132,24.6131
1133,24.5095
1134,26.0272
1135,27.927
1136,27.8229
1137,26.6391
1138,26.5348
1139,28.5784
1140,39.4509
1141,47.2832
1142,47.1786
1143,40.1029
1144,39.5938
1145,39.4892
1146,41.0105
1147,43.1728
1148,43.2427
1149,43.1516
1150,52.2084
1151,63.2442
1152,65.3562
1153,65.2523
1154,62.624
1155,60.5213
1156,60.4178
1157,64.1647
1158,64.924
1159,64.821
1160,62.339
1161,61.7008
1162,61.5983
1163,63.156
1164,66.9614
1165,68.6827
1166,69.3
1167,70.7653
1168,72.5626
1169,74.6848
1170,74.5842
1171,62.8002
1172,52.3987
1173,43.8969
1174,37.0845
1175,36.6893
1176,36.1629
1177,35.6707
1178,35.5719
1179,37.4656
1180,37.3673
1181,30.3256
1182,24.5857
1183,18.1177
1184,11.2894
1185,8.38369
1186,8.28652
1187,12.7417
1188,19.9133
1189,20.1372
1190,20.0407
1191,17.3859
1192,14.0928
1193,13.9967
1194,14.4652
1195,15.1538
1196,15.0581
1197,13.1292
1198,10.2415
1199,5.06825
1200,2.53609
1201,2.44095
1202,9.06987
1203,13.3946
1204,16.3554
1205,16.2605
1206,14.8977
1207,13.3973
1208,12.874
1209,12.778
1210,12.5847
1211,6.50629
1212,-2.6497
1213,-2.74441
1214,3.16164
1215,3.067
1216,4.90515
1217,6.51905
1218,19.259
1219,24.1176
1220,24.0239
1221,23.9305
1222,26.9737
1223,29.8354
1224,31.6281
1225,37.2939
1226,50.3391
1227,58.1591
1228,58.0692
1229,54.6128
1230,54.5243
1231,56.9289
1232,67.2409
1233,68.4906
1234,68.4053
1235,68.321
1236,73.1347
1237,81.0578
1238,90.5557
1239,93.3365
1240,93.2572
1241,93.179
1242,96.5544
1243,102.989
1244,115.052
1245,114.979
1246,109.703
1247,98.6301
1248,98.5606
1249,102.121
1250,102.68
1251,102.615
1252,91.1922
1253,89.4106
1254,89.3495
1255,90.8917
1256,90.8336
1257,85.9425
1258,85.8875
1259,85.834
1260,76.4393
1261,76.389
1262,76.4667
1263,85.1464
1264,86.3672
1265,86.3233
1266,82.381
1267,76.1585
1268,76.1196
1269,76.0823
1270,64.325
1271,51.6313
1272,48.9292
1273,47.7768
1274,47.7479
1275,47.7207
1276,42.749
1277,36.067
1278,36.0448
1279,36.0244
1280,23.5484
1281,16.0968
1282,16.0815
1283,25.2107
1284,28.0844
1285,28.0742
1286,21.7583
1287,12.8468
1288,12.8418
1289,13.3394
1290,13.3378
1291,13.3378
1292,18.7483
1293,25.7556
1294,25.7608
1295,22.8813
1296,19.1379
1297,14.3631
1298,7.89979
1299,7.91346
1300,8.61355
1301,16.4682
1302,17.022
1303,17.0425
1304,16.4991
1305,16.5229
1306,22.8098
1307,30.1547
1308,30.1835
1309,30.0705
1310,27.4944
1311,27.5283
1312,35.2988
1313,43.4044
1314,43.4431
1315,43.4835
1316,46.248
1317,50.2078
1318,60.4995
1319,71.2929
1320,81.3586
1321,87.6043
1322,87.656
1323,87.7092
1324,88.903
1325,94.1044
1326,103.75
1327,104.902
1328,104.963
1329,102.787
1330,102.85
1331,102.916
1332,92.1778
1333,82.834
1334,81.233
1335,81.3039
1336,81.7612
1337,81.9044
1338,81.9794
1339,78.3572
1340,64.0475
1341,51.9558
1342,50.0077
1343,49.0749
1344,48.1083
1345,46.7984
1346,46.7
1347,45.1048
1348,38.3103
1349,38.3978
1350,37.8486
1351,37.938
1352,28.0276
1353,19.573
1354,14.5067
1355,11.1272
1356,9.33282
1357,7.83377
1358,7.11208
1359,6.76533
1360,6.04379
1361,6.14064
1362,6.94952
1363,10.6721
1364,11.4932
1365,11.5921
1366,3.1176
1367,3.21732
1368,15.094
1369,15.1944
1370,5.82634
1371,5.92729
1372,7.67791
1373,7.97388
1374,8.34935
1375,11.8955
1376,11.9972
1377,9.01407
1378,7.70406
1379,7.80583
1380,7.90754
1381,3.26567
1382,0.689647
1383,0.790983
1384,11.2655
1385,12.0324
1386,13.6489
1387,13.7492
1388,11.6595
1389,3.47292
1390,3.57213
1391,15.9704
1392,16.0687
1393,13.9741
1394,6.93326
1395,7.02987
1396,14.0961
1397,26.2746
1398,26.3692
1399,15.0024
1400,12.4787
1401,12.571
1402,18.9861
1403,21.3388
1404,21.4284
1405,13.0328
1406,13.1204
1407,14.6535
1408,17.1565
1409,17.3436
1410,17.4269
1411,12.8316
1412,11.2276
1413,11.3071
1414,15.9711
1415,17.3074
1416,17.3829
1417,14.2293
1418,14.3019
1419,13.7359
1420,12.4522
1421,9.93955
1422,10.0058
1423,13.5663
1424,13.6292
1425,13.7901
1426,17.8131
1427,17.8705
1428,12.8436
1429,7.67515
1430,7.26662
1431,7.31628
1432,11.4156
1433,11.4611
1434,-3.70629
1435,-3.66509
1436,6.56264
1437,17.5593
1438,17.6245
1439,17.6572
1440,11.7655
1441,11.7941
1442,16.3519
1443,16.3765
1444,12.8557
1445,10.5849
1446,6.35667
1447,6.37372
1448,13.6008
1449,18.6216
1450,18.6333
1451,16.7828
1452,11.6032
1453,11.6098
1454,11.6147
1455,1.13865
1456,0.486884
1457,0.487099
1458,8.33419
1459,14.6328
1460,22.9916
1461,25.8875
1462,26.8011
1463,26.7926
1464,26.4551
1465,22.3942
1466,22.3817
1467,22.368
1468,18.6914
1469,7.57208
1470,7.55469
1471,9.37756
1472,18.1671
1473,24.9493
1474,24.9274
1475,23.1499
1476,23.1259
1477,23.1009
1478,22.2115
1479,19.9089
1480,19.8811
1481,21.1262
1482,21.0966
1483,16.9462
1484,16.9148
1485,19.4018
1486,19.3917
1487,19.358
1488,17.1899
1489,17.1547
1490,25.6607
1491,30.4774
1492,30.4402
1493,30.4023
1494,30.9225
1495,30.8835
1496,23.4933
1497,14.901
1498,14.8603
1499,19.7182
1500,25.8264
1501,25.7843
1502,25.501
1503,25.458
1504,25.4145
1505,10.9069
1506,9.83803
1507,9.79348
1508,13.6057
1509,16.6978
1510,19.996
1511,22.2597
1512,22.2136
1513,11.3443
1514,11.2978
1515,14.3977
1516,14.3508
1517,14.3037
1518,15.9155
1519,23.5887
1520,24.2786
1521,23.4936
1522,20.1968
1523,12.3795
1524,10.0859
1525,10.0381
1526,9.99016
1527,6.83172
1528,3.56298
1529,3.5151
1530,16.0202
1531,15.9724
1532,14.9653
1533,14.9176
1534,22.2831
1535,22.2357
1536,18.5023
1537,18.4551
1538,23.4278
1539,23.3809
1540,13.6795
1541,7.1356
1542,3.33561
1543,3.28953
1544,9.11215
1545,9.06654
1546,5.39889
1547,5.3538
1548,6.79002
1549,17.8971
1550,17.8529
1551,13.9436
1552,13.9
1553,13.8568
1554,13.2524
1555,12.6964
1556,12.1213
1557,8.98782
1558,8.94652
1559,9.69414
1560,16.5672
1561,16.5271
1562,12.7828
1563,12.6878
1564,12.6492
1565,16.5124
1566,24.6988
1567,24.6616
1568,25.2968
1569,25.2606
1570,27.088
1571,28.3459
1572,33.5099
1573,44.7053
1574,47.0989
1575,50.3477
1576,50.3155
1577,49.9956
1578,48.5901
1579,47.2517
1580,38.9406
1581,34.6143
1582,34.5857
1583,41.0737
1584,41.0464
1585,28.31
1586,28.2839
1587,33.5061
1588,33.4813
1589,31.9214
1590,31.1641
1591,31.1412
1592,33.0722
1593,33.0506
1594,29.9074
1595,26.728
1596,26.7084
1597,29.491
1598,29.4727
1599,17.4787
1600,15.4292
1601,15.4127
1602,15.3969
1603,16.729
1604,17.7346
1605,17.7208
1606,14.1179
1607,5.08387
1608,5.07188
1609,17.4417
1610,17.431
1611,14.7856
1612,14.4937
1613,14.4849
1614,23.1974
1615,23.1897
1616,14.7663
1617,12.0665
1618,12.0606
1619,12.7015
1620,17.5179
1621,19.0491
1622,19.9221
1623,23.9812
1624,29.0307
1625,29.029
1626,19.6285
1627,12.6715
1628,12.6714
1629,27.1307
1630,27.4928
1631,27.4943
1632,17.9729
1633,6.01834
1634,6.02141
1635,13.8871
1636,16.9587
1637,16.9633
1638,10.6832
1639,4.77879
1640,4.78478
1641,4.92366
1642,15.8414
1643,21.8708
1644,21.8785
1645,16.6318
1646,7.08276
1647,7.09179
1648,15.369
1649,15.3789
1650,7.76262
1651,7.7732
1652,8.95795
1653,8.96926
1654,8.9809
1655,17.0913
1656,17.1036
1657,10.5287
1658,10.5417
1659,9.75191
1660,8.21809
1661,4.85555
1662,4.86961
1663,8.62143
1664,8.63599
1665,8.65079
1666,17.1309
1667,17.1461
1668,9.51748
1669,9.53311
1670,15.0765
1671,15.0925
1672,13.9651
1673,13.9814
1674,16.5506
1675,18.1129
1676,21.3546
1677,21.3714
1678,14.2404
1679,11.1686
1680,11.0418
1681,5.85489
1682,5.87196
1683,9.67903
1684,9.69613
1685,7.4158
1686,7.43288
1687,12.8366
1688,18.063
1689,18.9879
1690,19.6079
1691,19.0216
1692,17.4466
1693,14.5889
1694,13.3351
1695,7.0116
1696,7.02777
1697,9.76929
1698,9.7851
1699,5.8062
1700,5.31223
1701,5.32739
1702,9.56295
1703,12.416
1704,12.4304
1705,8.04907
1706,8.06285
1707,11.944
1708,11.9572
1709,11.9699
1710,10.4283
1711,9.2249
1712,4.38745
1713,4.39864
1714,14.179
1715,17.4094
1716,18.5682
1717,24.986
1718,25.0453
1719,25.0536
1720,21.3797
1721,17.9503
1722,12.2375
1723,7.38778
1724,7.39324
1725,15.8969
1726,24.204
1727,24.2076
1728,10.9977
1729,10.9998
1730,11.3666
1731,11.3673
1732,5.51483
1733,5.51398
1734,7.07843
1735,7.07597
1736,5.35161
1737,5.34746
1738,6.92044
1739,27.8372
1740,30.4413
1741,30.4336
1742,24.9167
1743,17.4077
1744,13.3049
1745,13.2932
1746,18.6477
1747,18.6339
1748,17.846
1749,9.38748
1750,7.00258
1751,6.9843
1752,13.7878
1753,13.7672
1754,0.524324
1755,-2.25306
1756,-2.27741
1757,1.53435
1758,7.71819
1759,11.5507
1760,14.9098
1761,17.3653
1762,17.3337
1763,17.301
1764,19.4679
1765,20.5424
1766,20.5064
1767,15.4382
1768,6.03977
1769,6.0008
1770,15.2473
1771,18.5735
1772,19.2128
1773,19.4091
1774,19.9723
1775,19.9278
1776,17.3805
1777,0.491283
1778,0.444302
1779,18.0914
1780,22.5437
1781,22.4944
1782,15.2943
1783,11.1897
1784,11.1383
1785,11.0862
1786,11.8012
1787,15.4348
1788,27.7656
1789,32.3014
1790,32.2462
1791,19.5197
1792,19.4634
1793,19.3691
1794,19.3118
1795,16.1672
1796,16.1089
1797,35.1525
1798,35.0933
1799,34.418
1800,34.0037
1801,34.2975
1802,33.1489
1803,25.4924
1804,13.5024
1805,13.4405
1806,33.9681
1807,45.833
1808,45.7701
1809,21.1252
1810,13.2875
1811,13.2238
1812,21.6524
1813,31.8972
1814,34.373
1815,34.3084
1816,32.8512
1817,29.4519
1818,29.3867
1819,30.0261
1820,30.1763
1821,36.3734
1822,36.3076
1823,24.9418
1824,23.7025
1825,23.6363
1826,27.3203
1827,27.2539
1828,12.6348
1829,12.5682
1830,17.2149
1831,41.5162
1832,41.4494
1833,40.6906
1834,35.0793
1835,34.9114
1836,34.8444
1837,30.4981
1838,29.594
1839,12.9184
1840,12.8512
1841,33.1107
1842,33.0436
1843,30.6355
1844,30.5683
1845,42.4912
1846,42.424
1847,43.7437
1848,57.8814
1849,57.8142
