#wnum,raman
275,1.63344
276,1.60827
277,0.661382
278,0.16286
279,0.137684
280,0.412499
281,1.20789
282,2.2873
283,2.87887
284,3.70433
285,5.26489
286,8.80624
287,13.7354
288,13.7102
289,12.3226
290,7.29573
291,7.27054
292,8.14214
293,8.11695
294,5.33828
295,3.10061
296,3.0754
297,7.70859
298,7.68336
299,6.41407
300,5.1061
301,3.13563
302,-0.237491
303,-0.262788
304,4.45536
305,7.57842
306,7.55309
307,6.28273
308,6.11112
309,6.08578
310,7.79183
311,10.788
312,10.7627
313,9.33645
314,6.66091
315,5.60271
316,5.57747
317,6.54511
318,7.96355
319,8.20547
320,9.21344
321,11.0517
322,11.0267
323,8.29037
324,6.13065
325,6.10574
326,6.29915
327,6.49394
328,11.0139
329,19.7841
330,19.7595
331,10.2915
332,10.2669
333,10.6567
334,14.5708
335,14.5464
336,7.93907
337,7.91483
338,9.26776
339,9.24364
340,6.35052
341,-0.465264
342,-0.489197
343,3.7471
344,8.8716
345,11.3128
346,11.6293
347,13.1313
348,13.1079
349,11.0993
350,9.23957
351,9.21659
352,12.7649
353,13.856
354,15.0765
355,16.5791
356,17.7434
357,17.7215
358,17.0351
359,14.0927
360,8.8278
361,8.80673
362,10.7595
363,20.5846
364,20.5642
365,11.7643
366,11.7445
367,12.6348
368,15.1187
369,15.6309
370,15.6122
371,12.1247
372,9.73007
373,9.71228
374,13.9426
375,19.3788
376,22.6256
377,24.1834
378,24.1673
379,21.3346
380,20.6731
381,20.658
382,23.3724
383,23.358
384,22.0975
385,19.4236
386,10.9341
387,6.96742
388,6.95487
389,14.7114
390,14.7948
391,14.7834
392,11.3419
393,11.3312
394,11.9488
395,16.1529
396,24.4178
397,27.2131
398,27.2044
399,15.2572
400,10.7683
401,10.3197
402,10.3127
403,11.0868
404,11.0806
405,7.32474
406,7.31936
407,12.4949
408,17.3314
409,19.2662
410,20.3617
411,22.7425
412,22.7396
413,19.9272
414,17.0685
415,14.9363
416,13.025
417,12.6007
418,12.6002
419,20.0566
420,25.5061
421,25.5068
422,19.8542
423,15.8904
424,15.8923
425,20.6178
426,20.6205
427,17.6302
428,17.6337
429,24.0805
430,25.8806
431,25.8851
432,18.9813
433,17.0318
434,17.0375
435,19.284
436,21.0082
437,21.0148
438,17.1273
439,13.1414
440,10.6159
441,9.73605
442,9.74437
443,15.123
444,18.6356
445,18.6448
446,15.9721
447,15.4796
448,15.4897
449,17.058
450,17.0686
451,15.7645
452,13.2551
453,10.7639
454,9.04787
455,8.26575
456,7.05547
457,6.09738
458,5.57939
459,5.59199
460,6.04609
461,7.77542
462,13.4063
463,13.4196
464,12.1586
465,4.26276
466,4.27646
467,5.13075
468,5.14469
469,4.74054
470,3.23954
471,3.25377
472,4.4011
473,4.41547
474,4.6147
475,4.86513
476,7.57477
477,7.58933
478,4.85788
479,-0.240589
480,-0.225997
481,1.87759
482,2.8334
483,2.84797
484,0.52145
485,0.535974
486,3.89129
487,5.46218
488,5.4766
489,4.632
490,4.64634
491,4.95445
492,5.6896
493,6.98122
494,8.93063
495,11.6884
496,11.7024
497,10.8986
498,10.9123
499,13.0024
500,17.2271
501,17.2406
502,13.1171
503,10.1877
504,8.02495
505,6.05266
506,6.06547
507,9.32427
508,9.33678
509,6.56968
510,3.24488
511,3.25688
512,6.93964
513,8.48406
514,8.52118
515,9.88037
516,9.89139
517,9.07349
518,6.07395
519,3.27008
520,3.28018
521,6.54755
522,9.45585
523,9.49714
524,9.47424
525,6.60492
526,-0.704046
527,-0.695855
528,4.16741
529,8.00999
530,8.01731
531,6.76859
532,6.77534
533,7.81163
534,9.50037
535,11.0072
536,11.0129
537,8.59433
538,6.54761
539,2.88182
540,1.48681
541,1.49133
542,11.5358
543,11.5399
544,7.9675
545,2.72985
546,2.7333
547,5.58588
548,7.76492
549,8.21108
550,8.65502
551,11.125
552,11.5157
553,11.5178
554,7.66612
555,7.66792
556,11.095
557,11.0965
558,8.00067
559,6.64582
560,6.64685
561,6.64772
562,4.97632
563,3.21305
564,3.21351
565,14.3246
566,14.3249
567,13.8191
568,6.68441
569,6.68424
570,9.16604
571,9.16564
572,4.13197
573,4.02832
574,4.02759
575,8.17375
576,9.34209
577,9.83579
578,12.0912
579,13.0372
580,13.1941
581,14.497
582,14.4955
583,13.1406
584,9.37064
585,5.9764
586,3.91072
587,3.90875
588,6.35935
589,8.69572
590,10.1045
591,10.7249
592,10.824
593,11.1419
594,11.1394
595,13.9164
596,13.9136
597,13.2011
598,11.5003
599,11.4973
600,14.5474
601,15.9604
602,19.1094
603,19.1061
604,13.8621
605,9.44271
606,9.43915
607,11.1645
608,11.8438
609,11.8399
610,9.19247
611,6.47344
612,6.46934
613,11.5964
614,15.662
615,15.6576
616,8.81117
617,5.53476
618,2.76815
619,2.76331
620,8.47804
621,15.7089
622,15.7037
623,13.6338
624,13.6284
625,16.3052
626,16.2995
627,14.8024
628,14.6242
629,14.618
630,16.6472
631,16.6408
632,12.9567
633,11.8617
634,11.8548
635,11.8478
636,9.38906
637,6.34385
638,6.31675
639,5.7454
640,2.77533
641,-0.676687
642,-0.68507
643,5.48111
644,11.44
645,11.4311
646,10.3507
647,10.3414
648,11.1242
649,12.2752
650,13.5648
651,13.5548
652,11.8264
653,11.8162
654,12.0599
655,15.5653
656,17.3892
657,18.0117
658,18.0011
659,12.8341
660,10.798
661,10.7871
662,10.7762
663,8.53076
664,3.36041
665,2.66188
666,2.65074
667,4.3157
668,7.29488
669,10.603
670,15.1443
671,16.4684
672,16.4571
673,8.59857
674,6.79438
675,6.78314
676,8.09421
677,8.083
678,8.07182
679,9.73423
680,12.3296
681,15.0221
682,18.1164
683,18.1055
684,13.7476
685,13.7367
686,13.9824
687,18.8143
688,18.8036
689,16.6778
690,11.7893
691,4.58104
692,0.812417
693,0.802097
694,1.59759
695,1.94452
696,2.25725
697,5.75397
698,11.3145
699,11.3047
700,6.23183
701,2.52203
702,0.287492
703,0.278124
704,0.650577
705,3.38307
706,3.37403
707,0.146821
708,0.138016
709,0.18747
710,0.552972
711,0.544533
712,0.53622
713,2.87931
714,5.10835
715,5.10043
716,4.41499
717,4.40734
718,8.58063
719,8.57326
720,7.16486
721,4.94286
722,4.93593
723,7.38952
724,9.79705
725,12.0142
726,12.0079
727,7.51658
728,4.12267
729,2.81143
730,2.74094
731,2.73538
732,3.96739
733,5.48175
734,6.53193
735,6.52702
736,4.27093
737,4.26634
738,6.5717
739,8.36428
740,8.36019
741,7.19994
742,6.70386
743,6.70027
744,7.65828
745,11.6713
746,11.6682
747,4.85253
748,0.900216
749,0.897638
750,4.03046
751,8.18892
752,12.1221
753,12.1202
754,10.7245
755,8.36007
756,5.54277
757,5.54153
758,8.43705
759,13.3165
760,14.1422
761,14.1416
762,10.398
763,4.34976
764,4.34965
765,4.54223
766,7.37905
767,7.77404
768,7.77455
769,7.64407
770,7.64488
771,8.09274
772,8.54744
773,8.54868
774,7.94927
775,6.30093
776,3.79303
777,3.79483
778,9.57898
779,15.7388
780,15.741
781,13.3655
782,10.0599
783,7.01874
784,7.02141
785,11.3354
786,14.0256
787,15.6165
788,15.6196
789,8.92675
790,5.83026
791,5.83365
792,14.1903
793,14.1939
794,10.4695
795,7.29507
796,7.03632
797,6.82682
798,5.37935
799,5.38333
800,6.97129
801,10.5717
802,10.5758
803,7.31988
804,7.32408
805,11.8449
806,12.3431
807,12.3474
808,10.0179
809,7.80487
810,6.94219
811,6.94648
812,6.95076
813,6.63078
814,3.86688
815,3.87111
816,4.04218
817,6.18507
818,7.85612
819,7.86018
820,3.68361
821,3.68755
822,6.75602
823,16.4979
824,16.5016
825,15.6718
826,13.2115
827,9.03253
828,6.90205
829,6.90527
830,7.66262
831,9.73264
832,9.73547
833,6.03847
834,-1.00038
835,-0.998008
836,6.76735
837,10.8316
838,10.8335
839,10.8353
840,11.7538
841,11.7554
842,7.83392
843,7.83539
844,8.01441
845,15.3288
846,15.3301
847,10.0984
848,5.13204
849,0.352527
850,0.353813
851,1.43806
852,5.7784
853,13.625
854,13.6265
855,13.0259
856,3.44212
857,3.44378
858,4.83386
859,4.83571
860,1.7493
861,1.7514
862,5.04281
863,9.38464
864,9.40311
865,9.55849
866,14.1047
867,18.153
868,21.1933
869,26.1327
870,26.1364
871,26.5604
872,28.5761
873,39.4978
874,48.8429
875,58.1468
876,67.7046
877,75.9358
878,86.1887
879,96.4238
880,103.305
881,112.182
882,121.999
883,123.733
884,123.741
885,117.272
886,104.677
887,94.6384
888,87.5714
889,79.8565
890,70.3895
891,61.3377
892,52.3863
893,43.5903
894,38.5818
895,36.6075
896,34.212
897,26.3311
898,19.7202
899,18.1396
900,17.4411
901,16.9894
902,16.7238
903,9.25189
904,0.790117
905,0.802493
906,1.31082
907,1.84725
908,2.56101
909,3.47052
910,4.58052
911,4.59344
912,0.531304
913,0.544309
914,4.39363
915,5.30624
916,5.31929
917,4.87687
918,4.88989
919,5.50833
920,5.52127
921,2.28766
922,1.81062
923,1.82335
924,3.14847
925,5.47944
926,6.65636
927,6.68453
928,6.69667
929,3.54411
930,0.118601
931,-0.873062
932,-0.861617
933,1.72382
934,5.87313
935,8.09816
936,10.4224
937,10.4329
938,10.1281
939,7.99815
940,8.00815
941,10.4273
942,13.2478
943,13.2573
944,12.9846
945,10.4683
946,5.22363
947,5.2326
948,7.10741
949,16.9387
950,16.9472
951,15.2313
952,15.1611
953,15.1693
954,15.4613
955,15.613
956,15.6209
957,8.0702
958,3.3681
959,3.37568
960,8.07217
961,11.231
962,11.7773
963,11.7845
964,11.7858
965,10.9895
966,8.86385
967,8.87068
968,12.2716
969,12.7781
970,12.7846
971,12.7911
972,13.6221
973,16.2187
974,16.225
975,15.5049
976,11.1632
977,10.4454
978,7.2948
979,2.93605
980,2.9418
981,5.00209
982,11.1205
983,15.9858
984,15.9912
985,5.51431
986,5.51956
987,7.7692
988,14.1065
989,16.5495
990,19.479
991,19.825
992,19.8298
993,17.2793
994,15.5951
995,15.5996
996,16.2365
997,19.5635
998,19.5677
999,20.5612
1000,20.5651
1001,24.5592
1002,24.5629
1003,24.4729
1004,24.4764
1005,24.4797
1006,21.5882
1007,15.3813
1008,15.3842
1009,17.2864
1010,17.6533
1011,17.6558
1012,16.4435
1013,13.2451
1014,11.7803
1015,11.5412
1016,9.60019
1017,5.96797
1018,2.31353
1019,-0.673838
1020,-0.673042
1021,4.19522
1022,5.99245
1023,5.99264
1024,4.96781
1025,2.23699
1026,2.23663
1027,11.9725
1028,22.4528
1029,22.4519
1030,19.4986
1031,15.5526
1032,10.9452
1033,8.05931
1034,6.33892
1035,5.79211
1036,5.79038
1037,8.24969
1038,12.3306
1039,12.3286
1040,10.7365
1041,10.7343
1042,15.1139
1043,19.1328
1044,20.6979
1045,23.175
1046,25.9703
1047,31.2144
1048,31.2118
1049,30.8923
1050,26.3284
1051,25.1912
1052,25.1884
1053,25.4959
1054,25.4931
1055,24.5108
1056,23.8286
1057,23.8257
1058,19.0176
1059,16.8374
1060,16.8344
1061,19.0941
1062,19.091
1063,18.7838
1064,18.7156
1065,17.7787
1066,15.6888
1067,7.76765
1068,4.24838
1069,4.24514
1070,5.33187
1071,5.32858
1072,1.07529
1073,0.34748
1074,0.344108
1075,0.435785
1076,0.444385
1077,1.16382
1078,2.73505
1079,7.39814
1080,14.7329
1081,14.7293
1082,7.60761
1083,7.60396
1084,11.7296
1085,20.2183
1086,27.071
1087,27.0672
1088,17.3076
1089,17.3037
1090,19.6397
1091,27.6507
1092,27.8848
1093,27.6425
1094,24.9388
1095,24.6165
1096,24.6122
1097,27.6743
1098,27.6699
1099,26.8059
1100,23.4346
1101,18.4684
1102,15.3295
1103,15.1938
1104,15.1888
1105,15.1836
1106,14.594
1107,12.0156
1108,10.0994
1109,5.18852
1110,0.604486
1111,0.598563
1112,1.35528
1113,5.14525
1114,8.40726
1115,8.40067
1116,8.39389
1117,9.2424
1118,10.1572
1119,10.1498
1120,7.55466
1121,7.54685
1122,7.78565
1123,7.77739
1124,4.91209
1125,1.90005
1126,-0.564807
1127,-0.574087
1128,0.569162
1129,4.38532
1130,10.0378
1131,10.0275
1132,7.02077
1133,5.13103
1134,5.11996
1135,7.52919
1136,13.117
1137,13.1052
1138,9.65823
1139,5.11502
1140,5.10255
1141,5.58525
1142,10.0257
1143,13.1301
1144,13.3554
1145,14
1146,13.9862
1147,13.3784
1148,8.64433
1149,6.03937
1150,3.58471
1151,-0.237466
1152,-0.252454
1153,1.44139
1154,9.98922
1155,17.6814
1156,17.6657
1157,14.0508
1158,12.4808
1159,11.6065
1160,7.17169
1161,1.90137
1162,1.88473
1163,9.84646
1164,14.9339
1165,16.8314
1166,16.8143
1167,13.155
1168,13.1376
1169,13.9873
1170,14.0577
1171,14.0401
1172,13.0698
1173,13.052
1174,14.3676
1175,14.3497
1176,13.8396
1177,13.723
1178,13.0184
1179,12.9324
1180,12.9141
1181,17.4108
1182,21.0058
1183,24.5861
1184,24.5677
1185,17.352
1186,9.62513
1187,6.96021
1188,6.94162
1189,7.03564
1190,8.96767
1191,12.2007
1192,12.182
1193,10.0645
1194,8.72294
1195,8.70418
1196,9.28265
1197,9.26385
1198,9.24503
1199,10.3283
1200,15.6947
1201,15.6758
1202,14.3795
1203,14.3607
1204,14.7943
1205,14.7753
1206,8.89968
1207,7.01997
1208,7.00103
1209,6.98697
1210,7.006
1211,8.43223
1212,8.41324
1213,7.74674
1214,2.13063
1215,-0.450814
1216,-0.469855
1217,0.380226
1218,4.45309
1219,6.52809
1220,6.83412
1221,11.161
1222,19.49
1223,19.4711
1224,12.7425
1225,12.7237
1226,16.1818
1227,16.1631
1228,11.9315
1229,11.542
1230,10.735
1231,9.29865
1232,4.09137
1233,4.07325
1234,9.55829
1235,11.4866
1236,11.4689
1237,8.41155
1238,1.45899
1239,1.44169
1240,9.65383
1241,9.63686
1242,9.15567
1243,4.84102
1244,0.13863
1245,0.12239
1246,7.12069
1247,13.3296
1248,13.3139
1249,10.3745
1250,10.2284
1251,10.2134
1252,8.05691
1253,8.0424
1254,9.59295
1255,12.9477
1256,16.4659
1257,16.4524
1258,15.8121
1259,13.0076
1260,9.68108
1261,9.66865
1262,13.0363
1263,15.0941
1264,15.0825
1265,15.0713
1266,20.3059
1267,22.6228
1268,22.6124
1269,22.2469
1270,22.2372
1271,24.5385
1272,26.8325
1273,26.8237
1274,22.3397
1275,17.3207
1276,13.4781
1277,13.4705
1278,14.5684
1279,16.0007
1280,15.9942
1281,12.3945
1282,8.12443
1283,7.02836
1284,7.02309
1285,10.1162
1286,12.2125
1287,12.2082
1288,7.78191
1289,7.40046
1290,7.39715
1291,10.0815
1292,10.0789
1293,6.54423
1294,5.51834
1295,5.51667
1296,10.4646
1297,15.4793
1298,21.7006
1299,21.7003
1300,17.8911
1301,10.6956
1302,10.6962
1303,10.6971
1304,9.21097
1305,7.3533
1306,7.35513
1307,7.35728
1308,1.18328
1309,1.18603
1310,9.38012
1311,11.2902
1312,11.2938
1313,8.82987
1314,8.83411
1315,15.0284
1316,19.3041
1317,19.3092
1318,17.4523
1319,12.5504
1320,7.5378
1321,7.544
1322,8.23237
1323,9.23676
1324,10.3348
1325,10.3421
1326,5.19994
1327,4.33867
1328,4.34666
1329,7.41193
1330,9.9538
1331,9.9625
1332,7.48902
1333,7.49816
1334,15.7728
1335,17.8302
1336,17.84
1337,15.5989
1338,15.3036
1339,14.4733
1340,10.6631
1341,9.56536
1342,9.09834
1343,9.10941
1344,2.76045
1345,2.77184
1346,8.5454
1347,13.8872
1348,19.7217
1349,19.7336
1350,9.21502
1351,3.39009
1352,3.40241
1353,9.58719
1354,21.4086
1355,21.4212
1356,15.7751
1357,13.1086
1358,11.012
1359,8.1271
1360,8.14005
1361,8.26173
1362,9.68894
1363,10.1402
1364,10.1532
1365,15.9354
1366,21.1556
1367,21.1687
1368,16.9605
1369,14.0067
1370,14.0197
1371,19.2536
1372,19.2666
1373,15.6989
1374,7.67549
1375,7.68824
1376,16.0754
1377,16.0879
1378,14.1157
1379,14.1281
1380,14.1403
1381,8.26627
1382,8.27818
1383,13.2971
1384,21.5214
1385,21.5328
1386,17.944
1387,13.2193
1388,12.079
1389,12.0896
1390,15.487
1391,18.265
1392,18.2747
1393,15.395
1394,9.38676
1395,4.84401
1396,4.8526
1397,6.07076
1398,8.67103
1399,9.36171
1400,9.3689
1401,5.54457
1402,5.55098
1403,10.2393
1404,10.7832
1405,10.7884
1406,8.60117
1407,-1.26559
1408,-1.26183
1409,1.62315
1410,6.86854
1411,10.8627
1412,12.1525
1413,14.9123
1414,16.339
1415,16.3397
1416,14.2684
1417,14.2682
1418,14.7198
1419,14.7189
1420,11.6982
1421,10.6471
1422,10.6452
1423,11.4196
1424,11.417
1425,10.5377
1426,10.5345
1427,10.531
1428,5.68446
1429,2.24667
1430,2.24236
1431,6.7576
1432,19.5095
1433,22.0971
1434,22.0918
1435,17.6057
1436,9.3808
1437,4.18457
1438,4.17849
1439,9.70331
1440,14.229
1441,14.2224
1442,2.97753
1443,2.9706
1444,8.0748
1445,16.5752
1446,27.1918
1447,29.6173
1448,30.0751
1449,32.0846
1450,32.0768
1451,25.6235
1452,25.2403
1453,25.2322
1454,33.6988
1455,33.6906
1456,33.39
1457,28.1119
1458,28.1034
1459,36.3239
1460,36.3154
1461,25.6354
1462,22.1326
1463,21.4426
1464,20.1091
1465,20.1003
1466,22.7308
1467,31.4735
1468,31.4646
1469,26.7935
1470,16.1554
1471,7.96178
1472,6.22507
1473,6.216
1474,9.63953
1475,16.5292
1476,23.0734
1477,23.0642
1478,11.6928
1479,8.76054
1480,8.75123
1481,15.5134
1482,18.7326
1483,20.1996
1484,20.1901
1485,19.719
1486,19.7028
1487,14.6317
1488,3.50463
1489,3.49496
1490,11.7985
1491,11.7888
1492,13.1176
1493,15.4851
1494,23.8528
1495,24.4524
1496,24.4423
1497,10.3842
1498,10.2721
1499,10.2618
1500,17.8603
1501,17.8498
1502,15.5258
1503,8.70938
1504,4.99938
1505,4.98857
1506,5.76956
1507,5.75853
1508,3.61498
1509,-0.486822
1510,-0.498197
1511,3.72542
1512,8.48405
1513,18.1219
1514,18.1101
1515,-0.210455
1516,-0.222479
1517,7.45312
1518,7.44093
1519,7.74598
1520,18.289
1521,18.2766
1522,14.9846
1523,6.81281
1524,6.77799
1525,6.78782
1526,8.40902
1527,8.39651
1528,5.46147
1529,5.44897
1530,9.40065
1531,11.9925
1532,14.1601
1533,14.1477
1534,14.1354
1535,18.2473
1536,18.2351
1537,13.4718
1538,9.3768
1539,9.34582
1540,6.9868
1541,6.97504
1542,9.66318
1543,13.0682
1544,17.6874
1545,23.0594
1546,23.0483
1547,11.2474
1548,11.2365
1549,11.5346
1550,11.524
1551,3.54917
1552,3.53892
1553,5.04252
1554,5.03261
1555,5.02288
1556,6.19511
1557,15.6657
1558,15.6565
1559,15.6476
1560,25.0947
1561,28.3614
1562,28.3531
1563,24.1912
1564,18.3681
1565,15.7021
1566,14.5981
1567,13.6042
1568,12.7455
1569,9.64522
1570,9.63868
1571,19.3106
1572,19.3045
1573,18.8452
1574,16.9294
1575,14.9476
1576,14.9425
1577,9.84873
1578,7.36651
1579,7.36218
1580,9.5272
1581,14.9063
1582,14.9028
1583,11.8467
1584,8.07101
1585,6.84624
1586,6.84371
1587,6.84143
1588,5.24589
1589,5.24413
1590,22.6495
1591,22.6482
1592,16.1418
1593,8.13509
1594,8.13462
1595,16.4002
1596,18.4492
1597,18.4495
1598,15.6205
1599,11.21
1600,11.2111
1601,12.6914
1602,17.623
1603,17.6248
1604,17.6269
1605,20.3626
1606,20.3652
1607,19.0763
1608,19.0793
1609,23.0983
1610,23.1018
1611,14.5208
1612,14.5247
1613,14.5288
1614,7.11865
1615,7.12322
1616,7.32199
1617,7.32698
1618,1.13866
1619,1.14405
1620,27.7256
1621,27.7313
1622,9.77318
1623,9.7793
1624,8.54937
1625,8.0558
1626,3.81634
1627,3.82313
1628,9.19522
1629,12.481
1630,12.4883
1631,10.571
1632,10.5785
1633,10.8731
1634,10.8809
1635,4.57527
1636,4.58324
1637,14.729
1638,15.4893
1639,15.9346
1640,16.6482
1641,17.7879
1642,17.7964
1643,11.0294
1644,5.4117
1645,5.42037
1646,5.81181
1647,13.6699
1648,20.165
1649,20.1738
1650,13.2727
1651,13.2815
1652,12.2147
1653,8.26311
1654,8.27188
1655,22.6099
1656,22.6186
1657,12.0846
1658,12.0932
1659,17.4227
1660,19.4433
1661,19.4517
1662,15.8959
1663,11.2606
1664,8.16294
1665,8.17092
1666,15.2924
1667,24.9115
1668,24.919
1669,19.8092
1670,18.1659
1671,18.173
1672,21.68
1673,21.6867
1674,20.1369
1675,14.6483
1676,13.7702
1677,12.5949
1678,2.63006
1679,2.48258
1680,2.48745
1681,17.6111
1682,17.6154
1683,14.8776
1684,14.8812
1685,14.8844
1686,13.7815
1687,13.784
1688,15.8809
1689,15.8826
1690,8.61568
1691,2.09959
1692,2.09998
1693,3.95329
1694,9.14048
1695,9.13944
1696,-0.620862
1697,-0.622919
1698,1.03311
1699,1.84616
1700,1.84252
1701,1.43966
1702,1.43496
1703,4.02534
1704,4.01956
1705,2.06884
1706,2.06198
1707,2.05459
1708,1.22164
1709,1.21316
1710,2.65238
1711,10.2735
1712,11.2383
1713,11.2276
1714,3.32031
1715,3.3085
1716,4.36995
1717,4.35702
1718,4.34352
1719,13.3356
1720,13.3209
1721,5.34761
1722,4.26948
1723,4.25311
1724,11.5962
1725,20.441
1726,23.0688
1727,23.0501
1728,11.8787
1729,5.73407
1730,2.12146
1731,2.10034
1732,4.8325
1733,8.06173
1734,9.61685
1735,9.59326
1736,9.56904
1737,12.2024
1738,12.1769
1739,11.1517
1740,5.36382
1741,-0.940186
1742,-0.968257
1743,4.12939
1744,12.3037
1745,13.8175
1746,13.7869
1747,8.38162
1748,6.42202
1749,5.97569
1750,6.35682
1751,9.98551
1752,16.2764
1753,16.2419
1754,9.95519
1755,7.86912
1756,7.83321
1757,6.85081
1758,6.814
1759,6.77676
1760,6.74367
1761,18.7605
1762,18.7221
1763,17.1579
1764,17.1187
1765,17.0791
1766,10.1362
1767,4.53567
1768,4.4951
1769,12.4161
1770,23.9398
1771,23.8984
1772,18.6464
1773,18.4867
1774,17.6244
1775,12.8741
1776,5.67709
1777,3.29934
1778,3.25614
1779,6.5083
1780,6.46471
1781,6.42093
1782,7.26061
1783,14.1126
1784,14.0684
1785,13.1785
1786,2.42545
1787,2.38078
1788,23.3333
1789,23.2884
1790,23.2434
1791,28.8236
1792,28.7785
1793,26.382
1794,26.3367
1795,24.3457
1796,24.3003
1797,20.0185
1798,13.2112
1799,13.1657
1800,31.8145
1801,43.8909
1802,43.8454
1803,39.0338
1804,31.2865
1805,18.0431
1806,17.9976
1807,20.3493
1808,32.2018
1809,32.1563
1810,31.2497
1811,23.7123
1812,23.667
1813,26.8559
1814,26.8106
1815,26.7654
1816,28.8249
1817,28.7798
1818,14.8998
1819,6.31528
1820,6.27034
1821,10.285
1822,14.812
1823,14.7672
1824,14.7225
1825,20.525
1826,30.4459
1827,37.2674
1828,37.2229
1829,27.8897
1830,11.0206
1831,10.9763
1832,24.0463
1833,30.832
1834,30.7879
1835,22.103
1836,18.0517
1837,18.0078
1838,17.9638
1839,17.7851
1840,17.7413
1841,24.4695
1842,27.4825
1843,28.4172
1844,33.2027
1845,33.159
1846,27.0841
1847,14.6411
1848,5.31381
1849,-0.511115
