#wnum,raman
275,6.37924
276,6.2706
277,6.15943
278,6.06415
279,17.6219
280,34.9474
281,48.7725
282,53.0301
283,53.8766
284,53.7654
285,49.4759
286,48.7601
287,48.6488
288,48.5376
289,31.5444
290,15.7315
291,15.6202
292,20.5174
293,20.406
294,12.3659
295,3.05227
296,2.94072
297,6.22254
298,10.1284
299,16.6135
300,22.164
301,22.0521
302,10.0052
303,9.89302
304,10.1847
305,16.724
306,23.5961
307,23.6382
308,24.2557
309,24.1428
310,28.364
311,34.036
312,33.9226
313,25.7838
314,15.3223
315,8.83859
316,8.7244
317,8.60999
318,7.3794
319,3.60176
320,3.48663
321,16.8037
322,22.4721
323,22.3561
324,17.5768
325,13.9921
326,12.297
327,12.1799
328,25.3696
329,34.7098
330,34.5916
331,21.7055
332,10.1004
333,3.43618
334,-1.57131
335,-1.69146
336,-0.378653
337,-0.151402
338,-0.0724714
339,-0.156404
340,8.92442
341,11.5743
342,11.4517
343,5.53327
344,5.41028
345,11.1191
346,19.5338
347,19.4104
348,12.8367
349,12.7086
350,12.5849
351,16.4434
352,21.8223
353,28.7929
354,28.6693
355,22.0372
356,16.0183
357,15.8189
358,15.6958
359,12.9543
360,9.91803
361,9.79556
362,17.38
363,27.3314
364,33.4358
365,33.3145
366,30.2095
367,17.9974
368,7.73809
369,7.61837
370,8.02772
371,10.132
372,10.066
373,10.2969
374,12.2639
375,14.5226
376,14.4065
377,10.263
378,10.1481
379,22.2225
380,22.1089
381,21.7843
382,9.72931
383,9.61786
384,20.5788
385,31.4439
386,43.7478
387,43.6395
388,35.822
389,11.8197
390,11.714
391,14.3737
392,15.0099
393,14.9068
394,14.8048
395,21.2179
396,41.5488
397,42.4264
398,42.3283
399,33.4547
400,33.3587
401,44.0039
402,43.9101
403,31.0412
404,18.6962
405,16.6941
406,16.6047
407,23.7956
408,43.1666
409,47.1614
410,47.0768
411,44.6363
412,44.5541
413,50.4993
414,54.5868
415,58.3508
416,58.2736
417,49.8984
418,49.8238
419,52.0571
420,51.9852
421,52.794
422,55.5698
423,68.0353
424,69.6487
425,70.3375
426,71.5495
427,71.6291
428,72.3762
429,78.1147
430,83.5628
431,84.4494
432,85.3621
433,88.8172
434,88.7642
435,81.28
436,73.7642
437,66.6929
438,65.8345
439,65.7883
440,74.1334
441,85.4887
442,85.4465
443,77.7686
444,56.6857
445,48.1647
446,48.1278
447,54.0795
448,62.3287
449,62.2955
450,48.9209
451,34.4279
452,34.3985
453,34.6268
454,40.8884
455,41.8456
456,41.821
457,34.5053
458,13.7277
459,13.7064
460,25.1952
461,44.0596
462,62.4359
463,62.4189
464,61.3997
465,41.8418
466,36.1713
467,34.1642
468,36.1463
469,38.973
470,45.3237
471,45.3145
472,34.5056
473,21.4629
474,11.391
475,11.3852
476,17.7734
477,36.0705
478,40.714
479,40.7111
480,35.2344
481,31.7976
482,28.4788
483,27.8297
484,25.4456
485,20.67
486,16.173
487,12.8077
488,3.30633
489,3.30936
490,7.74553
491,23.7706
492,32.1215
493,34.9115
494,37.1472
495,37.1525
496,28.0902
497,20.766
498,15.6776
499,15.6839
500,18.4078
501,20.9432
502,25.6034
503,25.6103
504,25.0012
505,19.7203
506,19.7272
507,28.3412
508,44.6384
509,47.0765
510,47.0832
511,33.1194
512,19.4196
513,13.4876
514,12.6844
515,12.69
516,32.3968
517,43.3844
518,43.389
519,35.7816
520,30.884
521,26.5264
522,26.5292
523,32.4414
524,41.0527
525,50.9966
526,55.8779
527,55.8776
528,52.1232
529,45.5772
530,23.7324
531,20.503
532,20.4987
533,39.9912
534,39.9851
535,37.6217
536,32.1621
537,28.7571
538,28.7468
539,36.703
540,37.9851
541,37.9712
542,18.2271
543,18.2106
544,21.2702
545,33.2582
546,33.2375
547,18.3702
548,10.9142
549,10.8889
550,10.862
551,-2.02544
552,-3.02617
553,-3.05818
554,11.7974
555,11.762
556,10.2723
557,10.2336
558,29.0715
559,34.8196
560,34.7764
561,29.9425
562,29.8964
563,37.2786
564,37.2296
565,31.6586
566,25.8393
567,20.5282
568,14.7213
569,7.292
570,4.1487
571,4.09125
572,17.871
573,28.0179
574,28.6475
575,28.5859
576,32.8573
577,32.7938
578,29.6415
579,19.3914
580,19.3253
581,30.2435
582,40.4056
583,40.3372
584,33.5442
585,28.3507
586,27.0238
587,25.5638
588,19.1251
589,5.66011
590,4.32053
591,4.24738
592,12.6016
593,24.8178
594,24.7433
595,23.5144
596,20.0065
597,19.9309
598,20.8329
599,20.7568
600,19.3606
601,19.284
602,36.9075
603,38.3842
604,38.3071
605,25.1226
606,18.8609
607,18.0992
608,18.0218
609,22.7595
610,22.6821
611,22.2104
612,22.133
613,22.9941
614,27.8145
615,27.7374
616,10.8793
617,10.8025
618,23.7972
619,27.9476
620,27.8715
621,11.9055
622,11.8299
623,18.3202
624,24.9615
625,31.3785
626,31.3043
627,21.356
628,21.2826
629,21.5704
630,39.1269
631,39.0548
632,34.1699
633,34.0988
634,41.8328
635,45.363
636,45.2935
637,35.0652
638,30.0147
639,29.7158
640,29.0649
641,26.64
642,26.5742
643,31.1829
644,32.3064
645,32.2428
646,28.7121
647,25.6271
648,16.5808
649,5.89191
650,1.52852
651,1.46935
652,13.0188
653,21.5841
654,21.5274
655,14.5774
656,14.5224
657,35.6368
658,35.5835
659,33.389
660,33.3375
661,34.9535
662,45.0118
663,44.9631
664,26.1976
665,18.9129
666,18.8671
667,22.3012
668,22.3756
669,22.3327
670,18.2806
671,15.7459
672,15.7061
673,24.8964
674,32.4379
675,36.7994
676,37.4757
677,37.4411
678,34.0215
679,32.9807
680,32.9493
681,33.5497
682,35.0424
683,35.0143
684,24.0096
685,11.0382
686,8.63994
687,8.61628
688,13.3725
689,23.1165
690,25.808
691,25.7888
692,24.2062
693,21.5968
694,21.5811
695,30.4332
696,42.7436
697,42.7313
698,41.3843
699,39.5278
700,36.9764
701,36.9687
702,37.6549
703,37.6495
704,31.511
705,30.5159
706,30.5139
707,47.1145
708,55.589
709,55.5904
710,48.4236
711,28.9626
712,26.6898
713,26.6957
714,46.1926
715,54.1521
716,54.1614
717,51.1247
718,36.5014
719,27.4641
720,27.4778
721,27.4925
722,24.9727
723,19.0883
724,14.3004
725,14.1182
726,14.1383
727,29.5274
728,29.5495
729,22.733
730,12.5147
731,12.5397
732,12.5658
733,12.487
734,3.0474
735,3.07631
736,13.7413
737,21.8316
738,22.7037
739,23.4767
740,26.6585
741,26.6929
742,19.7359
743,4.62041
744,4.65736
745,16.0442
746,16.0828
747,15.2545
748,8.06377
749,8.10477
750,9.5163
751,12.0878
752,14.7693
753,16.4085
754,18.0302
755,27.1557
756,47.0959
757,53.525
758,53.5725
759,45.3539
760,36.3043
761,26.7904
762,26.8404
763,31.7537
764,36.3976
765,39.7309
766,39.7831
767,31.8126
768,28.0151
769,28.0689
770,28.1231
771,26.6933
772,13.8286
773,13.8841
774,22.6513
775,28.7853
776,28.842
777,24.1492
778,16.9604
779,17.018
780,17.8395
781,28.5514
782,28.6097
783,26.6347
784,26.6934
785,43.2574
786,43.3163
787,36.778
788,18.6567
789,9.7393
790,7.96087
791,8.02019
792,21.564
793,21.6233
794,14.435
795,14.4942
796,28.8388
797,28.8978
798,24.9405
799,9.15958
800,9.21797
801,15.8306
802,22.405
803,22.4627
804,20.6626
805,7.52784
806,7.58446
807,16.8241
808,16.8799
809,9.62577
810,-0.763895
811,-0.709472
812,2.18569
813,2.23907
814,-1.75269
815,-1.7004
816,13.1099
817,21.5216
818,22.562
819,24.2589
820,29.6823
821,29.7316
822,29.2868
823,19.3792
824,19.4273
825,19.9207
826,22.6172
827,22.6643
828,17.7056
829,17.7522
830,18.8996
831,18.9456
832,18.7813
833,14.2727
834,14.3181
835,15.2163
836,29.379
837,39.7938
838,42.7116
839,44.5898
840,44.6345
841,41.8159
842,14.1671
843,5.24371
844,5.28824
845,25.3599
846,25.4045
847,2.32271
848,2.36732
849,17.8388
850,34.0267
851,41.614
852,41.6589
853,39.7027
854,33.7128
855,26.2279
856,26.2734
857,27.6268
858,39.5543
859,46.341
860,48.0747
861,49.303
862,56.5917
863,56.6386
864,51.8798
865,51.9272
866,61.0412
867,96.3573
868,114.068
869,121.554
870,128.365
871,137.842
872,152.925
873,176.053
874,199.084
875,214.215
876,228.822
877,254.202
878,280.422
879,325.111
880,379.043
881,411.987
882,414.483
883,414.535
884,393.261
885,380.085
886,370.759
887,355.082
888,333.042
889,313.311
890,279.339
891,240.456
892,219.262
893,200.612
894,178.74
895,166.734
896,150.833
897,121.109
898,95.9284
899,80.0445
900,69.5705
901,69.6176
902,71.4583
903,77.1681
904,77.2123
905,70.6028
906,64.3108
907,64.0423
908,56.5773
909,51.5606
910,49.8229
911,44.7058
912,36.0095
913,30.8835
914,30.6781
915,29.3057
916,29.3313
917,29.3549
918,19.7458
919,-3.94581
920,-3.92889
921,-1.95638
922,2.58587
923,6.10608
924,9.4162
925,12.3558
926,17.2686
927,27.7424
928,27.7408
929,25.2463
930,14.5094
931,4.46032
932,4.44988
933,13.4084
934,26.8572
935,26.8402
936,9.02824
937,-0.474163
938,-0.562357
939,-0.58774
940,7.46711
941,16.8251
942,22.6169
943,25.2466
944,25.2112
945,25.1739
946,26.2434
947,26.2024
948,21.3925
949,12.0638
950,12.0173
951,20.6978
952,29.0025
953,28.9509
954,23.1636
955,18.9563
956,16.9253
957,9.62904
958,7.51041
959,7.44926
960,8.73246
961,8.66835
962,8.60278
963,17.9624
964,29.4371
965,29.3674
966,17.1091
967,14.6628
968,14.5891
969,17.1014
970,17.41
971,18.0426
972,30.3455
973,30.2657
974,17.8328
975,2.87914
976,2.79603
977,18.156
978,21.9206
979,22.2109
980,22.1236
981,22.0354
982,21.6114
983,1.57919
984,1.48816
985,4.79929
986,12.2177
987,12.1241
988,10.6814
989,-1.39141
990,-1.48744
991,13.2158
992,17.0291
993,17.4281
994,17.3294
995,27.6342
996,36.9329
997,40.5002
998,40.3997
999,37.5027
1000,27.6951
1001,27.5936
1002,30.2478
1003,30.146
1004,29.6003
1005,28.4003
1006,26.3471
1007,18.9563
1008,7.71505
1009,7.61336
1010,11.9517
1011,11.8504
1012,13.8684
1013,13.8966
1014,17.9768
1015,18.9175
1016,18.9094
1017,18.8104
1018,14.952
1019,10.2452
1020,10.1479
1021,24.1385
1022,32.9026
1023,32.8075
1024,32.7132
1025,34.8693
1026,35.8101
1027,35.7185
1028,25.7283
1029,25.6387
1030,28.2017
1031,37.3446
1032,44.7311
1033,44.6459
1034,34.9913
1035,34.9087
1036,45.9101
1037,48.0244
1038,47.9457
1039,47.8685
1040,48.2103
1041,56.8346
1042,74.2996
1043,89.0721
1044,89.0026
1045,88.9346
1046,99.2549
1047,121.887
1048,121.824
1049,115.388
1050,98.8047
1051,98.3687
1052,98.3131
1053,111.095
1054,111.043
1055,98.5005
1056,98.4525
1057,106.389
1058,106.345
1059,89.0713
1060,72.3736
1061,66.7319
1062,66.6961
1063,74.0564
1064,88.4364
1065,92.8299
1066,92.8025
1067,85.5752
1068,72.1856
1069,56.6005
1070,56.5817
1071,59.6272
1072,66.4273
1073,66.4151
1074,61.7751
1075,61.7674
1076,63.0053
1077,63.002
1078,45.648
1079,45.6492
1080,83.4564
1081,89.2882
1082,89.2962
1083,87.0463
1084,87.0589
1085,97.8912
1086,99.3396
1087,100.58
1088,100.601
1089,115.205
1090,117.392
1091,117.421
1092,104.647
1093,104.68
1094,118.615
1095,119.316
1096,121.935
1097,121.748
1098,121.792
1099,114.106
1100,105.861
1101,97.8617
1102,97.9142
1103,97.9687
1104,95.813
1105,74.6857
1106,69.9238
1107,69.9865
1108,81.2546
1109,81.3213
1110,79.2938
1111,69.7149
1112,61.9691
1113,55.0544
1114,55.1306
1115,62.673
1116,62.7528
1117,57.4478
1118,57.5311
1119,57.9917
1120,59.6384
1121,59.7267
1122,59.8165
1123,61.0138
1124,61.1068
1125,50.9429
1126,39.842
1127,33.7727
1128,22.7713
1129,22.8714
1130,36.2033
1131,36.306
1132,36.2339
1133,36.3391
1134,42.9555
1135,43.063
1136,40.4297
1137,26.4657
1138,13.5148
1139,8.8542
1140,5.44274
1141,5.55626
1142,27.1655
1143,32.3442
1144,32.4602
1145,29.3317
1146,29.4491
1147,36.4416
1148,36.5603
1149,32.455
1150,17.4415
1151,14.0293
1152,14.1501
1153,24.6514
1154,34.8244
1155,48.1455
1156,49.9684
1157,50.0908
1158,41.8401
1159,37.749
1160,35.9389
1161,36.0619
1162,37.9302
1163,46.4077
1164,46.5305
1165,30.0447
1166,10.0114
1167,9.56931
1168,9.69137
1169,50.8416
1170,50.9629
1171,39.0772
1172,18.4195
1173,7.11105
1174,7.23048
1175,9.73349
1176,15.4898
1177,18.3705
1178,24.142
1179,36.7128
1180,47.1339
1181,47.248
1182,45.309
1183,36.3605
1184,22.3795
1185,12.406
1186,12.5148
1187,49.12
1188,49.2262
1189,44.3954
1190,9.40269
1191,9.50477
1192,16.6251
1193,31.4829
1194,43.706
1195,43.8017
1196,42.785
1197,42.8773
1198,42.9677
1199,33.8097
1200,18.0783
1201,13.91
1202,13.9925
1203,22.4032
1204,34.7679
1205,34.8439
1206,32.2963
1207,31.5863
1208,31.6553
1209,31.7218
1210,24.5157
1211,21.9284
1212,19.9533
1213,20.0093
1214,23.509
1215,41.0198
1216,68.3622
1217,68.4068
1218,60.833
1219,45.1346
1220,33.336
1221,21.3703
1222,-0.468286
1223,-0.442836
1224,49.6476
1225,49.6661
1226,48.0361
1227,29.0241
1228,25.5647
1229,25.5689
1230,59.5635
1231,59.5602
1232,35.8803
1233,4.59034
1234,-6.34432
1235,-6.36347
1236,31.7926
1237,56.0511
1238,62.5155
1239,62.4806
1240,39.4556
1241,29.6274
1242,29.5814
1243,34.0804
1244,37.3946
1245,39.7389
1246,46.1675
1247,51.2026
1248,52.0919
1249,52.0222
1250,47.928
1251,44.9871
1252,44.9082
1253,48.1122
1254,56.7186
1255,66.0743
1256,68.7883
1257,68.6953
1258,47.9759
1259,39.2416
1260,39.1407
1261,48.256
1262,61.1921
1263,67.6834
1264,67.5729
1265,62.9444
1266,51.992
1267,51.8749
1268,69.26
1269,86.0481
1270,85.9247
1271,77.2219
1272,70.4777
1273,70.3486
1274,84.3045
1275,99.4096
1276,99.2752
1277,93.7309
1278,87.8895
1279,82.1876
1280,73.4647
1281,73.3223
1282,86.1024
1283,87.7158
1284,87.5691
1285,65.8154
1286,58.753
1287,58.6024
1288,68.5853
1289,74.5086
1290,74.3543
1291,62.9784
1292,53.0184
1293,43.649
1294,43.4904
1295,43.3307
1296,37.3273
1297,33.3912
1298,33.2287
1299,36.7816
1300,44.5951
1301,44.43
1302,35.6488
1303,23.3142
1304,23.1468
1305,29.4002
1306,49.8337
1307,49.6642
1308,35.0874
1309,22.4952
1310,22.3238
1311,37.3331
1312,39.8865
1313,39.7135
1314,38.7188
1315,38.545
1316,38.8788
1317,42.1566
1318,46.5659
1319,48.5007
1320,48.3248
1321,43.2993
1322,32.0706
1323,24.7808
1324,24.6039
1325,28.0534
1326,37.9543
1327,47.7133
1328,52.0544
1329,51.8764
1330,21.0816
1331,20.9033
1332,38.4632
1333,62.8784
1334,62.6999
1335,55.6947
1336,53.0809
1337,52.7913
1338,52.4418
1339,46.0085
1340,33.3306
1341,33.1519
1342,38.5343
1343,38.3558
1344,30.3557
1345,25.1303
1346,24.2777
1347,24.0995
1348,16.545
1349,16.367
1350,36.212
1351,44.9062
1352,44.7286
1353,39.5956
1354,34.2637
1355,22.5774
1356,2.52289
1357,-1.89242
1358,-2.06888
1359,7.81284
1360,23.58
1361,38.7422
1362,50.8575
1363,60.8394
1364,60.6651
1365,55.1638
1366,30.9548
1367,30.7822
1368,35.893
1369,35.7217
1370,21.4185
1371,21.2486
1372,22.5825
1373,22.4144
1374,22.2471
1375,26.5278
1376,49.9375
1377,52.6374
1378,53.2479
1379,53.0858
1380,50.0948
1381,49.935
1382,51.86
1383,51.7028
1384,39.0132
1385,38.8587
1386,43.4179
1387,43.2662
1388,43.116
1389,62.7843
1390,68.3512
1391,68.2056
1392,56.3696
1393,40.5435
1394,40.4027
1395,47.9843
1396,62.2548
1397,62.1193
1398,41.6545
1399,10.2647
1400,10.1347
1401,46.453
1402,77.0898
1403,76.9655
1404,67.4152
1405,34.3942
1406,34.276
1407,49.4348
1408,49.3208
1409,19.2896
1410,19.1798
1411,25.8978
1412,25.7923
1413,25.6891
1414,32.8589
1415,46.2308
1416,66.5753
1417,66.4812
1418,61.3629
1419,61.2734
1420,75.6911
1421,86.6634
1422,86.5811
1423,68.6686
1424,63.1917
1425,59.3371
1426,52.3498
1427,52.28
1428,69.414
1429,69.3493
1430,62.5979
1431,62.5382
1432,85.2768
1433,89.709
1434,93.3015
1435,93.2523
1436,112.748
1437,115.647
1438,115.605
1439,109.428
1440,109.392
1441,104.164
1442,104.134
1443,86.8738
1444,86.8487
1445,121.067
1446,157.111
1447,160.729
1448,160.714
1449,160.703
1450,164.287
1451,164.281
1452,148.878
1453,148.877
1454,180.355
1455,180.359
1456,163.346
1457,159.537
1458,157.148
1459,154.608
1460,152.726
1461,135.604
1462,135.626
1463,166.483
1464,186.625
1465,186.654
1466,167.915
1467,146.752
1468,120.144
1469,82.874
1470,79.4015
1471,79.4442
1472,79.4891
1473,81.1284
1474,81.1774
1475,86.1943
1476,86.2473
1477,83.7202
1478,83.777
1479,107.669
1480,107.73
1481,100.615
1482,100.679
1483,102.556
1484,102.623
1485,96.0135
1486,76.3593
1487,72.1607
1488,72.2336
1489,100.44
1490,100.515
1491,82.4054
1492,70.4857
1493,60.5256
1494,60.6057
1495,69.9292
1496,74.6287
1497,74.7116
1498,61.3477
1499,57.1431
1500,54.4376
1501,48.2719
1502,48.3582
1503,54.5132
1504,54.6005
1505,54.688
1506,57.8738
1507,57.9619
1508,53.5375
1509,36.8284
1510,36.9168
1511,42.0476
1512,42.8471
1513,43.4405
1514,45.0139
1515,50.0169
1516,53.0721
1517,77.4016
1518,77.4876
1519,63.2677
1520,23.2639
1521,23.3479
1522,31.1487
1523,59.3132
1524,85.1947
1525,85.2749
1526,82.3491
1527,49.1079
1528,41.294
1529,41.3692
1530,62.5735
1531,62.6456
1532,41.1026
1533,32.8863
1534,31.6779
1535,24.5721
1536,24.6354
1537,50.2003
1538,50.2595
1539,46.5504
1540,46.6051
1541,79.7548
1542,79.8048
1543,56.4624
1544,40.0045
1545,23.9997
1546,24.0392
1547,-6.83441
1548,-6.80078
1549,9.29069
1550,16.1622
1551,18.5409
1552,32.3572
1553,32.3765
1554,29.6399
1555,29.6539
1556,30.8424
1557,42.8134
1558,54.4136
1559,54.4173
1560,31.9029
1561,25.2983
1562,25.2949
1563,63.8944
1564,63.8864
1565,56.3375
1566,33.908
1567,33.8934
1568,39.6849
1569,47.6148
1570,51.1196
1571,51.0971
1572,51.0726
1573,53.3069
1574,53.7083
1575,63.1901
1576,53.6466
1577,49.6257
1578,41.9844
1579,41.9477
1580,62.432
1581,62.5015
1582,71.7791
1583,71.7361
1584,47.6576
1585,47.6118
1586,62.2336
1587,63.7706
1588,85.2653
1589,85.214
1590,69.8361
1591,69.7824
1592,76.3458
1593,76.2896
1594,69.0236
1595,59.0067
1596,45.7599
1597,28.5207
1598,19.3521
1599,6.92393
1600,6.86023
1601,14.5358
1602,23.3407
1603,23.2741
1604,23.2067
1605,63.8347
1606,97.3553
1607,97.2853
1608,60.1896
1609,60.118
1610,61.0779
1611,61.0048
1612,56.7031
1613,56.6285
1614,70.2836
1615,79.915
1616,79.8384
1617,48.2446
1618,36.6998
1619,36.6213
1620,40.2082
1621,40.1285
1622,40.0483
1623,53.0406
1624,59.8648
1625,59.7829
1626,47.7128
1627,45.061
1628,44.9776
1629,46.3023
1630,46.2179
1631,51.6405
1632,51.5552
1633,51.4694
1634,49.2829
1635,49.1963
1636,56.166
1637,56.0786
1638,53.4631
1639,12.6591
1640,12.5704
1641,44.1716
1642,90.915
1643,90.8251
1644,58.658
1645,51.2227
1646,51.1316
1647,56.7028
1648,61.2509
1649,68.9031
1650,68.8104
1651,63.2702
1652,62.1981
1653,56.3834
1654,56.2892
1655,43.9737
1656,34.1665
1657,34.071
1658,36.6067
1659,85.8313
1660,85.7346
1661,85.5753
1662,83.0282
1663,77.1295
1664,60.0733
1665,42.7114
1666,42.6119
1667,45.2754
1668,62.3073
1669,62.2063
1670,43.6072
1671,43.5051
1672,56.4914
1673,76.0055
1674,75.9018
1675,68.8352
1676,68.7302
1677,86.1417
1678,86.0354
1679,80.7266
1680,65.8511
1681,57.9553
1682,34.0379
1683,-2.92537
1684,-3.03598
1685,13.2562
1686,49.7231
1687,49.6103
1688,12.0151
1689,11.901
1690,62.8313
1691,83.7517
1692,83.636
1693,55.7296
1694,42.1519
1695,42.0349
1696,46.6691
1697,68.6043
1698,68.4863
1699,45.7194
1700,40.8681
1701,38.257
1702,38.1381
1703,38.019
1704,41.356
1705,66.2449
1706,66.1255
1707,66.006
1708,72.3433
1709,72.2239
1710,61.6895
1711,54.0326
1712,53.9133
1713,68.5497
1714,90.5613
1715,90.4425
1716,59.9931
1717,37.0855
1718,27.2001
1719,27.0821
1720,34.189
1721,57.6609
1722,57.5438
1723,48.7444
1724,41.8618
1725,40.5547
1726,15.7949
1727,15.6795
1728,51.4544
1729,51.6426
1730,51.5285
1731,51.4148
1732,50.8635
1733,50.6703
1734,30.6291
1735,30.5174
1736,31.6158
1737,46.5854
1738,67.0469
1739,81.3649
1740,81.2559
1741,40.4059
1742,40.2981
1743,69.289
1744,69.1824
1745,69.0764
1746,68.5428
1747,68.438
1748,35.3773
1749,22.4159
1750,22.3131
1751,40.969
1752,40.8675
1753,36.9937
1754,36.8935
1755,38.8402
1756,71.0127
1757,71.8587
1758,71.7612
1759,55.976
1760,55.8798
1761,55.1431
1762,55.0483
1763,45.5428
1764,44.9448
1765,42.6794
1766,34.318
1767,34.2265
1768,47.7854
1769,47.6952
1770,29.1881
1771,29.0992
1772,50.4697
1773,50.382
1774,50.2949
1775,68.2806
1776,79.0668
1777,78.9816
1778,61.5185
1779,39.3942
1780,37.6221
1781,36.6156
1782,21.2787
1783,13.4954
1784,13.4141
1785,20.0828
1786,22.4342
1787,26.2559
1788,34.2541
1789,44.7849
1790,56.4565
1791,60.9084
1792,69.5459
1793,73.541
1794,73.4644
1795,21.3891
1796,21.3133
1797,36.4971
1798,52.7056
1799,52.6308
1800,42.0698
1801,11.6303
1802,11.5564
1803,16.5432
1804,25.7571
1805,25.6839
1806,3.65098
1807,1.81233
1808,1.73968
1809,42.9371
1810,56.467
1811,56.3947
1812,34.0525
1813,15.646
1814,15.5739
1815,25.3115
1816,28.7235
1817,28.6513
1818,34.2989
1819,34.2267
1820,-1.5579
1821,-1.63038
1822,13.3164
1823,25.0201
1824,40.9525
1825,50.494
1826,50.4209
1827,27.898
1828,27.8248
1829,37.225
1830,37.1516
1831,22.107
1832,22.0335
1833,35.7368
1834,43.0464
1835,42.9727
1836,11.1306
1837,6.44583
1838,6.29782
1839,6.2984
1840,9.69952
1841,37.1723
1842,37.0985
1843,33.4272
1844,32.9226
1845,29.7089
1846,29.635
1847,37.7687
1848,54.0677
1849,53.9939
