#wnum,raman
275,1006.72
276,1008.13
277,957.797
278,911.263
279,854.757
280,795.304
281,740.477
282,692.44
283,642.461
284,613.631
285,587.245
286,551.828
287,505.824
288,459.418
289,430.98
290,403.638
291,376.55
292,349.086
293,322.312
294,285.481
295,246.971
296,227.084
297,217.49
298,211.897
299,212.815
300,212.609
301,201
302,187.827
303,173.435
304,156.662
305,139.263
306,117.314
307,95.1372
308,80.9395
309,74.0944
310,71.8919
311,73.2486
312,74.6015
313,65.1265
314,40.0666
315,32.4217
316,33.7577
317,42.3753
318,43.7019
319,41.0037
320,39.73
321,40.0174
322,39.2372
323,25.6546
324,11.928
325,8.38956
326,9.67248
327,10.9492
328,5.62646
329,3.75986
330,5.01717
331,12.1073
332,13.3508
333,9.15068
334,7.22165
335,8.4434
336,15.1461
337,18.0067
338,19.2053
339,18.9781
340,6.45361
341,-4.48236
342,-3.31706
343,9.98212
344,11.13
345,8.39198
346,1.72522
347,2.84644
348,13.6807
349,20.2595
350,21.3533
351,22.4378
352,23.467
353,24.5327
354,16.7743
355,1.43558
356,-1.82887
357,-0.801923
358,5.37316
359,6.38032
360,-0.819179
361,0.167972
362,5.56578
363,9.54961
364,10.5064
365,5.2453
366,2.68416
367,2.89214
368,3.8077
369,11.6683
370,19.8777
371,20.7619
372,19.0951
373,16.8825
374,15.2591
375,14.6506
376,15.4814
377,17.0743
378,17.8835
379,17.1202
380,16.1328
381,13.9763
382,14.7414
383,22.6482
384,38.9224
385,39.654
386,38.0457
387,33.2966
388,33.9943
389,39.5358
390,40.2105
391,29.4603
392,18.7024
393,11.0128
394,3.55256
395,-2.08074
396,-7.06417
397,-6.47137
398,3.37967
399,13.7191
400,21.7193
401,29.5242
402,38.0326
403,47.0968
404,49.3899
405,49.891
406,45.3786
407,41.9225
408,38.8452
409,33.4134
410,24.1035
411,17.7827
412,18.2089
413,21.6535
414,22.5959
415,23.2692
416,24.2115
417,28.7835
418,30.384
419,30.7399
420,31.0861
421,32.5364
422,46.7609
423,47.0788
424,45.4617
425,36.8593
426,37.1496
427,46.7118
428,46.9843
429,42.8467
430,36.6767
431,36.923
432,38.4455
433,38.8739
434,39.2215
435,39.6313
436,41.9021
437,43.832
438,47.2882
439,50.3642
440,50.5369
441,44.4209
442,44.5781
443,44.9207
444,50.0139
445,51.5552
446,51.7833
447,52.3651
448,53.282
449,53.388
450,48.902
451,46.9205
452,47.0057
453,54.3676
454,54.4394
455,33.4701
456,26.8289
457,26.8812
458,46.1485
459,56.8078
460,59.9743
461,63.1432
462,68.004
463,68.0194
464,61.7908
465,46.9288
466,43.1411
467,43.1334
468,46.3772
469,53.273
470,60.2349
471,60.2053
472,59.7542
473,54.9852
474,45.7024
475,36.9177
476,29.0153
477,28.8061
478,28.7407
479,44.8552
480,55.5565
481,55.6218
482,55.5376
483,54.5868
484,53.1587
485,53.0609
486,52.906
487,52.7429
488,46.1695
489,39.387
490,33.5953
491,31.2786
492,31.1516
493,41.9358
494,41.8011
495,36.5671
496,25.7727
497,25.6267
498,28.4116
499,28.2818
500,28.2187
501,28.0586
502,32.6653
503,36.6384
504,36.4683
505,35.5848
506,35.4084
507,36.0741
508,35.8915
509,19.899
510,17.1624
511,16.971
512,37.6006
513,37.4036
514,29.5805
515,18.0513
516,17.105
517,16.8975
518,27.3749
519,41.2313
520,41.0165
521,20.7275
522,20.508
523,27.1283
524,43.427
525,43.2009
526,29.6889
527,29.4588
528,31.8854
529,33.1574
530,32.9215
531,28.2743
532,21.3586
533,15.0528
534,14.8099
535,25.9022
536,28.1397
537,27.8921
538,24.6741
539,24.4235
540,30.3675
541,30.4853
542,30.2307
543,26.6723
544,17.9058
545,9.04255
546,1.9668
547,1.59126
548,1.32984
549,20.1069
550,28.135
551,27.8708
552,27.6058
553,27.6182
554,36.0434
555,35.7761
556,32.6069
557,32.3383
558,38.9657
559,41.5242
560,41.254
561,33.9254
562,30.0545
563,28.7033
564,27.9272
565,27.6552
566,27.383
567,23.5648
568,22.7551
569,22.4824
570,30.2055
571,32.9408
572,32.668
573,32.3952
574,41.0621
575,46.7132
576,46.4407
577,34.4682
578,30.5874
579,30.3156
580,33.3362
581,40.4314
582,46.5569
583,46.2865
584,42.2854
585,35.2513
586,25.0953
587,15.7625
588,10.461
589,6.54685
590,6.28025
591,8.72082
592,13.3622
593,20.0249
594,28.9945
595,44.7608
596,52.529
597,52.2678
598,42.3186
599,33.7062
600,26.3363
601,26.0789
602,42.9182
603,47.5927
604,47.3384
605,36.2535
606,30.9379
607,27.4874
608,27.2209
609,26.9724
610,28.4329
611,32.0094
612,35.6823
613,48.7323
614,61.9321
615,61.6914
616,48.418
617,35.5452
618,22.3987
619,16.6601
620,16.4266
621,24.5099
622,30.2837
623,34.8713
624,34.6439
625,33.4367
626,33.2125
627,36.0286
628,40.8927
629,43.4396
630,43.9617
631,43.7459
632,38.7234
633,38.5111
634,42.4518
635,42.243
636,34.2668
637,19.0406
638,12.875
639,12.6735
640,12.7749
641,19.5572
642,19.3613
643,17.756
644,17.5641
645,25.0572
646,43.166
647,42.9799
648,31.0704
649,26.4733
650,26.2932
651,26.1151
652,14.5041
653,2.53626
654,2.36437
655,14.2061
656,19.9927
657,19.8362
658,19.6727
659,21.2824
660,21.1232
661,15.9397
662,15.7848
663,17.7705
664,38.6123
665,38.4639
666,35.9864
667,35.8425
668,38.2829
669,50.0778
670,51.6879
671,51.553
672,50.3301
673,47.4762
674,42.0927
675,31.9456
676,27.3823
677,27.261
678,27.1421
679,26.8557
680,18.6685
681,18.5565
682,27.7069
683,27.5996
684,24.0905
685,23.9878
686,25.3424
687,35.978
688,35.8823
689,31.909
690,31.818
691,42.7334
692,43.0461
693,42.9622
694,35.4904
695,33.2125
696,31.3862
697,26.8649
698,20.9174
699,20.8476
700,21.5744
701,24.6765
702,28.2919
703,31.8532
704,35.9715
705,35.9158
706,34.9528
707,25.2715
708,25.2228
709,44.1939
710,44.1498
711,39.2695
712,28.5615
713,28.5244
714,35.7015
715,35.669
716,21.996
717,21.9682
718,27.7195
719,28.0737
720,28.0527
721,26.8559
722,26.8394
723,33.7814
724,33.7693
725,28.3425
726,23.2026
727,18.413
728,15.6115
729,15.6105
730,16.6986
731,26.1198
732,34.0912
733,34.0989
734,26.9949
735,27.0068
736,40.2916
737,40.3077
738,33.0416
739,24.8144
740,24.8368
741,31.2261
742,31.2525
743,27.7067
744,27.7372
745,36.5388
746,36.5733
747,21.646
748,21.6844
749,26.2514
750,47.2143
751,47.2585
752,40.8807
753,40.9287
754,42.2203
755,43.1569
756,43.2104
757,43.2657
758,48.8735
759,53.2901
760,53.3507
761,50.5369
762,47.8932
763,45.5812
764,42.1565
765,36.7775
766,33.669
767,33.7413
768,33.8151
769,32.6035
770,30.3272
771,30.4055
772,31.7864
773,36.8551
774,45.7362
775,53.252
776,56.8348
777,56.9217
778,50.6155
779,41.6682
780,41.7589
781,41.8509
782,37.664
783,27.5077
784,27.0051
785,27.1017
786,28.3555
787,28.4543
788,26.7282
789,19.6372
790,19.7388
791,25.2104
792,45.0679
793,46.5295
794,46.6347
795,41.139
796,34.1769
797,34.2843
798,44.784
799,48.5626
800,48.672
801,34.2352
802,30.9485
803,31.0596
804,33.9968
805,39.7217
806,42.6853
807,42.7981
808,40.9825
809,32.3314
810,23.9045
811,20.6709
812,20.7849
813,21.1051
814,25.8491
815,28.2695
816,28.6858
817,29.4238
818,31.1814
819,33.0736
820,41.8287
821,42.7351
822,42.8485
823,34.8429
824,34.9557
825,46.524
826,46.6361
827,33.1757
828,33.2867
829,43.7321
830,47.5767
831,47.686
832,37.7015
833,37.8093
834,41.4504
835,41.5567
836,37.9822
837,29.4536
838,14.3539
839,14.4563
840,27.6525
841,41.7462
842,41.8452
843,38.2312
844,29.8863
845,20.4129
846,7.62823
847,-4.5717
848,-4.48079
849,17.0104
850,32.1774
851,32.9568
852,34.1891
853,40.9509
854,47.277
855,47.3583
856,47.4384
857,48.5878
858,56.1053
859,61.1214
860,61.1969
861,59.682
862,47.9895
863,48.0619
864,53.3795
865,53.4501
866,52.0331
867,38.8706
868,32.6763
869,27.2048
870,27.2712
871,28.9709
872,34.0587
873,42.1854
874,48.6676
875,50.1115
876,51.2711
877,51.333
878,51.3655
879,41.5346
880,31.3424
881,31.4023
882,37.7645
883,44.0701
884,47.6345
885,47.6928
886,36.1739
887,26.197
888,22.2785
889,22.3356
890,23.2481
891,27.5879
892,36.9485
893,47.0212
894,47.0772
895,41.303
896,36.2967
897,31.6058
898,31.6613
899,34.351
900,34.4063
901,31.0211
902,29.2801
903,29.3354
904,33.2528
905,40.914
906,46.5692
907,46.6246
908,40.2199
909,31.8233
910,21.0573
911,21.1131
912,25.6237
913,33.4309
914,39.2279
915,39.2843
916,35.7367
917,27.3133
918,25.6633
919,24.0863
920,22.8524
921,22.9102
922,24.4018
923,26.9415
924,27.7238
925,28.0993
926,28.1585
927,31.5256
928,34.2386
929,34.2987
930,33.912
931,26.4103
932,17.9228
933,10.925
934,10.987
935,11.3419
936,25.3056
937,36.9548
938,46.3355
939,46.3995
940,34.7782
941,22.4723
942,16.8954
943,16.9611
944,20.9157
945,29.2951
946,35.8607
947,42.6718
948,42.7397
949,40.4348
950,34.5446
951,25.8885
952,20.7508
953,20.821
954,22.2172
955,29.9666
956,30.0383
957,25.5082
958,15.1134
959,5.14237
960,2.05626
961,2.13034
962,10.5353
963,13.2264
964,13.7475
965,17.3335
966,23.3811
967,30.7153
968,37.0438
969,37.1218
970,15.073
971,15.152
972,20.9892
973,34.9278
974,35.0082
975,29.8419
976,19.5861
977,13.8872
978,13.9695
979,24.596
980,34.008
981,40.9346
982,41.0188
983,30.2372
984,21.26
985,15.6547
986,15.7406
987,19.0314
988,24.3629
989,26.9694
990,29.4936
991,42.3467
992,51.923
993,52.0118
994,45.3112
995,40.264
996,40.3539
997,45.9203
998,62.627
999,73.2426
1000,77.0251
1001,80.0498
1002,80.8805
1003,80.9727
1004,67.127
1005,66.1879
1006,66.281
1007,66.3743
1008,59.3866
1009,44.0909
1010,38.1712
1011,32.7818
1012,23.3591
1013,23.4535
1014,27.2152
1015,54.5479
1016,54.6426
1017,34.917
1018,22.2356
1019,22.3305
1020,23.2385
1021,27.3311
1022,31.1953
1023,34.7359
1024,34.8305
1025,26.9265
1026,16.9737
1027,16.8362
1028,16.9302
1029,25.4685
1030,35.7415
1031,35.8348
1032,33.8524
1033,28.5567
1034,22.0845
1035,22.1766
1036,29.9572
1037,37.6198
1038,44.0577
1039,44.1481
1040,27.578
1041,17.8896
1042,17.9785
1043,21.1879
1044,25.9622
1045,26.0493
1046,16.4102
1047,16.0535
1048,16.1386
1049,33.9966
1050,34.0802
1051,30.3883
1052,25.284
1053,25.3651
1054,26.5257
1055,41.8258
1056,50.46
1057,51.3243
1058,51.4008
1059,48.2115
1060,44.5218
1061,37.0055
1062,30.671
1063,30.742
1064,31.4678
1065,38.9881
1066,43.0966
1067,43.1625
1068,39.6003
1069,37.14
1070,35.147
1071,33.7318
1072,32.5138
1073,26.5614
1074,18.442
1075,7.9091
1076,-3.79988
1077,-3.74907
1078,7.51409
1079,15.2725
1080,18.8376
1081,25.2169
1082,36.1944
1083,36.2357
1084,21.516
1085,21.5544
1086,27.0385
1087,30.3232
1088,30.3575
1089,30.3906
1090,45.2609
1091,67.4747
1092,67.5041
1093,59.8489
1094,42.5309
1095,32.4139
1096,32.4388
1097,50.8403
1098,65.7175
1099,79.46
1100,79.481
1101,71.6365
1102,58.8385
1103,42.6803
1104,41.6687
1105,39.9697
1106,39.9857
1107,26.389
1108,26.4036
1109,37.9795
1110,52.4905
1111,58.3677
1112,62.6139
1113,63.0639
1114,63.0745
1115,46.3575
1116,39.3408
1117,39.3499
1118,51.086
1119,51.2692
1120,51.2768
1121,50.267
1122,50.2737
1123,54.4627
1124,58.8118
1125,58.8173
1126,51.5753
1127,46.3888
1128,44.3818
1129,44.386
1130,50.5492
1131,50.5529
1132,45.9519
1133,36.7069
1134,22.3948
1135,22.3974
1136,31.6856
1137,43.1034
1138,47.1326
1139,47.1344
1140,20.5945
1141,16.2649
1142,16.2662
1143,23.1719
1144,23.1729
1145,17.393
1146,15.5155
1147,15.5161
1148,24.7367
1149,31.7918
1150,31.7921
1151,26.1451
1152,21.522
1153,21.522
1154,26.3916
1155,29.2336
1156,29.2334
1157,12.2525
1158,10.8373
1159,9.73635
1160,9.73604
1161,7.7341
1162,7.73374
1163,11.1909
1164,19.063
1165,30.4658
1166,45.3184
1167,62.7858
1168,62.7854
1169,34.4696
1170,16.0633
1171,14.6207
1172,11.4817
1173,5.58483
1174,5.58454
1175,23.4358
1176,23.4356
1177,13.4892
1178,5.83124
1179,5.83108
1180,12.787
1181,21.3394
1182,21.3393
1183,20.0417
1184,13.3044
1185,13.3045
1186,15.2435
1187,28.3241
1188,28.3242
1189,23.5125
1190,10.3079
1191,10.3082
1192,16.3702
1193,16.3705
1194,14.9652
1195,14.9656
1196,15.7441
1197,19.4038
1198,19.4042
1199,19.0413
1200,11.8578
1201,11.8583
1202,15.2685
1203,17.9341
1204,20.2371
1205,25.6654
1206,25.6659
1207,21.8754
1208,8.93871
1209,8.93924
1210,35.8993
1211,47.6469
1212,47.6474
1213,37.714
1214,16.0468
1215,12.3184
1216,12.3188
1217,12.3191
1218,11.0174
1219,11.0175
1220,20.4334
1221,20.4334
1222,19.6689
1223,16.5138
1224,15.9235
1225,15.9231
1226,20.2368
1227,25.2758
1228,31.7275
1229,31.7267
1230,24.8337
1231,22.551
1232,20.3444
1233,20.343
1234,2.11685
1235,2.11504
1236,23.5311
1237,23.5289
1238,22.7942
1239,22.7916
1240,30.8954
1241,41.643
1242,41.6396
1243,41.6359
1244,45.6887
1245,45.6845
1246,44.2511
1247,37.8063
1248,30.1814
1249,23.338
1250,22.4047
1251,22.3984
1252,29.7793
1253,30.3062
1254,30.2987
1255,24.4702
1256,17.6281
1257,17.6193
1258,25.8382
1259,30.9816
1260,30.9712
1261,30.9603
1262,31.058
1263,38.7049
1264,43.4382
1265,43.425
1266,33.0564
1267,30.4603
1268,30.4452
1269,30.4294
1270,26.3924
1271,17.1948
1272,17.1768
1273,17.1581
1274,13.6716
1275,13.6513
1276,18.5808
1277,36.5852
1278,44.2029
1279,44.1792
1280,36.8549
1281,33.4071
1282,33.3805
1283,38.4755
1284,38.447
1285,29.7664
1286,11.5893
1287,11.5576
1288,19.0219
1289,45.0339
1290,44.9988
1291,44.9625
1292,48.0588
1293,48.0201
1294,42.5645
1295,42.5232
1296,44.5687
1297,44.5247
1298,26.2218
1299,1.80232
1300,1.75417
1301,12.3298
1302,19.1754
1303,25.006
1304,24.9518
1305,23.696
1306,9.70957
1307,-2.83462
1308,-2.89531
1309,-1.32929
1310,12.2404
1311,25.2305
1312,27.4626
1313,27.3939
1314,22.8356
1315,19.7238
1316,19.6507
1317,23.4844
1318,42.1327
1319,59.1715
1320,59.8952
1321,59.8156
1322,51.4433
1323,48.5725
1324,48.4894
1325,53.392
1326,65.4357
1327,65.3495
1328,34.1848
1329,17.2412
1330,17.1521
1331,29.1249
1332,40.5591
1333,40.4674
1334,19.5041
1335,19.4108
1336,25.8163
1337,25.7216
1338,24.7431
1339,18.2057
1340,18.1091
1341,22.8768
1342,32.3691
1343,35.1359
1344,35.0371
1345,30.8127
1346,23.6903
1347,23.5902
1348,28.5676
1349,28.4667
1350,23.1086
1351,23.0071
1352,31.4933
1353,36.5569
1354,37.893
1355,42.0727
1356,41.9701
1357,38.6326
1358,11.4187
1359,11.3157
1360,16.5113
1361,27.8395
1362,38.6556
1363,49.0086
1364,56.8619
1365,56.7586
1366,47.158
1367,42.6321
1368,42.5291
1369,45.6203
1370,52.8973
1371,52.7947
1372,51.0225
1373,41.3658
1374,35.203
1375,35.1012
1376,34.9997
1377,34.3235
1378,29.6137
1379,29.513
1380,39.6508
1381,41.5853
1382,42.5984
1383,45.0935
1384,44.9944
1385,36.7212
1386,28.7451
1387,28.6473
1388,33.5002
1389,55.467
1390,60.3565
1391,60.2604
1392,49.0257
1393,37.7126
1394,37.4702
1395,37.3759
1396,46.5506
1397,61.7052
1398,74.3489
1399,82.6896
1400,88.8367
1401,88.7456
1402,86.7695
1403,76.4511
1404,73.4709
1405,72.4026
1406,72.3142
1407,68.639
1408,68.5517
1409,68.7171
1410,68.631
1411,52.2944
1412,37.4987
1413,36.1142
1414,36.0302
1415,58.0703
1416,57.9874
1417,52.2452
1418,19.5492
1419,13.334
1420,13.2531
1421,27.254
1422,27.1742
1423,3.5806
1424,3.50177
1425,6.50153
1426,15.5323
1427,15.4549
1428,12.5437
1429,12.4672
1430,21.2888
1431,27.9069
1432,27.8317
1433,25.0244
1434,22.0422
1435,15.3712
1436,9.09356
1437,9.02039
1438,38.3649
1439,53.8998
1440,53.8277
1441,41.2532
1442,11.3955
1443,11.3245
1444,20.5595
1445,20.4891
1446,21.6721
1447,25.5733
1448,33.9776
1449,35.933
1450,37.6188
1451,37.5499
1452,37.6013
1453,39.2129
1454,39.1446
1455,32.6089
1456,22.0804
1457,-0.32938
1458,-0.396995
1459,30.2279
1460,42.839
1461,42.7717
1462,33.2678
1463,27.8587
1464,25.5149
1465,25.4479
1466,29.7583
1467,37.1386
1468,50.1583
1469,63.2494
1470,63.1827
1471,48.8804
1472,28.8378
1473,10.1573
1474,10.0905
1475,17.7813
1476,25.733
1477,33.752
1478,38.1264
1479,42.3545
1480,49.5476
1481,49.4801
1482,40.8857
1483,26.2921
1484,7.86786
1485,7.79968
1486,8.38494
1487,17.8108
1488,25.3398
1489,25.2707
1490,23.7447
1491,23.675
1492,26.4607
1493,38.198
1494,44.4271
1495,44.3559
1496,27.655
1497,12.2956
1498,8.47677
1499,8.4039
1500,22.483
1501,26.3015
1502,26.2271
1503,5.63897
1504,0.547266
1505,0.471202
1506,0.394533
1507,-2.67247
1508,-2.75041
1509,6.64548
1510,12.9928
1511,15.1144
1512,27.4097
1513,43.7649
1514,43.6836
1515,33.6065
1516,23.895
1517,13.5654
1518,13.4825
1519,15.3515
1520,23.5638
1521,24.3018
1522,24.2178
1523,24.1336
1524,37.4944
1525,46.8237
1526,46.7391
1527,37.0531
1528,17.764
1529,15.9487
1530,10.6373
1531,10.3331
1532,10.2484
1533,10.3946
1534,23.6906
1535,23.6062
1536,13.0013
1537,12.9173
1538,17.2749
1539,41.7651
1540,41.6818
1541,38.4833
1542,20.7839
1543,20.7015
1544,23.4471
1545,30.3617
1546,30.2806
1547,28.4613
1548,24.2576
1549,19.8808
1550,19.8015
1551,21.2658
1552,21.1877
1553,18.0968
1554,18.0198
1555,23.0397
1556,28.514
1557,35.448
1558,36.5539
1559,36.4803
1560,2.62918
1561,2.557
1562,25.4509
1563,42.4115
1564,42.3417
1565,33.404
1566,21.2871
1567,21.2199
1568,33.0592
1569,32.9938
1570,30.4058
1571,12.8284
1572,10.0387
1573,9.97704
1574,24.5102
1575,51.0332
1576,50.9746
1577,47.744
1578,34.3655
1579,25.3346
1580,20.7159
1581,17.3159
1582,14.5653
1583,14.5144
1584,46.7345
1585,74.3896
1586,74.3421
1587,58.1155
1588,39.546
1589,28.3687
1590,28.3261
1591,38.2936
1592,63.3542
1593,63.3153
1594,56.1544
1595,40.5149
1596,34.2069
1597,34.1731
1598,52.1351
1599,52.7634
1600,52.7336
1601,51.6107
1602,47.1553
1603,27.7942
1604,19.7107
1605,19.6875
1606,27.7657
1607,40.6561
1608,49.9574
1609,57.204
1610,59.8521
1611,59.837
1612,26.5274
1613,0.308177
1614,0.297239
1615,18.4841
1616,30.1167
1617,34.9628
1618,34.9573
1619,31.8382
1620,31.3238
1621,22.0604
1622,17.7596
1623,17.761
1624,18.7835
1625,18.7876
1626,9.82547
1627,9.8323
1628,40.8001
1629,40.8097
1630,39.1933
1631,14.3398
1632,5.71583
1633,5.73078
1634,27.3325
1635,49.0386
1636,49.0575
1637,17.0441
1638,9.29514
1639,9.31807
1640,32.899
1641,33.074
1642,33.1009
1643,15.7721
1644,15.8016
1645,22.1506
1646,42.2368
1647,42.2701
1648,39.2351
1649,30.809
1650,26.5235
1651,26.5618
1652,32.1308
1653,37.7077
1654,37.7497
1655,34.2648
1656,34.3092
1657,38.1341
1658,43.4955
1659,43.5434
1660,18.2531
1661,6.95498
1662,7.0063
1663,51.4653
1664,51.5189
1665,50.7408
1666,42.7796
1667,42.8364
1668,49.5947
1669,49.6535
1670,47.1656
1671,33.7184
1672,32.2951
1673,32.358
1674,46.5713
1675,46.6361
1676,35.6769
1677,26.4196
1678,26.4871
1679,32.0421
1680,32.1113
1681,20.4234
1682,20.4942
1683,21.9898
1684,23.4792
1685,24.9191
1686,27.8156
1687,27.8902
1688,15.0648
1689,15.1407
1690,21.0611
1691,28.3086
1692,31.2624
1693,39.6317
1694,39.7107
1695,37.1062
1696,28.464
1697,28.5445
1698,40.3567
1699,44.3077
1700,44.3896
1701,30.2082
1702,21.8956
1703,19.6495
1704,-1.0429
1705,-0.959293
1706,10.399
1707,41.3169
1708,41.4014
1709,33.1788
1710,33.2637
1711,37.772
1712,44.5264
1713,46.1773
1714,46.6253
1715,50.8331
1716,50.9194
1717,49.3421
1718,40.7151
1719,30.3296
1720,30.4166
1721,51.5906
1722,51.6779
1723,35.1204
1724,35.208
1725,35.2956
1726,32.5396
1727,26.3103
1728,26.3982
1729,26.4861
1730,10.2836
1731,10.3715
1732,19.1483
1733,19.2362
1734,13.5892
1735,1.19285
1736,1.28066
1737,17.8186
1738,42.242
1739,52.8433
1740,61.2598
1741,61.3471
1742,58.3144
1743,43.5609
1744,43.6476
1745,43.7341
1746,34.7654
1747,25.1488
1748,21.2141
1749,20.144
1750,4.08027
1751,4.16506
1752,28.495
1753,37.6779
1754,37.7615
1755,35.623
1756,33.1749
1757,33.2572
1758,36.4041
1759,36.4854
1760,33.673
1761,21.1406
1762,14.5154
1763,14.5944
1764,47.977
1765,48.0547
1766,39.8705
1767,39.9468
1768,51.5926
1769,51.6674
1770,48.315
1771,17.5197
1772,12.8114
1773,12.8829
1774,14.589
1775,14.6586
1776,-1.88963
1777,-1.8219
1778,10.0106
1779,24.3751
1780,24.4399
1781,-1.05179
1782,-0.988959
1783,19.6312
1784,54.4518
1785,54.5118
1786,51.1899
1787,30.7448
1788,7.94034
1789,7.99713
1790,10.3249
1791,43.0112
1792,52.4496
1793,60.5486
1794,60.6018
1795,60.6545
1796,58.2619
1797,50.502
1798,50.5528
1799,53.2226
1800,53.2724
1801,48.4453
1802,48.4942
1803,63.7849
1804,63.8328
1805,48.6233
1806,3.55813
1807,2.84867
1808,2.89504
1809,20.2607
1810,43.8205
1811,61.9228
1812,61.9678
1813,39.8801
1814,39.9247
1815,46.9565
1816,47.0005
1817,45.891
1818,30.7978
1819,30.8412
1820,42.6093
1821,66.9965
1822,67.6676
1823,67.7104
1824,50.5573
1825,50.5998
1826,52.0984
1827,55.2354
1828,55.2776
1829,53.5446
1830,52.8845
1831,45.3293
1832,12.7171
1833,12.759
1834,29.0145
1835,41.749
1836,41.7907
1837,26.9324
1838,26.9741
1839,55.8597
1840,55.9014
1841,26.673
1842,26.7146
1843,47.087
1844,58.4864
1845,58.528
1846,12.53
1847,12.5716
1848,39.242
1849,39.2836
