#wnum,raman
275,24.3503
276,34.0621
277,34.802
278,39.764
279,43.9868
280,44.7287
281,45.4686
282,42.1077
283,31.4647
284,32.2046
285,44.8841
286,45.6239
287,37.6781
288,38.4178
289,45.2053
290,45.9449
291,43.0762
292,43.8158
293,48.3667
294,51.7168
295,63.8313
296,66.3736
297,67.1128
298,59.5809
299,60.3199
300,69.9514
301,70.6901
302,55.1894
303,39.3988
304,40.137
305,41.2298
306,54.5726
307,57.2347
308,58.8215
309,59.9902
310,61.2566
311,66.325
312,67.8469
313,68.5829
314,85.9832
315,99.1346
316,99.8696
317,81.2782
318,76.2504
319,75.5525
320,74.5787
321,66.5383
322,67.2706
323,79.4189
324,80.1501
325,69.9878
326,70.7178
327,75.5626
328,76.3939
329,91.9206
330,92.6478
331,82.6163
332,67.7376
333,68.4624
334,76.1037
335,76.8267
336,76.4725
337,75.9273
338,76.4344
339,69.3542
340,70.0721
341,80.4439
342,81.1595
343,70.6132
344,71.3263
345,89.1553
346,90.7806
347,92.3125
348,101.911
349,102.617
350,99.1835
351,84.4848
352,82.7275
353,68.5653
354,60.5182
355,61.2145
356,62.429
357,63.1215
358,51.8902
359,52.5788
360,57.0776
361,61.7137
362,72.0196
363,72.6997
364,58.7029
365,28.8861
366,29.5592
367,32.5063
368,43.4602
369,46.6698
370,47.3328
371,28.5964
372,7.57494
373,-1.96287
374,-1.31102
375,11.0314
376,27.5555
377,33.6188
378,34.2588
379,21.0308
380,2.20691
381,2.83779
382,24.5386
383,48.6237
384,50.3501
385,50.9684
386,37.8823
387,29.8182
388,18.2849
389,4.99453
390,5.5963
391,12.75
392,25.2423
393,45.8908
394,60.5222
395,61.2505
396,61.8314
397,51.8633
398,29.6927
399,28.7963
400,29.3627
401,33.8635
402,34.4223
403,22.817
404,23.3682
405,31.9354
406,32.4788
407,23.9246
408,10.3439
409,10.8753
410,18.0945
411,36.3782
412,41.0804
413,41.5953
414,36.5245
415,37.0309
416,46.2714
417,56.0904
418,56.5837
419,41.5728
420,42.0572
421,43.7808
422,47.1425
423,47.6132
424,43.2247
425,43.6861
426,53.1621
427,53.614
428,50.9955
429,51.4376
430,55.9693
431,56.4015
432,42.5703
433,37.9994
434,38.4164
435,47.9497
436,54.6718
437,65.6977
438,77.8355
439,88.9815
440,89.9259
441,90.3057
442,76.2655
443,76.6342
444,81.9357
445,82.2931
446,69.6718
447,52.0252
448,41.0459
449,41.3799
450,47.9934
451,59.2738
452,59.5897
453,58.0932
454,50.3817
455,50.6788
456,54.5469
457,64.3515
458,78.0017
459,83.0798
460,83.3445
461,71.5529
462,62.4231
463,62.6675
464,74.8737
465,82.4843
466,82.7079
467,80.4782
468,69.6294
469,62.3976
470,58.063
471,51.8651
472,43.9743
473,37.5089
474,33.9429
475,34.1
476,47.4217
477,61.2985
478,61.432
479,56.816
480,56.8333
481,56.5918
482,56.6929
483,56.9381
484,57.0225
485,54.8008
486,51.0206
487,50.6991
488,50.7492
489,52.2168
490,56.6103
491,60.7276
492,66.2063
493,66.2115
494,63.5418
495,58.8462
496,58.6903
497,55.5565
498,55.5147
499,59.0083
500,69.9076
501,69.8366
502,60.6225
503,60.5315
504,68.8111
505,80.0753
506,84.9368
507,87.225
508,87.0825
509,85.6286
510,85.4359
511,80.6539
512,71.3209
513,63.226
514,62.4309
515,60.5888
516,59.3582
517,55.5594
518,55.3067
519,61.3873
520,64.2709
521,63.9831
522,61.5151
523,52.847
524,44.1234
525,41.3131
526,40.3828
527,34.9067
528,24.868
529,20.13
530,19.7313
531,20.0159
532,19.7011
533,22.3151
534,21.8643
535,20.6642
536,12.9909
537,4.62952
538,-1.93383
539,-2.45213
540,-2.83926
541,-3.38527
542,-9.25036
543,-9.82424
544,-1.21618
545,9.33116
546,11.4998
547,10.8717
548,6.69277
549,-4.40345
550,-5.07013
551,12.6026
552,23.9465
553,24.9925
554,24.2779
555,15.9848
556,2.56549
557,1.81801
558,23.7713
559,50.7168
560,49.939
561,41.2788
562,40.4824
563,43.4585
564,48.6679
565,49.6806
566,54.5913
567,56.9156
568,56.07
569,54.8377
570,46.1626
571,36.1848
572,34.2773
573,33.3986
574,41.962
575,41.0721
576,32.911
577,32.011
578,46.5047
579,52.1851
580,52.3592
581,69.8961
582,77.181
583,76.2575
584,49.0369
585,42.8043
586,39.6257
587,26.7003
588,6.83929
589,5.90242
590,5.82649
591,28.6749
592,38.7849
593,37.8447
594,38.114
595,41.4505
596,55.3106
597,54.3715
598,53.4333
599,64.1835
600,99.1093
601,121.96
602,121.028
603,113.306
604,95.1385
605,84.2707
606,83.35
607,90.2899
608,93.8507
609,101.297
610,100.391
611,95.0371
612,94.1408
613,95.6664
614,104.771
615,122.715
616,141.652
617,146.533
618,153.945
619,167.106
620,171.277
621,175.176
622,191.426
623,212.474
624,211.655
625,208.622
626,207.819
627,221.07
628,234.534
629,258.99
630,279.445
631,278.687
632,268.564
633,267.825
634,317.979
635,334.305
636,333.597
637,332.9
638,332.903
639,352.838
640,359.931
641,363.247
642,364.834
643,374.132
644,383.387
645,382.783
646,382.993
647,387.164
648,399.695
649,403.937
650,404.351
651,410.959
652,457.65
653,480.89
654,480.405
655,451.467
656,446.677
657,444.974
658,444.546
659,446.831
660,454.701
661,487.302
662,515.012
663,514.658
664,499.736
665,499.412
666,525.55
667,547.236
668,550.39
669,551.068
670,550.821
671,545.292
672,541.013
673,540.812
674,542.931
675,542.763
676,542.883
677,551.6
678,564.736
679,572.667
680,576.906
681,576.834
682,576.777
683,579.088
684,594.331
685,609.15
686,614.16
687,614.183
688,588.317
689,559.961
690,560.032
691,602.232
692,628.673
693,628.791
694,628.924
695,645.016
696,665.994
697,666.173
698,649.515
699,649.725
700,683.982
701,710.987
702,715.241
703,719.43
704,725.804
705,726.103
706,682.486
707,618.478
708,608.399
709,608.753
710,627.708
711,660.337
712,668.208
713,668.616
714,642.191
715,623.878
716,606.54
717,606.998
718,610.929
719,621.848
720,637.076
721,637.581
722,626.089
723,594.64
724,555.16
725,518.82
726,510.091
727,510.658
728,511.235
729,496.042
730,480.249
731,447.233
732,419.456
733,420.075
734,435.537
735,436.171
736,423.26
737,411.854
738,399.143
739,395.499
740,396.165
741,396.836
742,375.533
743,337.618
744,329.24
745,327.375
746,326.674
747,296.363
748,270.672
749,271.373
750,281.902
751,282.606
752,275.193
753,246.162
754,216.313
755,189.962
756,172.387
757,163.247
758,163.952
759,164.656
760,153.777
761,143.09
762,135.6
763,117.986
764,117.208
765,116.54
766,117.223
767,65.5433
768,61.454
769,62.1221
770,98.847
771,99.5031
772,87.909
773,62.5522
774,31.4508
775,20.2769
776,20.8685
777,21.4786
778,-4.25844
779,-17.8444
780,-17.2628
781,6.53966
782,21.8386
783,27.3194
784,27.8607
785,0.463612
786,-2.89737
787,-2.38666
788,11.2512
789,20.7874
790,21.2677
791,12.7875
792,-4.53382
793,-4.08369
794,16.6035
795,30.4075
796,35.1452
797,35.5563
798,25.4951
799,20.9114
800,21.2945
801,27.1654
802,27.5303
803,24.3434
804,24.6907
805,37.2834
806,51.7808
807,70.9574
808,71.2708
809,63.936
810,57.1944
811,57.4836
812,61.4843
813,74.5676
814,89.6374
815,95.7088
816,101.518
817,107.909
818,109.161
819,109.39
820,100.52
821,97.0822
822,97.291
823,99.5741
824,101.584
825,102.519
826,102.943
827,103.971
828,116.574
829,139.005
830,140.091
831,140.244
832,120.885
833,121.026
834,130.573
835,139.182
836,139.307
837,132.891
838,122.554
839,121.383
840,121.486
841,121.585
842,101.253
843,82.4598
844,82.5435
845,92.3759
846,116.929
847,139.278
848,146.761
849,159.712
850,159.769
851,131.551
852,110.732
853,110.776
854,126.162
855,138.196
856,139.264
857,139.292
858,103.24
859,103.261
860,112.935
861,120.968
862,121.643
863,120.983
864,120.616
865,105.3
866,75.5886
867,63.3659
868,63.3547
869,90.595
870,90.5773
871,83.1589
872,68.9832
873,65.5153
874,57.0309
875,43.4937
876,43.4577
877,66.9762
878,74.669
879,74.6245
880,42.6543
881,37.8793
882,37.4442
883,29.5405
884,16.1196
885,7.30277
886,-2.36732
887,-2.43301
888,2.2466
889,6.98747
890,6.9147
891,6.83974
892,7.23041
893,14.4975
894,14.4165
895,15.3634
896,15.2787
897,46.9354
898,62.9187
899,62.8293
900,45.0177
901,34.591
902,28.0661
903,16.1234
904,15.9506
905,15.8539
906,26.999
907,26.9005
908,24.577
909,24.477
910,26.3478
911,26.2468
912,20.0314
913,19.5208
914,17.6524
915,19.3163
916,23.305
917,41.7079
918,41.6054
919,45.7504
920,47.1884
921,54.2242
922,54.1226
923,37.1766
924,37.0759
925,73.5369
926,83.1735
927,83.0748
928,73.8746
929,73.6898
930,71.3776
931,71.2825
932,74.6844
933,77.4101
934,79.2766
935,93.5176
936,118.323
937,130.624
938,130.538
939,113.733
940,80.5782
941,80.4971
942,92.663
943,100.362
944,102.894
945,102.82
946,112.993
947,112.923
948,111.779
949,111.713
950,123.856
951,139.816
952,144.179
953,144.122
954,131.665
955,124.447
956,115.163
957,110.477
958,110.434
959,110.392
960,101.281
961,101.246
962,125.807
963,127.249
964,127.221
965,115.585
966,98.7333
967,98.7143
968,103.983
969,124.607
970,140.81
971,145.935
972,149.26
973,149.259
974,147.367
975,147.372
976,148.122
977,154.051
978,154.066
979,134.331
980,134.352
981,142.148
982,148.12
983,149.651
984,153.625
985,153.662
986,147.66
987,147.628
988,146.14
989,146.191
990,152.658
991,171.974
992,172.035
993,170.341
994,170.408
995,170.737
996,171.296
997,173.701
998,180.487
999,195.01
1000,206.656
1001,224.255
1002,246.425
1003,263.727
1004,263.826
1005,260.53
1006,252.294
1007,237.47
1008,237.581
1009,289.696
1010,289.813
1011,289.933
1012,302.118
1013,302.244
1014,283.396
1015,239.398
1016,219.445
1017,219.581
1018,219.732
1019,220.41
1020,220.553
1021,247.033
1022,288.085
1023,313.99
1024,314.142
1025,292.667
1026,213.698
1027,172.895
1028,173.055
1029,215.453
1030,260.579
1031,272.102
1032,272.268
1033,264.086
1034,250.838
1035,226.795
1036,226.964
1037,235.848
1038,236.019
1039,218.027
1040,200.613
1041,200.466
1042,200.639
1043,217.374
1044,217.547
1045,199.6
1046,199.763
1047,174.535
1048,174.707
1049,190.999
1050,191.17
1051,152.431
1052,130.213
1053,130.38
1054,160.313
1055,160.477
1056,151.332
1057,111.197
1058,98.4884
1059,98.6452
1060,105.752
1061,134.117
1062,134.267
1063,124.207
1064,109.186
1065,88.1652
1066,69.4518
1067,69.5864
1068,75.5018
1069,75.6292
1070,55.1853
1071,55.3049
1072,75.8684
1073,75.9796
1074,42.6142
1075,26.0983
1076,26.1956
1077,42.4193
1078,55.1092
1079,55.1911
1080,27.9122
1081,17.415
1082,12.2221
1083,6.47516
1084,5.64956
1085,2.16975
1086,-0.476258
1087,-0.442654
1088,-0.41584
1089,0.292863
1090,24.9034
1091,38.6779
1092,38.676
1093,1.22816
1094,1.21097
1095,0.91374
1096,0.4446
1097,-4.33817
1098,-8.45371
1099,-8.99554
1100,-9.06211
1101,2.62558
1102,17.044
1103,23.0718
1104,22.9761
1105,24.9007
1106,27.5366
1107,32.5053
1108,32.3756
1109,27.5201
1110,26.4043
1111,25.7901
1112,25.6326
1113,30.1913
1114,30.0206
1115,11.2485
1116,11.0654
1117,11.8037
1118,38.7265
1119,52.8288
1120,52.6226
1121,45.7831
1122,41.1948
1123,40.9728
1124,62.5318
1125,66.0377
1126,65.8012
1127,61.7572
1128,48.8443
1129,48.5947
1130,59.2961
1131,59.2314
1132,58.9699
1133,68.4883
1134,68.2196
1135,62.6661
1136,51.0895
1137,50.8111
1138,76.5866
1139,95.1175
1140,94.8305
1141,98.334
1142,98.042
1143,101.116
1144,101.106
1145,110.159
1146,111.885
1147,112.995
1148,116.183
1149,115.877
1150,115.571
1151,118.405
1152,148.545
1153,169.527
1154,169.216
1155,160.157
1156,139.829
1157,137.722
1158,132.368
1159,132.054
1160,117.303
1161,116.989
1162,127.356
1163,144.423
1164,159.641
1165,161.315
1166,161.046
1167,160.808
1168,160.497
1169,148.38
1170,148.07
1171,152.908
1172,152.6
1173,152.293
1174,157.618
1175,192.146
1176,191.843
1177,171.062
1178,163.894
1179,163.596
1180,171.894
1181,171.67
1182,171.378
1183,160.69
1184,160.401
1185,179.106
1186,209.637
1187,209.356
1188,203.226
1189,162.796
1190,158.906
1191,158.635
1192,171.038
1193,170.771
1194,157.38
1195,155.947
1196,152.45
1197,131.538
1198,130.402
1199,130.153
1200,152.797
1201,152.553
1202,144.709
1203,144.472
1204,160.117
1205,159.886
1206,141.951
1207,114.404
1208,93.3344
1209,93.1172
1210,94.4934
1211,102.339
1212,108.685
1213,117.181
1214,131.692
1215,139.484
1216,139.291
1217,125.275
1218,97.9985
1219,89.6937
1220,88.6494
1221,82.4728
1222,80.7007
1223,78.7687
1224,80.3715
1225,89.6574
1226,120.355
1227,120.204
1228,105.276
1229,93.6089
1230,90.4377
1231,90.3021
1232,115.648
1233,129.444
1234,131.899
1235,131.779
1236,111.38
1237,98.4625
1238,98.3546
1239,98.4235
1240,106.31
1241,106.214
1242,82.7197
1243,82.6317
1244,89.6405
1245,89.7726
1246,89.6965
1247,86.1145
1248,84.7256
1249,82.9457
1250,67.1985
1251,67.1422
1252,73.522
1253,80.5313
1254,80.4868
1255,77.1187
1256,77.082
1257,82.4235
1258,88.0334
1259,96.8038
1260,101.096
1261,101.079
1262,95.5377
1263,83.0499
1264,77.8618
1265,72.8982
1266,62.4569
1267,52.8844
1268,35.3653
1269,35.3779
1270,41.6125
1271,67.1871
1272,71.909
1273,71.9362
1274,57.6392
1275,57.6735
1276,69.3124
1277,98.962
1278,99.0067
1279,96.7301
1280,95.8238
1281,93.6634
1282,75.3363
1283,62.1196
1284,62.1845
1285,65.511
1286,65.5823
1287,64.6516
1288,38.9566
1289,39.0374
1290,48.8547
1291,67.2699
1292,67.3599
1293,49.5343
1294,45.7652
1295,45.8639
1296,64.6208
1297,74.7949
1298,74.9021
1299,72.1634
1300,54.138
1301,37.8902
1302,25.9584
1303,26.0788
1304,35.772
1305,38.3676
1306,38.4954
1307,38.6255
1308,40.4894
1309,60.926
1310,61.063
1311,53.5386
1312,27.2154
1313,27.3588
1314,44.0934
1315,44.2409
1316,33.6418
1317,33.7932
1318,50.1665
1319,67.0472
1320,67.2041
1321,50.4044
1322,32.5856
1323,32.7474
1324,61.1981
1325,61.363
1326,48.8901
1327,49.0578
1328,54.4962
1329,54.6665
1330,31.695
1331,31.8678
1332,38.0049
1333,38.1799
1334,29.2449
1335,29.4219
1336,31.1594
1337,31.338
1338,26.8158
1339,26.9959
1340,37.1851
1341,51.2297
1342,58.1818
1343,58.3642
1344,16.0861
1345,15.1638
1346,15.3473
1347,27.8111
1348,41.5015
1349,46.1299
1350,46.3139
1351,36.392
1352,30.1716
1353,25.5645
1354,21.3989
1355,21.5822
1356,26.8682
1357,39.5079
1358,40.692
1359,45.9749
1360,50.9365
1361,51.205
1362,59.8237
1363,60.0026
1364,41.2813
1365,26.0172
1366,14.9605
1367,12.9874
1368,13.1613
1369,28.1725
1370,57.895
1371,58.065
1372,47.302
1373,37.9145
1374,38.0801
1375,51.494
1376,55.7285
1377,63.4756
1378,63.6342
1379,54.772
1380,40.4374
1381,35.8933
1382,31.5404
1383,31.6887
1384,31.618
1385,29.5161
1386,18.4623
1387,11.8233
1388,11.9593
1389,14.4177
1390,14.5483
1391,-4.14103
1392,-4.58645
1393,-4.46452
1394,15.5356
1395,26.5825
1396,34.2231
1397,41.3572
1398,41.465
1399,22.6577
1400,7.07936
1401,1.71325
1402,1.81066
1403,13.3516
1404,27.6455
1405,27.7357
1406,20.732
1407,6.00791
1408,6.09132
1409,34.2774
1410,34.3565
1411,24.8439
1412,10.0908
1413,10.164
1414,22.4525
1415,43.7897
1416,43.8573
1417,36.6155
1418,31.5226
1419,22.7006
1420,1.6697
1421,1.72905
1422,19.1086
1423,35.8665
1424,40.2887
1425,40.3423
1426,21.2314
1427,21.2825
1428,25.1099
1429,35.004
1430,35.0515
1431,35.0979
1432,58.5801
1433,58.6245
1434,57.5327
1435,48.7372
1436,43.5207
1437,43.5615
1438,34.7149
1439,34.7542
1440,62.0916
1441,65.2533
1442,67.6819
1443,76.5083
1444,76.5445
1445,64.5993
1446,39.462
1447,39.4968
1448,63.1937
1449,63.2278
1450,55.0272
1451,55.0607
1452,55.3346
1453,55.3676
1454,54.8671
1455,54.8998
1456,81.4202
1457,81.4527
1458,44.4351
1459,31.6888
1460,31.7212
1461,66.607
1462,66.6396
1463,58.7681
1464,41.9054
1465,38.2559
1466,38.289
1467,42.8458
1468,60.0288
1469,64.4477
1470,64.4818
1471,37.8321
1472,35.4588
1473,35.4938
1474,68.1063
1475,68.1421
1476,56.2183
1477,49.1431
1478,49.1802
1479,54.6062
1480,56.1801
1481,56.2187
1482,67.2185
1483,72.5755
1484,76.4908
1485,87.5083
1486,87.5497
1487,60.2833
1488,54.2293
1489,53.2654
1490,53.3094
1491,57.8434
1492,68.2998
1493,68.3458
1494,62.1779
1495,60.5199
1496,47.3236
1497,36.6994
1498,24.3658
1499,24.4162
1500,26.9549
1501,33.3458
1502,52.6724
1503,77.8941
1504,84.53
1505,90.2143
1506,103.502
1507,103.559
1508,103.37
1509,72.1218
1510,44.0161
1511,44.0758
1512,65.3243
1513,65.3857
1514,65.4478
1515,89.3456
1516,100.965
1517,101.029
1518,91.1806
1519,73.7849
1520,68.6635
1521,50.6507
1522,28.0969
1523,28.1659
1524,31.6724
1525,51.8572
1526,80.2502
1527,80.3221
1528,51.5943
1529,51.6676
1530,63.0315
1531,63.1061
1532,39.6741
1533,39.7499
1534,62.6799
1535,71.9023
1536,75.5844
1537,75.6627
1538,63.8656
1539,36.9255
1540,29.0118
1541,29.0921
1542,49.6668
1543,63.0969
1544,63.1786
1545,64.7318
1546,69.7349
1547,69.8177
1548,51.1031
1549,51.1866
1550,63.6043
1551,67.7875
1552,67.8718
1553,60.9542
1554,44.3758
1555,44.4607
1556,47.3317
1557,62.1668
1558,64.1831
1559,64.2685
1560,54.565
1561,50.7448
1562,50.8301
1563,56.9941
1564,57.0793
1565,58.8245
1566,58.9095
1567,84.5638
1568,84.6483
1569,71.8253
1570,52.0269
1571,52.1105
1572,53.3494
1573,59.9814
1574,60.9261
1575,61.008
1576,35.4605
1577,35.5413
1578,50.266
1579,50.3456
1580,48.6636
1581,48.7417
1582,49.7523
1583,49.8289
1584,49.9047
1585,55.9512
1586,77.4146
1587,77.4875
1588,65.0803
1589,35.2821
1590,35.3518
1591,42.8696
1592,88.7645
1593,88.8305
1594,51.6172
1595,44.5587
1596,44.6207
1597,44.6812
1598,45.0976
1599,83.8175
1600,83.8733
1601,63.7853
1602,50.9588
1603,51.0094
1604,51.0582
1605,50.2803
1606,49.9772
1607,33.2317
1608,33.2726
1609,57.1888
1610,70.1432
1611,70.1776
1612,50.192
1613,50.2217
1614,69.8499
1615,81.5273
1616,86.4623
1617,86.4821
1618,67.7984
1619,40.2111
1620,22.8291
1621,15.8139
1622,15.8197
1623,39.4891
1624,65.4753
1625,68.2576
1626,68.7022
1627,83.3538
1628,83.3408
1629,48.6946
1630,48.6747
1631,50.1589
1632,50.132
1633,48.4925
1634,48.4582
1635,51.0636
1636,51.0215
1637,33.5079
1638,33.4579
1639,35.7887
1640,59.8746
1641,59.8121
1642,57.2482
1643,51.6523
1644,49.8905
1645,49.8103
1646,51.5394
1647,51.4498
1648,24.4383
1649,-5.99112
1650,-6.09527
1651,10.5903
1652,30.4034
1653,35.4718
1654,35.3481
1655,42.4788
1656,57.7905
1657,59.4794
1658,59.3367
1659,57.9017
1660,48.6176
1661,40.2265
1662,32.1697
1663,17.589
1664,17.4191
1665,16.6799
1666,27.5594
1667,27.3764
1668,42.9264
1669,42.7349
1670,-1.27328
1671,-1.47324
1672,11.7109
1673,36.2198
1674,58.2729
1675,58.0567
1676,44.1511
1677,38.5998
1678,38.3721
1679,38.1407
1680,29.0433
1681,7.47129
1682,7.22909
1683,27.2439
1684,64.9294
1685,85.3271
1686,85.0713
1687,50.1787
1688,49.9165
1689,52.6746
1690,52.4061
1691,48.3402
1692,27.9266
1693,27.0943
1694,19.3169
1695,-0.1207
1696,-0.406526
1697,6.44907
1698,12.352
1699,29.131
1700,44.5491
1701,50.5518
1702,55.7981
1703,55.4945
1704,44.6245
1705,25.1244
1706,24.814
1707,24.5015
1708,18.0796
1709,12.0877
1710,11.7691
1711,30.0673
1712,31.5656
1713,33.5298
1714,35.4762
1715,35.1485
1716,28.8805
1717,28.5495
1718,49.4271
1719,49.093
1720,40.3948
1721,24.3721
1722,24.0338
1723,28.1917
1724,32.5254
1725,32.4284
1726,46.5288
1727,50.7847
1728,50.9087
1729,50.5623
1730,40.2189
1731,39.8707
1732,70.1186
1733,69.7687
1734,69.0507
1735,68.6992
1736,92.1198
1737,91.7669
1738,65.5528
1739,21.836
1740,21.4814
1741,31.2338
1742,62.3332
1743,61.9773
1744,55.4488
1745,21.4844
1746,21.1275
1747,36.375
1748,52.7719
1749,52.4144
1750,55.6725
1751,64.191
1752,86.5782
1753,116.398
1754,116.041
1755,88.6485
1756,76.3137
1757,68.4063
1758,68.0487
1759,28.7282
1760,28.371
1761,69.9026
1762,78.2257
1763,77.8692
1764,70.6903
1765,63.0525
1766,62.697
1767,63.0142
1768,64.4059
1769,84.0587
1770,83.7048
1771,83.3361
1772,82.6428
1773,82.2904
1774,134.039
1775,147.856
1776,147.505
1777,86.9588
1778,77.4846
1779,77.1356
1780,82.0026
1781,93.5965
1782,93.2494
1783,72.4722
1784,27.2501
1785,26.905
1786,75.3822
1787,96.2533
1788,95.9103
1789,80.081
1790,61.9207
1791,61.5797
1792,61.338
1793,63.9705
1794,70.4367
1795,94.9865
1796,103.748
1797,103.411
1798,80.4473
1799,80.1121
1800,104.549
1801,104.215
1802,83.1715
1803,60.6368
1804,33.4165
1805,32.4303
1806,32.0999
1807,72.2962
1808,83.0603
1809,82.732
1810,70.0443
1811,42.9913
1812,31.0021
1813,30.6764
1814,45.9055
1815,56.4851
1816,77.7104
1817,95.6435
1818,95.3206
1819,66.6649
1820,44.8053
1821,43.5269
1822,44.1632
1823,42.2463
1824,41.994
1825,41.6745
1826,49.5732
1827,54.6944
1828,78.206
1829,77.8882
1830,64.6462
1831,22.2736
1832,8.27849
1833,7.96185
1834,37.561
1835,72.1774
1836,71.8615
1837,71.5457
1838,71.4134
1839,75.2118
1840,74.8964
1841,43.7917
1842,12.7249
1843,-1.46728
1844,-1.78248
1845,65.912
1846,89.8485
1847,96.619
1848,96.3038
1849,110.906
