#wnum,raman
275,23.1792
276,23.8849
277,-2.41385
278,-1.70813
279,20.278
280,39.1207
281,39.8266
282,33.1826
283,33.8889
284,39.7893
285,71.4474
286,72.1545
287,59.4734
288,59.9669
289,60.6751
290,64.7321
291,65.4412
292,66.1508
293,83.2595
294,83.9703
295,60.7175
296,61.4295
297,79.3248
298,80.0382
299,80.5099
300,80.218
301,80.9337
302,71.5531
303,61.9593
304,59.5955
305,60.3147
306,73.824
307,90.4489
308,99.9985
309,104.166
310,104.947
311,138.983
312,139.709
313,132.388
314,133.117
315,129.576
316,117.421
317,73.839
318,68.5598
319,69.2938
320,91.639
321,92.3753
322,85.2512
323,72.2117
324,63.0563
325,63.7974
326,64.8279
327,79.7451
328,84.8628
329,85.6088
330,85.7015
331,85.8545
332,86.6042
333,126.74
334,129.704
335,130.457
336,115.176
337,115.931
338,128.74
339,129.499
340,100.032
341,82.1658
342,77.2273
343,75.0895
344,75.8536
345,79.4693
346,83.7423
347,84.7804
348,87.678
349,114.316
350,151.748
351,152.519
352,140.914
353,125.771
354,126.545
355,142.834
356,148.118
357,148.895
358,149.673
359,149.449
360,150.229
361,133.479
362,118.368
363,112.705
364,90.6621
365,73.6441
366,74.4281
367,79.4927
368,80.2778
369,60.37
370,61.1559
371,61.9422
372,61.5701
373,43.6586
374,39.0526
375,39.8399
376,45.2074
377,59.5376
378,63.4828
379,64.2705
380,47.625
381,48.4127
382,50.1044
383,58.9796
384,59.7667
385,38.9207
386,12.346
387,6.37094
388,7.15668
389,23.8661
390,25.7101
391,26.4942
392,18.0959
393,13.5949
394,14.377
395,25.4471
396,31.4303
397,32.2099
398,31.4939
399,32.2715
400,43.8075
401,54.2358
402,55.0101
403,52.0297
404,41.9585
405,37.0994
406,37.8685
407,42.4786
408,43.6524
409,44.417
410,42.96
411,40.8736
412,41.6332
413,43.4337
414,44.1897
415,34.8318
416,26.4707
417,27.2207
418,48.2824
419,59.3763
420,60.1199
421,40.2139
422,26.8007
423,27.5372
424,53.2188
425,71.8051
426,77.1145
427,82.4886
428,92.1142
429,102.736
430,103.454
431,94.6638
432,76.9144
433,64.7017
434,65.4073
435,77.7319
436,112.445
437,148.947
438,149.639
439,125.299
440,103.849
441,101.966
442,98.4562
443,85.7044
444,78.0379
445,78.704
446,84.6004
447,91.7848
448,97.707
449,119.207
450,119.852
451,109.737
452,96.76
453,97.3909
454,105.506
455,110.148
456,110.764
457,103.277
458,86.8374
459,87.4381
460,101.835
461,118.041
462,132.1
463,135.899
464,136.472
465,135.59
466,136.151
467,146.002
468,160.807
469,161.349
470,129.249
471,99.2698
472,84.9633
473,78.6786
474,72.025
475,72.5273
476,102.334
477,122.919
478,125.832
479,127.5
480,129.786
481,130.243
482,123.959
483,117.952
484,112.64
485,110.762
486,111.18
487,117.692
488,118.092
489,98.331
490,98.7137
491,101.256
492,110.574
493,117.706
494,118.847
495,130.64
496,130.966
497,130.589
498,126.219
499,121.726
500,107.864
501,94.2071
502,89.2091
503,89.4639
504,102.59
505,124.095
506,138.878
507,139.088
508,121.679
509,121.867
510,134.905
511,146.976
512,147.127
513,136.534
514,136.661
515,136.836
516,139.49
517,139.579
518,124.698
519,103.217
520,102.613
521,97.3808
522,92.8407
523,68.9527
524,68.9465
525,71.5435
526,71.5085
527,48.9029
528,27.0236
529,15.7221
530,9.40399
531,5.24256
532,5.11719
533,15.4808
534,24.4463
535,26.0471
536,28.3091
537,28.1035
538,24.87
539,4.61911
540,-20.323
541,-20.596
542,-0.505945
543,18.7884
544,21.2622
545,22.7625
546,22.4063
547,22.0342
548,22.1807
549,38.3741
550,47.548
551,47.1145
552,40.8086
553,32.5197
554,25.2082
555,24.7171
556,30.4917
557,32.9882
558,33.4264
559,33.6381
560,34.1882
561,35.5542
562,37.3627
563,39.3719
564,44.9122
565,44.293
566,42.1499
567,29.4162
568,28.4714
569,27.8074
570,33.9829
571,33.2978
572,27.411
573,26.7057
574,28.2064
575,33.9497
576,35.7039
577,34.9611
578,28.9591
579,20.8662
580,20.0974
581,22.4556
582,31.7753
583,45.3561
584,55.7236
585,54.9162
586,39.1243
587,30.8232
588,27.9248
589,20.3111
590,17.2276
591,16.3219
592,15.4696
593,28.4776
594,41.0933
595,42.3989
596,41.5258
597,22.055
598,-4.22907
599,-6.51509
600,-7.4055
601,-0.00591044
602,7.69473
603,15.1527
604,32.2249
605,59.1634
606,86.8379
607,100.43
608,100.361
609,99.4518
610,98.7873
611,107.895
612,112.551
613,111.644
614,110.739
615,133.43
616,164.095
617,194.214
618,210.805
619,209.912
620,191.02
621,174.469
622,173.589
623,212.117
624,235.601
625,234.738
626,233.88
627,248.032
628,262.886
629,282.009
630,294.654
631,310.847
632,345.946
633,376.133
634,380.863
635,380.076
636,370.734
637,369.967
638,373.75
639,390.68
640,390.37
641,394.127
642,415.214
643,460.657
644,507.191
645,525.267
646,531.021
647,530.37
648,514.539
649,513.916
650,548.417
651,579
652,578.419
653,577.853
654,597.737
655,636.831
656,640.52
657,640.015
658,609.464
659,591.999
660,591.543
661,649.406
662,719.78
663,719.374
664,693.028
665,671.707
666,659.724
667,659.388
668,681.598
669,714.444
670,746.691
671,771.807
672,805.679
673,840.846
674,843.856
675,843.666
676,814.883
677,804.158
678,804.026
679,811.419
680,826.624
681,835.421
682,835.684
683,837.161
684,845.116
685,845.119
686,839.713
687,831.598
688,825.701
689,815.047
690,815.149
691,830.567
692,840.778
693,840.938
694,841.117
695,857.824
696,894.435
697,925.771
698,959.523
699,965.348
700,965.643
701,965.956
702,979.972
703,980.323
704,969.072
705,936.005
706,936.411
707,953.281
708,957.959
709,959.059
710,958.895
711,950.672
712,939.128
713,929.091
714,923.111
715,905.611
716,885.405
717,868.488
718,847.213
719,825.175
720,809.837
721,793.523
722,789.687
723,789.374
724,773.323
725,740.712
726,711.901
727,700.45
728,701.197
729,722.84
730,723.612
731,723.291
732,701.08
733,659.352
734,608.994
735,591.241
736,591.123
737,591.966
738,551.845
739,511.269
740,493.444
741,493.163
742,494.045
743,505.244
744,506.138
745,450.49
746,451.395
747,464.368
748,465.281
749,449.153
750,388.734
751,337.687
752,293.92
753,267.819
754,252.22
755,234.625
756,227.553
757,220.728
758,208.183
759,209.11
760,215.553
761,219.887
762,220.808
763,172.214
764,156.127
765,156.038
766,156.942
767,136.974
768,117.569
769,95.9087
770,87.6668
771,88.5395
772,119.617
773,120.473
774,105.191
775,83.3182
776,65.1747
777,46.9997
778,44.688
779,42.4461
780,13.1885
781,-19.3601
782,-18.6033
783,-4.05028
784,-3.3206
785,-12.0407
786,-11.3387
787,5.33209
788,29.5534
789,30.2145
790,30.8622
791,35.9808
792,49.3259
793,50.0478
794,50.6438
795,49.2819
796,47.4336
797,47.9923
798,56.2827
799,68.8157
800,78.914
801,83.2806
802,83.8319
803,86.2782
804,86.7827
805,91.9414
806,95.4832
807,95.9276
808,96.3613
809,109.362
810,125.619
811,126.022
812,126.415
813,128.985
814,149.002
815,167.505
816,172.012
817,173.007
818,180.186
819,180.512
820,176.911
821,161.288
822,147.556
823,147.847
824,164.371
825,209.52
826,210.235
827,210.493
828,186.465
829,178.852
830,175.728
831,175.954
832,182.262
833,198.431
834,220.099
835,220.296
836,215.525
837,205.939
838,204.551
839,204.719
840,209.776
841,221.387
842,225.937
843,226.078
844,211.21
845,202.209
846,202.332
847,212.986
848,213.096
849,191.731
850,178.176
851,174.917
852,173.776
853,164.408
854,153.146
855,138.175
856,129.7
857,129.758
858,136.016
859,152.523
860,160.157
861,160.193
862,151.165
863,151.191
864,161.097
865,161.112
866,146.4
867,117.698
868,105.785
869,95.5361
870,88.5052
871,88.4791
872,81.6852
873,68.8621
874,68.8328
875,69.5365
876,73.1371
877,74.0191
878,73.9709
879,73.2844
880,72.357
881,72.2949
882,59.9487
883,59.8776
884,60.7258
885,60.6457
886,57.4919
887,46.753
888,46.6596
889,46.5619
890,37.582
891,33.0277
892,32.917
893,43.9862
894,43.8671
895,34.4418
896,32.1835
897,32.0406
898,31.9046
899,17.7004
900,5.5421
901,-6.72128
902,-6.87361
903,5.57548
904,36.3925
905,37.9136
906,37.7463
907,37.5756
908,44.8511
909,54.1624
910,59.6096
911,65.2241
912,82.7099
913,90.0179
914,89.8281
915,79.6812
916,79.4873
917,94.5829
918,105.512
919,105.313
920,98.0615
921,97.8599
922,98.4925
923,114.103
924,127.193
925,127.981
926,127.775
927,120.166
928,113.46
929,102.26
930,102.053
931,105.896
932,126.64
933,151.834
934,165.336
935,165.132
936,163.084
937,160.88
938,160.679
939,161.383
940,170.874
941,183.226
942,194.983
943,194.789
944,178.378
945,165.476
946,165.287
947,173.866
948,188.232
949,209.03
950,219.964
951,219.787
952,205.327
953,191.157
954,187.682
955,187.516
956,188.578
957,191.583
958,200.028
959,212.368
960,212.218
961,201.572
962,201.429
963,220.176
964,249.463
965,249.331
966,232.265
967,198.377
968,180.417
969,180.301
970,195.453
971,228.707
972,239.108
973,239.008
974,237.713
975,235.831
976,235.744
977,245.189
978,245.111
979,238.376
980,232.423
981,212.962
982,212.903
983,216.726
984,224.105
985,227.954
986,248.9
987,256.959
988,256.928
989,256.902
990,257.541
991,261.742
992,261.73
993,245.051
994,245.049
995,246.383
996,261.868
997,274.48
998,288.967
999,311.633
1000,329.87
1001,329.902
1002,323.729
1003,323.771
1004,343.822
1005,343.873
1006,349.43
1007,349.491
1008,400.623
1009,400.693
1010,394.328
1011,374.679
1012,374.332
1013,372.013
1014,372.106
1015,377.239
1016,384.573
1017,391.456
1018,391.565
1019,391.678
1020,393.575
1021,393.696
1022,371.067
1023,343.23
1024,343.362
1025,356.456
1026,356.595
1027,328.099
1028,328.244
1029,349.324
1030,349.475
1031,312.021
1032,290.191
1033,288.103
1034,280.248
1035,254
1036,249.309
1037,249.476
1038,281.537
1039,292.705
1040,293.941
1041,311.665
1042,311.841
1043,288.746
1044,241.085
1045,241.263
1046,261.798
1047,261.977
1048,256.553
1049,207.728
1050,207.907
1051,206.45
1052,202.006
1053,175.827
1054,176.004
1055,207.554
1056,207.729
1057,173.492
1058,173.664
1059,181.418
1060,181.586
1061,143.183
1062,105.008
1063,95.6927
1064,95.8512
1065,110.696
1066,116.549
1067,116.698
1068,89.5065
1069,89.6482
1070,102.868
1071,103.046
1072,103.175
1073,80.8008
1074,66.7061
1075,66.8207
1076,79.4308
1077,79.5348
1078,61.4586
1079,47.8302
1080,38.6281
1081,32.6924
1082,32.7585
1083,21.3945
1084,5.56207
1085,5.61473
1086,6.60847
1087,7.14002
1088,16.7336
1089,25.8123
1090,25.8258
1091,21.6381
1092,16.6555
1093,16.6429
1094,25.9602
1095,25.9292
1096,25.296
1097,-0.771273
1098,-9.77261
1099,-11.5861
1100,-11.667
1101,-8.89161
1102,4.63867
1103,24.5598
1104,32.3102
1105,32.5835
1106,36.3598
1107,39.0805
1108,38.9222
1109,24.8658
1110,24.4616
1111,24.2776
1112,24.0854
1113,19.687
1114,19.4792
1115,33.5546
1116,33.3319
1117,20.8601
1118,0.321735
1119,0.0782113
1120,22.3426
1121,42.2345
1122,59.6501
1123,71.6545
1124,75.0263
1125,74.9011
1126,88.6148
1127,88.3248
1128,80.5411
1129,80.2415
1130,103.464
1131,119.487
1132,122.647
1133,123.634
1134,127.309
1135,145.708
1136,171.195
1137,170.865
1138,157.909
1139,157.572
1140,155.903
1141,152.09
1142,112.381
1143,112.035
1144,150.222
1145,189.579
1146,201.291
1147,200.939
1148,169.653
1149,169.299
1150,200.571
1151,213.156
1152,212.799
1153,198.907
1154,187.515
1155,187.158
1156,188.868
1157,205.614
1158,205.258
1159,195.687
1160,195.332
1161,233.586
1162,233.233
1163,198.37
1164,182.96
1165,172.722
1166,172.374
1167,204.234
1168,203.89
1169,200.749
1170,194.332
1171,180.687
1172,176.8
1173,176.467
1174,194.302
1175,230.357
1176,244.517
1177,244.195
1178,223.987
1179,223.671
1180,262.839
1181,286.961
1182,286.655
1183,257.017
1184,221.425
1185,210.306
1186,201.139
1187,183.503
1188,183.219
1189,184.192
1190,193.985
1191,213.112
1192,232.367
1193,233.36
1194,231.848
1195,225.646
1196,209.338
1197,209.095
1198,253.68
1199,253.447
1200,230.976
1201,219.599
1202,192.771
1203,192.557
1204,202.416
1205,202.213
1206,197.884
1207,189.238
1208,178.704
1209,178.522
1210,191.18
1211,192.177
1212,198.989
1213,198.829
1214,181.576
1215,123.742
1216,108.621
1217,108.483
1218,179.663
1219,179.537
1220,160.47
1221,127.511
1222,123.615
1223,123.512
1224,155.905
1225,155.813
1226,142.549
1227,134.785
1228,134.711
1229,137.461
1230,158.855
1231,169.617
1232,169.567
1233,147.666
1234,144.517
1235,142.898
1236,126.708
1237,126.688
1238,140.214
1239,140.205
1240,120.592
1241,120.595
1242,131.694
1243,141.59
1244,141.611
1245,136.144
1246,122.9
1247,106.771
1248,94.2343
1249,94.2847
1250,132.37
1251,166.032
1252,166.804
1253,166.878
1254,123.876
1255,110.962
1256,111.053
1257,124.751
1258,131.052
1259,131.159
1260,110.051
1261,110.17
1262,121.839
1263,146.369
1264,146.504
1265,140.791
1266,140.937
1267,145.584
1268,152.09
1269,152.252
1270,117.506
1271,93.5031
1272,93.6805
1273,102.518
1274,102.706
1275,102.899
1276,115.507
1277,132.428
1278,132.635
1279,120.211
1280,109.247
1281,98.9711
1282,97.9938
1283,98.2244
1284,125.021
1285,146.768
1286,147.012
1287,135.78
1288,121.289
1289,109.078
1290,109.338
1291,109.603
1292,93.3076
1293,81.0215
1294,81.2979
1295,87.7763
1296,90.6951
1297,91.8465
1298,92.1376
1299,91.1907
1300,62.738
1301,63.0393
1302,80.467
1303,129.973
1304,130.283
1305,124.445
1306,112.897
1307,102.839
1308,102.697
1309,99.7616
1310,88.3289
1311,80.9907
1312,74.7076
1313,69.3494
1314,69.6864
1315,70.0255
1316,59.0042
1317,49.9011
1318,50.2461
1319,58.5432
1320,69.5976
1321,69.9476
1322,46.8167
1323,35.6135
1324,35.9677
1325,56.42
1326,83.5307
1327,83.8882
1328,74.1418
1329,57.3995
1330,57.7595
1331,58.1201
1332,53.505
1333,46.6034
1334,46.9652
1335,53.6934
1336,55.09
1337,55.4521
1338,50.5086
1339,50.8704
1340,57.0839
1341,57.445
1342,40.7379
1343,19.2679
1344,3.70276
1345,4.06115
1346,32.285
1347,43.6145
1348,46.6122
1349,46.9662
1350,73.3805
1351,73.7316
1352,47.9483
1353,44.0004
1354,44.3464
1355,44.6904
1356,26.8174
1357,12.7088
1358,6.11433
1359,6.44953
1360,13.0883
1361,26.8418
1362,40.038
1363,46.3056
1364,46.6272
1365,28.6159
1366,1.38527
1367,1.69738
1368,11.2535
1369,26.1613
1370,54.5058
1371,54.8036
1372,21.8596
1373,2.6617
1374,2.9476
1375,6.48997
1376,11.6744
1377,11.9473
1378,1.67282
1379,1.93652
1380,13.7741
1381,14.0281
1382,1.98798
1383,2.14543
1384,2.38402
1385,12.1419
1386,19.1442
1387,19.3663
1388,19.5689
1389,12.1167
1390,-5.06774
1391,-4.86923
1392,0.881917
1393,27.1174
1394,27.2974
1395,19.8798
1396,9.40699
1397,9.14828
1398,5.36246
1399,-4.04869
1400,-3.90617
1401,21.5483
1402,21.6784
1403,5.7648
1404,-1.69709
1405,-1.58537
1406,3.97122
1407,8.97267
1408,9.71025
1409,11.2714
1410,36.7404
1411,73.3703
1412,73.4422
1413,48.8714
1414,27.9196
1415,27.9759
1416,32.3818
1417,48.1538
1418,60.1101
1419,60.1466
1420,36.7893
1421,36.7375
1422,36.7602
1423,38.867
1424,38.8809
1425,21.7368
1426,17.7546
1427,17.756
1428,32.5592
1429,39.2701
1430,59.047
1431,64.4007
1432,64.3829
1433,56.0214
1434,43.1999
1435,43.1715
1436,48.8023
1437,49.4782
1438,55.8518
1439,70.6874
1440,70.6431
1441,69.4748
1442,69.0578
1443,49.0863
1444,45.2859
1445,45.2276
1446,54.2643
1447,54.2009
1448,33.1699
1449,28.106
1450,28.0355
1451,28.0653
1452,31.2251
1453,43.2508
1454,54.519
1455,54.4383
1456,38.1596
1457,36.9243
1458,36.8383
1459,44.8943
1460,47.1273
1461,47.6907
1462,56.3909
1463,63.1965
1464,69.0736
1465,94.7948
1466,98.727
1467,98.6288
1468,81.3609
1469,81.2607
1470,80.8318
1471,67.5412
1472,67.4385
1473,83.9109
1474,83.8068
1475,44.3554
1476,44.2502
1477,59.4883
1478,83.2133
1479,84.7756
1480,84.6687
1481,84.5616
1482,90.3851
1483,92.7404
1484,92.6328
1485,87.2171
1486,61.6557
1487,61.5482
1488,65.6496
1489,72.6888
1490,72.5817
1491,72.4749
1492,90.1253
1493,99.2616
1494,103.727
1495,103.621
1496,128.284
1497,128.179
1498,104.69
1499,98.1199
1500,92.857
1501,78.2262
1502,78.1249
1503,100.216
1504,131.306
1505,131.207
1506,118.594
1507,105.579
1508,89.2309
1509,70.473
1510,70.3783
1511,82.8165
1512,82.7238
1513,60.1109
1514,60.0204
1515,94.5609
1516,94.4724
1517,82.8075
1518,81.3156
1519,81.2306
1520,78.5742
1521,71.0894
1522,71.008
1523,88.6108
1524,88.5319
1525,78.3403
1526,78.264
1527,89.2858
1528,89.212
1529,75.2475
1530,72.2494
1531,71.057
1532,39.6022
1533,39.5351
1534,56.9873
1535,89.4516
1536,89.3887
1537,82.2094
1538,78.1388
1539,77.4754
1540,63.2317
1541,63.0105
1542,62.9363
1543,34.3848
1544,34.3332
1545,71.0106
1546,89.3021
1547,89.2548
1548,73.4422
1549,72.3529
1550,71.5333
1551,47.6726
1552,47.6324
1553,69.67
1554,69.6326
1555,61.9405
1556,61.9059
1557,86.1207
1558,86.0889
1559,76.1854
1560,64.9811
1561,64.9534
1562,74.1346
1563,74.1096
1564,74.086
1565,83.8238
1566,83.8028
1567,76.7073
1568,76.6888
1569,76.6715
1570,71.0558
1571,71.041
1572,70.9084
1573,70.896
1574,51.787
1575,51.777
1576,60.7011
1577,72.232
1578,74.8482
1579,74.8425
1580,54.2804
1581,54.2768
1582,93.754
1583,115.301
1584,115.301
1585,102.943
1586,102.944
1587,105.768
1588,105.77
1589,86.6621
1590,86.6665
1591,97.0561
1592,97.0619
1593,89.1096
1594,62.4593
1595,62.467
1596,74.8975
1597,74.9063
1598,55.9305
1599,40.6259
1600,37.4863
1601,37.4968
1602,50.738
1603,55.4439
1604,55.4552
1605,47.649
1606,44.0967
1607,43.6058
1608,43.6176
1609,68.8556
1610,77.4316
1611,77.4434
1612,69.9681
1613,69.9795
1614,71.5591
1615,71.5701
1616,38.0708
1617,6.15052
1618,6.16045
1619,6.68237
1620,20.2477
1621,38.9351
1622,61.8204
1623,82.2777
1624,82.2841
1625,39.3127
1626,39.3176
1627,70.7832
1628,88.2661
1629,88.2682
1630,86.1679
1631,84.6678
1632,78.9834
1633,78.981
1634,78.9774
1635,54.9356
1636,54.9292
1637,55.3153
1638,55.3059
1639,46.2505
1640,46.238
1641,44.3205
1642,44.3045
1643,44.2867
1644,76.7039
1645,76.6823
1646,60.5606
1647,60.5349
1648,60.507
1649,58.7496
1650,21.6025
1651,21.5678
1652,44.8316
1653,88.061
1654,88.0188
1655,38.0104
1656,24.7892
1657,24.7388
1658,27.5991
1659,41.4781
1660,41.419
1661,10.7675
1662,10.7022
1663,29.1212
1664,29.0495
1665,24.8124
1666,24.7339
1667,52.429
1668,55.9486
1669,55.8593
1670,11.4941
1671,11.3973
1672,22.8392
1673,44.4532
1674,44.3444
1675,35.4084
1676,35.2913
1677,69.9706
1678,69.8449
1679,20.2201
1680,20.0855
1681,37.4301
1682,37.2862
1683,36.8109
1684,36.6574
1685,36.499
1686,14.4756
1687,-8.79239
1688,-8.96603
1689,15.8705
1690,26.9476
1691,52.6167
1692,87.6048
1693,87.4063
1694,71.1155
1695,54.8385
1696,54.1513
1697,53.9346
1698,68.8099
1699,68.5847
1700,46.6869
1701,43.1877
1702,42.9504
1703,46.1105
1704,45.8655
1705,19.4344
1706,19.1821
1707,28.8204
1708,28.5612
1709,17.9357
1710,17.6698
1711,27.1204
1712,65.4995
1713,84.5554
1714,84.2773
1715,70.1285
1716,60.7097
1717,57.6228
1718,57.3338
1719,70.4196
1720,70.1257
1721,62.9914
1722,62.6929
1723,79.7795
1724,84.4379
1725,94.5517
1726,96.166
1727,95.8572
1728,79.3165
1729,79.0041
1730,78.4581
1731,78.1425
1732,50.6214
1733,42.8864
1734,42.5663
1735,57.1079
1736,56.7853
1737,44.5102
1738,40.1113
1739,39.7853
1740,72.2198
1741,101.127
1742,100.798
1743,55.3295
1744,54.9992
1745,73.8943
1746,105.066
1747,104.733
1748,83.5907
1749,83.2577
1750,96.2213
1751,95.8876
1752,41.9109
1753,41.5768
1754,72.4781
1755,108.359
1756,132.256
1757,131.922
1758,111.414
1759,76.2407
1760,75.9067
1761,96.3036
1762,95.9702
1763,99.5138
1764,114.974
1765,142.398
1766,168.886
1767,168.554
1768,125.783
1769,125.453
1770,118.795
1771,107.119
1772,96.6477
1773,96.32
1774,120.357
1775,120.031
1776,104.475
1777,104.151
1778,115.871
1779,122.821
1780,139.111
1781,138.79
1782,133.376
1783,133.057
1784,149.347
1785,149.03
1786,124.617
1787,124.303
1788,127.67
1789,127.357
1790,121.609
1791,77.6796
1792,77.3706
1793,136.272
1794,135.965
1795,82.476
1796,82.1717
1797,87.3857
1798,126.78
1799,126.48
1800,117.63
1801,117.331
1802,127.28
1803,126.984
1804,114.028
1805,113.735
1806,132.032
1807,131.741
1808,125.441
1809,91.3276
1810,91.0398
1811,103.639
1812,110.705
1813,132.619
1814,132.336
1815,111.61
1816,97.508
1817,77.8828
1818,77.0796
1819,75.7803
1820,76.5246
1821,87.175
1822,137.678
1823,137.404
1824,112.874
1825,103.63
1826,67.8292
1827,67.5585
1828,54.8961
1829,67.3292
1830,79.9752
1831,135.967
1832,135.7
1833,110.268
1834,88.7418
1835,57.4087
1836,36.7235
1837,36.4595
1838,47.1506
1839,62.2896
1840,86.8024
1841,86.5402
1842,86.2783
1843,78.4406
1844,47.877
1845,45.1352
1846,29.5214
1847,15.9118
1848,15.651
1849,-4.26417
