#wnum,raman
275,89.8333
276,79.4413
277,79.3947
278,69.1827
279,61.5771
280,55.4826
281,49.225
282,41.831
283,34.6553
284,32.2323
285,31.3382
286,27.4472
287,17.3623
288,17.3154
289,17.9935
290,32.2423
291,39.7005
292,39.6533
293,38.1322
294,38.0849
295,38.0374
296,34.7757
297,26.6386
298,26.5908
299,42.503
300,55.0395
301,54.9912
302,35.3245
303,24.736
304,24.6872
305,28.3906
306,30.1048
307,34.1573
308,34.1076
309,22.3541
310,14.4704
311,14.4199
312,18.9321
313,20.7785
314,22.5714
315,25.9334
316,28.6239
317,28.5713
318,26.8844
319,13.6377
320,13.5839
321,23.7748
322,43.3568
323,43.3016
324,42.6204
325,36.1765
326,29.587
327,25.5939
328,11.5511
329,-1.69923
330,-1.75821
331,18.0977
332,25.5263
333,25.4656
334,18.9345
335,15.9848
336,12.3162
337,12.2534
338,20.0542
339,34.0502
340,38.2265
341,38.1617
342,27.7426
343,14.4261
344,12.9759
345,12.9094
346,15.9042
347,18.0148
348,23.609
349,24.8199
350,24.7516
351,23.21
352,23.141
353,34.8006
354,34.731
355,22.5619
356,17.2098
357,17.1394
358,29.1658
359,30.7052
360,30.6341
361,21.7112
362,10.9046
363,10.5735
364,10.5016
365,20.7081
366,28.2898
367,30.1283
368,30.3735
369,30.3304
370,30.2276
371,27.8442
372,20.5759
373,9.93197
374,-1.48543
375,-1.55915
376,7.87076
377,30.2123
378,30.1384
379,19.2693
380,11.6871
381,11.6133
382,25.4709
383,36.1643
384,36.091
385,33.8553
386,24.3497
387,24.277
388,26.492
389,31.3421
390,32.6612
391,34.5261
392,34.4553
393,20.7341
394,11.2441
395,11.1749
396,17.3649
397,23.2377
398,27.107
399,28.1186
400,28.0526
401,25.362
402,25.2974
403,34.3236
404,41.9737
405,43.6209
406,41.8505
407,41.7748
408,36.9778
409,36.9194
410,40.5322
411,40.7637
412,48.7644
413,59.9327
414,59.8795
415,42.3339
416,29.6817
417,29.6319
418,44.3052
419,60.8323
420,72.6665
421,76.8678
422,76.8242
423,75.5945
424,67.2697
425,67.23
426,74.7035
427,90.9036
428,101.273
429,103.139
430,103.107
431,102.232
432,92.4583
433,91.3952
434,91.3684
435,96.1548
436,96.9862
437,105.173
438,108.27
439,108.251
440,101.5
441,101.413
442,98.618
443,98.6048
444,103.326
445,103.315
446,84.7523
447,83.9726
448,83.9671
449,83.963
450,81.1447
451,62.3432
452,52.7668
453,47.2621
454,43.7475
455,41.495
456,41.5014
457,43.9623
458,54.3771
459,54.388
460,48.8897
461,39.6801
462,38.4622
463,38.4788
464,40.091
465,40.1103
466,39.1324
467,38.1764
468,33.7174
469,24.0026
470,21.334
471,21.3614
472,31.408
473,31.4379
474,28.8901
475,27.7534
476,26.9668
477,26.0003
478,26.0364
479,27.7677
480,31.334
481,37.5495
482,37.5902
483,37.5913
484,24.1876
485,15.8644
486,15.9095
487,21.5569
488,21.604
489,21.1684
490,21.2175
491,24.4422
492,24.4932
493,18.7485
494,18.8014
495,31.5721
496,47.1287
497,47.1841
498,37.2599
499,37.3169
500,35.6287
501,31.6942
502,15.8162
503,4.33079
504,-0.309129
505,-0.404728
506,-0.342744
507,16.2827
508,31.7986
509,31.8624
510,26.182
511,20.2163
512,13.9916
513,12.7149
514,12.7815
515,16.7923
516,16.8599
517,1.04619
518,1.11473
519,6.33562
520,9.59847
521,10.0579
522,9.73858
523,8.61797
524,8.689
525,14.0773
526,25.6459
527,30.5991
528,34.0934
529,34.1661
530,22.3005
531,10.0847
532,10.1581
533,15.5575
534,15.6314
535,13.8389
536,13.9132
537,15.2115
538,15.2861
539,12.1403
540,5.14803
541,5.22293
542,19.1131
543,24.3719
544,24.4469
545,16.8185
546,10.7051
547,10.7801
548,11.5684
549,31.5154
550,41.5549
551,41.6296
552,24.0194
553,14.3447
554,14.4189
555,16.9317
556,34.1128
557,34.1864
558,21.7566
559,5.35531
560,5.42814
561,17.5195
562,17.5917
563,14.0714
564,14.1429
565,24.8769
566,33.5529
567,33.623
568,24.4077
569,19.8423
570,16.4989
571,11.9899
572,10.3648
573,10.4317
574,18.0823
575,18.1478
576,12.3147
577,-1.30322
578,-1.23974
579,1.33157
580,3.11395
581,3.17521
582,-0.363717
583,-0.303941
584,11.1719
585,16.9124
586,16.97
587,17.0269
588,17.1264
589,22.5152
590,25.7149
591,27.7633
592,32.039
593,37.089
594,37.141
595,20.5535
596,14.7138
597,14.7637
598,25.9551
599,26.0038
600,25.3974
601,25.4447
602,36.2167
603,39.1181
604,39.1635
605,27.3982
606,22.063
607,21.2451
608,19.0786
609,14.2597
610,14.3012
611,33.9416
612,55.7063
613,55.7459
614,55.5547
615,53.7298
616,48.3929
617,38.7342
618,18.9834
619,4.77557
620,4.81061
621,16.2371
622,16.2708
623,11.4169
624,8.2203
625,3.53305
626,3.56405
627,3.85444
628,9.29929
629,16.5376
630,24.3054
631,32.7039
632,43.6221
633,43.6482
634,40.4665
635,26.3906
636,23.3082
637,23.3314
638,26.6904
639,32.3651
640,32.386
641,29.0103
642,26.3961
643,26.4147
644,32.6819
645,37.7763
646,37.8342
647,38.1955
648,45.5961
649,45.6098
650,44.7761
651,31.1072
652,24.683
653,21.0609
654,21.0702
655,23.0655
656,23.073
657,17.6224
658,17.628
659,28.1554
660,41.0046
661,41.0073
662,30.5832
663,30.5839
664,33.405
665,42.4863
666,59.0815
667,60.5314
668,60.5268
669,42.4552
670,31.8411
671,26.7368
672,22.7018
673,14.6789
674,14.6672
675,25.1472
676,37.8195
677,37.8041
678,33.4984
679,33.4804
680,37.3007
681,37.2801
682,30.7831
683,27.9187
684,27.8939
685,27.8677
686,26.9306
687,23.3527
688,20.4077
689,20.1427
690,20.109
691,43.3756
692,43.3387
693,29.7048
694,-2.59478
695,-2.63659
696,4.64537
697,18.856
698,36.5808
699,36.5324
700,26.1194
701,17.8091
702,17.7562
703,20.9259
704,20.8701
705,13.8962
706,13.8374
707,18.9001
708,23.2729
709,24.9021
710,25.9771
711,25.9117
712,25.8451
713,33.1813
714,43.7809
715,43.7106
716,40.9587
717,34.829
718,29.7635
719,24.8355
720,23.5426
721,22.2854
722,20.3598
723,20.2808
724,20.3978
725,27.0375
726,26.9556
727,15.2621
728,15.1783
729,16.8073
730,28.1489
731,28.0815
732,27.9943
733,26.3772
734,24.231
735,21.3604
736,16.8121
737,14.3683
738,14.2764
739,16.1638
740,26.8209
741,38.9596
742,45.2219
743,45.1265
744,44.5941
745,31.0908
746,30.9935
747,32.0024
748,35.5105
749,35.4115
750,27.7761
751,27.676
752,41.0725
753,40.9713
754,39.2126
755,31.543
756,23.9412
757,23.8381
758,26.2696
759,37.7534
760,37.6489
761,31.1292
762,24.6142
763,17.5491
764,17.443
765,24.7386
766,24.6317
767,18.3944
768,8.69787
769,8.58989
770,20.4095
771,20.3008
772,18.6507
773,15.4862
774,14.8098
775,13.167
776,8.22045
777,7.34831
778,7.23741
779,10.9174
780,14.3997
781,20.3574
782,20.7937
783,20.6814
784,17.5004
785,14.6554
786,12.6203
787,12.507
788,12.3935
789,10.438
790,10.324
791,10.5814
792,15.7312
793,17.0145
794,17.5453
795,18.4449
796,21.4392
797,24.5511
798,28.5464
799,28.4306
800,25.5423
801,20.0092
802,16.5042
803,16.3876
804,18.3968
805,30.7009
806,41.546
807,41.4288
808,40.7389
809,28.5268
810,15.0701
811,6.3153
812,6.19718
813,6.48027
814,21.0821
815,27.0704
816,30.5284
817,30.4094
818,20.6934
819,16.5045
820,16.3851
821,29.8672
822,29.7473
823,29.1863
824,17.1252
825,-3.26732
826,-3.38792
827,3.45681
828,16.3492
829,16.2283
830,16.1074
831,22.5939
832,32.3512
833,32.2308
834,20.8411
835,20.7213
836,36.4441
837,36.3252
838,21.9434
839,9.94649
840,9.82935
841,16.5677
842,28.7064
843,28.5916
844,25.1627
845,25.0497
846,30.2226
847,43.62
848,43.5103
849,29.4603
850,15.4872
851,15.3811
852,16.8889
853,24.3237
854,35.7904
855,35.6902
856,30.2437
857,30.1466
858,30.2873
859,39.4699
860,55.3728
861,70.6273
862,78.4284
863,78.3424
864,70.8599
865,70.778
866,82.6338
867,100.653
868,108.388
869,127.024
870,153.502
871,191.325
872,226.803
873,248.923
874,272.178
875,302.232
876,332.703
877,386.688
878,443.043
879,500.436
880,557.946
881,574.63
882,574.59
883,572.251
884,572.217
885,572.185
886,568.74
887,532.237
888,507.111
889,489.057
890,456.927
891,408.502
892,350.832
893,293.92
894,242.534
895,207.75
896,174.696
897,146.541
898,124.366
899,116.376
900,109.136
901,104.654
902,95.4588
903,74.879
904,62.626
905,62.6401
906,64.9662
907,64.9836
908,58.5601
909,53.0109
910,52.6953
911,52.2792
912,45.9316
913,35.176
914,35.2025
915,35.2301
916,34.2932
917,31.5408
918,27.877
919,25.84
920,25.7858
921,25.0795
922,25.112
923,27.7718
924,31.154
925,31.1876
926,31.2213
927,36.4229
928,38.1364
929,38.1701
930,27.8443
931,27.8778
932,27.9109
933,27.6578
934,16.6736
935,16.7054
936,30.2248
937,44.3808
938,53.4066
939,53.4355
940,47.2049
941,35.5629
942,22.9738
943,22.9984
944,28.2718
945,28.4867
946,28.5074
947,5.98171
948,5.99924
949,40.0995
950,40.1136
951,36.4341
952,27.1199
953,27.1282
954,38.2631
955,38.2671
956,38.7021
957,43.4563
958,43.4532
959,31.8146
960,11.6934
961,11.6824
962,19.4669
963,19.4502
964,13.9209
965,13.8981
966,15.4981
967,21.8453
968,30.5235
969,30.4876
970,15.6912
971,15.6481
972,28.6261
973,50.9085
974,50.8541
975,40.1928
976,19.6003
977,-3.57687
978,-3.6477
979,-1.73505
980,-1.81451
981,-3.46179
982,-3.54989
983,4.62811
984,16.2448
985,25.8412
986,25.7366
987,3.31755
988,-0.507399
989,-0.623547
990,27.8732
991,27.7498
992,28.5929
993,31.793
994,37.9565
995,37.8198
996,10.1034
997,9.96059
998,17.3862
999,25.4463
1000,25.2951
1001,18.6095
1002,17.9583
1003,17.7995
1004,18.6336
1005,18.4702
1006,18.3046
1007,26.5693
1008,30.8073
1009,30.6358
1010,21.7666
1011,21.5916
1012,23.4189
1013,34.6678
1014,42.7576
1015,55.7383
1016,55.5562
1017,30.1576
1018,29.9732
1019,35.5265
1020,35.3403
1021,16.1649
1022,15.9771
1023,40.1679
1024,48.6928
1025,48.5033
1026,41.3467
1027,41.1566
1028,54.4118
1029,55.4617
1030,55.2712
1031,51.6709
1032,51.4806
1033,56.7763
1034,81.0509
1035,99.6285
1036,107.642
1037,107.453
1038,104.995
1039,104.808
1040,104.785
1041,105.06
1042,124.351
1043,146.029
1044,155.903
1045,155.722
1046,157.746
1047,161.639
1048,179.975
1049,179.798
1050,169.801
1051,166.591
1052,166.42
1053,170.743
1054,170.575
1055,169.698
1056,169.344
1057,169.181
1058,152.17
1059,131.219
1060,120.117
1061,118.034
1062,117.881
1063,119.639
1064,119.491
1065,87.9901
1066,73.8254
1067,73.6834
1068,95.498
1069,95.874
1070,96.4632
1071,96.3307
1072,87.7591
1073,69.4569
1074,69.3319
1075,80.4202
1076,94.694
1077,106.821
1078,109.385
1079,109.273
1080,90.5246
1081,90.418
1082,95.1444
1083,95.0433
1084,88.9149
1085,88.8193
1086,95.9331
1087,111.301
1088,143.72
1089,166.648
1090,166.566
1091,166.916
1092,181.064
1093,194.563
1094,194.494
1095,179.029
1096,170.915
1097,170.854
1098,179.934
1099,185.175
1100,185.123
1101,178.664
1102,175.176
1103,171.548
1104,158.845
1105,146.009
1106,141.164
1107,130.154
1108,130.126
1109,135.672
1110,135.649
1111,120.205
1112,94.5835
1113,85.5747
1114,83.1866
1115,75.2097
1116,68.5839
1117,66.4379
1118,61.7605
1119,59.669
1120,57.922
1121,52.3805
1122,52.3901
1123,67.4595
1124,78.2997
1125,78.7118
1126,78.7313
1127,78.7532
1128,71.3368
1129,71.3634
1130,74.6942
1131,74.7254
1132,52.1008
1133,52.1363
1134,53.6727
1135,53.7126
1136,50.3071
1137,35.4816
1138,25.6121
1139,18.5425
1140,18.5924
1141,18.9315
1142,18.9852
1143,19.0406
1144,35.0143
1145,35.0732
1146,28.7064
1147,23.5392
1148,23.6031
1149,36.1983
1150,36.2652
1151,26.7404
1152,13.9748
1153,8.11686
1154,8.18945
1155,8.973
1156,9.04817
1157,9.12456
1158,16.7024
1159,28.0022
1160,28.082
1161,11.084
1162,11.1658
1163,32.4569
1164,32.5407
1165,17.3965
1166,7.95264
1167,8.03884
1168,10.3227
1169,37.4176
1170,37.5059
1171,21.7336
1172,5.85491
1173,5.94485
1174,8.155
1175,8.24582
1176,8.337
1177,20.6251
1178,20.7169
1179,18.7664
1180,8.22645
1181,7.2629
1182,8.41118
1183,12.6187
1184,18.7811
1185,22.6856
1186,22.7779
1187,18.7597
1188,18.8517
1189,25.246
1190,35.2682
1191,35.3592
1192,20.0113
1193,18.6374
1194,18.7271
1195,32.6433
1196,50.91
1197,50.9979
1198,46.8528
1199,46.9392
1200,47.0249
1201,42.922
1202,20.5237
1203,20.6066
1204,34.031
1205,34.1119
1206,9.01047
1207,9.08905
1208,44.3146
1209,44.3906
1210,34.3658
1211,20.3571
1212,11.3068
1213,11.3772
1214,29.4783
1215,30.8082
1216,31.0829
1217,31.1467
1218,35.63
1219,39.2584
1220,39.3166
1221,38.3899
1222,36.5685
1223,33.471
1224,31.7468
1225,26.4233
1226,12.1156
1227,9.4016
1228,9.44246
1229,13.2123
1230,23.5565
1231,28.6627
1232,28.6934
1233,28.7215
1234,29.8544
1235,30.9977
1236,41.8146
1237,52.1743
1238,57.8026
1239,57.8133
1240,53.9784
1241,49.0191
1242,36.4423
1243,18.7773
1244,-6.97542
1245,-6.98451
1246,23.062
1247,45.4493
1248,45.4301
1249,25.9029
1250,25.8773
1251,40.5099
1252,44.0603
1253,47.3574
1254,68.7352
1255,71.8628
1256,71.8197
1257,52.5643
1258,52.516
1259,52.4652
1260,46.6545
1261,46.5988
1262,51.3431
1263,67.3326
1264,76.6397
1265,84.3093
1266,101.23
1267,101.162
1268,100.452
1269,79.021
1270,78.9467
1271,89.1163
1272,109.623
1273,131.89
1274,138.133
1275,138.051
1276,117.911
1277,89.3816
1278,89.2947
1279,99.4846
1280,99.3951
1281,100.436
1282,114.112
1283,114.019
1284,111.288
1285,81.9951
1286,75.4619
1287,73.3046
1288,65.5631
1289,55.4809
1290,53.6292
1291,53.5287
1292,61.9938
1293,61.8917
1294,50.907
1295,26.1353
1296,23.6895
1297,23.5849
1298,50.0805
1299,52.8994
1300,52.7933
1301,21.9134
1302,21.8064
1303,36.6652
1304,40.977
1305,41.8622
1306,41.754
1307,40.4474
1308,34.1366
1309,34.0278
1310,37.9612
1311,38.2892
1312,38.1801
1313,25.9286
1314,22.5076
1315,18.3266
1316,11.2465
1317,1.90375
1318,-0.580653
1319,-0.689527
1320,2.21666
1321,9.23302
1322,29.6689
1323,29.561
1324,20.4857
1325,4.76027
1326,4.65341
1327,22.3558
1328,27.9652
1329,27.8598
1330,23.5846
1331,23.4804
1332,26.5414
1333,31.5233
1334,31.4212
1335,25.6694
1336,18.764
1337,10.2863
1338,3.11967
1339,3.02183
1340,8.78687
1341,15.2307
1342,15.1359
1343,15.0421
1344,16.233
1345,16.1415
1346,5.99964
1347,2.02963
1348,0.089081
1349,1.85535
1350,4.66819
1351,9.8196
1352,9.73724
1353,9.65633
1354,20.1805
1355,20.1026
1356,16.519
1357,16.4443
1358,29.8116
1359,29.7402
1360,14.974
1361,14.906
1362,31.8819
1363,31.8175
1364,17.1317
1365,14.0457
1366,13.9869
1367,13.9301
1368,11.9434
1369,11.8906
1370,14.1007
1371,21.9139
1372,27.502
1373,32.0247
1374,38.9675
1375,47.6339
1376,53.5181
1377,53.4827
1378,31.8642
1379,31.8334
1380,31.7288
1381,31.7028
1382,26.7024
1383,26.6813
1384,39.1086
1385,39.0925
1386,34.9142
1387,23.8538
1388,14.9036
1389,3.36573
1390,3.36266
1391,27.3406
1392,32.4457
1393,32.4508
1394,31.7807
1395,31.7914
1396,39.8652
1397,39.8815
1398,36.5588
1399,36.5809
1400,42.1925
1401,42.2205
1402,39.5651
1403,39.599
1404,39.636
1405,22.9822
1406,23.0253
1407,33.262
1408,33.3112
1409,22.5892
1410,22.6447
1411,28.354
1412,36.6392
1413,60.6624
1414,72.5559
1415,72.6275
1416,54.8919
1417,54.9701
1418,64.7498
1419,69.9784
1420,70.0665
1421,53.7228
1422,53.8176
1423,60.6229
1424,71.4707
1425,74.9726
1426,75.2133
1427,82.1971
1428,96.5729
1429,96.6917
1430,90.2954
1431,88.8789
1432,89.0082
1433,89.1409
1434,86.0435
1435,86.1832
1436,113.073
1437,132.392
1438,132.542
1439,132.696
1440,129.582
1441,129.742
1442,129.907
1443,136.11
1444,162.251
1445,185.506
1446,186.946
1447,187.128
1448,187.313
1449,221.019
1450,283.414
1451,283.609
1452,270.156
1453,264.336
1454,264.541
1455,264.75
1456,254.792
1457,246.299
1458,236.009
1459,212.485
1460,212.71
1461,215.082
1462,215.313
1463,212.581
1464,204.576
1465,168.687
1466,123.981
1467,124.226
1468,143.082
1469,168.66
1470,168.912
1471,161.336
1472,126.693
1473,113.268
1474,113.53
1475,115.998
1476,124.803
1477,125.072
1478,100.417
1479,100.69
1480,120.922
1481,121.199
1482,120.18
1483,111.034
1484,105.845
1485,106.128
1486,111.422
1487,111.709
1488,96.1148
1489,96.4033
1490,100.969
1491,104.47
1492,116.518
1493,116.811
1494,64.1509
1495,56.9903
1496,57.2846
1497,77.6616
1498,77.9567
1499,71.2982
1500,43.323
1501,42.7887
1502,37.7611
1503,30.4767
1504,30.772
1505,57.3112
1506,57.6059
1507,57.4042
1508,43.925
1509,44.2179
1510,44.5101
1511,36.524
1512,26.664
1513,26.9532
1514,50.3774
1515,76.6377
1516,76.9231
1517,71.5784
1518,71.8608
1519,72.1414
1520,42.4418
1521,42.7188
1522,44.9174
1523,84.0103
1524,84.281
1525,48.0047
1526,31.6268
1527,31.8902
1528,37.4459
1529,38.539
1530,38.7941
1531,25.1093
1532,25.3584
1533,31.0636
1534,39.7991
1535,55.2345
1536,64.4297
1537,64.6619
1538,28.6734
1539,28.8979
1540,60.7528
1541,60.9693
1542,61.1816
1543,64.8125
1544,65.0161
1545,24.2359
1546,9.14003
1547,9.32963
1548,30.767
1549,49.5411
1550,49.7157
1551,33.8384
1552,34.0024
1553,40.6622
1554,40.8151
1555,20.7715
1556,20.9129
1557,24.4718
1558,41.5867
1559,41.7099
1560,41.8267
1561,42.3641
1562,42.468
1563,13.7444
1564,-10.3071
1565,-10.2236
1566,21.0274
1567,50.7676
1568,50.8305
1569,39.2029
1570,33.3434
1571,33.3864
1572,42.9503
1573,42.9805
1574,36.5762
1575,36.594
1576,62.1069
1577,74.1615
1578,74.1611
1579,52.4332
1580,44.2767
1581,36.2657
1582,25.3374
1583,25.3082
1584,41.5815
1585,54.0802
1586,60.7904
1587,71.985
1588,72.6462
1589,72.585
1590,70.3938
1591,53.7071
1592,29.7633
1593,29.6822
1594,49.1623
1595,49.0717
1596,47.1198
1597,47.0199
1598,50.2148
1599,74.3415
1600,74.2282
1601,69.6436
1602,60.0907
1603,59.9647
1604,102.531
1605,102.397
1606,72.4745
1607,46.233
1608,46.0869
1609,43.3494
1610,43.1957
1611,43.0383
1612,48.9258
1613,49.5052
1614,49.337
1615,13.457
1616,13.2819
1617,29.535
1618,29.3533
1619,25.9416
1620,24.699
1621,24.5077
1622,48.7366
1623,52.2567
1624,59.7185
1625,59.5152
1626,48.8959
1627,29.5092
1628,19.4612
1629,19.2467
1630,28.7981
1631,32.43
1632,32.2078
1633,31.9831
1634,48.1243
1635,49.4456
1636,49.2137
1637,35.5837
1638,35.3473
1639,42.1713
1640,53.8949
1641,58.301
1642,62.0136
1643,63.8851
1644,63.6362
1645,52.6444
1646,24.5361
1647,7.7147
1648,4.33633
1649,4.07829
1650,43.975
1651,84.8442
1652,84.5812
1653,63.5937
1654,24.046
1655,23.7785
1656,28.8646
1657,28.5942
1658,28.3225
1659,28.2401
1660,54.5436
1661,59.9445
1662,59.6677
1663,46.1453
1664,40.424
1665,45.5861
1666,55.6068
1667,80.5343
1668,80.2511
1669,76.1756
1670,58.3574
1671,58.0715
1672,65.3864
1673,71.0686
1674,71.6165
1675,71.3275
1676,56.9616
1677,34.4773
1678,31.2911
1679,30.9994
1680,60.3863
1681,86.4572
1682,86.1638
1683,39.9171
1684,39.6228
1685,39.328
1686,34.7686
1687,34.4729
1688,44.3982
1689,56.8638
1690,60.3377
1691,74.5757
1692,77.3747
1693,77.0771
1694,58.3324
1695,46.4176
1696,46.1194
1697,54.7182
1698,68.0723
1699,97.9274
1700,97.6285
1701,42.793
1702,6.64264
1703,6.34338
1704,19.4411
1705,43.5463
1706,71.6986
1707,71.3991
1708,67.5421
1709,41.976
1710,41.6766
1711,51.6332
1712,85.2084
1713,98.2321
1714,97.9328
1715,89.1514
1716,66.1114
1717,57.6282
1718,40.0821
1719,23.3688
1720,23.0699
1721,24.14
1722,33.7437
1723,40.0826
1724,51.0105
1725,50.7121
1726,48.0299
1727,47.7318
1728,54.2392
1729,60.5266
1730,64.2093
1731,63.9117
1732,100.677
1733,100.379
1734,62.5102
1735,56.4759
1736,52.0881
1737,37.8856
1738,37.5889
1739,47.7438
1740,47.4473
1741,34.3976
1742,23.8521
1743,23.5559
1744,48.1845
1745,58.6705
1746,58.3745
1747,58.0786
1748,59.0597
1749,59.2904
1750,58.9946
1751,44.6547
1752,44.3589
1753,49.5198
1754,55.9131
1755,55.6174
1756,55.3215
1757,50.6357
1758,50.3398
1759,24.4501
1760,24.154
1761,35.0592
1762,48.6301
1763,59.8773
1764,59.5807
1765,56.1061
1766,37.4017
1767,19.9255
1768,11.4033
1769,-1.34334
1770,-1.64122
1771,11.5508
1772,32.0862
1773,31.7876
1774,15.9937
1775,15.6946
1776,15.3953
1777,5.98232
1778,5.68264
1779,46.2398
1780,62.8632
1781,62.563
1782,56.2542
1783,54.2157
1784,53.9151
1785,62.8248
1786,62.524
1787,38.1046
1788,13.6833
1789,13.3821
1790,87.0741
1791,86.7727
1792,37.2878
1793,9.8232
1794,9.52155
1795,38.0716
1796,41.1848
1797,42.2381
1798,45.5293
1799,45.2538
1800,53.9583
1801,53.6561
1802,54.9145
1803,57.9115
1804,94.8646
1805,94.5621
1806,83.7286
1807,55.6428
1808,48.9241
1809,40.8644
1810,40.5615
1811,40.2584
1812,46.4086
1813,54.4678
1814,54.1644
1815,32.1743
1816,31.8706
1817,70.7594
1818,70.4554
1819,35.4899
1820,14.1851
1821,-1.17488
1822,-1.47964
1823,61.8157
1824,139.539
1825,139.234
1826,125.844
1827,80.1457
1828,33.4656
1829,33.1597
1830,51.7417
1831,51.4356
1832,50.2235
1833,2.29401
1834,1.98762
1835,16.6638
1836,34.3171
1837,34.0105
1838,24.1181
1839,19.1357
1840,18.829
1841,42.0175
1842,92.1498
1843,91.843
1844,89.7501
1845,53.7457
1846,53.4389
1847,62.6117
1848,74.1252
1849,73.8184
