#wnum,raman
275,326.339
276,326.391
277,312.925
278,297.52
279,284.249
280,269.291
281,253.974
282,238.964
283,222.448
284,203.452
285,183.482
286,166.801
287,152.641
288,137.879
289,122.172
290,106.504
291,88.7712
292,70.6533
293,51.3498
294,37.503
295,24.6907
296,16.476
297,10.0778
298,5.76632
299,4.41671
300,3.39982
301,1.33603
302,-0.638231
303,-0.595382
304,-0.208821
305,0.693856
306,0.743435
307,0.782861
308,0.139243
309,-0.921085
310,-0.884488
311,2.35358
312,3.13313
313,3.16676
314,-1.03956
315,-1.00794
316,-0.390121
317,2.07439
318,2.26744
319,2.31093
320,3.02605
321,4.56814
322,6.0232
323,7.19155
324,8.01047
325,8.03276
326,6.83213
327,5.3977
328,3.44221
329,2.15279
330,2.17106
331,3.53384
332,4.9638
333,6.52434
334,8.00108
335,11.1236
336,14.2761
337,17.5674
338,21.0328
339,21.8986
340,21.9101
341,21.921
342,22.8337
343,27.7033
344,27.7125
345,22.7212
346,16.4411
347,16.161
348,16.1682
349,17.2983
350,19.5482
351,19.554
352,19.4252
353,17.1052
354,14.3568
355,11.3343
356,11.3381
357,13.7863
358,17.0858
359,17.0886
360,15.5066
361,13.997
362,12.5642
363,12.5657
364,13.0253
365,14.9263
366,14.927
367,13.9119
368,13.0602
369,12.8585
370,12.6012
371,11.2293
372,10.1283
373,10.1276
374,13.5133
375,16.9223
376,24.1172
377,31.3214
378,34.8003
379,34.7987
380,34.7513
381,29.4035
382,24.0155
383,21.5724
384,19.8174
385,16.2632
386,10.0817
387,7.81057
388,7.80822
389,11.722
390,15.592
391,19.4521
392,19.4497
393,17.5326
394,13.4416
395,11.039
396,9.02894
397,7.05411
398,5.09584
399,5.09337
400,5.66587
401,8.01159
402,9.77234
403,11.2541
404,11.8849
405,11.8827
406,11.5881
407,8.93993
408,6.99574
409,6.99376
410,12.2664
411,17.0556
412,17.6527
413,17.6511
414,14.6426
415,9.66339
416,9.66205
417,9.89407
418,12.4706
419,12.4696
420,12.4347
421,10.102
422,6.15423
423,2.93849
424,2.53828
425,2.53803
426,3.78433
427,5.79185
428,6.92617
429,6.96605
430,7.23126
431,10.6588
432,11.9096
433,11.9106
434,7.27506
435,7.27631
436,10.2317
437,10.8455
438,10.8472
439,6.28064
440,5.44317
441,5.44543
442,6.96949
443,11.5711
444,16.2923
445,16.9494
446,17.0493
447,19.1795
448,24.252
449,24.2557
450,22.5851
451,16.6983
452,12.7738
453,9.65901
454,9.66364
455,13.5712
456,15.5734
457,15.5786
458,13.2168
459,12.0316
460,11.5459
461,11.0745
462,10.4812
463,9.85987
464,9.24307
465,8.66553
466,8.52085
467,8.52781
468,9.55139
469,14.6165
470,16.2754
471,16.2831
472,11.1818
473,9.15119
474,9.1593
475,9.16757
476,7.0004
477,4.60112
478,3.89727
479,3.90613
480,6.68029
481,13.9801
482,14.8223
483,14.8317
484,9.04929
485,9.05894
486,10.5795
487,10.5893
488,4.38753
489,0.123295
490,0.133512
491,2.0367
492,4.29018
493,6.73009
494,6.74069
495,5.84546
496,4.54272
497,4.55356
498,5.37839
499,8.11047
500,12.0338
501,14.8258
502,14.8527
503,14.8639
504,10.288
505,5.39533
506,5.40667
507,9.13328
508,12.8869
509,16.9105
510,20.9224
511,22.2924
512,23.1927
513,23.2041
514,22.4286
515,21.4322
516,19.6551
517,17.8186
518,17.8299
519,17.9336
520,18.2903
521,18.3014
522,17.9734
523,12.33
524,6.75817
525,4.44337
526,4.45412
527,4.61052
528,9.71813
529,13.7347
530,13.8748
531,13.8849
532,10.4061
533,6.2896
534,6.29924
535,7.27524
536,9.20843
537,11.4034
538,11.4123
539,9.10011
540,3.90598
541,1.01955
542,-0.157708
543,-0.150015
544,2.72613
545,2.97893
546,2.98581
547,-0.221493
548,-0.432213
549,-0.426201
550,1.65692
551,7.30236
552,7.9779
553,7.98276
554,2.62337
555,2.38846
556,2.39248
557,2.7432
558,2.74669
559,2.74991
560,4.02423
561,5.56231
562,6.73995
563,7.69069
564,7.69266
565,6.68182
566,5.45365
567,4.02168
568,2.64595
569,2.64675
570,3.30077
571,4.00715
572,4.7921
573,4.83436
574,4.83406
575,4.21941
576,3.78783
577,3.38652
578,2.92687
579,2.4442
580,2.44268
581,3.62513
582,3.62323
583,2.24005
584,1.72281
585,1.72035
586,8.96317
587,12.6168
588,12.6138
589,11.2602
590,10.3001
591,9.35304
592,9.1195
593,9.08633
594,9.03837
595,8.8132
596,8.6427
597,8.29296
598,7.92714
599,4.08408
600,0.622227
601,0.617112
602,10.1561
603,10.2214
604,10.2159
605,3.53478
606,3.52891
607,5.12024
608,6.59657
609,8.01587
610,10.1839
611,14.4584
612,16.5736
613,16.5667
614,14.1086
615,11.645
616,9.25963
617,6.7706
618,4.05164
619,4.04388
620,5.80414
621,9.73534
622,12.2925
623,13.881
624,13.8725
625,10.2816
626,10.2728
627,11.7065
628,14.9247
629,14.9155
630,14.7722
631,14.7626
632,15.1999
633,15.19
634,12.351
635,11.6772
636,11.6668
637,11.6563
638,10.9453
639,8.03749
640,8.02642
641,13.3688
642,13.3574
643,8.83307
644,2.40979
645,2.39778
646,3.48638
647,9.73086
648,18.5537
649,18.5408
650,14.3748
651,7.69367
652,3.71968
653,-0.205663
654,-0.56733
655,-0.58147
656,0.290216
657,1.72155
658,5.34542
659,14.4637
660,23.3201
661,23.3047
662,23.0813
663,22.808
664,22.4546
665,21.3365
666,19.2995
667,18.3444
668,18.328
669,18.3115
670,14.5326
671,12.0262
672,12.0094
673,18.2219
674,18.2049
675,15.0756
676,12.3217
677,12.3045
678,12.7925
679,12.7752
680,12.5591
681,12.5417
682,15.3453
683,15.3279
684,10.6003
685,10.5828
686,11.9211
687,11.9037
688,11.3172
689,2.25599
690,2.23856
691,6.82598
692,11.5854
693,14.1452
694,16.3059
695,16.2885
696,16.1691
697,16.1518
698,16.1346
699,14.2258
700,9.29615
701,9.27909
702,11.4261
703,12.6203
704,12.6034
705,9.25452
706,6.34081
707,3.60676
708,2.07564
709,1.94086
710,1.92439
711,3.99007
712,3.97376
713,2.75313
714,2.73698
715,3.56602
716,10.1385
717,10.1226
718,6.30644
719,6.29075
720,9.15618
721,9.98521
722,9.96983
723,5.71662
724,5.70144
725,6.15718
726,6.79131
727,7.24318
728,8.22822
729,10.6591
730,12.9484
731,12.934
732,12.8283
733,10.3462
734,7.20087
735,7.18694
736,8.07143
737,8.05773
738,7.59767
739,6.4906
740,5.7428
741,5.01327
742,1.49038
743,1.21784
744,1.20499
745,10.2691
746,16.3643
747,17.3747
748,17.3623
749,15.7912
750,13.5362
751,10.6268
752,9.16652
753,9.15474
754,13.058
755,13.0465
756,12.4556
757,10.6791
758,9.94388
759,9.68091
760,9.66991
761,9.65901
762,8.15346
763,5.23609
764,5.2255
765,7.30358
766,7.29318
767,7.17929
768,5.70066
769,2.36632
770,-0.445702
771,-0.455668
772,0.788477
773,2.27035
774,3.88507
775,5.56641
776,7.38115
777,8.72563
778,8.71638
779,8.56649
780,6.37782
781,4.08448
782,3.21325
783,3.20471
784,5.15807
785,9.92319
786,13.3634
787,13.4936
788,13.4859
789,12.613
790,12.6057
791,13.0301
792,14.4991
793,14.4924
794,12.9469
795,12.9406
796,14.2777
797,14.8301
798,14.8245
799,14.4604
800,14.4552
801,14.4504
802,13.0373
803,11.1593
804,11.1552
805,13.1142
806,13.6296
807,13.6263
808,12.2423
809,6.40467
810,5.03754
811,5.03523
812,9.94664
813,9.94489
814,9.53053
815,9.52933
816,10.9324
817,12.1021
818,12.8648
819,13.9648
820,16.951
821,16.9515
822,13.0499
823,8.47049
824,8.47191
825,15.0433
826,18.5513
827,18.7898
828,18.7924
829,15.3826
830,15.3858
831,18.5526
832,18.5564
833,17.3232
834,10.8422
835,10.8469
836,14.5159
837,16.4894
838,17.1532
839,17.7021
840,17.7083
841,17.506
842,15.4404
843,13.3536
844,5.99443
845,5.09293
846,5.10084
847,15.7828
848,16.9824
849,16.9912
850,15.4509
851,14.4089
852,14.4184
853,15.9183
854,17.0689
855,17.0793
856,17.0898
857,21.6753
858,26.0945
859,26.1058
860,19.2083
861,15.707
862,15.719
863,17.6571
864,24.4899
865,24.5026
866,23.5704
867,17.1141
868,15.3923
869,14.0976
870,14.1112
871,14.4113
872,15.8795
873,18.181
874,19.3174
875,19.3318
876,18.68
877,15.9023
878,14.4519
879,14.4669
880,14.4819
881,12.4156
882,8.35963
883,4.12689
884,0.793742
885,0.809198
886,7.34021
887,7.88801
888,7.90361
889,5.36706
890,4.77442
891,4.79009
892,5.9021
893,7.71299
894,9.05127
895,10.0609
896,10.0765
897,9.48781
898,7.15916
899,2.7456
900,2.76098
901,5.87529
902,5.89186
903,5.90697
904,5.92197
905,7.15432
906,12.3236
907,12.9533
908,12.9678
909,11.3592
910,8.84021
911,7.26626
912,7.28003
913,7.55772
914,11.2345
915,14.5784
916,15.9166
917,15.9293
918,12.6876
919,7.95779
920,3.49909
921,-0.923392
922,-0.912122
923,0.557289
924,0.56796
925,0.943071
926,2.67195
927,11.3067
928,12.6377
929,12.647
930,11.4491
931,11.4579
932,11.4664
933,10.7525
934,5.83897
935,5.04832
936,4.91463
937,4.92204
938,4.92924
939,5.27832
940,7.57967
941,9.52767
942,10.4284
943,10.4346
944,9.50512
945,8.07815
946,6.3913
947,4.64641
948,3.66721
949,3.3274
950,3.33252
951,4.33836
952,4.34321
953,3.75697
954,3.76156
955,4.39096
956,5.88563
957,9.25779
958,10.4634
959,10.4675
960,9.2406
961,7.91317
962,6.52351
963,4.99632
964,4.99989
965,6.34372
966,10.927
967,13.2676
968,13.2709
969,10.6851
970,2.70648
971,0.940115
972,0.94317
973,4.64863
974,12.2041
975,14.8945
976,14.8974
977,10.3671
978,9.63854
979,9.64131
980,11.2121
981,13.2576
982,13.2602
983,10.5974
984,8.9227
985,8.29792
986,8.30055
987,8.98564
988,9.77978
989,10.9377
990,10.9403
991,9.85198
992,9.85455
993,10.8397
994,13.8455
995,14.1645
996,14.1884
997,19.5354
998,26.8613
999,26.8638
1000,28.1356
1001,28.5274
1002,37.6462
1003,37.6487
1004,30.9293
1005,23.7146
1006,22.3373
1007,20.7686
1008,18.6815
1009,16.6328
1010,13.7298
1011,11.0284
1012,10.9991
1013,10.9221
1014,10.9246
1015,10.79
1016,9.99409
1017,8.87166
1018,5.38895
1019,-0.284556
1020,-0.28231
1021,1.99907
1022,5.50287
1023,7.84001
1024,8.93323
1025,8.93527
1026,8.93728
1027,15.1027
1028,21.4489
1029,26.9441
1030,26.946
1031,25.6142
1032,16.6687
1033,14.6001
1034,14.6019
1035,15.6996
1036,15.7013
1037,15.2905
1038,10.3949
1039,10.3966
1040,10.7013
1041,10.7028
1042,9.31553
1043,9.31706
1044,15.5079
1045,15.5093
1046,11.6908
1047,4.47286
1048,4.47422
1049,6.37046
1050,8.11631
1051,8.56786
1052,8.56906
1053,6.5986
1054,3.66396
1055,0.262893
1056,0.263896
1057,1.08503
1058,2.59648
1059,4.21603
1060,5.23238
1061,5.35235
1062,5.96638
1063,7.66239
1064,7.66291
1065,5.08225
1066,3.96508
1067,3.96539
1068,5.48882
1069,5.91738
1070,6.33226
1071,8.53949
1072,8.53938
1073,6.00871
1074,-0.345404
1075,-0.34579
1076,2.33521
1077,5.56794
1078,9.06265
1079,10.384
1080,10.3832
1081,10.0897
1082,10.0887
1083,11.3682
1084,18.1256
1085,23.4483
1086,24.693
1087,24.6917
1088,22.7042
1089,20.6872
1090,20.6857
1091,20.7681
1092,23.3608
1093,23.3592
1094,16.7865
1095,10.9998
1096,10.9981
1097,15.7602
1098,15.7584
1099,12.0377
1100,11.6431
1101,11.4978
1102,11.4958
1103,11.4938
1104,12.4946
1105,15.6495
1106,15.6487
1107,15.6465
1108,12.7888
1109,6.8001
1110,4.08039
1111,4.07807
1112,6.07033
1113,10.8671
1114,10.8647
1115,8.83037
1116,8.82782
1117,9.93199
1118,11.4347
1119,11.4319
1120,11.1984
1121,11.1956
1122,15.3462
1123,19.1593
1124,19.8614
1125,19.8583
1126,15.2273
1127,13.457
1128,12.5866
1129,8.89377
1130,4.08803
1131,4.08448
1132,7.34425
1133,7.34052
1134,4.1145
1135,4.11057
1136,11.3117
1137,11.3076
1138,9.52877
1139,4.73444
1140,-0.655486
1141,-0.660093
1142,14.7012
1143,20.7287
1144,20.7238
1145,15.3969
1146,5.90151
1147,5.12069
1148,5.11542
1149,6.64424
1150,6.63886
1151,4.73581
1152,4.73036
1153,8.30725
1154,9.95461
1155,11.4569
1156,18.0883
1157,23.0388
1158,23.0333
1159,19.36
1160,19.3545
1161,19.3491
1162,19.3431
1163,13.9324
1164,13.9271
1165,16.0821
1166,18.0524
1167,19.5405
1168,23.4139
1169,29.3986
1170,29.3937
1171,25.2921
1172,24.8954
1173,24.8908
1174,26.2447
1175,26.2404
1176,24.7278
1177,17.9677
1178,13.2462
1179,12.7554
1180,10.6908
1181,4.05588
1182,4.05237
1183,5.57227
1184,5.56904
1185,2.48067
1186,2.47771
1187,6.66412
1188,11.8936
1189,11.891
1190,9.13851
1191,6.3335
1192,6.33142
1193,11.2977
1194,13.4041
1195,13.4024
1196,7.33256
1197,4.62704
1198,4.62591
1199,6.12113
1200,9.09881
1201,9.09817
1202,9.0977
1203,13.32
1204,22.8262
1205,25.4324
1206,25.8567
1207,25.9692
1208,25.9697
1209,25.8939
1210,25.5824
1211,21.7134
1212,15.9856
1213,13.4928
1214,13.0023
1215,12.1678
1216,11.0395
1217,10.4622
1218,10.4644
1219,11.9424
1220,14.816
1221,14.8187
1222,12.2398
1223,12.2427
1224,16.1277
1225,16.131
1226,14.9863
1227,11.8514
1228,7.53509
1229,7.53888
1230,10.9022
1231,13.5095
1232,13.7402
1233,14.2642
1234,14.435
1235,14.4395
1236,10.6804
1237,8.85036
1238,8.34085
1239,8.06188
1240,4.40433
1241,1.59458
1242,1.59971
1243,1.839
1244,7.70221
1245,7.70754
1246,7.16324
1247,7.01815
1248,7.02363
1249,7.02916
1250,3.2356
1251,3.24119
1252,6.57967
1253,11.5574
1254,12.6702
1255,12.6759
1256,6.42715
1257,6.43283
1258,7.56622
1259,7.57189
1260,4.35538
1261,-0.130003
1262,-0.124409
1263,1.49645
1264,5.45104
1265,7.92096
1266,7.92639
1267,7.93178
1268,13.7362
1269,14.8592
1270,14.8644
1271,14.4467
1272,14.4518
1273,14.4568
1274,12.1487
1275,12.1536
1276,13.0205
1277,13.0252
1278,11.9796
1279,7.26276
1280,2.42747
1281,1.2179
1282,1.22206
1283,4.32155
1284,8.31818
1285,8.92
1286,8.92363
1287,8.92712
1288,14.4701
1289,14.4733
1290,11.5543
1291,7.51237
1292,7.51506
1293,7.51756
1294,4.86286
1295,2.76068
1296,2.76261
1297,4.40749
1298,4.409
1299,3.23542
1300,1.54124
1301,1.54207
1302,3.90727
1303,7.31439
1304,9.87163
1305,9.87147
1306,9.05667
1307,7.12312
1308,7.12214
1309,7.50197
1310,7.50041
1311,7.42561
1312,4.06257
1313,1.69065
1314,1.638
1315,1.63486
1316,-0.842534
1317,-0.846358
1318,8.90204
1319,9.54365
1320,9.53882
1321,5.98291
1322,5.97745
1323,8.70805
1324,17.2152
1325,17.2088
1326,11.4656
1327,3.49478
1328,1.10761
1329,1.10025
1330,7.65578
1331,13.4193
1332,16.759
1333,16.7508
1334,16.4083
1335,13.4605
1336,8.77185
1337,5.19031
1338,3.75854
1339,2.06212
1340,2.05257
1341,2.23551
1342,11.1754
1343,13.9918
1344,13.9817
1345,9.12122
1346,0.402368
1347,0.391891
1348,9.41313
1349,9.40246
1350,4.98145
1351,2.04173
1352,2.0308
1353,4.78904
1354,8.22739
1355,8.21626
1356,1.0057
1357,0.909892
1358,0.898629
1359,8.44784
1360,17.9258
1361,17.9144
1362,10.7975
1363,10.7861
1364,10.2026
1365,10.0515
1366,7.56031
1367,7.54896
1368,7.68786
1369,7.67656
1370,5.999
1371,5.98776
1372,8.15413
1373,11.0108
1374,10.9997
1375,10.185
1376,10.174
1377,11.8387
1378,18.0816
1379,21.81
1380,21.7993
1381,16.5256
1382,9.60865
1383,9.59819
1384,10.5298
1385,14.9504
1386,14.9402
1387,6.96285
1388,6.95287
1389,8.43009
1390,14.4079
1391,15.8884
1392,15.8788
1393,13.3034
1394,10.4049
1395,7.60518
1396,4.89896
1397,2.31466
1398,-0.139413
1399,-0.148084
1400,2.95888
1401,16.4704
1402,20.9934
1403,20.9853
1404,18.0847
1405,16.1245
1406,16.1169
1407,21.6895
1408,24.208
1409,24.2008
1410,21.7442
1411,17.7013
1412,17.6947
1413,17.6883
1414,16.4798
1415,12.3551
1416,5.4084
1417,5.40271
1418,14.0825
1419,18.8593
1420,18.8542
1421,13.2817
1422,13.277
1423,16.2323
1424,16.228
1425,16.2239
1426,21.1741
1427,21.1704
1428,9.78562
1429,3.82597
1430,3.82288
1431,7.44349
1432,13.9463
1433,13.9438
1434,12.7365
1435,8.54014
1436,4.76101
1437,4.75934
1438,10.5412
1439,14.822
1440,14.8209
1441,13.8243
1442,7.49019
1443,7.48971
1444,11.7695
1445,11.7694
1446,11.7695
1447,11.7709
1448,11.7714
1449,11.5858
1450,11.5867
1451,14.1193
1452,20.5629
1453,23.639
1454,26.6554
1455,29.2368
1456,29.2386
1457,20.5907
1458,16.5775
1459,15.1669
1460,15.0362
1461,9.03493
1462,9.03776
1463,11.9209
1464,11.9241
1465,11.2824
1466,11.2857
1467,12.6429
1468,16.2878
1469,21.0059
1470,24.2507
1471,26.8513
1472,28.5732
1473,28.5774
1474,16.5917
1475,11.7948
1476,11.7991
1477,11.8035
1478,5.65199
1479,5.6565
1480,14.3256
1481,26.372
1482,26.3766
1483,22.5253
1484,12.5624
1485,11.4966
1486,11.2807
1487,11.2854
1488,7.79997
1489,5.40279
1490,5.40733
1491,8.83394
1492,16.7534
1493,21.7516
1494,21.7559
1495,19.8026
1496,13.534
1497,13.538
1498,16.2976
1499,27.7311
1500,27.7348
1501,24.728
1502,19.5463
1503,19.2253
1504,19.2283
1505,12.792
1506,9.16095
1507,9.14421
1508,8.48468
1509,8.48667
1510,11.4556
1511,16.0511
1512,16.0524
1513,9.20383
1514,7.2512
1515,7.25154
1516,14.6508
1517,14.6505
1518,9.48071
1519,7.69108
1520,7.68971
1521,9.5621
1522,9.55995
1523,6.5497
1524,6.54673
1525,7.55303
1526,8.85949
1527,11.1983
1528,11.1935
1529,9.3866
1530,-0.82807
1531,-0.834377
1532,2.49606
1533,2.48871
1534,0.624579
1535,0.616197
1536,2.11757
1537,7.83041
1538,12.9797
1539,14.9675
1540,14.9566
1541,12.5552
1542,7.79923
1543,0.293489
1544,-0.186529
1545,-0.199927
1546,1.36032
1547,2.27493
1548,3.48634
1549,4.83043
1550,9.81427
1551,9.79803
1552,7.51687
1553,0.833253
1554,0.815661
1555,0.797632
1556,-0.43928
1557,-0.458171
1558,3.04984
1559,4.49784
1560,5.59668
1561,5.89285
1562,10.2093
1563,10.1881
1564,10.0752
1565,6.12451
1566,5.15587
1567,5.13343
1568,9.05727
1569,9.03429
1570,9.01106
1571,12.1238
1572,14.0169
1573,13.993
1574,11.3747
1575,7.3508
1576,3.22137
1577,1.95397
1578,1.9292
1579,10.4679
1580,10.4429
1581,10.3782
1582,10.353
1583,11.1337
1584,11.1083
1585,11.0829
1586,13.9652
1587,20.589
1588,25.2451
1589,25.2196
1590,22.8394
1591,15.4266
1592,7.87321
1593,7.84771
1594,15.1557
1595,15.1303
1596,8.63168
1597,8.60641
1598,14.7485
1599,14.7234
1600,14.2502
1601,14.2253
1602,16.4961
1603,22.5983
1604,22.5738
1605,22.1439
1606,18.4334
1607,13.1959
1608,12.3816
1609,12.358
1610,14.1751
1611,14.1518
1612,9.91348
1613,4.21266
1614,4.19007
1615,5.12118
1616,5.27232
1617,6.97805
1618,9.58611
1619,9.56477
1620,0.3807
1621,0.359903
1622,4.93507
1623,6.18275
1624,6.30096
1625,9.31296
1626,9.29366
1627,8.84026
1628,8.8216
1629,12.0176
1630,11.9996
1631,7.12189
1632,5.21895
1633,5.20204
1634,6.14165
1635,7.23721
1636,15.0676
1637,18.0805
1638,18.0655
1639,18.0509
1640,26.6773
1641,28.1732
1642,28.1598
1643,28.1468
1644,31.7748
1645,34.3916
1646,34.3799
1647,32.1915
1648,27.5899
1649,27.5795
1650,29.4065
1651,34.019
1652,34.01
1653,21.1445
1654,21.1364
1655,26.2698
1656,26.2626
1657,25.434
1658,24.784
1659,24.1814
1660,12.5102
1661,12.5053
1662,19.1249
1663,32.9901
1664,32.9865
1665,27.696
1666,27.6933
1667,28.2659
1668,28.2641
1669,25.9999
1670,17.558
1671,17.5575
1672,25.3938
1673,25.3943
1674,23.524
1675,20.0709
1676,16.3833
1677,12.1179
1678,11.5223
1679,11.5253
1680,12.9899
1681,14.3823
1682,16.4155
1683,18.6871
1684,22.416
1685,22.4213
1686,20.2308
1687,16.1204
1688,15.3802
1689,11.0293
1690,3.42755
1691,3.4351
1692,11.0379
1693,11.0462
1694,9.30334
1695,9.31223
1696,10.9478
1697,11.0785
1698,11.2203
1699,12.752
1700,14.3599
1701,15.9706
1702,15.9815
1703,15.1834
1704,13.168
1705,11.6916
1706,11.7036
1707,13.7839
1708,21.4376
1709,21.4503
1710,6.23817
1711,6.25128
1712,15.6463
1713,19.5862
1714,19.5998
1715,16.2579
1716,10.9313
1717,3.72253
1718,-0.743071
1719,-0.728648
1720,4.66106
1721,15.723
1722,22.8397
1723,22.8547
1724,18.3768
1725,14.049
1726,14.0645
1727,14.0801
1728,9.66998
1729,3.54935
1730,3.56544
1731,6.70456
1732,16.6833
1733,20.0156
1734,20.0324
1735,15.798
1736,15.8152
1737,16.291
1738,19.6057
1739,19.6235
1740,18.9586
1741,18.7039
1742,18.7223
1743,18.7409
1744,15.293
1745,15.3121
1746,16.1016
1747,19.8516
1748,19.8712
1749,14.9252
1750,4.56637
1751,4.58671
1752,7.89024
1753,12.9295
1754,17.8115
1755,18.9578
1756,19.1262
1757,19.6603
1758,22.9803
1759,27.6848
1760,27.7071
1761,17.7609
1762,17.2547
1763,17.2777
1764,29.5786
1765,29.6019
1766,13.7737
1767,12.1625
1768,6.82193
1769,6.69607
1770,5.79956
1771,5.82409
1772,17.0514
1773,22.1626
1774,22.1877
1775,14.2306
1776,12.5801
1777,12.6057
1778,13.2841
1779,13.5811
1780,15.4953
1781,15.5215
1782,11.1022
1783,11.1287
1784,15.604
1785,18.2371
1786,18.2641
1787,15.8398
1788,15.867
1789,16.6289
1790,16.6563
1791,12.3227
1792,12.3503
1793,18.4351
1794,18.4628
1795,14.7954
1796,14.8233
1797,21.9725
1798,22.0005
1799,20.1835
1800,15.4487
1801,14.6922
1802,14.7204
1803,19.4464
1804,19.6607
1805,19.6889
1806,13.4998
1807,11.912
1808,11.9402
1809,14.7171
1810,17.5365
1811,20.3822
1812,24.936
1813,25.684
1814,25.7118
1815,19.3113
1816,4.32701
1817,-0.898742
1818,-0.871368
1819,4.83607
1820,5.25529
1821,5.28231
1822,5.30923
1823,22.4121
1824,35.5228
1825,35.5495
1826,26.2818
1827,15.0038
1828,15.0302
1829,27.0582
1830,36.1511
1831,36.1774
1832,26.7052
1833,19.7808
1834,19.807
1835,22.6782
1836,27.8131
1837,27.8392
1838,23.9498
1839,15.983
1840,16.009
1841,19.5543
1842,27.5924
1843,27.6184
1844,25.9468
1845,23.4303
1846,23.4563
1847,28.516
1848,31.8411
1849,31.8671
