#wnum,raman
275,18.1714
276,20.7198
277,20.5885
278,23.2143
279,28.4302
280,34.8769
281,41.5765
282,48.3493
283,54.146
284,54.0146
285,51.2492
286,47.7806
287,43.2602
288,41.1072
289,40.9758
290,43.4449
291,46.9515
292,46.8199
293,35.9084
294,26.2984
295,24.3723
296,24.2405
297,32.7745
298,39.7847
299,41.8901
300,41.7579
301,32.9067
302,13.4214
303,0.0156563
304,-1.9199
305,-2.05279
306,16.5835
307,31.0318
308,30.8986
309,17.3454
310,17.2121
311,18.228
312,23.443
313,24.1079
314,23.9747
315,23.2107
316,16.2998
317,8.00026
318,7.86767
319,12.5368
320,12.885
321,12.7531
322,11.4085
323,11.2772
324,24.4792
325,24.8146
326,24.6845
327,24.5548
328,37.8557
329,38.7588
330,38.6305
331,19.9797
332,19.8526
333,20.3781
334,20.2521
335,18.1894
336,7.7322
337,7.60818
338,17.6323
339,29.6634
340,34.3819
341,34.2608
342,29.4151
343,20.045
344,19.9263
345,20.8219
346,35.0633
347,34.9473
348,32.5453
349,20.6532
350,12.6508
351,12.5385
352,23.6508
353,30.6046
354,30.4953
355,21.7232
356,15.9399
357,15.8338
358,16.6213
359,20.606
360,21.2979
361,21.1964
362,11.2458
363,11.1467
364,19.9795
365,29.9501
366,29.8546
367,24.1371
368,24.0442
369,28.9718
370,28.8815
371,21.2287
372,4.08845
373,4.00216
374,4.81097
375,12.2567
376,18.446
377,28.904
378,28.8247
379,12.3035
380,1.6061
381,1.53118
382,10.8645
383,15.3685
384,16.1929
385,16.124
386,10.8378
387,6.6589
388,6.59467
389,10.5755
390,15.3944
391,20.2522
392,20.1943
393,16.8093
394,14.6229
395,14.57
396,20.1578
397,26.4384
398,26.3905
399,24.9941
400,17.4577
401,17.415
402,22.2733
403,22.2341
404,20.5129
405,13.6787
406,13.6448
407,17.8239
408,30.2263
409,30.1978
410,28.7976
411,28.7727
412,39.938
413,64.3214
414,76.333
415,76.3155
416,66.3426
417,52.5234
418,40.9186
419,37.4508
420,37.4426
421,46.4774
422,60.1104
423,64.2365
424,65.0258
425,73.3255
426,79.9193
427,82.9334
428,85.2245
429,91.63
430,91.6408
431,85.7124
432,85.7269
433,86.8186
434,99.9855
435,100.006
436,83.3424
437,81.4566
438,81.4823
439,93.415
440,93.4444
441,90.1475
442,75.6065
443,61.695
444,48.9071
445,48.9453
446,57.719
447,65.1283
448,65.1717
449,55.3004
450,50.8166
451,49.7119
452,49.1458
453,38.8095
454,37.1034
455,37.1583
456,54.8179
457,63.7544
458,63.8138
459,56.8687
460,34.4821
461,30.7864
462,30.8516
463,45.9562
464,46.0241
465,32.9678
466,32.9656
467,33.0375
468,34.3123
469,34.3867
470,28.4672
471,28.544
472,31.6497
473,40.5571
474,40.6373
475,33.8016
476,33.8839
477,36.0216
478,36.1058
479,27.1561
480,27.2422
481,42.3609
482,42.4487
483,38.0467
484,25.7845
485,25.8747
486,33.6925
487,33.7842
488,30.3787
489,30.4717
490,33.0148
491,41.2623
492,44.4896
493,47.0662
494,47.1618
495,45.7181
496,42.147
497,33.3506
498,25.3566
499,25.454
500,30.6826
501,33.0237
502,36.7981
503,41.6509
504,41.7491
505,37.7004
506,37.7987
507,40.7597
508,40.8579
509,30.6454
510,22.8142
511,12.8439
512,-0.241163
513,-0.143931
514,13.1889
515,22.9028
516,22.999
517,18.2249
518,15.0097
519,15.0625
520,15.1567
521,29.502
522,36.3279
523,36.4203
524,27.7135
525,27.7382
526,27.0178
527,23.9051
528,23.9935
529,23.5682
530,21.1381
531,13.8073
532,13.8919
533,20.548
534,20.6304
535,9.18169
536,9.26166
537,9.46702
538,25.9127
539,38.4734
540,45.0792
541,45.1525
542,33.9631
543,20.4703
544,16.3383
545,13.4899
546,3.91913
547,-3.0433
548,-2.98117
549,19.6099
550,41.6163
551,41.6732
552,31.6307
553,23.731
554,19.7859
555,18.7476
556,15.2363
557,15.2833
558,26.2435
559,31.705
560,31.7471
561,12.8332
562,12.8721
563,13.6589
564,16.7214
565,17.9073
566,23.8866
567,23.9178
568,19.7277
569,19.7559
570,20.1922
571,24.3259
572,24.3497
573,22.6052
574,18.1679
575,15.0093
576,14.1773
577,10.7263
578,10.7415
579,18.8809
580,29.6267
581,31.665
582,34.1923
583,39.2717
584,39.2786
585,36.5437
586,23.4621
587,16.121
588,12.6926
589,12.6927
590,13.0875
591,18.6226
592,18.6187
593,15.9228
594,15.9163
595,18.5502
596,23.5599
597,27.8499
598,29.9108
599,30.688
600,31.1151
601,33.0376
602,36.8407
603,36.8226
604,33.9598
605,25.092
606,12.2373
607,-0.979519
608,-1.00393
609,15.3897
610,23.9268
611,23.8987
612,15.0025
613,9.69083
614,9.65921
615,10.0616
616,19.4008
617,19.3658
618,14.8868
619,14.8497
620,28.2069
621,46.1799
622,46.1398
623,28.8658
624,14.1734
625,5.78499
626,5.7411
627,24.0162
628,50.3689
629,50.3223
630,47.6133
631,43.3994
632,37.1787
633,30.8928
634,23.2303
635,15.8076
636,14.3603
637,13.4356
638,12.9156
639,11.1126
640,11.0575
641,12.9881
642,16.267
643,17.7421
644,19.2819
645,21.3395
646,23.418
647,25.0057
648,27.2777
649,27.2169
650,26.9226
651,23.7243
652,8.10441
653,3.37927
654,3.31575
655,22.7097
656,31.5439
657,31.4789
658,31.4134
659,37.1317
660,37.0653
661,32.4188
662,19.1794
663,19.1117
664,20.6237
665,26.6162
666,36.8463
667,46.5578
668,53.4092
669,54.5704
670,54.4998
671,44.7558
672,35.6897
673,25.1166
674,23.9169
675,23.8445
676,30.0528
677,34.407
678,34.3335
679,29.7799
680,16.7351
681,16.6607
682,35.7575
683,35.6824
684,32.2935
685,29.7333
686,29.6572
687,47.201
688,47.1244
689,32.8182
690,25.839
691,25.7614
692,27.6112
693,36.7896
694,41.2877
695,41.2088
696,33.5477
697,27.4109
698,23.0979
699,23.0176
700,29.4481
701,29.3673
702,25.1183
703,25.0367
704,29.7638
705,45.2922
706,45.2096
707,29.8444
708,23.8386
709,23.7549
710,23.6707
711,11.5386
712,11.4537
713,14.7656
714,34.8004
715,38.1458
716,38.0592
717,28.6405
718,6.47213
719,6.38419
720,15.0884
721,43.1312
722,50.353
723,50.2631
724,42.7729
725,21.9222
726,7.16699
727,5.57673
728,5.4843
729,8.42316
730,11.5024
731,11.4083
732,8.50908
733,1.90495
734,-1.34486
735,-1.44138
736,22.1764
737,24.863
738,24.7646
739,18.0671
740,17.9676
741,26.0158
742,25.9153
743,17.3972
744,17.2957
745,17.7638
746,23.2547
747,37.5364
748,37.4331
749,35.2389
750,19.5779
751,19.4733
752,25.2521
753,25.1468
754,13.4167
755,13.3107
756,23.5795
757,23.4728
758,11.482
759,-1.37089
760,-1.47848
761,18.6744
762,18.5664
763,9.49614
764,9.38772
765,9.37713
766,16.6455
767,25.6543
768,27.0108
769,26.9023
770,24.5837
771,15.2751
772,2.10456
773,1.99655
774,13.7734
775,13.6659
776,10.5777
777,10.4708
778,17.2273
779,28.0155
780,27.9099
781,10.5337
782,10.4291
783,26.0225
784,25.9192
785,9.68398
786,9.58192
787,12.4837
788,20.4536
789,20.3538
790,9.67286
791,6.5289
792,6.43163
793,14.4722
794,26.6385
795,30.8532
796,30.7599
797,27.9957
798,23.2145
799,23.1243
800,31.9555
801,35.5696
802,35.4831
803,13.2152
804,7.72589
805,7.64321
806,16.5138
807,28.0253
808,37.6099
809,47.0651
810,56.9817
811,63.4179
812,71.4089
813,71.3379
814,58.9562
815,49.288
816,48.0594
817,46.4336
818,45.8277
819,45.7667
820,57.0049
821,59.5787
822,59.523
823,48.3179
824,38.9682
825,32.711
826,25.4872
827,17.8503
828,17.8058
829,29.6669
830,31.5461
831,31.5075
832,23.3929
833,23.3584
834,54.509
835,54.4786
836,23.007
837,16.0181
838,15.9941
839,26.342
840,29.2065
841,30.6877
842,39.153
843,39.1399
844,31.9566
845,16.214
846,4.28429
847,-0.119668
848,-0.121418
849,29.0191
850,35.1934
851,35.1987
852,28.9674
853,28.9774
854,35.9675
855,35.9823
856,32.9907
857,30.8147
858,30.8369
859,40.1182
860,53.4978
861,54.3259
862,54.3582
863,54.393
864,55.7808
865,65.0286
866,72.9065
867,83.3445
868,105.338
869,126.446
870,141.306
871,165.537
872,203.5
873,248.915
874,288.345
875,311.949
876,337.714
877,383.012
878,429.614
879,478.354
880,525.378
881,559.872
882,587.229
883,587.315
884,586.494
885,566.959
886,548.838
887,529.835
888,492.096
889,444.885
890,409.069
891,387.086
892,363.66
893,326.843
894,290.085
895,258.692
896,223.747
897,186.036
898,157.626
899,141.223
900,120.03
901,90.2373
902,82.5621
903,82.6844
904,82.8074
905,72.5595
906,65.7551
907,54.0629
908,38.0905
909,38.2158
910,48.2215
911,49.8133
912,49.9386
913,45.1604
914,45.2852
915,47.0012
916,48.3583
917,47.248
918,43.4007
919,27.6889
920,14.3259
921,14.2888
922,14.4067
923,30.7891
924,30.9042
925,4.87209
926,-4.12831
927,-4.0184
928,2.52963
929,2.63567
930,-1.24879
931,-1.14676
932,9.35828
933,21.5208
934,31.0858
935,35.3379
936,35.4296
937,26.3597
938,17.9599
939,17.8717
940,17.9548
941,21.032
942,31.4908
943,31.5675
944,28.1181
945,25.5609
946,25.2667
947,25.3345
948,16.5606
949,9.80481
950,9.86575
951,21.3171
952,27.1434
953,27.7227
954,27.7743
955,22.5091
956,15.6921
957,7.8385
958,7.88048
959,15.3529
960,19.0847
961,19.1193
962,6.22562
963,6.25519
964,9.74446
965,12.4073
966,15.1425
967,16.1011
968,16.1178
969,12.7495
970,-2.04685
971,-2.03811
972,10.2102
973,13.0678
974,13.0686
975,4.34321
976,4.33882
977,7.62674
978,12.001
979,15.9996
980,19.0548
981,19.0378
982,18.11
983,13.1969
984,8.30396
985,-2.29727
986,-2.32636
987,1.85705
988,3.13606
989,3.10017
990,3.06214
991,7.40473
992,27.8408
993,33.7521
994,34.0883
995,36.2279
996,36.1785
997,28.6171
998,12.1023
999,7.94355
1000,7.88776
1001,15.0667
1002,28.474
1003,28.4141
1004,18.5963
1005,18.534
1006,24.1456
1007,27.9743
1008,27.9089
1009,25.1328
1010,17.6774
1011,7.27395
1012,7.20525
1013,18.1536
1014,18.0836
1015,14.6135
1016,14.5424
1017,22.1485
1018,29.0839
1019,37.0576
1020,49.4471
1021,54.3026
1022,54.2299
1023,54.1572
1024,57.2518
1025,68.2872
1026,68.2145
1027,58.4509
1028,57.2935
1029,57.2215
1030,75.6616
1031,75.5903
1032,65.451
1033,54.4083
1034,54.3384
1035,63.059
1036,91.1617
1037,95.5384
1038,95.4712
1039,92.9327
1040,92.607
1041,92.8024
1042,111.089
1043,138.321
1044,151.554
1045,151.494
1046,147.661
1047,147.602
1048,149.047
1049,165.26
1050,174.029
1051,173.976
1052,159.049
1053,148.203
1054,148.153
1055,155.472
1056,155.534
1057,159.6
1058,159.556
1059,124.973
1060,124.932
1061,131.945
1062,131.907
1063,131.262
1064,104.263
1065,86.9718
1066,77.4434
1067,68.2749
1068,68.2464
1069,76.7607
1070,97.2886
1071,97.2649
1072,86.4496
1073,85.9795
1074,85.9608
1075,91.7141
1076,91.6986
1077,89.4111
1078,89.3989
1079,99.7388
1080,117.965
1081,120.955
1082,120.95
1083,107.744
1084,107.741
1085,112.246
1086,120.375
1087,120.377
1088,107.756
1089,107.762
1090,135.173
1091,181.529
1092,181.539
1093,177.485
1094,177.499
1095,177.514
1096,171.508
1097,152.804
1098,152.823
1099,166.375
1100,166.397
1101,166.301
1102,160.886
1103,154.763
1104,144.37
1105,119.149
1106,90.3237
1107,90.3543
1108,108.807
1109,108.84
1110,86.1568
1111,63.6828
1112,63.7184
1113,75.29
1114,75.3273
1115,72.7144
1116,60.213
1117,60.2524
1118,64.9229
1119,64.9635
1120,63.693
1121,63.7347
1122,72.69
1123,77.2915
1124,80.158
1125,80.2011
1126,76.5596
1127,55.3102
1128,28.0766
1129,28.1203
1130,44.9668
1131,60.7021
1132,60.7456
1133,53.4763
1134,51.3699
1135,47.8697
1136,47.446
1137,38.6111
1138,24.2651
1139,18.4331
1140,16.1191
1141,15.0081
1142,12.5932
1143,12.6315
1144,14.5056
1145,14.5422
1146,10.3123
1147,10.347
1148,21.7609
1149,38.228
1150,38.2592
1151,32.0416
1152,32.0702
1153,31.973
1154,31.8843
1155,28.025
1156,17.5267
1157,3.17935
1158,-0.918583
1159,-1.45858
1160,-2.29853
1161,-2.28468
1162,1.99328
1163,13.0227
1164,27.1048
1165,42.8689
1166,42.8733
1167,15.0903
1168,-1.12556
1169,-1.12671
1170,2.95948
1171,13.674
1172,22.4335
1173,24.2716
1174,24.2614
1175,22.4586
1176,15.1493
1177,0.368928
1178,0.352087
1179,3.43634
1180,11.7691
1181,16.1967
1182,24.9072
1183,24.8825
1184,18.6177
1185,9.35447
1186,9.32537
1187,9.57079
1188,10.535
1189,10.5016
1190,10.467
1191,17.8135
1192,29.4904
1193,29.4518
1194,15.9157
1195,8.04341
1196,8.00111
1197,16.7277
1198,33.8613
1199,33.8155
1200,28.3329
1201,16.6556
1202,1.37877
1203,1.32855
1204,8.35569
1205,18.1409
1206,27.1988
1207,27.1445
1208,23.8086
1209,23.7524
1210,24.9365
1211,24.8784
1212,17.3635
1213,17.3037
1214,18.1934
1215,22.2461
1216,22.1838
1217,15.8197
1218,5.29381
1219,5.22919
1220,17.8943
1221,24.8998
1222,27.0329
1223,28.9616
1224,28.8935
1225,17.312
1226,6.83317
1227,6.7631
1228,15.8231
1229,15.7519
1230,12.2766
1231,12.2042
1232,21.2139
1233,21.1405
1234,20.2927
1235,20.2182
1236,26.3923
1237,26.3168
1238,15.3627
1239,2.65278
1240,2.57604
1241,10.4042
1242,39.887
1243,43.2308
1244,43.1525
1245,24.7425
1246,24.196
1247,24.1167
1248,26.9113
1249,32.456
1250,32.3758
1251,32.2952
1252,49.6336
1253,49.5525
1254,39.9273
1255,26.1163
1256,26.0345
1257,29.9746
1258,29.8923
1259,29.8099
1260,48.9044
1261,63.027
1262,62.9439
1263,62.8607
1264,68.5456
1265,80.8503
1266,80.7666
1267,75.208
1268,75.124
1269,79.9608
1270,92.2874
1271,102.482
1272,102.397
1273,102.312
1274,104.414
1275,104.329
1276,99.9238
1277,99.8383
1278,103.531
1279,111.123
1280,112.872
1281,112.786
1282,91.0548
1283,66.4763
1284,65.95
1285,65.8629
1286,71.1273
1287,71.0397
1288,58.3069
1289,38.6434
1290,38.5549
1291,39.4349
1292,39.3457
1293,39.2561
1294,44.0737
1295,48.1473
1296,48.0565
1297,42.3019
1298,34.2746
1299,34.1824
1300,34.8947
1301,45.0963
1302,51.1012
1303,51.0068
1304,17.6212
1305,0.0789627
1306,-0.0172999
1307,25.9206
1308,25.823
1309,23.152
1310,14.4603
1311,6.762
1312,6.6614
1313,9.34452
1314,22.5223
1315,22.4192
1316,9.6738
1317,1.25567
1318,1.14987
1319,17.3996
1320,28.6061
1321,34.6557
1322,34.546
1323,33.3648
1324,33.253
1325,33.14
1326,20.1253
1327,9.55994
1328,9.44349
1329,9.32584
1330,-2.73115
1331,-2.8513
1332,-1.21318
1333,9.19503
1334,9.07119
1335,8.94618
1336,16.9561
1337,16.8289
1338,7.1871
1339,7.05789
1340,16.3862
1341,35.7399
1342,36.1971
1343,36.0643
1344,26.0582
1345,13.2687
1346,-0.830816
1347,-0.966541
1348,20.6119
1349,34.5394
1350,42.5192
1351,42.3813
1352,32.8761
1353,29.5294
1354,27.8891
1355,20.8266
1356,3.01909
1357,2.87954
1358,10.7422
1359,21.5922
1360,21.7011
1361,21.5615
1362,13.0414
1363,12.9022
1364,30.6241
1365,30.4854
1366,20.3766
1367,5.66364
1368,1.56773
1369,1.43069
1370,31.4557
1371,47.6541
1372,47.5189
1373,39.1908
1374,11.1545
1375,11.0215
1376,11.5966
1377,25.2341
1378,43.2581
1379,43.1288
1380,32.5936
1381,10.8848
1382,10.7589
1383,40.4887
1384,49.0123
1385,48.8901
1386,26.0548
1387,22.0691
1388,18.2409
1389,5.46334
1390,5.34829
1391,6.79994
1392,21.5071
1393,32.6245
1394,38.6543
1395,48.1302
1396,51.3776
1397,51.2745
1398,41.499
1399,23.7758
1400,23.6785
1401,24.4288
1402,45.0441
1403,53.6666
1404,53.5777
1405,46.0648
1406,40.9675
1407,37.2596
1408,37.1797
1409,48.9252
1410,54.5084
1411,54.4356
1412,53.6888
1413,53.6209
1414,57.9708
1415,57.9081
1416,57.3433
1417,19.4357
1418,14.1439
1419,14.0918
1420,41.4311
1421,61.0721
1422,61.0283
1423,33.8071
1424,33.7691
1425,44.3714
1426,61.1793
1427,61.1502
1428,60.8067
1429,60.7836
1430,69.6126
1431,91.2783
1432,128.104
1433,130.641
1434,130.634
1435,130.63
1436,132.271
1437,132.273
1438,120.832
1439,120.841
1440,131.127
1441,131.465
1442,139.377
1443,161.267
1444,204.616
1445,204.645
1446,179.835
1447,175.271
1448,175.31
1449,183.625
1450,190.656
1451,210.905
1452,213.178
1453,251.826
1454,291.391
1455,291.454
1456,267.345
1457,266.104
1458,264.265
1459,234.812
1460,203.503
1461,200.598
1462,200.539
1463,200.629
1464,203.185
1465,203.281
1466,195.846
1467,153.424
1468,120.837
1469,108.96
1470,102.917
1471,103.031
1472,112.955
1473,145.738
1474,145.861
1475,118.679
1476,118.807
1477,114.473
1478,108.024
1479,78.8489
1480,62.8784
1481,63.0194
1482,78.861
1483,79.0067
1484,68.006
1485,68.1562
1486,78.3542
1487,90.0076
1488,90.1642
1489,88.5313
1490,88.6918
1491,86.114
1492,85.8617
1493,75.9578
1494,70.6776
1495,60.5613
1496,32.6477
1497,32.8199
1498,28.961
1499,29.136
1500,29.3123
1501,36.0364
1502,36.2151
1503,24.5526
1504,24.7334
1505,46.171
1506,46.3536
1507,36.0148
1508,25.156
1509,25.3409
1510,29.854
1511,38.0666
1512,38.253
1513,34.2314
1514,30.4742
1515,15.5432
1516,4.74674
1517,4.93435
1518,11.3754
1519,47.6677
1520,47.8552
1521,40.2714
1522,12.1612
1523,12.3478
1524,28.888
1525,42.1343
1526,42.3195
1527,29.5864
1528,20.536
1529,20.7191
1530,26.1905
1531,26.3717
1532,13.5776
1533,13.7567
1534,26.6582
1535,32.1862
1536,35.1786
1537,35.3525
1538,35.525
1539,40.8756
1540,41.0448
1541,6.66173
1542,6.82744
1543,21.0502
1544,24.7707
1545,24.9305
1546,25.0882
1547,39.6141
1548,39.7673
1549,9.36481
1550,1.22501
1551,1.37091
1552,15.313
1553,19.8881
1554,20.0259
1555,20.1609
1556,27.7422
1557,27.8713
1558,-3.15474
1559,-3.03197
1560,11.6149
1561,19.6892
1562,19.8023
1563,19.912
1564,29.3912
1565,29.4943
1566,27.5341
1567,27.6304
1568,27.7233
1569,8.59817
1570,8.6842
1571,16.6871
1572,23.8537
1573,23.9293
1574,5.70697
1575,-3.47042
1576,-3.40558
1577,31.3034
1578,45.3466
1579,45.4008
1580,31.3319
1581,31.3793
1582,42.8748
1583,42.9155
1584,29.9499
1585,29.9841
1586,35.76
1587,47.6599
1588,47.6846
1589,46.7521
1590,41.5767
1591,26.2141
1592,14.8052
1593,14.815
1594,38.2568
1595,42.8084
1596,42.8097
1597,31.3257
1598,27.8216
1599,18.4954
1600,18.4858
1601,20.0092
1602,39.2172
1603,50.2593
1604,50.2395
1605,40.8842
1606,40.8595
1607,48.4352
1608,64.4667
1609,64.4349
1610,43.5091
1611,6.19674
1612,5.22236
1613,2.1327
1614,5.02527
1615,4.9802
1616,55.0906
1617,55.0414
1618,8.22035
1619,8.16705
1620,34.0484
1621,33.9912
1622,31.6157
1623,31.5547
1624,46.5312
1625,46.4664
1626,17.4826
1627,17.4142
1628,33.2982
1629,37.6947
1630,54.3008
1631,78.3751
1632,78.2983
1633,27.8282
1634,27.5595
1635,23.3932
1636,21.6866
1637,21.602
1638,52.9024
1639,52.8148
1640,32.5355
1641,32.445
1642,45.2179
1643,45.1247
1644,40.3898
1645,23.997
1646,23.8998
1647,34.2437
1648,43.2929
1649,87.7941
1650,99.8522
1651,99.7487
1652,74.6186
1653,41.9058
1654,13.7591
1655,5.26928
1656,5.15989
1657,20.3023
1658,41.9652
1659,51.1397
1660,51.026
1661,33.6636
1662,33.5477
1663,46.6383
1664,53.2075
1665,53.0885
1666,51.5826
1667,43.4665
1668,41.8923
1669,41.7694
1670,45.5144
1671,45.3896
1672,43.064
1673,30.0366
1674,20.0281
1675,8.89746
1676,8.76804
1677,19.9888
1678,41.4274
1679,50.0075
1680,63.7614
1681,69.5812
1682,69.4465
1683,50.5179
1684,50.3815
1685,50.2442
1686,41.2944
1687,38.4739
1688,38.3341
1689,47.6435
1690,47.502
1691,41.3782
1692,41.2351
1693,53.041
1694,78.1608
1695,78.0151
1696,55.3285
1697,35.5853
1698,35.4371
1699,42.3894
1700,42.2395
1701,45.7181
1702,48.806
1703,68.1148
1704,67.9615
1705,60.7109
1706,60.5558
1707,60.3997
1708,57.0724
1709,56.803
1710,56.6443
1711,64.1985
1712,95.8977
1713,95.7362
1714,84.8072
1715,38.8831
1716,15.5625
1717,15.3971
1718,50.0079
1719,74.7072
1720,88.181
1721,91.2286
1722,91.0579
1723,86.087
1724,57.5687
1725,41.5069
1726,41.3318
1727,52.437
1728,70.256
1729,70.0774
1730,57.5855
1731,49.4045
1732,49.2221
1733,54.9136
1734,54.7285
1735,45.4354
1736,44.8359
1737,44.6468
1738,67.8349
1739,67.6428
1740,46.2688
1741,10.1154
1742,9.9189
1743,33.2734
1744,33.0737
1745,32.8724
1746,53.2161
1747,53.0115
1748,9.71856
1749,-2.22069
1750,-2.43054
1751,43.6165
1752,68.8307
1753,68.6156
1754,26.5731
1755,26.3545
1756,59.8526
1757,59.6306
1758,58.7708
1759,31.3484
1760,31.1214
1761,36.2142
1762,35.984
1763,35.7522
1764,45.2268
1765,44.9917
1766,27.6991
1767,27.4608
1768,33.1197
1769,64.2447
1770,77.2597
1771,77.0153
1772,44.3853
1773,44.1378
1774,44.3209
1775,46.3077
1776,63.3092
1777,124.075
1778,123.82
1779,56.3419
1780,56.0838
1781,67.3497
1782,70.4991
1783,71.0927
1784,72.0837
1785,71.8181
1786,55.9553
1787,31.532
1788,-2.23646
1789,-2.50817
1790,16.7719
1791,26.6189
1792,34.1737
1793,34.602
1794,48.9264
1795,84.9774
1796,84.6961
1797,58.6077
1798,46.8143
1799,46.5295
1800,98.7638
1801,98.4768
1802,57.9522
1803,57.6632
1804,46.7611
1805,46.4702
1806,12.5761
1807,12.2835
1808,39.8534
1809,45.1989
1810,44.904
1811,53.0917
1812,52.7954
1813,51.4699
1814,51.1724
1815,106.807
1816,106.508
1817,73.7992
1818,73.4995
1819,93.462
1820,106.262
1821,107.409
1822,105.66
1823,95.7812
1824,86.3287
1825,86.0263
1826,85.7237
1827,74.6522
1828,74.3489
1829,68.7465
1830,39.305
1831,39.0011
1832,47.3054
1833,51.2458
1834,50.9415
1835,50.6369
1836,54.9027
1837,69.907
1838,83.2719
1839,105.44
1840,105.135
1841,55.6261
1842,55.321
1843,66.3855
1844,97.3627
1845,144.619
1846,144.314
1847,144.009
1848,149.089
1849,155.318
