#wnum,raman
275,120.53
276,127.988
277,129.236
278,131.985
279,133.233
280,124.832
281,122.626
282,123.874
283,125.122
284,121.102
285,111.426
286,112.673
287,128.419
288,129.666
289,119.733
290,92.9562
291,94.2031
292,104.232
293,130.414
294,131.66
295,123.46
296,120.551
297,121.647
298,122.344
299,117.224
300,110.339
301,108.748
302,107.828
303,104.27
304,98.2601
305,99.1119
306,100.354
307,101.595
308,100.771
309,98.5561
310,97.228
311,81.0796
312,61.7606
313,59.5661
314,60.8018
315,62.0366
316,61.5266
317,57.5749
318,58.8067
319,58.5518
320,58.7045
321,45.7529
322,38.439
323,39.6647
324,51.8453
325,53.0683
326,47.7083
327,46.4041
328,47.6226
329,48.8395
330,44.059
331,31.2762
332,23.877
333,25.087
334,26.2952
335,19.4928
336,8.14252
337,9.34478
338,11.0891
339,14.8063
340,16.0022
341,11.691
342,12.8824
343,22.7242
344,23.9109
345,23.8641
346,19.194
347,16.9859
348,14.3681
349,15.542
350,20.5063
351,28.4384
352,36.1305
353,39.973
354,41.1327
355,30.364
356,31.5176
357,36.3866
358,40.5825
359,41.7265
360,22.2235
361,9.64363
362,10.7776
363,15.2523
364,16.3792
365,17.5025
366,20.4793
367,30.4322
368,33.317
369,34.4254
370,27.2741
371,17.1366
372,6.18335
373,-0.30746
374,0.780784
375,2.32924
376,7.24752
377,12.4261
378,14.7932
379,16.2424
380,17.8828
381,19.9588
382,21.0117
383,12.9641
384,1.5441
385,2.58285
386,10.8165
387,15.3538
388,16.3778
389,3.40934
390,-3.60546
391,-2.59676
392,1.96285
393,35.9212
394,59.7644
395,60.7524
396,34.9318
397,32.695
398,33.6675
399,46.252
400,47.2141
401,47.6671
402,46.2493
403,42.536
404,39.1728
405,39.1729
406,39.2119
407,32.3936
408,22.2678
409,21.3697
410,22.2798
411,29.9103
412,34.1468
413,36.481
414,42.7013
415,52.888
416,55.6095
417,56.4829
418,49.9572
419,47.4458
420,46.8068
421,47.6591
422,53.5097
423,54.3514
424,52.9012
425,47.2341
426,48.0597
427,53.1846
428,62.242
429,79.047
430,94.0431
431,97.4003
432,98.1935
433,97.2977
434,86.805
435,87.5817
436,90.9376
437,102.217
438,102.977
439,95.6922
440,91.2636
441,91.8604
442,92.4739
443,89.6155
444,87.1242
445,85.7876
446,84.6085
447,85.3175
448,90.7853
449,96.2185
450,103.467
451,104.285
452,104.964
453,88.3735
454,81.5851
455,82.2466
456,87.755
457,95.8589
458,104.684
459,109.749
460,110.5
461,111.436
462,119.564
463,120.176
464,114.536
465,94.0367
466,93.8853
467,94.4707
468,95.0494
469,91.1183
470,82.8508
471,83.4093
472,93.6665
473,96.2449
474,96.7827
475,97.3134
476,100.501
477,103.332
478,103.841
479,97.6232
480,98.1178
481,101.193
482,101.673
483,94.8125
484,81.4011
485,81.8581
486,92.1017
487,101.381
488,105.624
489,106.361
490,106.779
491,101.77
492,102.171
493,104.121
494,104.506
495,97.925
496,90.7774
497,91.137
498,97.2569
499,97.5991
500,96.5134
501,96.838
502,109.384
503,124.429
504,124.727
505,120.261
506,120.54
507,121.923
508,124.482
509,129.938
510,130.179
511,121.579
512,102.094
513,90.0633
514,87.6622
515,87.8534
516,98.2516
517,100.32
518,100.48
519,83.2972
520,78.2842
521,78.4124
522,78.5298
523,74.7337
524,68.3919
525,54.5389
526,38.008
527,38.0694
528,50.4648
529,50.5032
530,41.8457
531,20.4357
532,7.30379
533,-3.05249
534,-3.07392
535,3.84106
536,8.01807
537,7.95972
538,7.77671
539,7.6935
540,13.6488
541,13.5405
542,7.82179
543,7.68825
544,13.4421
545,23.5561
546,26.7393
547,27.9604
548,34.0028
549,45.8982
550,46.3966
551,46.1599
552,45.9102
553,51.0797
554,69.9747
555,81.0083
556,83.3346
557,87.6903
558,103.141
559,118.478
560,126.95
561,127.768
562,127.384
563,106.871
564,91.0556
565,90.6301
566,91.1864
567,95.8168
568,95.3493
569,86.4246
570,58.5509
571,51.4219
572,50.8973
573,50.3583
574,36.3388
575,11.6678
576,11.0851
577,25.1153
578,39.9663
579,55.7889
580,69.2041
581,68.5471
582,66.1982
583,46.8639
584,20.6739
585,2.88299
586,-2.80042
587,-3.54921
588,-3.75701
589,0.0588952
590,1.06673
591,0.255866
592,-3.38544
593,-13.6401
594,-14.4973
595,-3.43672
596,9.94284
597,9.04116
598,4.36521
599,-2.02756
600,-9.45894
601,-10.4148
602,-2.56765
603,6.92165
604,6.27386
605,5.79726
606,13.8211
607,25.2778
608,36.3429
609,47.0957
610,54.6908
611,53.6377
612,52.5782
613,84.6525
614,126.001
615,133.874
616,132.796
617,131.714
618,132.443
619,138.241
620,142.562
621,146.825
622,169.598
623,202.369
624,225.763
625,231.44
626,238.079
627,265.506
628,292.966
629,300.277
630,301.56
631,318.86
632,352.849
633,384.41
634,406.713
635,429.124
636,440.545
637,451.18
638,457.79
639,462.287
640,481.312
641,524.819
642,565.816
643,575.111
644,584.551
645,588.181
646,590.191
647,606.943
648,639.483
649,670.856
650,697.16
651,724.564
652,750.683
653,776.689
654,811.309
655,851.074
656,878.785
657,888.716
658,897.99
659,907.674
660,917.745
661,945.176
662,975.098
663,993.356
664,1004.71
665,1024.04
666,1059.1
667,1095.77
668,1156
669,1216.4
670,1244.05
671,1262.87
672,1294.65
673,1337.25
674,1379.01
675,1421.97
676,1465.75
677,1515.81
678,1565.84
679,1618.91
680,1673.73
681,1721.17
682,1761.33
683,1805.54
684,1862.55
685,1919.73
686,1952.14
687,1982.45
688,1982.45
689,1976.72
690,1960.18
691,1929.84
692,1898.65
693,1866.77
694,1834.78
695,1775.7
696,1712.29
697,1676.29
698,1656.3
699,1616.96
700,1544.22
701,1476.67
702,1462.92
703,1448.53
704,1392.4
705,1328.8
706,1284.78
707,1254.59
708,1224.84
709,1196.73
710,1167.46
711,1128.98
712,1090.6
713,1028.81
714,964.017
715,920.505
716,891.102
717,865.325
718,845.325
719,823.97
720,789.787
721,755.824
722,702.611
723,646.475
724,616.656
725,603.413
726,590.851
727,579.38
728,563.781
729,519.112
730,474.948
731,452.021
732,432.13
733,413.328
734,395.332
735,372.889
736,343.679
737,330.231
738,331.25
739,332.279
740,321.555
741,299.001
742,272.895
743,244.965
744,225.001
745,214.934
746,204.272
747,191.334
748,178.611
749,177.953
750,177.474
751,172.313
752,165.306
753,153.997
754,138.622
755,124.38
756,113.48
757,101.99
758,76.8346
759,53.1661
760,54.2654
761,62.6383
762,63.7313
763,60.3101
764,61.3943
765,62.6597
766,63.7329
767,51.5194
768,52.5792
769,59.9941
770,81.5875
771,82.6228
772,69.5203
773,55.155
774,39.4258
775,26.2461
776,21.5029
777,18.7638
778,19.7214
779,20.6656
780,10.5472
781,-5.30224
782,-12.3495
783,-11.465
784,-5.61871
785,15.6039
786,16.4391
787,9.47858
788,-5.05606
789,-4.27245
790,-2.72115
791,-1.97295
792,-16.8211
793,-16.1088
794,-0.0810599
795,15.8402
796,30.5701
797,44.5505
798,48.6748
799,52.4438
800,79.8589
801,98.9274
802,99.4863
803,65.155
804,65.6824
805,109.971
806,147.127
807,159.519
808,171.954
809,180.852
810,185.963
811,186.387
812,186.796
813,187.808
814,202.923
815,214.093
816,220.765
817,221.109
818,209.321
819,209.639
820,211.31
821,228.48
822,228.761
823,227.687
824,227.945
825,228.046
826,226.745
827,213.449
828,207.686
829,207.889
830,212.643
831,217.918
832,223.628
833,232.935
834,242.956
835,251.895
836,260.037
837,260.161
838,248.928
839,236.867
840,222.789
841,215.158
842,215.237
843,217.244
844,217.306
845,211.297
846,200.523
847,197.928
848,197.958
849,239.533
850,243.036
851,243.043
852,221.346
853,212.843
854,203.228
855,178.162
856,150.746
857,137.566
858,130.54
859,125.697
860,123.958
861,120.302
862,111.718
863,102.382
864,89.1101
865,75.8368
866,65.0857
867,54.4902
868,54.3891
869,53.1274
870,50.8645
871,42.8342
872,34.4762
873,25.2995
874,23.6889
875,23.5518
876,23.4099
877,16.9153
878,13.0693
879,12.9137
880,19.7874
881,19.6231
882,14.5372
883,14.3646
884,22.0812
885,27.9213
886,29.6775
887,29.4895
888,24.4529
889,24.2578
890,25.5222
891,28.5223
892,28.3172
893,22.0143
894,10.091
895,-1.28501
896,-1.50216
897,20.797
898,37.3064
899,41.0273
900,40.7998
901,33.1789
902,32.9469
903,34.9843
904,34.7484
905,32.1313
906,11.9494
907,11.7084
908,21.8703
909,33.3353
910,45.9846
911,45.7385
912,27.4285
913,27.1804
914,37.2445
915,60.2178
916,63.9487
917,63.6983
918,59.6312
919,49.5331
920,36.6757
921,23.3662
922,23.1154
923,37.4487
924,58.9527
925,92.3051
926,99.054
927,98.8056
928,83.7344
929,80.6461
930,80.4004
931,99.782
932,125.314
933,139.989
934,150.325
935,150.085
936,139.829
937,132.324
938,127.832
939,127.6
940,128.914
941,132.923
942,137.043
943,141.092
944,145.57
945,150.413
946,171.032
947,178.193
948,177.983
949,146.706
950,146.501
951,148.088
952,154.715
953,158.475
954,162.573
955,165.243
956,165.057
957,161.254
958,161.075
959,176.017
960,185.939
961,185.77
962,176.227
963,176.066
964,197.283
965,197.13
966,188.69
967,178.7
968,172.434
969,172.296
970,190.693
971,202.529
972,202.404
973,202.283
974,212.951
975,213.331
976,213.223
977,199.18
978,198.223
979,198.129
980,213.045
981,237.624
982,237.543
983,219.995
984,219.25
985,219.182
986,228.153
987,236.763
988,236.709
989,232.691
990,231.83
991,231.789
992,234.79
993,234.759
994,228.736
995,223.86
996,223.842
997,237.714
998,268.798
999,278.856
1000,278.856
1001,273.267
1002,265.096
1003,265.11
1004,292.218
1005,301.373
1006,301.399
1007,283.908
1008,283.943
1009,286.482
1010,312.89
1011,340.981
1012,341.033
1013,328.141
1014,313.715
1015,299.407
1016,299.474
1017,305.849
1018,305.923
1019,281.879
1020,272.295
1021,272.379
1022,278.672
1023,279.21
1024,279.304
1025,272.637
1026,272.737
1027,275.943
1028,281.922
1029,282.029
1030,271.555
1031,260.281
1032,252.897
1033,253.014
1034,268.623
1035,268.744
1036,239.338
1037,224.786
1038,224.434
1039,224.561
1040,211.339
1041,205.609
1042,205.74
1043,205.872
1044,197.457
1045,182.87
1046,181.475
1047,181.609
1048,189.602
1049,189.735
1050,181.533
1051,152.951
1052,138.996
1053,133.293
1054,126.762
1055,119.922
1056,119.414
1057,119.542
1058,119.668
1059,117.894
1060,116.959
1061,117.079
1062,120.656
1063,125.821
1064,125.935
1065,106.837
1066,100.322
1067,100.427
1068,100.529
1069,99.7921
1070,76.4784
1071,69.0886
1072,67.0199
1073,50.9656
1074,27.9733
1075,28.0477
1076,40.0891
1077,40.154
1078,29.7479
1079,29.8025
1080,66.2226
1081,66.2662
1082,50.3326
1083,25.4642
1084,25.1962
1085,25.2158
1086,40.639
1087,40.6453
1088,29.514
1089,14.7785
1090,14.7637
1091,24.3067
1092,24.2768
1093,21.5991
1094,8.69648
1095,-6.7742
1096,-6.96935
1097,-7.04019
1098,11.0679
1099,30.2859
1100,30.1894
1101,-5.65513
1102,-5.7686
1103,-5.79565
1104,5.76738
1105,15.8189
1106,20.8931
1107,20.7393
1108,18.0191
1109,12.4991
1110,12.3232
1111,18.4101
1112,26.4653
1113,26.3056
1114,26.5549
1115,33.293
1116,39.9338
1117,42.0757
1118,41.8493
1119,33.2475
1120,33.0105
1121,41.762
1122,59.8333
1123,59.5816
1124,48.2614
1125,48.0008
1126,81.2207
1127,80.9518
1128,76.1619
1129,75.8856
1130,88.7295
1131,88.4465
1132,73.4935
1133,73.2046
1134,76.3385
1135,86.5638
1136,99.019
1137,114.543
1138,138.405
1139,153.056
1140,152.752
1141,152.446
1142,154.272
1143,158.799
1144,158.58
1145,158.343
1146,161.619
1147,166.232
1148,171.965
1149,177.433
1150,185.358
1151,193.281
1152,193.315
1153,193.422
1154,201.885
1155,213.489
1156,226.643
1157,240.072
1158,247.561
1159,252.846
1160,258.315
1161,258.011
1162,256.414
1163,241.749
1164,241.451
1165,261.528
1166,268.852
1167,268.56
1168,262.358
1169,250.258
1170,249.974
1171,263.975
1172,267.911
1173,267.635
1174,255.906
1175,229.252
1176,227.489
1177,227.226
1178,226.966
1179,224.147
1180,222.648
1181,222.399
1182,229.829
1183,229.587
1184,227.972
1185,224.021
1186,220.141
1187,217.799
1188,214.913
1189,187.763
1190,169.98
1191,169.771
1192,179.932
1193,179.732
1194,174.531
1195,174.34
1196,174.154
1197,169.617
1198,155.853
1199,155.681
1200,166.096
1201,165.933
1202,158.859
1203,158.706
1204,168.865
1205,168.721
1206,155.42
1207,155.287
1208,165.562
1209,188.798
1210,219.549
1211,219.436
1212,182.103
1213,182.001
1214,190.029
1215,189.937
1216,161.343
1217,161.262
1218,164.834
1219,170.644
1220,170.578
1221,159.536
1222,133.035
1223,132.986
1224,159.999
1225,159.96
1226,152.912
1227,136.261
1228,136.238
1229,137.235
1230,154.141
1231,154.134
1232,145.901
1233,134.681
1234,134.69
1235,134.705
1236,133.885
1237,132.403
1238,127.789
1239,123.58
1240,120.78
1241,118.923
1242,118.974
1243,119.518
1244,121.376
1245,121.442
1246,118.014
1247,118.091
1248,131.071
1249,131.157
1250,124.673
1251,106.752
1252,106.853
1253,106.959
1254,97.0333
1255,97.1487
1256,106.705
1257,124.152
1258,124.281
1259,122.604
1260,113.344
1261,105.342
1262,105.489
1263,105.641
1264,87.2163
1265,86.9783
1266,87.1432
1267,108.147
1268,116.046
1269,116.224
1270,113.511
1271,102.937
1272,103.127
1273,103.161
1274,89.2139
1275,85.3332
1276,85.5379
1277,98.4262
1278,111.201
1279,111.416
1280,110.083
1281,97.1887
1282,97.4144
1283,101.969
1284,106.196
1285,110.444
1286,115.64
1287,121.052
1288,138.02
1289,143.027
1290,143.277
1291,128.57
1292,128.825
1293,129.083
1294,126.846
1295,124.912
1296,125.177
1297,125.444
1298,117.652
1299,111.207
1300,111.481
1301,111.756
1302,109.05
1303,109.329
1304,111.181
1305,111.464
1306,94.4935
1307,79.366
1308,79.6521
1309,87.9834
1310,88.2716
1311,78.7639
1312,66.009
1313,62.9832
1314,63.2747
1315,63.5667
1316,48.3892
1317,29.3175
1318,29.6105
1319,34.4642
1320,46.2283
1321,46.5213
1322,41.5339
1323,30.009
1324,30.3012
1325,30.5929
1326,22.8277
1327,23.1181
1328,26.2444
1329,35.781
1330,42.6912
1331,42.9777
1332,38.185
1333,31.7011
1334,31.9835
1335,36.8499
1336,58.0665
1337,58.3439
1338,36.1168
1339,18.887
1340,19.1584
1341,19.9836
1342,20.2504
1343,14.8613
1344,2.70032
1345,2.95941
1346,18.253
1347,18.5064
1348,17.2394
1349,14.3414
1350,14.5854
1351,16.6075
1352,17.2971
1353,26.3375
1354,47.0368
1355,47.2629
1356,46.2419
1357,37.5154
1358,28.4112
1359,22.5091
1360,19.4795
1361,16.8787
1362,14.9234
1363,14.2765
1364,14.4197
1365,11.4665
1366,6.23702
1367,-2.43754
1368,-6.94198
1369,-6.78126
1370,7.65351
1371,18.4767
1372,18.6212
1373,16.6156
1374,-1.32658
1375,-1.19776
1376,4.26918
1377,4.38778
1378,4.50137
1379,12.4479
1380,20.0069
1381,20.1059
1382,20.2001
1383,22.4208
1384,22.5058
1385,13.5945
1386,2.66064
1387,2.73224
1388,8.67269
1389,8.81578
1390,9.23726
1391,14.0622
1392,19.8194
1393,30.8462
1394,30.8889
1395,4.10978
1396,4.14489
1397,20.4384
1398,27.8817
1399,27.9059
1400,27.9265
1401,25.7418
1402,25.7556
1403,7.89293
1404,7.90012
1405,19.9989
1406,19.9998
1407,19.2692
1408,19.264
1409,28.7933
1410,35.6359
1411,35.6221
1412,33.5138
1413,33.4945
1414,33.86
1415,41.3283
1416,41.3013
1417,13.6845
1418,6.54544
1419,6.51139
1420,8.45278
1421,13.4173
1422,14.4046
1423,14.5985
1424,14.5538
1425,13.3521
1426,13.0845
1427,12.6174
1428,11.1781
1429,11.1242
1430,31.4502
1431,38.7348
1432,38.7272
1433,38.6671
1434,55.1483
1435,65.92
1436,65.8558
1437,65.4491
1438,61.8134
1439,57.9658
1440,57.0715
1441,53.4651
1442,44.8995
1443,44.8278
1444,44.2933
1445,40.374
1446,31.4833
1447,31.4085
1448,46.9504
1449,47.1092
1450,48.4332
1451,61.6853
1452,75.2788
1453,75.2009
1454,73.283
1455,70.2579
1456,64.8848
1457,41.7193
1458,41.64
1459,58.7818
1460,67.3071
1461,67.2276
1462,56.0183
1463,49.4482
1464,49.3688
1465,63.1239
1466,63.0448
1467,48.1205
1468,48.0419
1469,50.7332
1470,50.6552
1471,42.4864
1472,42.4092
1473,50.1153
1474,60.4578
1475,71.378
1476,71.3028
1477,70.3769
1478,69.8765
1479,67.9844
1480,53.7906
1481,53.7187
1482,77.6344
1483,77.564
1484,77.3789
1485,61.8744
1486,54.1111
1487,54.0442
1488,68.949
1489,68.8839
1490,39.3506
1491,39.2875
1492,60.1805
1493,74.6368
1494,75.1922
1495,75.1335
1496,55.4611
1497,42.5967
1498,39.3997
1499,39.3456
1500,45.885
1501,45.8333
1502,45.7829
1503,67.2598
1504,67.2119
1505,65.929
1506,65.8838
1507,88.2262
1508,91.6353
1509,91.5942
1510,80.1433
1511,70.2705
1512,58.1382
1513,52.3792
1514,52.3452
1515,63.4197
1516,63.3886
1517,53.1374
1518,53.1093
1519,67.1067
1520,71.9309
1521,71.9073
1522,64.9583
1523,62.7981
1524,62.7791
1525,63.0226
1526,63.0066
1527,61.3553
1528,61.3424
1529,66.4444
1530,89.1146
1531,89.1063
1532,89.04
1533,67.5199
1534,37.7389
1535,37.7368
1536,39.5533
1537,68.2693
1538,75.8686
1539,75.8726
1540,54.4792
1541,47.6926
1542,46.024
1543,46.0342
1544,50.0976
1545,54.7123
1546,57.6568
1547,57.6729
1548,52.7848
1549,43.0021
1550,43.0225
1551,53.7967
1552,53.82
1553,53.8447
1554,65.4278
1555,65.4553
1556,54.8936
1557,54.9239
1558,60.2795
1559,60.3124
1560,56.3081
1561,56.3435
1562,69.4907
1563,77.1727
1564,77.2119
1565,75.2666
1566,75.3072
1567,63.2392
1568,61.9964
1569,62.0416
1570,72.4868
1571,72.5342
1572,68.981
1573,69.0306
1574,78.756
1575,80.7333
1576,83.6199
1577,83.6733
1578,80.6296
1579,65.9127
1580,58.4659
1581,55.7535
1582,36.2721
1583,29.7916
1584,29.8508
1585,63.0901
1586,72.8545
1587,72.9156
1588,67.4795
1589,67.5418
1590,74.7854
1591,74.8487
1592,73.1058
1593,63.4058
1594,61.717
1595,61.7819
1596,81.0744
1597,82.9974
1598,83.3232
1599,83.389
1600,83.455
1601,71.3906
1602,58.8838
1603,47.1039
1604,47.1698
1605,72.5943
1606,78.3576
1607,78.4231
1608,67.5142
1609,61.3993
1610,61.464
1611,79.4793
1612,79.5432
1613,73.16
1614,58.7052
1615,58.7674
1616,61.3039
1617,61.3647
1618,56.7607
1619,46.557
1620,46.6154
1621,59.3523
1622,59.4087
1623,57.5514
1624,46.0503
1625,46.1034
1626,91.8434
1627,91.8941
1628,66.031
1629,64.6043
1630,64.6507
1631,45.0593
1632,42.3753
1633,42.417
1634,55.5908
1635,71.9568
1636,71.993
1637,54.7535
1638,54.7859
1639,63.0902
1640,63.1184
1641,59.8666
1642,53.5086
1643,48.7011
1644,47.4347
1645,32.4821
1646,3.0297
1647,3.04107
1648,40.5001
1649,40.506
1650,36.7844
1651,29.1363
1652,29.1335
1653,53.5649
1654,68.8526
1655,68.8404
1656,53.4961
1657,31.1728
1658,31.1506
1659,66.326
1660,85.4117
1661,85.3788
1662,83.903
1663,65.8929
1664,64.3424
1665,63.8594
1666,63.807
1667,67.9793
1668,80.4783
1669,80.4133
1670,68.5471
1671,68.4731
1672,68.8523
1673,68.7692
1674,58.6655
1675,58.5728
1676,58.4753
1677,22.7178
1678,9.42148
1679,9.30867
1680,25.3947
1681,31.6926
1682,31.5637
1683,30.7203
1684,30.5803
1685,44.2577
1686,44.1062
1687,42.3949
1688,29.787
1689,29.6175
1690,34.213
1691,39.1852
1692,38.9969
1693,33.6537
1694,33.4525
1695,36.7516
1696,54.5559
1697,55.4993
1698,55.6151
1699,55.3796
1700,49.053
1701,13.4725
1702,13.2154
1703,20.1454
1704,19.8733
1705,9.00121
1706,8.71387
1707,23.5696
1708,23.2665
1709,19.4338
1710,16.1844
1711,15.857
1712,-4.38774
1713,-4.73182
1714,4.48359
1715,20.5529
1716,30.4943
1717,30.1163
1718,18.5895
1719,-2.60872
1720,-3.01219
1721,9.10472
1722,15.8887
1723,15.4599
1724,9.23649
1725,5.81708
1726,5.36332
1727,4.90135
1728,-3.99185
1729,-4.47013
1730,16.0554
1731,19.277
1732,18.775
1733,18.2653
1734,18.6078
1735,19.011
1736,19.2101
1737,21.2599
1738,21.9169
1739,22.2328
1740,22.3966
1741,27.8842
1742,27.3115
1743,26.9559
1744,48.5357
1745,51.2674
1746,50.67
1747,36.3952
1748,35.7863
1749,36.3824
1750,38.7865
1751,38.1611
1752,47.5497
1753,46.9139
1754,43.8633
1755,43.2177
1756,48.0064
1757,58.9786
1758,58.3191
1759,61.1723
1760,60.8242
1761,95.549
1762,140.008
1763,167.456
1764,166.772
1765,166.085
1766,214.376
1767,238.691
1768,237.993
1769,228.967
1770,228.263
1771,243.242
1772,242.532
1773,239.999
1774,209.178
1775,202.818
1776,192.01
1777,172.48
1778,161.958
1779,161.23
1780,177.321
1781,202.529
1782,212.031
1783,219.476
1784,218.738
1785,212.471
1786,188.523
1787,169.704
1788,160.63
1789,159.884
1790,170.323
1791,216.147
1792,215.397
1793,177.234
1794,152.301
1795,148.94
1796,148.185
1797,142.762
1798,136.504
1799,135.746
1800,146.759
1801,157.832
1802,162.218
1803,174.553
1804,173.79
1805,156.584
1806,127.706
1807,126.942
1808,147.292
1809,157.909
1810,157.143
1811,125.024
1812,95.8688
1813,95.1016
1814,94.5235
1815,109.888
1816,109.963
1817,109.194
1818,134.552
1819,146.533
1820,145.763
1821,122.479
1822,90.2519
1823,89.4818
1824,89.8268
1825,89.0564
1826,80.4058
1827,72.7423
1828,71.9715
1829,71.2006
1830,54.161
1831,40.4784
1832,39.7072
1833,52.7357
1834,53.8332
1835,53.0619
1836,52.2905
1837,56.6341
1838,70.6853
1839,69.9138
1840,68.8539
1841,68.0824
1842,72.5289
1843,71.7573
1844,51.624
1845,23.6045
1846,22.8329
1847,30.1769
1848,30.7145
1849,40.2638
