#wnum,raman
275,17.0355
276,18.4897
277,24.3975
278,32.4429
279,37.5361
280,39.7972
281,39.7096
282,24.825
283,12.6963
284,12.6087
285,15.5946
286,15.507
287,12.8685
288,12.7808
289,26.4178
290,46.13
291,46.0423
292,41.2637
293,25.7378
294,18.1827
295,17.0999
296,17.012
297,30.498
298,30.4099
299,30.1619
300,19.0393
301,13.6456
302,9.45251
303,9.36403
304,10.9853
305,14.2579
306,15.3396
307,21.2754
308,28.2804
309,28.1912
310,26.5263
311,13.9939
312,6.61444
313,6.5246
314,7.06545
315,11.1769
316,18.6608
317,18.5702
318,17.4205
319,12.4439
320,12.3526
321,16.0263
322,19.3033
323,20.8282
324,22.6576
325,23.3914
326,24.9234
327,28.1589
328,28.0654
329,27.2388
330,23.9353
331,20.235
332,16.787
333,13.5902
334,10.1024
335,3.16391
336,-2.03618
337,-2.13308
338,13.3283
339,31.5771
340,31.479
341,21.6222
342,16.0263
343,15.9274
344,17.3352
345,24.6989
346,24.5993
347,23.5687
348,21.4732
349,21.3731
350,22.1972
351,22.097
352,18.0898
353,16.4278
354,16.3276
355,21.083
356,20.983
357,18.0144
358,15.0434
359,12.5019
360,10.232
361,10.1327
362,10.851
363,14.3563
364,23.3913
365,30.7021
366,30.6041
367,26.3112
368,24.7768
369,24.6799
370,25.4804
371,25.3843
372,23.2613
373,19.7148
374,14.8209
375,14.7268
376,19.8409
377,22.2362
378,22.1438
379,20.9916
380,20.9004
381,30.215
382,30.1251
383,24.7689
384,5.06501
385,0.269992
386,0.182949
387,8.10074
388,20.1168
389,33.7396
390,33.6557
391,24.5898
392,16.5555
393,16.4742
394,21.1369
395,26.8008
396,32.7512
397,32.6735
398,27.0601
399,24.2051
400,18.3703
401,11.5164
402,11.4438
403,21.7812
404,26.9042
405,28.2822
406,32.1627
407,41.9423
408,42.4
409,42.335
410,29.2592
411,29.1965
412,32.529
413,46.7126
414,46.6534
415,40.109
416,40.0523
417,40.9967
418,40.9424
419,38.6328
420,38.4638
421,38.4134
422,44.5164
423,45.3464
424,45.7836
425,57.7943
426,62.915
427,62.8724
428,60.056
429,60.016
430,64.2534
431,65.4783
432,65.4423
433,59.9001
434,51.8669
435,51.835
436,54.887
437,57.9667
438,63.6452
439,70.2969
440,70.2718
441,64.0286
442,57.2541
443,57.2331
444,57.2133
445,54.3334
446,51.5591
447,51.3789
448,51.1509
449,46.818
450,36.8652
451,34.6528
452,34.6436
453,42.3446
454,42.338
455,40.4972
456,34.506
457,33.8319
458,33.5998
459,30.4542
460,24.981
461,22.0296
462,22.0329
463,25.7603
464,30.2665
465,31.3689
466,31.3768
467,21.5303
468,14.2429
469,14.2542
470,16.9374
471,20.8909
472,25.1113
473,27.4136
474,27.4302
475,25.2462
476,24.4374
477,23.8726
478,19.0754
479,13.0046
480,13.0272
481,20.7046
482,28.086
483,28.1114
484,23.7306
485,16.3184
486,11.0877
487,11.1166
488,20.2154
489,25.3844
490,25.4157
491,21.7167
492,18.0432
493,18.0767
494,18.1386
495,29.6927
496,40.7455
497,40.7818
498,38.7263
499,27.2577
500,13.7082
501,13.7469
502,14.8804
503,18.3088
504,18.3491
505,13.189
506,13.2303
507,24.2342
508,24.2764
509,21.724
510,19.556
511,19.5994
512,23.7489
513,26.4818
514,30.3076
515,30.3522
516,24.501
517,15.008
518,10.7071
519,10.7526
520,11.3921
521,14.9562
522,15.0091
523,15.0551
524,11.6766
525,8.49087
526,6.69176
527,6.73786
528,10.8616
529,16.5485
530,30.5796
531,37.7276
532,37.7733
533,27.3319
534,21.7214
535,18.1538
536,11.1222
537,0.0757462
538,-0.290883
539,-0.246941
540,14.1205
541,14.1638
542,8.8329
543,6.31117
544,6.35314
545,9.49102
546,13.9455
547,19.444
548,19.484
549,9.8949
550,9.93375
551,18.7574
552,19.1092
553,19.1462
554,-1.28892
555,-1.25328
556,13.5548
557,25.8202
558,26.1769
559,26.2097
560,14.4789
561,1.30256
562,1.3333
563,14.0496
564,14.079
565,12.1057
566,3.41893
567,3.4462
568,5.54688
569,11.9863
570,15.5336
571,15.558
572,10.2843
573,6.31248
574,4.84375
575,4.86546
576,8.6274
577,12.9313
578,12.9509
579,9.95411
580,9.97233
581,17.505
582,18.4307
583,18.4468
584,11.6377
585,11.6524
586,14.2879
587,15.2235
588,15.236
589,10.0051
590,3.30505
591,0.113752
592,0.123441
593,8.43828
594,8.44651
595,6.13096
596,3.40595
597,3.41199
598,7.5875
599,11.3622
600,15.2147
601,15.2178
602,12.046
603,12.0475
604,18.7122
605,29.2491
606,29.2483
607,26.0188
608,22.3526
609,21.3481
610,20.3654
611,13.8982
612,12.0961
613,12.0898
614,19.5673
615,24.5788
616,24.5701
617,22.9079
618,16.5572
619,13.0232
620,13.0113
621,15.3539
622,18.3008
623,18.5415
624,19.373
625,26.5799
626,26.5627
627,24.5767
628,22.6783
629,22.6584
630,28.6593
631,28.6376
632,17.1106
633,8.06962
634,2.33535
635,-0.894887
636,-0.921409
637,2.22128
638,18.295
639,41.5415
640,41.5111
641,34.1373
642,17.9821
643,17.7354
644,17.7013
645,18.5023
646,18.6034
647,18.5666
648,10.0964
649,10.0577
650,14.6958
651,23.4696
652,23.9338
653,23.8917
654,18.4469
655,10.5513
656,10.5066
657,19.3049
658,19.2584
659,8.90497
660,-0.69026
661,-0.739209
662,5.09818
663,9.54341
664,13.1801
665,13.128
666,8.33933
667,8.28571
668,12.9515
669,21.1026
670,27.2597
671,27.2034
672,24.8625
673,8.75548
674,0.966103
675,0.907241
676,1.84925
677,13.671
678,25.2849
679,25.2845
680,27.9897
681,28.9075
682,42.4909
683,42.4279
684,25.3089
685,11.5946
686,11.5303
687,22.4812
688,22.416
689,15.1969
690,15.131
691,18.923
692,18.8863
693,18.8193
694,18.752
695,18.8709
696,21.2086
697,28.084
698,36.3792
699,36.3105
700,32.1009
701,24.1538
702,20.417
703,20.3474
704,20.6932
705,23.8304
706,23.7602
707,19.5846
708,19.5141
709,28.9353
710,30.7204
711,30.6494
712,26.5905
713,26.5193
714,28.6138
715,28.5423
716,25.9982
717,22.8969
718,19.6545
719,16.5676
720,14.641
721,14.5691
722,20.4107
723,29.8525
724,37.2929
725,39.5772
726,39.5049
727,18.8416
728,17.2673
729,17.195
730,24.8983
731,24.8259
732,16.7184
733,16.6459
734,16.7979
735,22.8266
736,34.2815
737,34.2091
738,26.913
739,16.7266
740,16.6542
741,23.5389
742,24.3398
743,24.2673
744,21.928
745,16.5307
746,16.4582
747,23.671
748,29.6326
749,29.5601
750,24.1785
751,24.106
752,23.2482
753,23.1404
754,21.6156
755,21.5431
756,34.4107
757,34.3383
758,20.7909
759,3.94037
760,3.86785
761,14.3188
762,22.9339
763,27.5211
764,27.4485
765,26.7449
766,24.2962
767,15.03
768,10.1985
769,10.1256
770,15.7777
771,15.7047
772,15.6494
773,15.5763
774,21.844
775,27.4801
776,35.5334
777,35.4599
778,13.6663
779,-0.787166
780,-0.861045
781,27.9405
782,27.8664
783,25.4105
784,21.4642
785,21.3898
786,23.1688
787,23.0943
788,22.4888
789,11.3588
790,-0.40363
791,-0.966714
792,-1.0415
793,8.75135
794,26.7252
795,26.6505
796,16.8577
797,8.62409
798,8.54971
799,19.5371
800,23.0515
801,22.9777
802,22.1097
803,18.3674
804,18.2945
805,20.5673
806,27.0906
807,30.9747
808,30.9034
809,23.7284
810,20.1704
811,20.1007
812,28.7038
813,32.2657
814,32.1977
815,23.1992
816,8.12581
817,8.05977
818,15.8556
819,25.1502
820,25.0864
821,14.7376
822,10.1115
823,10.0501
824,10.2599
825,13.6978
826,14.8339
827,16.1231
828,16.0663
829,9.48958
830,7.18516
831,7.13143
832,10.2185
833,10.2623
834,10.3951
835,11.7776
836,18.7218
837,18.6748
838,15.2703
839,15.2258
840,19.0616
841,23.0658
842,23.025
843,12.5583
844,12.5202
845,25.3441
846,25.3088
847,20.1994
848,20.167
849,25.5159
850,26.9802
851,26.9522
852,25.8207
853,16.6234
854,15.1415
855,15.1197
856,32.2202
857,39.1019
858,40.4537
859,40.4383
860,36.6682
861,36.6562
862,40.3502
863,45.778
864,48.8601
865,52.1455
866,55.6208
867,61.1404
868,69.3816
869,74.2478
870,84.2417
871,100.057
872,109.022
873,113.335
874,121.06
875,141.142
876,164.48
877,194.199
878,222.4
879,255.079
880,286.541
881,297.511
882,298.109
883,304.606
884,312.697
885,312.729
886,309.744
887,293.251
888,263.046
889,233.489
890,207.471
891,184.891
892,164.325
893,141.266
894,121.772
895,107.45
896,101.095
897,99.2127
898,98.0661
899,75.6579
900,52.6154
901,38.6214
902,27.5872
903,22.9258
904,22.9878
905,31.1716
906,38.2091
907,38.2744
908,32.2955
909,26.2944
910,14.2968
911,14.3659
912,18.5413
913,30.0058
914,37.8162
915,37.8883
916,36.0866
917,23.4774
918,13.6557
919,8.51777
920,8.59252
921,13.1664
922,13.2419
923,10.7775
924,10.3592
925,10.154
926,10.3869
927,10.4633
928,10.5396
929,8.88073
930,8.95701
931,16.132
932,29.6942
933,29.7699
934,14.2733
935,5.98278
936,4.38558
937,4.29056
938,4.3644
939,5.99867
940,6.07137
941,5.48302
942,5.55439
943,6.73778
944,8.73517
945,8.80414
946,5.0539
947,5.121
948,6.01272
949,13.7469
950,17.602
951,17.6647
952,10.5887
953,0.902262
954,0.961186
955,17.985
956,18.0412
957,10.235
958,0.474539
959,0.526018
960,12.306
961,17.3959
962,17.4423
963,12.0155
964,2.85952
965,-1.57698
966,-4.06872
967,-4.03194
968,1.12778
969,8.10422
970,15.2235
971,18.9979
972,19.27
973,19.0504
974,14.6593
975,13.0817
976,13.1019
977,25.1021
978,25.119
979,22.6343
980,19.0589
981,16.4199
982,14.1028
983,10.7135
984,10.7218
985,11.7971
986,11.8027
987,9.21542
988,6.19592
989,6.19796
990,10.1413
991,18.068
992,21.3553
993,23.182
994,24.6981
995,24.831
996,24.8261
997,22.2376
998,22.231
999,24.8337
1000,31.7265
1001,31.7176
1002,25.6694
1003,25.6592
1004,25.624
1005,25.6127
1006,20.3871
1007,20.3749
1008,25.1129
1009,32.2762
1010,32.2627
1011,16.6341
1012,16.6199
1013,29.7074
1014,29.6927
1015,12.6003
1016,11.5636
1017,11.5483
1018,16.4262
1019,17.4539
1020,22.7007
1021,42.1602
1022,45.3294
1023,45.314
1024,30.716
1025,30.7008
1026,31.0722
1027,31.0572
1028,21.6189
1029,21.0609
1030,21.0466
1031,29.1038
1032,30.3396
1033,30.3263
1034,30.3134
1035,31.9519
1036,46.1778
1037,59.3538
1038,62.3633
1039,62.7779
1040,68.5389
1041,74.7771
1042,76.0393
1043,76.6422
1044,78.4376
1045,78.4306
1046,73.1483
1047,68.8719
1048,68.867
1049,69.3046
1050,79.9919
1051,86.1655
1052,86.1637
1053,71.4722
1054,71.472
1055,77.3489
1056,84.0141
1057,84.0164
1058,83.857
1059,72.8658
1060,72.8708
1061,75.7996
1062,75.8064
1063,64.2867
1064,50.9783
1065,42.7235
1066,42.734
1067,52.3762
1068,58.7621
1069,59.6862
1070,59.7005
1071,57.751
1072,54.0303
1073,49.0073
1074,49.0255
1075,50.0752
1076,51.9338
1077,51.955
1078,51.9772
1079,57.4491
1080,68.6908
1081,72.4321
1082,76.0198
1083,80.7349
1084,88.3159
1085,90.25
1086,90.2799
1087,83.0806
1088,80.8616
1089,80.8944
1090,81.4329
1091,87.2196
1092,101.73
1093,115.894
1094,115.931
1095,113.692
1096,106.858
1097,106.898
1098,116.513
1099,116.554
1100,114.277
1101,103.282
1102,98.0351
1103,90.7683
1104,90.8135
1105,89.6515
1106,89.3887
1107,82.7408
1108,82.7886
1109,82.8369
1110,75.3513
1111,62.9069
1112,62.9568
1113,62.6557
1114,62.7064
1115,53.7715
1116,52.0612
1117,48.2619
1118,42.1338
1119,42.1861
1120,44.8368
1121,44.8895
1122,41.3291
1123,41.382
1124,50.6872
1125,50.7403
1126,40.0012
1127,40.0543
1128,43.7851
1129,43.8379
1130,39.9457
1131,31.9409
1132,25.3552
1133,22.8778
1134,20.6992
1135,20.094
1136,20.145
1137,20.1955
1138,20.005
1139,20.0545
1140,26.8484
1141,40.0403
1142,40.088
1143,39.6003
1144,36.354
1145,35.7308
1146,17.3412
1147,-2.52068
1148,-2.47778
1149,1.82254
1150,8.22458
1151,13.5091
1152,13.9787
1153,14.3969
1154,16.1376
1155,16.1741
1156,14.4705
1157,14.5053
1158,24.1723
1159,25.9749
1160,26.007
1161,10.7155
1162,9.60325
1163,8.79658
1164,9.66143
1165,9.72429
1166,21.9585
1167,34.2651
1168,34.2903
1169,31.704
1170,31.7276
1171,44.3031
1172,44.325
1173,35.6819
1174,17.3873
1175,2.23355
1176,0.160374
1177,0.178106
1178,5.01666
1179,14.0974
1180,23.4378
1181,26.7692
1182,29.3158
1183,34.2438
1184,34.2557
1185,31.9638
1186,18.6703
1187,17.401
1188,17.4095
1189,18.7255
1190,18.7324
1191,0.773589
1192,0.778753
1193,7.97211
1194,36.0509
1195,40.2939
1196,40.2956
1197,27.0851
1198,11.6365
1199,11.6356
1200,17.4705
1201,18.1202
1202,18.1167
1203,14.4299
1204,14.4246
1205,14.6206
1206,19.7726
1207,24.4284
1208,28.8587
1209,28.912
1210,30.1506
1211,35.8926
1212,48.2198
1213,48.2062
1214,35.257
1215,24.4165
1216,21.1153
1217,15.3214
1218,-1.68446
1219,-1.70395
1220,16.7942
1221,31.6222
1222,38.4982
1223,38.4749
1224,31.5038
1225,22.3393
1226,22.3133
1227,23.9024
1228,32.2718
1229,37.7826
1230,37.7535
1231,34.7587
1232,28.1316
1233,23.4428
1234,23.4109
1235,23.3783
1236,21.7184
1237,19.9754
1238,13.6504
1239,13.6154
1240,22.3955
1241,22.3595
1242,15.8562
1243,12.1896
1244,12.1521
1245,16.1035
1246,23.9236
1247,27.8385
1248,27.7992
1249,27.7596
1250,32.6666
1251,32.6263
1252,30.3419
1253,20.332
1254,18.7814
1255,16.5486
1256,13.561
1257,13.519
1258,20.4581
1259,25.6822
1260,25.6395
1261,25.5966
1262,29.5429
1263,36.1198
1264,43.5202
1265,43.4767
1266,36.8763
1267,36.8326
1268,45.1781
1269,64.5117
1270,68.399
1271,68.355
1272,47.2232
1273,36.3389
1274,36.2948
1275,51.2864
1276,72.012
1277,72.0738
1278,72.0297
1279,60.5358
1280,60.4918
1281,72.1148
1282,72.0708
1283,69.4766
1284,53.3634
1285,37.8556
1286,35.5459
1287,35.2191
1288,35.1753
1289,35.1316
1290,28.6695
1291,21.1351
1292,19.1102
1293,19.0666
1294,28.7616
1295,28.7182
1296,20.6476
1297,14.3242
1298,14.2809
1299,30.0818
1300,30.0386
1301,27.8891
1302,27.846
1303,27.803
1304,8.59005
1305,7.39877
1306,7.3558
1307,23.4105
1308,23.3675
1309,17.7602
1310,9.90494
1311,5.89626
1312,5.85338
1313,12.0277
1314,22.5417
1315,28.8273
1316,28.7844
1317,24.9353
1318,17.6187
1319,10.313
1320,8.57648
1321,8.53345
1322,11.6645
1323,14.6713
1324,14.6281
1325,13.043
1326,7.45737
1327,7.414
1328,9.6452
1329,12.7064
1330,15.5375
1331,15.4938
1332,6.24263
1333,6.19869
1334,20.8523
1335,20.8081
1336,10.0908
1337,5.21475
1338,5.17014
1339,5.12537
1340,3.67238
1341,2.32667
1342,2.28139
1343,8.12077
1344,14.8687
1345,17.4841
1346,17.438
1347,13.7578
1348,1.58588
1349,1.53912
1350,13.204
1351,13.1568
1352,1.32637
1353,-1.48941
1354,-1.53748
1355,-1.08115
1356,8.461
1357,18.9661
1358,28.1069
1359,28.0578
1360,21.4806
1361,21.4312
1362,33.3538
1363,40.1018
1364,40.0523
1365,37.0013
1366,21.5726
1367,21.5233
1368,30.3808
1369,30.3317
1370,18.4681
1371,6.03941
1372,5.2702
1373,5.22204
1374,11.1759
1375,11.1284
1376,7.24081
1377,7.19397
1378,12.2097
1379,21.9893
1380,22.5877
1381,22.5427
1382,4.42874
1383,4.38472
1384,4.34125
1385,2.40054
1386,2.35829
1387,7.39669
1388,17.6995
1389,19.8226
1390,19.7831
1391,19.7443
1392,20.1337
1393,47.4032
1394,53.1438
1395,53.1083
1396,42.309
1397,20.0808
1398,7.01221
1399,6.98034
1400,15.3493
1401,36.0342
1402,40.4352
1403,40.4074
1404,35.422
1405,31.9657
1406,27.7554
1407,16.6237
1408,10.765
1409,10.7438
1410,10.7428
1411,24.7796
1412,30.2322
1413,32.4124
1414,32.3974
1415,32.3837
1416,25.6473
1417,25.6363
1418,30.8945
1419,45.2156
1420,45.2087
1421,45.15
1422,33.2145
1423,33.2118
1424,40.3873
1425,45.2041
1426,45.2058
1427,32.0849
1428,32.0897
1429,34.4699
1430,40.2842
1431,47.1356
1432,58.0699
1433,58.0825
1434,56.9158
1435,56.9315
1436,59.0933
1437,75.6776
1438,92.5567
1439,92.579
1440,70.9341
1441,69.3865
1442,69.4138
1443,91.2101
1444,101.915
1445,111.42
1446,113.444
1447,113.48
1448,106.014
1449,106.053
1450,129.378
1451,129.421
1452,115.012
1453,115.058
1454,129.508
1455,129.557
1456,128.647
1457,119.315
1458,98.3203
1459,97.6844
1460,95.664
1461,95.7232
1462,95.3269
1463,95.3891
1464,95.453
1465,94.1285
1466,85.6615
1467,85.73
1468,86.3882
1469,86.4596
1470,77.2644
1471,62.1854
1472,56.0542
1473,55.9594
1474,56.0377
1475,55.7864
1476,53.2023
1477,53.0512
1478,48.8882
1479,51.5292
1480,51.6151
1481,71.6081
1482,71.6963
1483,69.0459
1484,58.4965
1485,57.6416
1486,55.9308
1487,56.0241
1488,50.5224
1489,50.6175
1490,54.3933
1491,54.4901
1492,51.6731
1493,38.4101
1494,38.5092
1495,45.2072
1496,45.3076
1497,42.0359
1498,36.8855
1499,36.9876
1500,49.9628
1501,50.0659
1502,50.1695
1503,58.7393
1504,58.8436
1505,43.7156
1506,29.0088
1507,29.1138
1508,29.219
1509,19.9571
1510,2.70269
1511,2.80813
1512,6.81036
1513,43.0081
1514,43.1134
1515,26.9647
1516,27.0697
1517,29.9172
1518,30.0217
1519,24.4291
1520,24.5329
1521,36.3801
1522,36.4831
1523,25.2375
1524,8.33297
1525,8.43433
1526,10.4088
1527,21.3503
1528,21.4496
1529,19.8211
1530,18.3858
1531,18.4826
1532,20.9235
1533,21.0184
1534,11.7826
1535,3.6361
1536,3.72785
1537,14.4222
1538,47.3992
1539,47.4873
1540,38.9991
1541,33.3151
1542,24.2485
1543,11.5867
1544,6.3822
1545,6.4617
1546,16.3722
1547,36.4032
1548,54.9035
1549,54.9762
1550,43.8027
1551,27.2997
1552,23.9092
1553,19.6407
1554,3.11375
1555,-3.98688
1556,-3.928
1557,4.94295
1558,28.7455
1559,35.9076
1560,35.958
1561,31.0076
1562,22.458
1563,22.5023
1564,29.3384
1565,33.2982
1566,35.0517
1567,35.0882
1568,11.8074
1569,11.8401
1570,11.871
1571,-0.459135
1572,-0.431869
1573,3.85546
1574,24.9647
1575,31.5283
1576,31.5486
1577,27.115
1578,23.4289
1579,23.1192
1580,17.1319
1581,15.4386
1582,15.4495
1583,46.6102
1584,46.6181
1585,39.8373
1586,33.8222
1587,33.8259
1588,33.8283
1589,24.1825
1590,24.1822
1591,42.5809
1592,42.5781
1593,32.8948
1594,26.7502
1595,16.5298
1596,9.49101
1597,9.4824
1598,12.6854
1599,13.5195
1600,26.3745
1601,44.9666
1602,44.9528
1603,25.6649
1604,10.701
1605,8.94872
1606,8.52253
1607,8.50401
1608,9.44891
1609,26.4743
1610,27.0225
1611,27.0006
1612,13.6147
1613,13.5913
1614,30.4602
1615,57.7995
1616,57.7739
1617,42.9656
1618,40.4539
1619,30.0716
1620,25.717
1621,18.9172
1622,2.14462
1623,2.11469
1624,12.2694
1625,26.5229
1626,31.1436
1627,34.0893
1628,34.0568
1629,34.0238
1630,32.1426
1631,21.6771
1632,21.6428
1633,60.1821
1634,60.147
1635,15.7477
1636,7.88109
1637,7.84491
1638,19.4008
1639,27.7519
1640,27.7147
1641,26.9435
1642,22.4733
1643,22.4353
1644,32.1397
1645,40.4492
1646,40.5699
1647,40.531
1648,41.0359
1649,40.9965
1650,34.0401
1651,27.3521
1652,20.5805
1653,1.77663
1654,1.73641
1655,27.3548
1656,49.2791
1657,53.3049
1658,53.2641
1659,48.5443
1660,29.78
1661,29.7389
1662,30.2428
1663,30.2015
1664,25.132
1665,25.0906
1666,43.6426
1667,43.6011
1668,26.843
1669,26.8014
1670,45.7049
1671,45.6632
1672,22.0576
1673,21.6585
1674,21.6166
1675,26.9679
1676,26.9259
1677,6.29464
1678,6.25259
1679,12.7509
1680,38.1808
1681,43.8594
1682,43.8172
1683,26.9787
1684,26.9364
1685,39.0306
1686,38.9883
1687,38.946
1688,38.7353
1689,29.6021
1690,18.9512
1691,18.9087
1692,44.1807
1693,44.1381
1694,44.0954
1695,54.3003
1696,54.2576
1697,51.1483
1698,37.4675
1699,36.0323
1700,35.9893
1701,35.9461
1702,35.9281
1703,44.5718
1704,56.9787
1705,56.9352
1706,37.8131
1707,20.3937
1708,20.3497
1709,20.3056
1710,20.0565
1711,17.0743
1712,17.0297
1713,33.189
1714,33.1439
1715,31.0611
1716,31.0156
1717,33.8314
1718,57.5737
1719,72.7626
1720,72.716
1721,54.8004
1722,41.3041
1723,38.0508
1724,29.4002
1725,29.352
1726,32.1492
1727,32.1002
1728,26.8499
1729,17.7043
1730,17.6541
1731,29.914
1732,46.9065
1733,46.8548
1734,26.6759
1735,26.6232
1736,39.4939
1737,57.6303
1738,57.5759
1739,48.6563
1740,28.6231
1741,28.5668
1742,29.9289
1743,34.4267
1744,34.3683
1745,34.3092
1746,41.6175
1747,41.5569
1748,36.0353
1749,35.973
1750,37.0738
1751,37.0097
1752,35.557
1753,35.491
1754,56.931
1755,56.8632
1756,25.4183
1757,9.60874
1758,9.53773
1759,23.5434
1760,40.9749
1761,48.0905
1762,48.0149
1763,30.7203
1764,22.6448
1765,13.8758
1766,-3.00632
1767,-3.08826
1768,6.64234
1769,19.3606
1770,26.7304
1771,26.6434
1772,28.7616
1773,50.2498
1774,50.1592
1775,31.0774
1776,30.9846
1777,33.9641
1778,39.7932
1779,40.9756
1780,62.725
1781,62.6271
1782,44.1367
1783,31.9581
1784,31.8575
1785,40.9609
1786,40.8586
1787,33.4801
1788,22.9484
1789,22.8437
1790,22.7384
1791,13.5465
1792,13.4397
1793,50.1504
1794,55.1127
1795,55.004
1796,35.8954
1797,28.1825
1798,28.072
1799,47.0264
1800,46.9148
1801,44.5697
1802,41.6749
1803,41.5619
1804,28.096
1805,21.2108
1806,15.6369
1807,15.5222
1808,18.0451
1809,28.5158
1810,28.4
1811,28.2839
1812,35.2465
1813,46.8355
1814,46.7185
1815,31.4323
1816,23.1379
1817,23.0202
1818,48.6988
1819,57.5052
1820,57.3868
1821,52.6936
1822,45.1368
1823,45.0179
1824,53.8437
1825,53.7245
1826,49.5268
1827,2.13383
1828,2.01428
1829,5.72342
1830,42.9975
1831,42.8776
1832,42.0282
1833,41.9082
1834,60.114
1835,59.994
1836,43.0453
1837,29.4992
1838,29.379
1839,63.9015
1840,67.5286
1841,67.4083
1842,50.585
1843,12.2798
1844,12.1595
1845,27.2051
1846,39.8282
1847,54.2612
1848,54.1409
1849,54.0205
