#wnum,raman
275,19.1551
276,19.1356
277,15.1924
278,11.881
279,11.8615
280,14.1545
281,14.135
282,12.2465
283,9.47144
284,4.74253
285,-0.273758
286,-0.293331
287,1.57899
288,4.85932
289,4.83974
290,4.82016
291,5.19395
292,7.35277
293,9.7096
294,11.1758
295,12.5707
296,13.5259
297,14.1369
298,14.1175
299,10.381
300,6.55991
301,4.26611
302,2.71997
303,2.70082
304,6.56462
305,10.0761
306,10.0572
307,9.11816
308,9.09933
309,10.4932
310,10.4745
311,10.1285
312,9.89971
313,9.88127
314,13.7557
315,17.1426
316,17.9219
317,17.9038
318,12.9857
319,5.13513
320,2.44028
321,2.42255
322,4.2267
323,4.20916
324,3.92368
325,3.24231
326,2.10407
327,1.00373
328,0.575793
329,0.558865
330,2.16438
331,5.61209
332,5.59548
333,4.11579
334,4.09939
335,7.88386
336,18.0132
337,17.9971
338,10.1789
339,0.2472
340,-0.197444
341,-0.213066
342,1.96304
343,6.01724
344,9.85203
345,12.2545
346,13.6094
347,13.5945
348,11.1525
349,8.58265
350,5.69506
351,3.20624
352,3.19209
353,4.13687
354,6.06493
355,8.97186
356,9.48698
357,9.47365
358,7.50512
359,6.43429
360,6.3904
361,6.37778
362,9.67111
363,12.0531
364,12.0411
365,10.6651
366,7.63284
367,2.41551
368,2.40424
369,3.44465
370,9.31722
371,10.838
372,10.8276
373,10.5572
374,10.5274
375,10.5374
376,10.7578
377,10.7485
378,9.68759
379,6.43389
380,4.88798
381,4.87949
382,6.25822
383,7.68631
384,9.11622
385,9.10864
386,8.03889
387,8.03176
388,8.40891
389,10.7841
390,10.7777
391,7.51727
392,4.50321
393,3.49878
394,3.49328
395,3.98089
396,6.8292
397,6.82439
398,4.83077
399,1.64027
400,1.63616
401,2.61263
402,3.14636
403,3.1759
404,3.25922
405,4.4282
406,5.81121
407,8.56976
408,11.7618
409,11.7598
410,7.249
411,6.86412
412,6.86277
413,11.5478
414,11.5469
415,7.65679
416,5.17867
417,5.17845
418,5.69294
419,6.77306
420,7.37656
421,7.37721
422,4.32182
423,4.2678
424,4.2691
425,4.96581
426,4.96753
427,0.346831
428,0.34896
429,3.34098
430,7.94094
431,7.94367
432,7.94661
433,8.84175
434,13.226
435,15.4763
436,15.48
437,14.3814
438,14.3855
439,14.3524
440,12.1403
441,6.78463
442,2.01126
443,2.01622
444,2.10722
445,5.00978
446,9.37488
447,11.0205
448,11.0263
449,11.0322
450,12.157
451,12.1632
452,12.1519
453,4.0468
454,1.12679
455,1.13351
456,4.23372
457,7.85919
458,11.1788
459,11.186
460,6.28061
461,5.31144
462,5.31891
463,8.42021
464,12.4054
465,15.2368
466,15.2446
467,5.89838
468,-0.415468
469,-0.407463
470,2.12868
471,4.88682
472,7.75026
473,10.3412
474,12.4279
475,12.4363
476,10.5452
477,6.40974
478,6.41838
479,9.89874
480,12.6037
481,12.7415
482,12.7505
483,12.5953
484,12.1283
485,9.51958
486,5.1865
487,5.19595
488,8.23068
489,11.8913
490,11.9011
491,8.92602
492,8.93597
493,12.0399
494,12.2721
495,12.2823
496,10.1987
497,10.2092
498,10.5989
499,10.6096
500,10.4151
501,10.0134
502,9.77857
503,9.62796
504,9.47275
505,9.48408
506,10.096
507,11.6366
508,13.2311
509,17.9412
510,17.9531
511,17.4746
512,8.20599
513,7.53517
514,7.54742
515,10.0383
516,10.0507
517,10.0633
518,11.1282
519,13.8177
520,15.3349
521,15.3497
522,15.3627
523,16.2323
524,16.3505
525,16.3637
526,15.4511
527,13.8422
528,11.1563
529,11.1698
530,11.7063
531,12.9853
532,12.9989
533,9.85562
534,7.59718
535,6.59577
536,6.60952
537,10.7957
538,13.0569
539,13.0707
540,7.70764
541,4.79466
542,4.80851
543,4.97337
544,5.61415
545,6.29318
546,7.72363
547,9.38708
548,11.1421
549,13.2311
550,13.2448
551,11.5449
552,8.17129
553,4.00389
554,-0.3119
555,-0.298469
556,2.43612
557,6.37803
558,13.3068
559,19.8056
560,19.8186
561,18.1459
562,14.6902
563,9.35198
564,6.94337
565,6.95612
566,8.44864
567,8.46124
568,8.47376
569,8.77361
570,10.3475
571,12.3865
572,15.1543
573,15.1664
574,14.3959
575,10.6506
576,7.59273
577,4.85218
578,3.832
579,3.84361
580,4.02221
581,4.03364
582,4.04496
583,4.7405
584,6.34303
585,7.63162
586,8.60795
587,8.61874
588,5.77246
589,2.36946
590,1.54421
591,1.55452
592,2.58482
593,5.17178
594,7.359
595,8.11524
596,8.12489
597,6.65591
598,4.26242
599,4.27164
600,7.18831
601,9.74579
602,11.0905
603,11.0991
604,6.43261
605,2.62695
606,2.63504
607,8.2882
608,8.29594
609,5.54797
610,3.23782
611,3.24499
612,3.25196
613,2.2089
614,-0.518987
615,-0.512632
616,4.7778
617,8.31041
618,8.31616
619,8.32172
620,8.9497
621,10.3235
622,12.1212
623,13.6826
624,13.6873
625,9.04879
626,6.47923
627,6.48347
628,6.86973
629,6.8737
630,4.38399
631,4.3877
632,6.00181
633,7.3755
634,7.37886
635,7.3821
636,7.62543
637,8.23781
638,8.24077
639,7.71705
640,6.26251
641,3.16397
642,1.13407
643,1.13662
644,1.89236
645,3.35296
646,5.029
647,5.0313
648,3.99093
649,3.26675
650,3.26889
651,3.46872
652,5.00024
653,5.27341
654,5.27541
655,2.66347
656,2.66543
657,8.02451
658,9.49769
659,9.4996
660,6.74334
661,4.36103
662,4.36292
663,5.68876
664,14.168
665,14.1699
666,12.8268
667,9.37501
668,9.37695
669,9.3789
670,6.77319
671,0.217144
672,0.219165
673,6.76019
674,8.31812
675,8.32023
676,8.01482
677,8.01699
678,8.01921
679,7.42454
680,1.05682
681,1.05916
682,2.91229
683,3.05923
684,3.06171
685,3.06424
686,5.06175
687,10.4981
688,12.9105
689,12.9133
690,12.322
691,7.63509
692,7.63801
693,8.50502
694,13.0315
695,18.6653
696,20.3638
697,20.3671
698,9.85536
699,9.85872
700,11.7023
701,15.3843
702,15.3879
703,13.6286
704,13.6323
705,14.171
706,14.4073
707,14.4112
708,13.4547
709,10.3253
710,7.89309
711,7.89717
712,7.90132
713,5.24246
714,1.82692
715,1.83121
716,5.20381
717,5.20819
718,3.69501
719,3.69948
720,6.19718
721,10.9514
722,14.1202
723,14.1248
724,12.5339
725,3.14442
726,3.14912
727,4.07074
728,9.13886
729,12.4575
730,12.762
731,12.7668
732,9.19556
733,9.20037
734,12.3524
735,12.3572
736,9.82802
737,8.26628
738,8.27107
739,8.27585
740,7.65755
741,5.61323
742,5.61794
743,5.63362
744,8.24971
745,13.8614
746,16.2918
747,16.2964
748,14.4464
749,7.6962
750,6.46189
751,6.46617
752,17.0508
753,17.0549
754,15.556
755,14.254
756,14.2578
757,14.2616
758,12.3032
759,8.75204
760,5.67597
761,5.04054
762,5.04375
763,11.4813
764,14.6448
765,14.6476
766,13.744
767,12.5016
768,12.5039
769,15.652
770,18.1233
771,18.1251
772,11.5559
773,11.5573
774,11.715
775,12.8791
776,12.8798
777,12.1109
778,9.06833
779,6.06293
780,3.17169
781,0.284268
782,-0.896394
783,-0.897524
784,1.78864
785,9.57264
786,13.7208
787,13.7186
788,13.7162
789,14.3574
790,17.9149
791,17.9117
792,16.6831
793,14.1506
794,10.2385
795,10.2346
796,14.2495
797,17.8133
798,17.8088
799,16.1781
800,10.5163
801,4.02468
802,4.01961
803,6.78793
804,10.1712
805,13.5584
806,13.5529
807,12.4667
808,9.42351
809,8.00446
810,7.99853
811,8.33412
812,10.9185
813,13.7202
814,16.7347
815,16.7285
816,12.0088
817,7.74624
818,6.27087
819,4.75105
820,2.3722
821,2.36574
822,2.8298
823,6.36601
824,6.35952
825,1.70854
826,1.70206
827,6.66939
828,7.54786
829,7.54143
830,7.53502
831,10.5122
832,12.509
833,12.5027
834,4.61312
835,4.6069
836,9.35523
837,11.0102
838,11.0041
839,9.62941
840,7.90217
841,6.1184
842,4.94149
843,3.75897
844,2.15176
845,2.14623
846,3.20528
847,8.815
848,8.80974
849,8.651
850,7.12278
851,7.11783
852,7.49242
853,10.6311
854,10.6265
855,10.1637
856,5.3208
857,5.31655
858,6.61914
859,6.61515
860,6.81548
861,6.81176
862,13.9366
863,13.9332
864,11.1396
865,5.73978
866,5.73676
867,9.12282
868,12.2604
869,15.2661
870,17.1251
871,17.1622
872,17.1601
873,13.4137
874,9.74501
875,6.35311
876,5.59159
877,5.59027
878,8.05869
879,10.3059
880,12.2927
881,12.292
882,10.2607
883,7.50298
884,4.31508
885,4.31504
886,6.98228
887,10.7256
888,15.5942
889,15.5948
890,9.98272
891,3.97559
892,3.97668
893,13.0369
894,14.8346
895,14.8361
896,12.1259
897,7.69972
898,7.70173
899,11.1754
900,11.1777
901,8.1459
902,4.22101
903,4.22376
904,7.05942
905,10.7807
906,12.977
907,12.9803
908,8.14062
909,4.29944
910,1.61178
911,1.61561
912,7.00276
913,8.87821
914,8.8824
915,8.03973
916,8.04416
917,9.64597
918,12.8366
919,15.959
920,15.9639
921,15.5712
922,14.8536
923,14.3776
924,12.6934
925,8.61727
926,8.62265
927,9.8197
928,10.6188
929,10.6244
930,10.6301
931,12.177
932,15.9305
933,15.9363
934,13.1718
935,13.1776
936,15.0842
937,15.0901
938,14.0887
939,12.0488
940,8.68395
941,8.68996
942,9.65176
943,13.108
944,15.5478
945,15.5538
946,13.1992
947,6.80371
948,4.31266
949,4.31849
950,6.74951
951,13.0906
952,17.1553
953,17.1609
954,16.9205
955,12.0299
956,10.9737
957,10.9789
958,13.5954
959,13.6003
960,13.6052
961,15.2567
962,15.4297
963,15.4341
964,9.92096
965,9.92503
966,13.7067
967,13.7104
968,9.49832
969,5.05195
970,1.24169
971,1.24456
972,6.88524
973,11.6834
974,11.6855
975,9.63486
976,9.63645
977,9.63776
978,9.06556
979,3.88429
980,0.663862
981,-0.927971
982,-0.928231
983,1.85569
984,4.84725
985,8.03388
986,10.5968
987,11.5599
988,11.5578
989,10.9472
990,10.9445
991,12.2677
992,12.2645
993,10.6965
994,7.38383
995,7.37985
996,15.2261
997,15.8275
998,15.8228
999,13.5278
1000,10.7966
1001,10.7913
1002,12.0345
1003,12.0288
1004,7.82134
1005,7.81533
1006,7.95741
1007,9.34076
1008,9.33426
1009,6.60584
1010,6.59905
1011,6.59213
1012,5.93368
1013,5.01352
1014,5.00621
1015,9.99619
1016,13.8862
1017,16.8977
1018,16.8899
1019,12.73
1020,8.5269
1021,5.30872
1022,5.30062
1023,8.62962
1024,11.5914
1025,11.5831
1026,9.81983
1027,6.53858
1028,6.36654
1029,6.35798
1030,11.1162
1031,11.1075
1032,8.77493
1033,8.47431
1034,8.12735
1035,7.71917
1036,5.83218
1037,4.08598
1038,2.57684
1039,2.22945
1040,2.22054
1041,2.80031
1042,2.98299
1043,2.97405
1044,0.643422
1045,0.634481
1046,8.0083
1047,11.4121
1048,11.4032
1049,2.20873
1050,2.19983
1051,9.73917
1052,13.0186
1053,13.0098
1054,10.5855
1055,4.16831
1056,3.73352
1057,3.72479
1058,3.7161
1059,3.06565
1060,1.78145
1061,1.46579
1062,1.34038
1063,1.33188
1064,1.59635
1065,3.69061
1066,5.63476
1067,10.229
1068,10.2208
1069,8.8272
1070,-0.170726
1071,-0.178812
1072,2.37401
1073,2.36605
1074,0.280096
1075,0.272283
1076,2.8507
1077,4.90163
1078,6.24014
1079,8.0528
1080,10.6378
1081,12.8811
1082,14.3159
1083,14.3088
1084,13.0851
1085,13.0784
1086,21.2928
1087,21.2863
1088,19.4244
1089,10.1956
1090,9.36025
1091,9.35427
1092,12.0203
1093,13.4063
1094,13.4008
1095,10.2921
1096,9.48222
1097,9.44308
1098,7.82445
1099,5.16836
1100,2.30639
1101,0.226106
1102,0.221903
1103,6.19082
1104,6.18697
1105,5.52093
1106,3.19495
1107,3.19165
1108,3.90192
1109,5.26072
1110,5.25798
1111,3.86768
1112,3.68679
1113,3.68463
1114,3.68266
1115,1.76331
1116,1.76174
1117,7.29193
1118,16.117
1119,16.116
1120,13.3379
1121,12.5569
1122,12.5565
1123,15.7696
1124,21.1217
1125,21.2143
1126,21.2149
1127,16.4837
1128,9.19678
1129,4.90154
1130,3.92936
1131,3.93094
1132,6.04374
1133,9.29789
1134,14.6761
1135,14.6785
1136,14.1651
1137,9.10061
1138,2.28158
1139,2.28483
1140,5.16588
1141,8.08042
1142,8.08429
1143,8.08836
1144,10.3277
1145,10.3321
1146,8.4778
1147,1.71012
1148,1.63714
1149,1.6424
1150,6.95862
1151,13.0226
1152,15.4467
1153,15.4527
1154,14.8854
1155,11.2088
1156,6.94709
1157,2.63415
1158,0.686683
1159,0.693775
1160,5.1477
1161,14.245
1162,14.2526
1163,5.68918
1164,5.69709
1165,10.6746
1166,11.2528
1167,11.2612
1168,11.2697
1169,13.0143
1170,13.0231
1171,7.14661
1172,2.89063
1173,2.89984
1174,3.34748
1175,4.62833
1176,5.98471
1177,7.48414
1178,9.2448
1179,11.9759
1180,11.9859
1181,10.9051
1182,10.0177
1183,10.028
1184,10.0383
1185,9.46043
1186,9.47095
1187,12.376
1188,14.1218
1189,14.1325
1190,11.1105
1191,11.1213
1192,12.0467
1193,12.0576
1194,12.0685
1195,14.3026
1196,14.3135
1197,12.3647
1198,0.788495
1199,0.799493
1200,6.9751
1201,7.22287
1202,8.26913
1203,9.95268
1204,14.7989
1205,18.5235
1206,18.9392
1207,18.95
1208,12.8285
1209,10.9837
1210,10.9943
1211,12.3708
1212,14.0409
1213,14.0512
1214,10.0449
1215,8.41488
1216,8.25502
1217,8.26485
1218,7.00744
1219,7.01699
1220,7.94526
1221,8.84815
1222,9.1025
1223,9.41594
1224,9.60613
1225,10.4198
1226,13.0006
1227,13.0086
1228,5.04431
1229,4.43471
1230,4.44204
1231,8.4058
1232,10.8377
1233,12.9861
1234,14.4921
1235,14.4981
1236,9.87838
1237,5.18543
1238,2.20711
1239,-0.302995
1240,-0.507488
1241,-0.503521
1242,5.28447
1243,10.5196
1244,10.5225
1245,10.1408
1246,5.52795
1247,5.52981
1248,12.344
1249,19.515
1250,19.5159
1251,16.6903
1252,9.62082
1253,4.93836
1254,4.93787
1255,7.09543
1256,9.26221
1257,11.3902
1258,15.5311
1259,16.3837
1260,16.3812
1261,14.8525
1262,14.8494
1263,14.846
1264,9.78902
1265,4.4486
1266,4.44421
1267,6.87659
1268,9.84052
1269,10.9461
1270,10.9405
1271,8.77881
1272,8.66948
1273,8.6505
1274,3.94466
1275,-0.393799
1276,-0.401414
1277,0.91154
1278,6.13355
1279,11.7641
1280,11.7552
1281,11.5654
1282,11.5559
1283,12.033
1284,15.2216
1285,17.1094
1286,17.0989
1287,14.944
1288,9.04665
1289,6.80611
1290,6.79461
1291,10.9528
1292,10.9408
1293,10.9287
1294,11.8933
1295,14.0706
1296,14.5148
1297,14.5018
1298,13.3764
1299,11.8921
1300,11.3096
1301,10.847
1302,9.03413
1303,9.02005
1304,12.6269
1305,13.0727
1306,13.0582
1307,7.01217
1308,6.35976
1309,5.97869
1310,2.3119
1311,2.2966
1312,4.21139
1313,10.4924
1314,10.4767
1315,10.4609
1316,12.2717
1317,12.2556
1318,10.5748
1319,6.93265
1320,6.05295
1321,6.03644
1322,11.8329
1323,17.5842
1324,18.344
1325,18.3271
1326,10.1628
1327,10.1457
1328,11.9407
1329,12.468
1330,12.4506
1331,6.82216
1332,4.25216
1333,3.3736
1334,3.3559
1335,3.33812
1336,-0.410477
1337,-0.428416
1338,6.736
1339,11.1642
1340,11.1461
1341,9.52249
1342,8.77524
1343,8.75701
1344,9.13467
1345,9.11641
1346,5.06679
1347,4.73076
1348,4.71253
1349,7.24842
1350,11.2216
1351,14.3579
1352,16.2141
1353,16.1961
1354,15.3914
1355,14.2408
1356,13.716
1357,13.6983
1358,16.6723
1359,16.6548
1360,16.5138
1361,16.4965
1362,17.0306
1363,17.0137
1364,17.2367
1365,17.7403
1366,20.9233
1367,20.907
1368,15.2459
1369,8.37736
1370,4.72362
1371,4.70797
1372,12.3153
1373,12.3
1374,9.71373
1375,9.69887
1376,14.5253
1377,14.5108
1378,14.4966
1379,15.7554
1380,18.0473
1381,18.0338
1382,13.1646
1383,6.35075
1384,5.31585
1385,5.30329
1386,11.1055
1387,14.9003
1388,15.8929
1389,15.8814
1390,15.8701
1391,24.1859
1392,32.8065
1393,34.3572
1394,34.347
1395,25.3583
1396,22.0058
1397,21.8036
1398,21.7945
1399,12.1321
1400,12.1236
1401,16.8005
1402,20.0598
1403,20.0522
1404,18.7495
1405,15.063
1406,15.0562
1407,19.6445
1408,19.6384
1409,18.814
1410,14.0614
1411,11.2722
1412,11.2672
1413,17.0994
1414,17.0949
1415,8.46982
1416,8.46592
1417,14.5182
1418,17.7821
1419,19.3633
1420,19.3604
1421,17.7562
1422,16.2623
1423,14.3336
1424,11.8776
1425,9.96281
1426,9.96154
1427,9.96051
1428,3.9788
1429,1.39819
1430,1.39788
1431,3.82679
1432,6.34671
1433,8.26009
1434,8.46079
1435,9.29621
1436,11.4449
1437,11.4461
1438,11.6322
1439,11.6339
1440,14.4763
1441,17.8437
1442,17.8459
1443,17.5459
1444,14.2481
1445,13.0067
1446,13.0096
1447,16.8473
1448,16.8506
1449,13.0575
1450,12.2015
1451,12.2052
1452,19.6025
1453,19.6064
1454,8.50291
1455,2.42803
1456,2.43229
1457,2.8528
1458,8.34601
1459,12.5645
1460,13.6238
1461,13.6285
1462,13.6332
1463,15.1159
1464,17.6739
1465,20.9851
1466,20.99
1467,16.8186
1468,16.4999
1469,16.5049
1470,16.5099
1471,15.8673
1472,12.5511
1473,12.556
1474,14.3521
1475,14.357
1476,13.9872
1477,12.0307
1478,12.0354
1479,17.9149
1480,19.9621
1481,21.8642
1482,22.6501
1483,22.6542
1484,18.491
1485,14.5026
1486,14.3609
1487,12.915
1488,7.85093
1489,7.70108
1490,7.70405
1491,12.1549
1492,19.0062
1493,19.0085
1494,13.3007
1495,13.3024
1496,16.6346
1497,16.6358
1498,12.7335
1499,12.7341
1500,14.8816
1501,16.2418
1502,16.2414
1503,10.4851
1504,5.98984
1505,5.98827
1506,6.34408
1507,12.1005
1508,12.0977
1509,4.72198
1510,4.71823
1511,21.669
1512,21.6643
1513,16.702
1514,16.6963
1515,16.4308
1516,16.424
1517,15.3044
1518,13.9142
1519,13.9056
1520,13.9334
1521,16.4969
1522,19.5316
1523,19.5204
1524,9.40298
1525,1.43363
1526,-1.77424
1527,-1.78819
1528,11.2757
1529,15.918
1530,17.0458
1531,17.029
1532,20.9621
1533,20.9441
1534,20.9254
1535,22.8381
1536,25.4997
1537,25.4793
1538,16.9635
1539,11.5957
1540,11.5737
1541,12.6208
1542,16.6844
1543,19.2446
1544,24.6765
1545,36.7482
1546,36.7235
1547,18.993
1548,18.9675
1549,25.832
1550,25.8058
1551,5.60339
1552,5.57652
1553,11.091
1554,15.8291
1555,15.8014
1556,7.49008
1557,0.580888
1558,0.552374
1559,5.00763
1560,13.6063
1561,20.0883
1562,20.0589
1563,17.9393
1564,13.6425
1565,9.34732
1566,6.42134
1567,4.58978
1568,2.7539
1569,2.72361
1570,4.57337
1571,9.0856
1572,12.3296
1573,12.299
1574,12.1069
1575,12.0763
1576,12.0457
1577,8.3814
1578,8.35078
1579,9.94854
1580,16.2355
1581,17.226
1582,17.1955
1583,5.31047
1584,5.28017
1585,13.5023
1586,14.7094
1587,15.9081
1588,17.0801
1589,17.0504
1590,10.4968
1591,10.4673
1592,30.7422
1593,30.7131
1594,14.6687
1595,14.64
1596,17.9029
1597,17.8746
1598,15.4553
1599,7.58481
1600,7.55716
1601,7.89503
1602,16.856
1603,16.8291
1604,15.9476
1605,15.9212
1606,15.8952
1607,13.406
1608,8.43787
1609,7.05449
1610,7.02964
1611,14.4615
1612,14.4373
1613,12.092
1614,11.5038
1615,10.6043
1616,9.27711
1617,9.01351
1618,8.9914
1619,11.4531
1620,13.1622
1621,13.1412
1622,0.040582
1623,0.0203918
1624,11.2672
1625,14.8703
1626,14.8514
1627,6.39017
1628,6.37204
1629,15.8609
1630,23.4815
1631,23.4647
1632,16.9104
1633,9.02292
1634,9.00744
1635,13.2475
1636,14.3408
1637,14.9451
1638,17.4187
1639,21.6507
1640,21.638
1641,20.2486
1642,18.1635
1643,15.2779
1644,8.6829
1645,5.26734
1646,5.25759
1647,7.6782
1648,9.35053
1649,9.34227
1650,9.33451
1651,23.4674
1652,23.7857
1653,23.7794
1654,6.97769
1655,6.97248
1656,11.1203
1657,15.0147
1658,16.7016
1659,16.6985
1660,15.3135
1661,14.3582
1662,14.3566
1663,14.3556
1664,12.7404
1665,12.7404
1666,13.8337
1667,13.8347
1668,11.8757
1669,11.8778
1670,11.9537
1671,11.9567
1672,11.9603
1673,15.7302
1674,15.7349
1675,15.3794
1676,7.6457
1677,7.65185
1678,7.65852
1679,3.06517
1680,3.07285
1681,7.2015
1682,9.27281
1683,9.99987
1684,24.3712
1685,24.3814
1686,18.9169
1687,6.9708
1688,6.98245
1689,16.9857
1690,20.9242
1691,26.8498
1692,26.8633
1693,26.5659
1694,20.8862
1695,20.9012
1696,20.9166
1697,18.4421
1698,18.4585
1699,20.0507
1700,20.0679
1701,18.5335
1702,15.2682
1703,9.90331
1704,5.02682
1705,5.04616
1706,11.2006
1707,18.2339
1708,18.2545
1709,14.8455
1710,10.5914
1711,7.18897
1712,7.21102
1713,11.1479
1714,18.6365
1715,18.6597
1716,15.8775
1717,15.9012
1718,15.9253
1719,11.088
1720,5.70734
1721,3.68782
1722,3.71315
1723,11.3058
1724,11.3317
1725,12.2322
1726,12.3947
1727,12.4214
1728,5.60575
1729,5.6329
1730,7.09709
1731,8.72124
1732,10.7973
1733,11.9684
1734,15.5555
1735,15.5839
1736,10.5072
1737,10.5359
1738,10.5648
1739,10.2446
1740,8.14627
1741,6.94402
1742,6.97338
1743,13.2244
1744,13.2539
1745,14.0517
1746,18.4531
1747,18.4828
1748,12.3433
1749,3.44674
1750,-0.611806
1751,-0.581892
1752,8.4993
1753,8.52924
1754,8.37578
1755,8.40574
1756,14.9687
1757,15.3895
1758,16.6264
1759,19.8517
1760,19.8818
1761,17.9764
1762,9.14817
1763,1.53943
1764,1.56954
1765,6.6562
1766,9.68877
1767,9.71892
1768,9.36511
1769,9.39528
1770,12.7357
1771,13.4411
1772,13.4713
1773,12.2638
1774,10.2424
1775,3.70539
1776,3.7356
1777,12.2852
1778,12.3154
1779,7.95072
1780,7.98091
1781,15.4432
1782,15.4733
1783,9.65006
1784,9.68021
1785,9.71034
1786,9.80173
1787,10.921
1788,10.9511
1789,10.4276
1790,10.4576
1791,12.0743
1792,12.1042
1793,11.732
1794,8.16837
1795,5.27108
1796,1.30939
1797,1.33905
1798,2.13612
1799,8.22752
1800,10.5307
1801,10.8722
1802,11.3684
1803,14.5375
1804,14.6681
1805,14.6971
1806,9.81259
1807,9.84145
1808,14.8262
1809,14.8549
1810,11.9034
1811,-0.552612
1812,-0.524331
1813,5.04819
1814,11.6021
1815,17.5435
1816,17.5714
1817,15.4059
1818,4.6978
1819,4.72531
1820,16.5767
1821,16.604
1822,14.083
1823,10.3474
1824,7.51681
1825,7.3393
1826,5.15873
1827,0.378599
1828,0.405456
1829,4.51961
1830,6.52716
1831,8.8343
1832,9.13694
1833,9.16357
1834,5.71056
1835,4.61071
1836,4.63725
1837,22.5703
1838,32.6082
1839,32.6346
1840,22.7087
1841,21.4674
1842,15.4194
1843,13.1691
1844,13.1955
1845,33.2215
1846,36.6297
1847,36.6562
1848,26.0216
1849,26.048
