#wnum,raman
275,35.1634
276,35.3288
277,35.4943
278,34.4044
279,33.4263
280,14.4149
281,-0.338119
282,-0.172681
283,3.34974
284,14.671
285,30.6352
286,30.8006
287,27.4947
288,26.5421
289,26.7075
290,47.2027
291,47.3682
292,34.2762
293,26.1821
294,21.6442
295,9.17859
296,9.34417
297,18.4008
298,35.5743
299,42.904
300,43.0696
301,39.6216
302,32.3286
303,25.6449
304,25.8106
305,27.7849
306,27.9506
307,25.2977
308,22.4446
309,18.5472
310,16.8889
311,15.971
312,16.1366
313,16.2953
314,12.7182
315,8.77149
316,8.93697
317,21.3048
318,26.3563
319,27.1782
320,27.4406
321,27.6289
322,28.0601
323,28.8319
324,28.9969
325,29.1617
326,31.0481
327,31.2128
328,30.6313
329,29.8356
330,28.5685
331,25.9788
332,17.5835
333,8.19838
334,6.77998
335,6.94345
336,11.785
337,11.9481
338,12.111
339,16.6481
340,24.9148
341,40.2044
342,49.5409
343,49.7026
344,29.8654
345,17.4945
346,17.6553
347,27.3695
348,36.6936
349,36.8534
350,36.4934
351,36.6526
352,54.9958
353,61.7554
354,61.9134
355,40.1755
356,37.3618
357,37.5185
358,46.4999
359,57.2227
360,67.5344
361,67.6891
362,50.2466
363,48.0054
364,43.3066
365,43.459
366,22.5523
367,-1.16235
368,-1.01189
369,9.10242
370,10.0256
371,10.174
372,1.08062
373,1.22769
374,11.4513
375,14.3529
376,19.1683
377,22.4229
378,22.5666
379,8.71369
380,8.85601
381,12.2009
382,25.6216
383,25.7618
384,12.8073
385,12.9462
386,20.4191
387,21.9487
388,22.0855
389,21.2491
390,21.1287
391,18.6124
392,18.6236
393,17.813
394,17.9456
395,9.6828
396,4.53
397,4.66039
398,12.621
399,12.7499
400,3.51938
401,0.559759
402,0.686433
403,11.6678
404,18.0513
405,18.1757
406,16.9671
407,12.6449
408,9.95215
409,10.0734
410,25.6578
411,33.8516
412,33.9705
413,22.5422
414,22.6595
415,26.8768
416,30.5988
417,31.8763
418,31.9902
419,34.9417
420,41.1878
421,45.9134
422,46.9229
423,47.0325
424,46.1044
425,46.2122
426,49.3134
427,56.3034
428,60.7306
429,66.5059
430,73.3725
431,73.4746
432,66.9905
433,67.0906
434,67.8078
435,75.0227
436,75.1198
437,61.444
438,61.5388
439,77.7918
440,93.3729
441,94.2837
442,94.374
443,93.7546
444,78.7935
445,78.8801
446,79.0256
447,79.1097
448,77.8677
449,73.0806
450,73.1606
451,74.628
452,81.6817
453,86.6821
454,86.7563
455,67.7513
456,50.9031
457,48.0521
458,48.12
459,61.021
460,81.6288
461,102.361
462,102.422
463,88.039
464,78.5225
465,75.2766
466,74.8271
467,72.112
468,72.1615
469,81.2834
470,81.3288
471,71.6164
472,54.4047
473,54.4436
474,74.7932
475,90.6262
476,93.2147
477,93.2441
478,81.2612
479,81.2856
480,86.6034
481,86.6227
482,82.2067
483,76.3008
484,71.7093
485,71.7175
486,79.467
487,79.4694
488,70.3438
489,70.3401
490,76.8987
491,99.7664
492,99.9539
493,100.702
494,99.9174
495,97.3908
496,96.5949
497,96.5644
498,108.796
499,108.759
500,108.321
501,108.275
502,108.193
503,104.837
504,104.054
505,103.648
506,103.582
507,105.628
508,106.015
509,118.824
510,118.741
511,112.396
512,109.726
513,109.629
514,114.471
515,114.364
516,86.5214
517,61.4655
518,61.3433
519,67.2683
520,82.8823
521,89.3093
522,89.1655
523,54.5721
524,34.2697
525,34.1087
526,43.9716
527,43.7987
528,35.4929
529,31.9903
530,30.2254
531,29.2452
532,27.5789
533,20.4071
534,12.7722
535,-6.27352
536,-6.50465
537,3.40196
538,28.5782
539,28.3265
540,26.9892
541,26.7239
542,26.4519
543,23.0108
544,19.2058
545,18.9138
546,21.5248
547,25.4871
548,29.9091
549,29.5908
550,28.1235
551,11.5754
552,7.84743
553,7.50327
554,11.2104
555,12.8435
556,12.4966
557,12.138
558,13.0656
559,16.0661
560,27.1953
561,34.9209
562,35.2389
563,35.2285
564,40.8804
565,46.4813
566,46.0562
567,41.6214
568,16.1026
569,15.6594
570,29.1298
571,28.6747
572,13.1214
573,4.10849
574,3.63571
575,30.9126
576,39.4111
577,38.9208
578,29.3909
579,10.7033
580,-6.23991
581,-8.82361
582,-9.34256
583,4.82351
584,41.8936
585,46.6836
586,46.1444
587,32.1238
588,31.5761
589,41.1439
590,40.5887
591,14.849
592,14.2873
593,15.4605
594,22.1365
595,21.5671
596,11.0239
597,10.4506
598,12.9169
599,14.0505
600,13.4734
601,12.8956
602,26.9223
603,54.8968
604,76.0589
605,78.0266
606,77.449
607,76.8722
608,77.848
609,93.2706
610,92.6978
611,72.1503
612,62.2635
613,61.697
614,69.6972
615,83.7268
616,96.5559
617,121.07
618,151.803
619,151.898
620,151.355
621,144.698
622,144.164
623,157.522
624,160.543
625,177.433
626,197.227
627,196.72
628,186.672
629,186.177
630,197.578
631,225.704
632,262.419
633,261.951
634,259.703
635,259.25
636,289.18
637,301.598
638,301.169
639,263.288
640,262.876
641,292.078
642,311.131
643,312.638
644,314.592
645,330.02
646,338.309
647,350.799
648,373.255
649,372.93
650,366.437
651,366.134
652,389.435
653,444.965
654,444.694
655,430.945
656,430.698
657,437.488
658,462.006
659,482.079
660,487.623
661,487.435
662,482.251
663,482.088
664,490.115
665,489.976
666,473.535
667,473.422
668,476.863
669,494.483
670,511.077
671,529.171
672,542.885
673,553.567
674,553.546
675,547.272
676,547.279
677,552.047
678,562.46
679,562.507
680,549.186
681,547.402
682,545.569
683,545.671
684,552.713
685,566.227
686,573.312
687,576.316
688,577.169
689,577.353
690,577.35
691,558.894
692,559.119
693,563.019
694,582.081
695,585.765
696,587.054
697,600.137
698,626.893
699,646.179
700,646.511
701,646.855
702,675.784
703,700.086
704,700.469
705,676.409
706,666.411
707,666.831
708,674.28
709,684.91
710,692.225
711,692.693
712,689.415
713,674.146
714,654.71
715,641.511
716,636.609
717,627.702
718,601.143
719,576.738
720,577.302
721,580.223
722,587.753
723,588.346
724,578.847
725,539.47
726,537.752
727,538.38
728,539.015
729,517.625
730,479.596
731,480.254
732,476.848
733,460.416
734,415.826
735,380.937
736,372.58
737,369.506
738,362.015
739,362.72
740,377.838
741,388.115
742,388.832
743,333.967
744,303.151
745,301.593
746,302.314
747,289.932
748,279.921
749,260.357
750,234.239
751,207.566
752,184.067
753,157.549
754,123.022
755,123.758
756,142.88
757,182.419
758,183.151
759,170.664
760,157.32
761,148.622
762,149.343
763,153.109
764,153.823
765,109.672
766,77.7383
767,78.4378
768,79.1319
769,65.8066
770,46.1971
771,46.8724
772,51.0452
773,51.7061
774,33.78
775,19.3057
776,12.3491
777,10.4429
778,11.061
779,14.8337
780,15.432
781,-1.6875
782,-12.5845
783,-18.6301
784,-18.0758
785,5.95353
786,25.7551
787,27.26
788,30.1272
789,45.3383
790,60.06
791,60.5362
792,55.9637
793,47.8308
794,35.8376
795,27.8453
796,28.2694
797,29.9297
798,37.2802
799,46.5648
800,55.3202
801,60.8242
802,71.4455
803,87.3925
804,87.7395
805,83.7198
806,72.3106
807,59.6638
808,59.975
809,65.1257
810,89.4439
811,94.5603
812,96.0627
813,99.2756
814,106.473
815,106.726
816,104.579
817,104.009
818,104.239
819,109.617
820,109.831
821,107.237
822,107.437
823,118.314
824,118.499
825,116.721
826,116.893
827,120.524
828,122.493
829,123.261
830,128.3
831,148.509
832,160.624
833,160.75
834,141.094
835,130.234
836,129.732
837,129.834
838,132.888
839,138.018
840,138.103
841,134.633
842,132.323
843,131.939
844,129.35
845,115.588
846,109.057
847,109.104
848,113.19
849,118.807
850,118.839
851,117.87
852,117.892
853,128.31
854,128.323
855,123.002
856,107.909
857,107.908
858,113.106
859,113.096
860,106.709
861,93.0882
862,83.97
863,72.3968
864,68.0782
865,65.3974
866,65.334
867,65.0237
868,63.2201
869,63.1686
870,71.1624
871,84.2448
872,84.1816
873,64.9054
874,39.755
875,37.0801
876,37.002
877,46.6037
878,52.9569
879,58.3773
880,68.677
881,68.5813
882,44.818
883,37.4643
884,37.0103
885,36.9011
886,16.6651
887,-1.53641
888,-1.65525
889,-0.745454
890,12.138
891,23.6366
892,23.5056
893,12.0282
894,7.14924
895,6.98206
896,6.07981
897,-1.19958
898,-1.34661
899,3.81878
900,11.1173
901,15.3581
902,21.6671
903,26.614
904,27.051
905,26.8893
906,20.7083
907,20.1733
908,20.0067
909,27.9633
910,42.9878
911,42.8172
912,40.6637
913,39.1306
914,38.957
915,40.1005
916,55.1671
917,80.832
918,80.6556
919,74.5028
920,74.3255
921,87.1289
922,87.2357
923,87.058
924,81.3416
925,81.1639
926,85.9694
927,97.5133
928,97.3364
929,76.0812
930,69.7859
931,69.6106
932,69.4359
933,68.9542
934,59.4539
935,59.2817
936,68.8038
937,81.655
938,90.8199
939,92.6207
940,93.0428
941,98.4971
942,114.095
943,120.526
944,125.458
945,132.485
946,132.328
947,125.626
948,116.773
949,112.392
950,109.832
951,97.9643
952,87.1948
953,84.6418
954,84.5014
955,100.498
956,118.821
957,119.115
958,122.333
959,129.693
960,130.709
961,130.586
962,130.466
963,134.537
964,145.535
965,145.423
966,134.189
967,134.083
968,167.803
969,187.887
970,197.267
971,201.055
972,200.964
973,172.457
974,157.366
975,155.671
976,145.736
977,140.593
978,140.16
979,139.216
980,130.425
981,129.172
982,129.019
983,123.757
984,123.707
985,162.506
986,166.835
987,166.796
988,159.643
989,159.611
990,181.02
991,181.383
992,181.361
993,181.343
994,183.591
995,210.613
996,218.802
997,218.798
998,188.926
999,185.606
1000,185.613
1001,221.604
1002,257.119
1003,269.306
1004,269.636
1005,275.578
1006,284.452
1007,287.239
1008,287.275
1009,282.96
1010,268.668
1011,259.174
1012,257.216
1013,254.631
1014,250.215
1015,250.273
1016,265.896
1017,269.192
1018,270.691
1019,270.761
1020,281.554
1021,293.791
1022,293.87
1023,268.989
1024,262.268
1025,262.354
1026,264.494
1027,264.585
1028,237.769
1029,214.694
1030,214.792
1031,223.716
1032,228.269
1033,228.373
1034,227.713
1035,223.162
1036,213.558
1037,213.667
1038,241.557
1039,241.67
1040,237.902
1041,238.017
1042,238.132
1043,229.116
1044,203.468
1045,203.093
1046,197.76
1047,181.815
1048,181.933
1049,191.826
1050,191.944
1051,179.596
1052,160.434
1053,147.421
1054,136.774
1055,127.177
1056,118.302
1057,110.622
1058,110.734
1059,118.215
1060,118.325
1061,110.226
1062,97.3844
1063,97.4881
1064,101.012
1065,101.176
1066,101.273
1067,110.052
1068,110.144
1069,93.849
1070,60.9698
1071,44.9547
1072,43.3272
1073,43.4027
1074,55.6044
1075,55.6724
1076,29.8053
1077,10.896
1078,10.9515
1079,22.7095
1080,46.8917
1081,46.9333
1082,25.4173
1083,25.4488
1084,34.4765
1085,39.4937
1086,39.5088
1087,35.7571
1088,26.9773
1089,18.5485
1090,10.6225
1091,3.80286
1092,3.78075
1093,14.8103
1094,24.7671
1095,27.0413
1096,26.9911
1097,13.1921
1098,-2.05082
1099,-15.4045
1100,-15.4855
1101,8.25559
1102,15.8259
1103,15.8164
1104,15.7048
1105,21.5255
1106,36.8112
1107,36.6783
1108,32.5166
1109,27.6505
1110,25.2712
1111,25.1122
1112,35.6889
1113,35.5178
1114,31.0623
1115,28.3187
1116,28.1307
1117,46.1518
1118,45.9532
1119,33.3219
1120,23.1112
1121,22.898
1122,29.0478
1123,40.5319
1124,49.6539
1125,49.4235
1126,49.2084
1127,51.9115
1128,60.1355
1129,59.9483
1130,73.329
1131,73.0774
1132,67.0255
1133,66.7681
1134,82.5305
1135,94.35
1136,94.0849
1137,93.8176
1138,107.705
1139,116.222
1140,128.096
1141,127.821
1142,109.062
1143,105.775
1144,105.496
1145,110.432
1146,110.151
1147,109.869
1148,120.579
1149,154.722
1150,154.439
1151,134.1
1152,112.273
1153,111.989
1154,125.611
1155,154.627
1156,183.353
1157,193.803
1158,193.521
1159,184.306
1160,184.025
1161,187.652
1162,190.68
1163,190.402
1164,203.085
1165,202.81
1166,177.734
1167,145.465
1168,145.196
1169,147.634
1170,147.368
1171,146.157
1172,143.213
1173,142.954
1174,155.068
1175,166.154
1176,165.902
1177,167.565
1178,173.758
1179,185.259
1180,186.343
1181,186.104
1182,205.762
1183,205.529
1184,200.42
1185,173.399
1186,170.186
1187,169.966
1188,181.675
1189,188.713
1190,188.504
1191,188.299
1192,186.96
1193,181.25
1194,159.733
1195,159.543
1196,165.373
1197,165.191
1198,151.949
1199,151.775
1200,155.261
1201,157.824
1202,157.663
1203,150.548
1204,150.396
1205,154.75
1206,176.859
1207,176.72
1208,176.46
1209,155.112
1210,149.789
1211,149.668
1212,152.749
1213,153.445
1214,153.338
1215,152.002
1216,141.353
1217,141.261
1218,160.444
1219,180.191
1220,181.597
1221,181.523
1222,166.564
1223,148.377
1224,148.263
1225,146.595
1226,124.236
1227,116.756
1228,116.717
1229,116.682
1230,115.011
1231,114.986
1232,117.806
1233,132.7
1234,154.051
1235,154.046
1236,150.234
1237,150.238
1238,171.657
1239,171.672
1240,165.734
1241,133.674
1242,122.804
1243,116.17
1244,111.512
1245,109.096
1246,109.145
1247,119.42
1248,119.477
1249,118.056
1250,103.011
1251,103.083
1252,104.998
1253,105.079
1254,102.046
1255,84.2384
1256,78.5904
1257,76.0489
1258,76.1525
1259,77.7527
1260,77.8651
1261,77.0672
1262,71.4666
1263,71.592
1264,78.0145
1265,97.9512
1266,104.944
1267,105.086
1268,94.9455
1269,91.5851
1270,91.7394
1271,106.8
1272,106.962
1273,106.951
1274,86.0194
1275,86.1931
1276,97.8491
1277,136.062
1278,136.246
1279,117.976
1280,116.102
1281,116.29
1282,101.999
1283,88.6458
1284,74.5401
1285,68.5033
1286,68.7153
1287,68.9304
1288,62.9926
1289,47.6838
1290,47.908
1291,60.5216
1292,60.7515
1293,60.9841
1294,62.1004
1295,71.2455
1296,77.0873
1297,81.9085
1298,92.5588
1299,92.8068
1300,80.6038
1301,73.5155
1302,73.7702
1303,90.8522
1304,91.1111
1305,67.8839
1306,38.2875
1307,38.552
1308,43.5345
1309,80.6735
1310,80.943
1311,62.756
1312,63.0285
1313,65.9746
1314,74.1775
1315,74.4539
1316,69.8874
1317,64.2407
1318,64.5202
1319,78.1314
1320,88.7488
1321,89.0308
1322,76.6837
1323,57.5386
1324,52.2459
1325,50.2615
1326,37.6675
1327,37.9521
1328,51.2265
1329,70.4293
1330,70.714
1331,62.3861
1332,62.6704
1333,62.9544
1334,53.7738
1335,41.5674
1336,33.4123
1337,33.6942
1338,46.5886
1339,46.8688
1340,45.2755
1341,33.824
1342,33.3176
1343,33.5934
1344,50.9843
1345,51.2574
1346,41.4348
1347,30.2168
1348,30.485
1349,38.9412
1350,55.4129
1351,63.1332
1352,63.3936
1353,51.443
1354,43.1591
1355,43.4125
1356,47.4945
1357,49.216
1358,65.641
1359,65.8838
1360,47.3804
1361,37.8676
1362,38.1014
1363,39.5324
1364,43.733
1365,43.9568
1366,17.0838
1367,14.2691
1368,14.482
1369,27.4425
1370,31.3672
1371,31.5682
1372,-7.58437
1373,-7.39183
1374,6.63585
1375,18.4576
1376,43.9418
1377,44.1173
1378,39.454
1379,39.6213
1380,37.8149
1381,35.9384
1382,36.0937
1383,37.8229
1384,37.9703
1385,37.4727
1386,35.9807
1387,36.1167
1388,36.2489
1389,29.3882
1390,29.5131
1391,50.2397
1392,50.3573
1393,43.3424
1394,36.5326
1395,18.6854
1396,18.789
1397,20.5896
1398,22.284
1399,22.3774
1400,22.4675
1401,37.3703
1402,37.4539
1403,30.3136
1404,26.9983
1405,19.0803
1406,19.1513
1407,19.2191
1408,24.9307
1409,46.4929
1410,46.5517
1411,21.5516
1412,21.6045
1413,34.7143
1414,34.7615
1415,28.2009
1416,24.9273
1417,24.0155
1418,24.0515
1419,24.0848
1420,26.3998
1421,29.4327
1422,38.4712
1423,38.4939
1424,27.4857
1425,18.9083
1426,18.9234
1427,18.9359
1428,11.8954
1429,4.6824
1430,-0.790855
1431,-0.788016
1432,27.28
1433,46.0784
1434,46.0743
1435,25.8418
1436,9.97275
1437,9.96206
1438,26.6154
1439,26.6005
1440,7.72885
1441,-0.576072
1442,-0.59693
1443,10.4678
1444,21.2713
1445,24.5993
1446,25.9929
1447,28.121
1448,35.9438
1449,37.6158
1450,37.5921
1451,37.5559
1452,49.9384
1453,49.8993
1454,49.8589
1455,50.8315
1456,55.0211
1457,54.9769
1458,34.4814
1459,34.4349
1460,31.0344
1461,30.9858
1462,30.9361
1463,54.2916
1464,62.2213
1465,62.169
1466,37.7591
1467,31.1712
1468,28.5308
1469,24.7198
1470,24.6637
1471,38.1317
1472,53.2682
1473,68.2435
1474,68.1853
1475,42.1252
1476,25.8797
1477,25.8203
1478,42.4941
1479,58.3797
1480,61.9015
1481,61.8409
1482,45.6367
1483,36.5036
1484,31.0559
1485,30.9947
1486,36.1424
1487,36.0812
1488,35.5092
1489,32.1751
1490,32.114
1491,40.4631
1492,48.1728
1493,50.5908
1494,53.0625
1495,54.9249
1496,54.865
1497,42.8002
1498,36.0634
1499,36.0045
1500,37.3892
1501,44.3399
1502,57.201
1503,57.1438
1504,38.0399
1505,37.9837
1506,37.928
1507,36.6511
1508,36.5966
1509,44.4691
1510,55.9982
1511,57.9282
1512,63.4505
1513,74.013
1514,73.9625
1515,52.7299
1516,52.681
1517,76.0386
1518,75.9913
1519,66.834
1520,66.7883
1521,66.7436
1522,52.2841
1523,50.3742
1524,42.4291
1525,25.8639
1526,23.4675
1527,23.4282
1528,23.39
1529,38.9264
1530,57.5332
1531,57.4979
1532,48.8136
1533,38.3415
1534,38.3093
1535,39.5326
1536,71.4337
1537,99.3644
1538,99.3365
1539,68.1396
1540,52.7942
1541,52.7696
1542,72.0074
1543,71.985
1544,44.9156
1545,30.2745
1546,30.2556
1547,48.0688
1548,58.944
1549,65.7053
1550,65.691
1551,46.3827
1552,43.2
1553,43.1891
1554,46.0385
1555,46.1271
1556,50.2958
1557,50.2894
1558,50.2843
1559,59.3617
1560,62.8174
1561,68.3946
1562,68.394
1563,68.3945
1564,79.6601
1565,79.6628
1566,73.0831
1567,55.2806
1568,51.8497
1569,51.8569
1570,51.8651
1571,49.9817
1572,44.0189
1573,38.5538
1574,35.1921
1575,35.2055
1576,40.3614
1577,41.604
1578,41.6204
1579,31.6879
1580,31.7062
1581,44.8305
1582,54.5248
1583,58.6655
1584,61.7488
1585,61.7716
1586,38.8358
1587,31.5344
1588,31.5598
1589,36.7554
1590,48.463
1591,48.4907
1592,25.9142
1593,25.9434
1594,30.965
1595,30.9956
1596,30.1913
1597,16.6457
1598,16.6783
1599,20.5708
1600,47.3812
1601,60.9359
1602,60.9707
1603,30.4861
1604,30.522
1605,42.7241
1606,42.7609
1607,41.6512
1608,34.1657
1609,30.7225
1610,30.7609
1611,34.7528
1612,44.4853
1613,64.3956
1614,64.4351
1615,59.4889
1616,59.5288
1617,59.5688
1618,50.9946
1619,33.5887
1620,19.6803
1621,19.7207
1622,32.501
1623,38.8652
1624,38.9055
1625,35.1062
1626,24.2276
1627,24.2675
1628,28.3309
1629,49.1114
1630,54.0818
1631,54.1207
1632,51.3041
1633,20.6885
1634,20.7264
1635,38.15
1636,38.187
1637,23.1494
1638,17.0833
1639,17.1186
1640,22.8756
1641,26.4224
1642,26.4557
1643,22.9306
1644,15.919
1645,15.9501
1646,29.3588
1647,40.4854
1648,40.5139
1649,31.4917
1650,20.2398
1651,8.0767
1652,8.10106
1653,21.7691
1654,67.4245
1655,67.4454
1656,47.7097
1657,47.7281
1658,50.2922
1659,50.3078
1660,39.5501
1661,25.2879
1662,25.2992
1663,25.3089
1664,13.3265
1665,13.333
1666,13.4265
1667,19.4963
1668,19.7131
1669,27.7426
1670,42.6873
1671,42.683
1672,22.3279
1673,17.6679
1674,22.3094
1675,26.4847
1676,39.5955
1677,39.5787
1678,39.5598
1679,40.0847
1680,46.8316
1681,46.8056
1682,29.1956
1683,18.7324
1684,18.699
1685,40.6374
1686,50.2943
1687,54.5238
1688,78.5766
1689,78.5296
1690,62.7227
1691,61.3706
1692,52.8001
1693,52.7414
1694,67.1116
1695,67.0467
1696,40.1639
1697,40.0925
1698,40.0179
1699,21.8882
1700,11.15
1701,4.03781
1702,3.94936
1703,8.75407
1704,20.9409
1705,34.7236
1706,34.6204
1707,34.5134
1708,35.9832
1709,59.1971
1710,59.0781
1711,57.207
1712,43.9643
1713,37.021
1714,25.7696
1715,15.4675
1716,15.3232
1717,44.9978
1718,63.0196
1719,62.8617
1720,33.955
1721,15.7546
1722,15.5825
1723,16.2137
1724,16.0318
1725,-1.7661
1726,-1.95804
1727,33.2158
1728,33.0136
1729,28.7877
1730,28.3089
1731,21.316
1732,-5.96453
1733,-6.19285
1734,22.3889
1735,22.1502
1736,21.9063
1737,43.8954
1738,48.7072
1739,48.4487
1740,30.2746
1741,22.9103
1742,22.6378
1743,47.8587
1744,73.7821
1745,101.098
1746,100.808
1747,91.4173
1748,84.4177
1749,64.6775
1750,25.8363
1751,25.5268
1752,102.884
1753,102.567
1754,97.4506
1755,97.1268
1756,96.7996
1757,95.7518
1758,87.3096
1759,58.84
1760,35.421
1761,35.078
1762,63.2149
1763,109.015
1764,108.663
1765,108.309
1766,114.023
1767,113.664
1768,82.8626
1769,82.4983
1770,86.8796
1771,86.8403
1772,89.2363
1773,93.275
1774,92.9893
1775,110.593
1776,122.739
1777,122.358
1778,87.6033
1779,57.5981
1780,57.211
1781,78.1858
1782,77.7954
1783,77.4034
1784,106.505
1785,106.11
1786,102.457
1787,102.06
1788,153.211
1789,152.81
1790,132.078
1791,119.056
1792,110.678
1793,110.273
1794,136.069
1795,135.662
1796,117.044
1797,63.9374
1798,63.5273
1799,64.3007
1800,65.9668
1801,69.3649
1802,82.6783
1803,82.2642
1804,83.4349
1805,110.396
1806,123.138
1807,122.721
1808,118.449
1809,106.361
1810,79.2927
1811,69.9656
1812,69.5462
1813,73.9861
1814,73.5659
1815,68.929
1816,61.532
1817,61.1107
1818,60.6387
1819,57.8473
1820,44.6737
1821,39.5642
1822,39.1414
1823,80.9695
1824,80.5462
1825,49.5838
1826,49.1601
1827,84.9727
1828,84.5486
1829,32.5168
1830,30.1478
1831,29.7234
1832,38.3545
1833,70.4731
1834,88.7295
1835,88.3047
1836,83.7839
1837,80.0934
1838,74.0032
1839,73.5782
1840,79.6172
1841,79.1921
1842,57.0479
1843,56.6228
1844,59.2114
1845,93.4354
1846,93.0103
1847,54.8032
1848,31.6595
1849,30.9687
