176.07367	286.55554
178.6769	280.11111
181.27925	280.44446
183.87926	279.88885
186.47989	285.88889
189.07965	296.22226
191.67705	301
194.27509	307.77777
196.87076	315.44446
199.46707	330.66663
202.06102	340
204.65559	345.44446
207.24931	352
209.84068	353.55554
212.43266	357.44446
215.02231	366.66666
217.61258	375.11111
220.2005	384.88889
222.78905	397.33334
225.37526	391.33334
227.96208	390.77777
230.54657	382.88892
233.13168	378
235.71445	370.66666
238.29637	356.88889
240.87891	338.55554
243.45911	330.11111
246.03993	318.66666
248.61842	314.22223
251.19754	301.55554
253.77432	285.11111
256.35025	268.44446
258.92682	254.44444
261.50104	248.11111
264.0744	238
266.64838	228.44446
269.22006	228.55556
271.79086	217.22223
274.3623	213.11111
276.93143	202.44444
279.49966	206.33331
282.06857	196.33333
284.63513	187.55556
287.20084	184.11111
289.76572	173.33334
292.33121	170.77777
294.89438	172.33333
297.4567	163.33333
300.01816	160.55556
302.58026	156.88889
305.14005	151.22223
307.69897	150.55556
310.25708	145
312.81433	142.33333
315.37219	138.33333
317.92776	136.44444
320.48248	135.33333
323.03635	135.44443
325.58939	137.88889
328.14157	139.11111
330.69293	144.88889
333.24344	150.11111
335.79456	153.66667
338.34338	155.22223
340.89139	156
343.43854	160.33333
345.98483	167.22223
348.5303	172.66667
351.07495	173.99998
353.61874	165
356.16168	159.66667
358.7038	154.66667
361.24509	146.66667
363.78552	143
366.32513	136.88889
368.86392	134.22223
371.40186	129.33333
373.93896	123.44444
376.47522	118.88889
379.01068	116.11111
381.54529	112.11111
384.07904	103.66667
386.61053	101.22222
389.14264	96.444443
391.67392	100.22222
394.20438	96.666664
396.73398	97.888885
399.26276	95.777786
401.79071	99.222221
404.31784	98.111115
406.84268	100.22222
409.36813	100
411.89279	98.444443
414.4166	98.888885
416.93958	101.11111
419.4603	94.333336
421.9816	93.222221
424.50211	93.222221
427.02179	87.555557
429.54065	88.888885
432.05722	85.444443
434.57443	82
437.09079	86.111115
439.60492	87.666672
442.11963	87.666664
444.63354	88.666672
447.1452	91.333336
449.65744	95.222221
452.16888	99.555557
454.67807	100.77778
457.18787	100.66666
459.69684	95.777779
462.20355	93.111107
464.71091	90.777779
467.21741	92.333336
469.72168	93.222221
472.22656	92.777779
474.72919	89.888893
477.23242	85.555565
479.73486	84.555557
482.23505	81.999992
484.73584	79.777779
487.23438	78.777779
489.73355	77.444443
492.23047	79.777786
494.728	75.333336
497.22327	79.222221
499.71918	82.666664
502.21283	83.888885
504.70712	86
507.19916	91.888885
509.69037	92
512.18219	89.888885
514.67181	89.222221
517.16205	87
519.65002	84.222221
522.13861	84.111115
524.62494	83.555557
527.11053	81.666664
529.59668	80.222221
532.08063	81.444443
534.56372	77.555557
537.04749	75.888893
539.52899	69.999992
542.0097	72.444443
544.49103	70.999992
546.97009	63.333332
549.44836	64.666664
551.92731	64.777779
554.40399	61.777779
556.87982	62.555553
559.35492	60.666668
561.83057	59.444447
564.30402	61.555557
566.77667	60.111111
569.24854	62.222221
571.7196	61.333332
574.19128	60.111111
576.66071	61.333336
579.12939	60.888889
581.59723	62.555557
584.06427	61.333328
586.53052	61.777779
588.99738	62
591.46204	62.666668
593.9259	66.111115
596.38892	66.888885
598.8512	66.777779
601.31268	67.555557
603.77332	70.444443
606.23315	71
608.69226	74
611.15051	73.888885
613.60803	75.777779
616.0647	79.111115
618.52057	82.111115
620.97565	85.555557
623.42999	92
625.88348	97.222221
628.33618	104.11111
630.78815	113.11111
633.23926	130.66667
635.68958	149.33333
638.13916	177.33333
640.58789	219.22223
643.03583	290.77774
645.48303	387.00003
647.92938	500.66666
650.375	657.55554
652.81842	814.66669
655.26245	916.33331
657.70563	871.77777
660.14807	711
662.58972	523.11108
665.03064	374.22223
667.4707	276.11111
669.90857	217.33333
672.34711	175.55556
674.78479	151.77777
677.22174	138.44444
679.65649	131.33333
682.09186	130.33333
684.52643	129.22223
686.96027	137.44444
689.39185	151.77777
691.8241	167.44444
694.25555	195.22223
696.68622	221.55556
699.11469	253.55556
701.54382	285.44446
703.97211	320.88889
706.39832	338.44446
708.82507	340.44446
711.24963	337.00003
713.67487	327.33334
716.09924	309.88889
718.52155	314.99997
720.9444	325.22223
723.36646	333.44446
725.78638	359.55554
728.20691	385.44446
730.62531	398.77777
733.04425	404.22223
735.46106	418.22223
737.87854	413.66666
740.29376	414.66663
742.70966	406
745.12335	376.11111
747.53772	355.88889
749.94989	334.66666
752.36267	323.33334
754.77325	298.44446
757.18451	285.66666
759.59357	270.44446
762.00189	258.88889
764.41083	247.88889
766.81757	243.66667
769.22498	228.11111
771.63019	219.33333
774.03467	216.11111
776.4397	203.77777
778.84265	197.33334
781.24481	190.55556
783.64752	184
786.04816	179.88889
788.448	174.8889
790.84845	169.55556
793.24677	172.66667
795.64435	162.66667
798.04248	159.11111
800.43848	153.77777
802.83374	156.22223
805.22821	154.77777
807.62329	151.88889
810.0163	150
812.40845	155
814.79987	152.44443
817.19055	156.11111
819.58044	157.77777
821.97095	164.11111
824.35938	168.66667
826.74695	168.11111
829.13385	174.22223
831.5199	181.88889
833.90527	184.11111
836.28986	190.44444
838.67499	190.22223
841.05804	188.55556
843.44037	194.55556
845.8219	196
848.2027	193.22223
850.5827	195.22223
852.96198	198.88889
855.34052	202.44444
857.71826	204.55556
860.09521	208.55557
862.4715	208.22223
864.84698	208.33333
867.22168	210.66667
869.59564	214.66667
871.96887	207.77777
874.34137	214.11111
876.71307	212.88889
879.08264	209.44444
881.45288	208
883.82233	207.44444
886.19098	204.55556
888.55896	200.88889
890.92615	195.22223
893.2926	192.55556
895.65826	192.11113
898.02185	195.44444
900.38605	191.22223
902.74951	196.55557
905.11218	196.55556
907.47412	193.77777
909.83398	191.22221
912.19446	192.77777
914.55414	193.77777
916.91309	190.33333
919.26996	183.66667
921.62738	183.55557
923.98407	179.55556
926.34009	173.88887
928.69391	170.88889
931.0484	173.55556
933.40216	167.44444
935.75378	166.88889
938.10602	169.55556
940.45752	162.33333
942.80688	159.88889
945.15692	160.77777
947.50482	154.55556
949.85333	152.66667
952.20111	154.77777
954.54681	144
956.89313	144.22223
959.2373	144.11111
961.58215	143.11111
963.92487	140.33333
966.26819	136.33333
968.60944	135.88889
970.95129	133.77777
973.29108	127.88889
975.63147	128.22223
977.96973	126.66666
980.30865	128.77777
982.64545	125.33334
984.98291	129.44444
987.31824	133.66667
989.65283	134.55556
991.98804	137.44443
994.32123	143
996.65497	147.44444
998.98663	149.55556
1001.3176	153.11111
1003.6491	155.55556
1005.9786	160.55556
1008.3073	162.22223
1010.6366	169.22223
1012.9639	169.11111
1015.2904	175.66667
1017.6176	175.77777
1019.9426	181.44444
1022.267	186.44444
1024.5906	187.66667
1026.9148	190.00002
1029.2369	191.33333
1031.5583	188.88889
1033.879	191.55556
1036.199	194
1038.5195	193.44444
1040.8381	193.11111
1043.1559	187.66667
1045.4729	195
1047.7892	193.44444
1050.1049	199.33333
1052.421	207.55556
1054.7351	210.77777
1057.0486	221.88887
1059.3612	230.77777
1061.6732	249
1063.9845	262.55557
1066.2949	266.33334
1068.6047	263.77777
1070.9138	265.55554
1073.2222	281.22223
1075.5298	288.22223
1077.8367	308.88889
1080.1428	310.77777
1082.4482	319.22223
1084.7531	318.55554
1087.057	318.66666
1089.3604	311.44446
1091.6628	299.11108
1093.9647	283.22223
1096.2659	265.77777
1098.5663	258
1100.866	237.33333
1103.1636	218.22223
1105.4618	202.55556
1107.7594	185.33333
1110.0562	168.44444
1112.3523	158.88889
1114.6476	148.11111
1116.9423	144.44444
1119.2349	140.33333
1121.5282	136.66667
1123.8207	133.55556
1126.1124	131.66666
1128.4022	126
1130.6925	126.44445
1132.9822	123.55556
1135.2711	118.88889
1137.5581	116.11111
1139.8456	115.00001
1142.1323	115.55556
1144.4171	115.22222
1146.7025	116.22222
1148.9872	115.33333
1151.2698	120.66666
1153.553	120.11111
1155.8354	124.33334
1158.116	123.11111
1160.3971	125.33334
1162.6775	127.11111
1164.9558	126.99999
1167.2349	130.66667
1169.5117	128.33333
1171.7893	127.11111
1174.0648	130.55554
1176.3409	133.77777
1178.6151	129.55556
1180.8898	138
1183.1625	139.66667
1185.4358	139.22223
1187.7072	141
1189.979	139.77777
1192.2489	142.66669
1194.5193	141.44444
1196.7878	141.77777
1199.0555	139.55556
1201.324	138.66667
1203.5903	134.11111
1205.8572	136.88889
1208.1222	140.00002
1210.3865	140.33333
1212.6512	137.88889
1214.9141	142
1217.1763	139.22223
1219.439	136.22223
1221.6997	137.22223
1223.9597	137.55554
1226.2203	134.22223
1228.479	137.33333
1230.7369	144.33333
1232.9941	146.22223
1235.252	151.55556
1237.5078	154.11111
1239.7629	158.66667
1242.0175	165.33333
1244.2711	165.66667
1246.5255	169
1248.7778	171.55556
1251.0295	163.8889
1253.2804	159.88889
1255.5308	156.88889
1257.7803	157.88889
1260.0292	165.44444
1262.2773	177.22221
1264.526	184.66667
1266.7728	196.55557
1269.0189	202.44444
1271.2643	207.22223
1273.509	210.11111
1275.7531	207.44444
1277.9963	208.22223
1280.2389	215.33334
1282.4808	222.44444
1284.722	242.66667
1286.9626	257.11111
1289.2025	273.11111
1291.4417	302.55554
1293.6802	331.55554
1295.9178	372.88889
1298.1537	410.66669
1300.3901	445.88889
1302.6259	456.55554
1304.8608	453
1307.0951	422.55554
1309.3287	385.11115
1311.5618	354.33337
1313.7941	322
1316.0243	290.55554
1318.2552	274.11111
1320.4854	251.33333
1322.715	229.88889
1324.9437	211.11111
1327.1707	195
1329.3981	177.55556
1331.6249	166.66667
1333.8496	162
1336.0751	156
1338.2998	157.55556
1340.5238	158.88889
1342.7458	165.33333
1344.9685	160.11111
1347.1906	155.66667
1349.4105	149.88887
1351.6312	145.11111
1353.8511	139.55556
1356.0691	134.22223
1358.2877	135.22223
1360.5043	139.22223
1362.7216	137.55556
1364.9368	143.55554
1367.1526	148.88889
1369.3678	154.11111
1371.5811	154
1373.7948	146.55556
1376.0067	136.66667
1378.2191	130.33333
1380.4297	124.11111
1382.6407	121.22222
1384.8499	119.22222
1387.0583	120.33334
1389.2675	118.44444
1391.4746	117.22222
1393.6823	122.00001
1395.8881	126.66666
1398.0945	128.88889
1400.2988	130
1402.5026	132.77777
1404.7069	139.22223
1406.9093	144.66667
1409.1111	151.66667
1411.3134	157.55556
1413.5138	167.66667
1415.7135	190.22223
1417.9137	205.88889
1420.1121	238.22223
1422.3098	281.22223
1424.5068	350.33334
1426.7043	419.66666
1428.9	503.55554
1431.0951	581.88885
1433.2894	670.77777
1435.483	715.55554
1437.6774	748.11108
1439.8696	723.55554
1442.0613	673.55554
1444.2523	600.88892
1446.4426	556.66669
1448.6322	504.22226
1450.8212	473.33334
1453.0095	443.66666
1455.1985	417.22223
1457.3854	377.33334
1459.5718	356.55554
1461.7573	319.22223
1463.9424	293.22223
1466.1267	264.77777
1468.3103	242.77777
1470.4933	224.00002
1472.6757	195.00002
1474.8573	185.44444
1477.0382	167.66667
1479.2186	163.33333
1481.3982	153.77777
1483.5773	150.55556
1485.7543	145.66667
1487.932	138.77779
1490.109	140.22223
1492.2854	132.77777
1494.4611	129.77777
1496.6361	127.88889
1498.8104	130.44444
1500.9841	122.88889
1503.1559	121.66666
1505.3284	119.11111
1507.5	116.66666
1509.6711	121.88889
1511.8402	118.33334
1514.01	114
1516.1791	114.11111
1518.3475	112.77778
1520.514	111
1522.6812	115.33334
1524.8477	112.77778
1527.0134	113.11111
1529.1774	112.33334
1531.3418	111.55556
1533.5056	109.77778
1535.6676	106.88889
1537.8301	108.44444
1539.9907	111.77777
1542.1519	109
1544.3125	110.33334
1546.4711	105.33334
1548.6304	108.88889
1550.7877	107.66666
1552.9457	107.22222
1555.1017	107.66666
1557.2583	106
1559.4131	108
1561.5684	105.88889
1563.7218	108.44444
1565.8759	106.77778
1568.028	100.88889
1570.1807	107.55556
1572.3315	104.11111
1574.4829	106.33334
1576.6324	106.11111
1578.7814	105.33334
1580.9308	104.44444
1583.0784	104.66666
1585.2266	105.11111
1587.3728	102.33334
1589.5184	103.33334
1591.6647	105.88889
1593.8091	106.44444
1595.9528	106.66666
1598.0958	103.88889
1600.2394	104.11111
1602.3812	107.44444
1604.5223	100.88889
1606.6627	103.66666
1608.8038	102.33334
1610.943	107.00001
1613.0815	102.88889
1615.2194	103.44444
1617.3566	102.88889
1619.4945	101.88889
1621.6304	102.88889
1623.7657	103.00001
1625.9004	105.33334
1628.0344	102
1630.1677	102.11111
1632.3005	103.22222
1634.4326	102.55556
1636.5641	102.66666
1638.6962	104.44444
1640.8263	102.66666
1642.9558	103.88889
1645.0847	102.55556
1647.213	101.88889
1649.3406	104.77778
1651.4675	106.33334
1653.5939	102.44445
1655.7184	101.11111
1657.8434	105.88889
1659.9679	103.66666
1662.0917	102.77778
1664.2147	104.22222
1666.3373	103.66666
1668.4591	103.77778
1670.5803	106.88889
1672.7009	105.77778
1674.8197	105.33334
1676.939	103.88889
1679.0577	107
1681.1758	108
1683.2932	107
1685.4099	106.55556
1687.5249	109.44444
1689.6404	105.88889
1691.7552	103.66666
1693.8695	106.22222
1695.9819	105.00001
1698.0948	107.11111
1700.2073	106.88889
1702.3177	106.22222
1704.4288	104.88889
1706.5393	108.11111
1708.6478	107
1710.7571	106.55556
1712.8644	107.11111
1714.9723	105.11111
1717.0796	106
1719.1851	105
1721.2911	104.66666
1723.3953	107.77778
1725.5001	105.22222
1727.603	107.11111
1729.7065	106.33334
1731.8082	105.33333
1733.9105	107
1736.0109	105.88889
1738.1119	105.44444
1740.2111	106.33334
1742.3108	104.22222
1744.4087	107.33334
1746.5072	108
1748.6039	105.44444
1750.7	105.11111
1752.7965	103.44444
1754.8914	108.55555
1756.9867	107.77778
1759.0802	110.88889
1761.1732	105
1763.2655	109.00001
1765.3584	109.11111
1767.4493	104.55556
1769.5398	107.55556
1771.6309	105.22222
1773.72	106.44444
1775.8086	107.55555
1777.8965	108.44445
1779.985	108.66666
1782.0717	105.77778
1784.1577	104.11111
1786.2432	109.88889
1788.328	109.11111
1790.4122	111.11111
1792.4971	109
1794.58	108.33334
1796.6624	110.22222
1798.744	105
1800.8252	107.55556
1802.9056	107
1804.9856	106.33334
1807.0648	111.22222
1809.1434	109.44444
1811.2214	109.22222
1813.2988	110.88889
1815.3756	108.88889
1817.4518	108.88889
1819.5273	108.55556
1821.6023	111.22222
1823.6766	107.33334
1825.7504	106.11111
1827.8235	109.44444
1829.8959	107.22223
1831.9678	110
1834.0391	111.11111
1836.1085	111.99999
1838.1785	111
1840.2479	114.44444
1842.3167	107.22221
1844.3849	108.88889
1846.4524	113.44444
1848.5182	111.33334
1850.5846	109.11111
1852.6503	111.22222
1854.7155	109.55556
1856.7787	108.00001
1858.8427	111.11111
1860.9059	113.55556
1862.9674	114
1865.0295	108.22222
1867.0909	109.22222
1869.1506	113.66666
1871.2108	109.22222
1873.2705	110.55556
1875.3282	108.44444
1877.3867	109.22222
1879.4446	108.88889
1881.5005	110.33334
1883.5571	110.66666
1885.6119	109.55556
1887.6672	107
1889.7208	111.77777
1891.775	111.88889
1893.8274	111.55556
1895.8804	110.88889
1897.9315	114.22222
1899.9833	110.11111
1902.0332	108.88889
1904.0837	112.11111
1906.1324	108.88889
1908.1818	113.88889
1910.2294	111.77778
1912.2762	109.66666
1914.3237	114.55556
1916.3695	113.55556
1918.4147	112.33334
1920.4603	109.55556
1922.5043	115.66666
1924.5476	111.66666
1926.5914	113.55555
1928.6335	113.88889
1930.675	109.11111
1932.7159	114.77778
1934.7574	114.22222
1936.7971	115.44444
1938.8363	113.88889
1940.8748	113.22222
1942.9139	113.77779
1944.9512	113.55556
1946.9879	114.33334
1949.024	112.33334
1951.0596	111.22222
1953.0945	114.11111
1955.1288	109.88889
1957.1625	109.55556
1959.1968	113
1961.2294	111
1963.2612	115.88889
1965.2926	113.55556
1967.3234	114.44444
1969.3535	116.88889
1971.3831	115
1973.412	111.99999
1975.4403	113.44445
1977.4681	118.44444
1979.4952	116.22222
1981.5219	111.33334
1983.5479	114.33334
1985.572	112.66666
1987.5968	114.22222
1989.621	114.66666
1991.6447	116.22222
1993.6676	115.77779
1995.6901	111.11111
1997.7119	114.11111
1999.7319	113.11111
2001.7526	114.11111
2003.7726	114.55556
2005.7921	116.22223
2007.8109	111.66666
2009.8281	113.77778
2011.8458	114.44444
2013.8629	113.55556
2015.8782	114.44444
2017.8942	116.44444
2019.9094	115.33334
2021.9242	117.11111
2023.9373	118.00001
2025.9508	117.22222
2027.9625	116.33334
2029.975	117.66666
2031.9868	119
2033.9968	116.88889
2036.0074	116.22222
2038.0164	118.11111
2040.0258	117.44444
2042.0334	118.55556
2044.0417	116.44444
2046.0494	117.11111
2048.0554	118.99999
2050.062	117.11111
2052.0667	117.88889
2054.0708	118.22222
2056.0757	119.22222
2058.0786	121.11111
2060.0823	118.77778
2062.0842	119.33334
2064.0867	120.77777
2066.0872	115.88889
2068.0874	115.44444
2070.0881	120.66666
2072.0869	117.11111
2074.0854	119
2076.0842	116.77778
2078.0815	116
2080.0781	119.11111
2082.0742	117.33334
2084.0708	121.77778
2086.0657	119.88889
2088.0601	115.66666
2090.0537	117.33333
2092.0479	121.11111
2094.0405	117.88889
2096.0325	120.88889
2098.0239	121.88889
2100.0146	117.44444
2102.0049	117.77778
2103.9946	120.33334
2105.9849	121.44444
2107.9734	119.22222
2109.9614	120.44444
2111.9487	121.77778
2113.9355	122.11111
2115.9216	123.22222
2117.9072	119.22222
2119.8923	121.44445
2121.8767	124.33334
2123.8606	122.66666
2125.844	123.22222
2127.8267	123.11111
2129.8088	121.22222
2131.7905	122.88889
2133.7715	122.33334
2135.751	125.99999
2137.7307	126.11111
2139.71	121.11111
2141.6887	124
2143.667	123
2145.6445	127.22222
2147.6216	122.33334
2149.5969	122.55556
2151.5728	125.33334
2153.5481	125.77778
2155.5227	124.55556
2157.4958	127.11111
2159.4692	126
2161.4424	123.33334
2163.4148	128
2165.3855	127.66666
2167.3569	125.33334
2169.3276	127.77778
2171.2966	128.44444
2173.2661	127.11111
2175.2351	128.44444
2177.2026	128.55554
2179.1704	129.88889
2181.1365	130.22223
2183.1033	132.1111
2185.0684	129.88887
2187.0339	129.77777
2188.999	130.11111
2190.9624	130.44444
2192.9263	126.77778
2194.8884	127.44444
2196.8501	127.66667
2198.8125	125.55556
2200.7729	124.55556
2202.7339	126.66667
2204.6934	125.44444
2206.6533	124.88889
2208.6116	125.33334
2210.5693	124.55556
2212.5276	124.22222
2214.4841	126.33333
2216.4402	121.33334
2218.3967	126.22222
2220.3516	128.77777
2222.3059	128.44444
2224.2607	129.00002
2226.2139	126.44444
2228.1665	127.44444
2230.1187	125.11111
2232.0713	125.33334
2234.0222	126
2235.9727	128
2237.9224	129.66667
2239.8718	124.33334
2241.8206	128.66667
2243.7698	129.66667
2245.7173	128.44444
2247.6643	128.66667
2249.6108	128.55556
2251.5566	127.22222
2253.502	127.22222
2255.4468	123.66667
2257.3911	124.22222
2259.3347	125.44444
2261.2778	127.11111
2263.2205	129.55556
2265.1624	125.55556
2267.1038	130
2269.0447	129.33333
2270.9851	126.77778
2272.9248	126.66667
2274.864	125.88889
2276.8027	129.33333
2278.7407	130.33333
2280.6785	126.77778
2282.6143	129.77777
2284.5508	126.88889
2286.4866	129.66667
2288.4219	130
2290.3567	126.55556
2292.2898	135.66669
2294.2234	129.22223
2296.1565	130.77777
2298.0891	132.33333
2300.02	131
2301.9514	128.33333
2303.8823	130.11111
2305.8127	128.66667
2307.7415	130.66667
2309.6707	129.66667
2311.5994	129.88889
2313.5264	133.22223
2315.4541	133.77777
2317.3799	127.55556
2319.3064	130.66667
2321.2324	132.55557
2323.1567	131.66667
2325.0815	132.88889
2327.0046	129.55554
2328.9285	133.22223
2330.8506	133.77777
2332.7732	133
2334.6943	132.66667
2336.6157	130.99998
2338.5356	134.22223
2340.4561	129.55556
2342.375	136.66667
2344.2932	134.11111
2346.2119	135.11111
2348.1292	134.44444
2350.0459	131.77777
2351.9629	134
2353.8784	137.44444
2355.7935	133.77777
2357.709	133.44444
2359.6228	137.66667
2361.5361	133.22223
2363.4502	136.22223
2365.3623	136.33333
2367.2742	135.11111
2369.1853	133.11111
2371.0959	136.66667
2373.0071	137.88889
2374.9165	136.88889
2376.8257	137.55554
2378.7341	137.33331
2380.6418	135.66669
2382.5493	140.66667
2384.4561	136
2386.3635	141.66667
2388.2693	140.33333
2390.1746	138.44444
2392.0791	141.55554
2393.9832	138.55556
2395.8867	140
2397.7898	139.77779
2399.6924	145
2401.5942	142.44444
2403.4956	139.77777
2405.3965	143.44443
2407.2969	142.22223
2409.1956	145.44443
2411.095	145
2412.9937	143.33333
2414.8918	145.11111
2416.7896	144.22223
2418.6865	143.77777
2420.583	143.44443
2422.478	146.44444
2424.3735	148.44444
2426.2686	148.11111
2428.1628	146.66666
2430.0569	149.77777
2431.949	147.33333
2433.8418	147.33331
2435.7341	150.33333
2437.6248	146.33333
2439.5161	151.11111
2441.4067	152.55556
2443.2957	150.44444
2445.1853	152.22223
