176.07367	280.33334
178.6769	279.44446
181.27925	276.77777
183.87926	281.11108
186.47989	287.33331
189.07965	286.77777
191.67705	301.11111
194.27509	309
196.87076	321.66669
199.46707	323.44446
202.06102	336.77774
204.65559	343.22226
207.24931	352.66666
209.84068	356.44446
212.43266	359.55554
215.02231	362.33334
217.61258	378.66666
220.2005	383.88889
222.78905	384.22223
225.37526	394.22223
227.96208	388.33337
230.54657	388
233.13168	374.11115
235.71445	368.88889
238.29637	358.44446
240.87891	341
243.45911	335.88889
246.03993	324.88889
248.61842	305.88889
251.19754	301.7778
253.77432	281.44446
256.35025	275.55554
258.92682	259.88889
261.50104	247.33333
264.0744	237.77777
266.64838	226.33333
269.22006	223.44444
271.79086	211.55556
274.3623	206.88887
276.93143	203.77777
279.49966	196.88889
282.06857	194.11111
284.63513	187
287.20084	180.8889
289.76572	170.88889
292.33121	170.33331
294.89438	165.66667
297.4567	161
300.01816	156.77777
302.58026	155.22223
305.14005	152.11111
307.69897	145.33333
310.25708	146.33333
312.81433	139.66667
315.37219	138.44443
317.92776	136.66667
320.48248	138.88889
323.03635	135.11111
325.58939	135.11111
328.14157	139.55556
330.69293	142.44444
333.24344	146.22223
335.79456	150.11111
338.34338	154.88889
340.89139	157.33333
343.43854	157.88889
345.98483	165.11111
348.5303	168.66667
351.07495	169.8889
353.61874	163.11111
356.16168	155.55557
358.7038	149
361.24509	141.44444
363.78552	139.22221
366.32513	134.55554
368.86392	134.44444
371.40186	127.11111
373.93896	122.66666
376.47522	119.44444
379.01068	113.33334
381.54529	105.22222
384.07904	103.22222
386.61053	99
389.14264	98.111107
391.67392	93.333336
394.20438	91.222221
396.73398	92.999992
399.26276	95.555557
401.79071	94.666664
404.31784	98.666664
406.84268	97
409.36813	94.222221
411.89279	93.888885
414.4166	95.666664
416.93958	96.555557
419.4603	92.777779
421.9816	90.333336
424.50211	90.777771
427.02179	86.888885
429.54065	85.666664
432.05722	83.444443
434.57443	85.222221
437.09079	83.111115
439.60492	83.555557
442.11963	86.777779
444.63354	85.777779
447.1452	93
449.65744	90.666664
452.16888	97.666664
454.67807	99.111107
457.18787	96.555557
459.69684	94.333336
462.20355	91.666656
464.71091	90.111115
467.21741	90.222221
469.72168	91.999992
472.22656	89.666664
474.72919	84.777779
477.23242	85.666656
479.73486	81.888885
482.23505	79.444443
484.73584	77.111107
487.23438	77.111115
489.73355	76.111115
492.23047	77.222221
494.728	74.444443
497.22327	79.777779
499.71918	78.111115
502.21283	83.000008
504.70712	82.55555
507.19916	83.888885
509.69037	91.333336
512.18219	89.666664
514.67181	85.888885
517.16205	85.666656
519.65002	82.777786
522.13861	80.888885
524.62494	80.555557
527.11053	80.555557
529.59668	80.777779
532.08063	76.555557
534.56372	75.444443
537.04749	73.777779
539.52899	71.111107
542.0097	71
544.49103	66.111115
546.97009	65.111115
549.44836	63.333328
551.92731	61.333332
554.40399	59.444443
556.87982	60.333332
559.35492	61.111111
561.83057	59.222225
564.30402	59.666668
566.77667	58.888889
569.24854	58.666668
571.7196	58.333332
574.19128	57.555557
576.66071	59
579.12939	57.555553
581.59723	59.555557
584.06427	61
586.53052	58.111111
588.99738	60.222221
591.46204	61.555557
593.9259	63.333332
596.38892	61.444443
598.8512	66.888885
601.31268	66.222221
603.77332	65.222221
606.23315	66.777779
608.69226	70.888885
611.15051	73.111115
613.60803	74.555557
616.0647	77.555565
618.52057	79.888885
620.97565	81.333336
623.42999	87.777779
625.88348	96
628.33618	98.666664
630.78815	115.11111
633.23926	129
635.68958	147.55556
638.13916	172.88889
640.58789	221.88887
643.03583	291.33334
645.48303	378.77777
647.92938	500.44446
650.375	662.44446
652.81842	809.55554
655.26245	916.22223
657.70563	868.99994
660.14807	712
662.58972	524.66675
665.03064	371.33334
667.4707	269.22223
669.90857	209.22223
672.34711	170.11111
674.78479	150.44446
677.22174	139.55556
679.65649	128.44444
682.09186	127.55556
684.52643	128.55556
686.96027	133.66667
689.39185	150.33333
691.8241	172
694.25555	193.00002
696.68622	217
699.11469	250.66667
701.54382	283.11111
703.97211	322.77777
706.39832	339.55557
708.82507	339.88889
711.24963	333.44446
713.67487	308.77777
716.09924	307.22223
718.52155	308.77777
720.9444	322.11111
723.36646	341.33334
725.78638	363
728.20691	377.77777
730.62531	387.11111
733.04425	398.33334
735.46106	413.11111
737.87854	410.33334
740.29376	407.55554
742.70966	394
745.12335	381.77777
747.53772	358
749.94989	337.22223
752.36267	320.44446
754.77325	301.22223
757.18451	285.55554
759.59357	267.66666
762.00189	251.22223
764.41083	245.11111
766.81757	240.33331
769.22498	231.33333
771.63019	220.33333
774.03467	210.77777
776.4397	201.33333
778.84265	192.55556
781.24481	186.22223
783.64752	181
786.04816	177.22223
788.448	176.88889
790.84845	168.66666
793.24677	162.44443
795.64435	161.11111
798.04248	154.11111
800.43848	157.22223
802.83374	152.44444
805.22821	153.55556
807.62329	147
810.0163	152.33333
812.40845	152.33333
814.79987	153.44444
817.19055	157
819.58044	152.77777
821.97095	159.66667
824.35938	167.22223
826.74695	169.33333
829.13385	169.55556
831.5199	176.77777
833.90527	182.11111
836.28986	185.66667
838.67499	188.77777
841.05804	191.55556
843.44037	193.55554
845.8219	191
848.2027	193.77777
850.5827	194.77777
852.96198	195.11113
855.34052	197.88889
857.71826	208.33333
860.09521	202.66667
862.4715	203.77777
864.84698	210.44444
867.22168	213.77777
869.59564	212.77777
871.96887	208.44444
874.34137	207.77777
876.71307	204.66667
879.08264	207.44444
881.45288	207.11111
883.82233	199.11111
886.19098	201.55557
888.55896	196.88889
890.92615	193.11111
893.2926	195.11111
895.65826	192.88889
898.02185	192.22223
900.38605	188.22223
902.74951	190.88889
905.11218	193.44444
907.47412	194.33333
909.83398	189.66667
912.19446	194.11111
914.55414	189.22223
916.91309	184
919.26996	186.99998
921.62738	177.33333
923.98407	177.55556
926.34009	169.66667
928.69391	170.44444
931.0484	168.66667
933.40216	166.44444
935.75378	166.22223
938.10602	163.88889
940.45752	161.55556
942.80688	163.33333
945.15692	158.33333
947.50482	150.88889
949.85333	149.22223
952.20111	146.33333
954.54681	144.77777
956.89313	143.66669
959.2373	140
961.58215	142.55556
963.92487	136.66669
966.26819	133.77777
968.60944	133.33333
970.95129	128.55557
973.29108	127.33334
975.63147	127.33334
977.96973	123.33334
980.30865	128.88889
982.64545	126.55556
984.98291	128.33333
987.31824	131.44444
989.65283	136.11111
991.98804	136.77777
994.32123	139.44444
996.65497	144
998.98663	145.11111
1001.3176	154.77779
1003.6491	156.22223
1005.9786	155.22223
1008.3073	162.33333
1010.6366	164.55554
1012.9639	169.44443
1015.2904	174.33333
1017.6176	176.33334
1019.9426	179.66667
1022.267	181.77777
1024.5906	183.77777
1026.9148	189.77779
1029.2369	189.22223
1031.5583	196.66669
1033.879	192.88889
1036.199	192.88889
1038.5195	190.66667
1040.8381	189.44444
1043.1559	191
1045.4729	189.44444
1047.7892	189.77777
1050.1049	197.55554
1052.421	201.66667
1054.7351	210.22223
1057.0486	218.77779
1059.3612	236.33333
1061.6732	244.77777
1063.9845	263.77777
1066.2949	267.77777
1068.6047	262.11111
1070.9138	267.33334
1073.2222	276.88889
1075.5298	291.55554
1077.8367	301
1080.1428	313.66666
1082.4482	317
1084.7531	312.44446
1087.057	310.11111
1089.3604	312.77777
1091.6628	293.22223
1093.9647	280.33334
1096.2659	263.33334
1098.5663	252.33333
1100.866	236.44444
1103.1636	212.33333
1105.4618	199.55556
1107.7594	182.66667
1110.0562	172.77777
1112.3523	154.55556
1114.6476	153.11111
1116.9423	139.77777
1119.2349	141.55556
1121.5282	136.77777
1123.8207	135.55556
1126.1124	128.77777
1128.4022	128.77777
1130.6925	125.55555
1132.9822	122.22223
1135.2711	118.88889
1137.5581	115.66666
1139.8456	115.11111
1142.1323	114.11111
1144.4171	116.33334
1146.7025	115.44444
1148.9872	117
1151.2698	119.11111
1153.553	118.77778
1155.8354	123.77778
1158.116	120.77778
1160.3971	121.44444
1162.6775	124.66666
1164.9558	126.22222
1167.2349	126.44444
1169.5117	123.66666
1171.7893	127.66666
1174.0648	127.66666
1176.3409	132.11111
1178.6151	131.66667
1180.8898	134.44444
1183.1625	133.11111
1185.4358	136.88889
1187.7072	137.66667
1189.979	137.44444
1192.2489	139.22223
1194.5193	139.66667
1196.7878	139.55556
1199.0555	140.44443
1201.324	137.55556
1203.5903	133.44444
1205.8572	139
1208.1222	139.22223
1210.3865	137.88889
1212.6512	140.11111
1214.9141	136.55556
1217.1763	133.77777
1219.439	133.77777
1221.6997	134.22223
1223.9597	133.77777
1226.2203	135.1111
1228.479	134.77777
1230.7369	138.88889
1232.9941	144.77777
1235.252	150.11113
1237.5078	154
1239.7629	157.11111
1242.0175	162.22223
1244.2711	168.22223
1246.5255	168.22223
1248.7778	163.11111
1251.0295	166.33333
1253.2804	157.33333
1255.5308	155.33333
1257.7803	157.44444
1260.0292	163.66669
1262.2773	174.88889
1264.526	186.88887
1266.7728	196.33333
1269.0189	201.33333
1271.2643	202.77777
1273.509	210
1275.7531	208.77777
1277.9963	206.66667
1280.2389	213.77777
1282.4808	223
1284.722	239.88889
1286.9626	260.22223
1289.2025	277.99997
1291.4417	301.66663
1293.6802	330.7778
1295.9178	372.00003
1298.1537	414.22223
1300.3901	447.11111
1302.6259	460
1304.8608	447.33334
1307.0951	425.33334
1309.3287	383.77777
1311.5618	350.33334
1313.7941	311.66666
1316.0243	291.66666
1318.2552	265.22223
1320.4854	243.55556
1322.715	226.77777
1324.9437	211.33333
1327.1707	191.55556
1329.3981	175
1331.6249	163.55556
1333.8496	156
1336.0751	154.22223
1338.2998	160.55556
1340.5238	164.11111
1342.7458	162.66669
1344.9685	161.77777
1347.1906	151.66667
1349.4105	146.44444
1351.6312	144.88887
1353.8511	142.55556
1356.0691	131.11111
1358.2877	136.11111
1360.5043	136
1362.7216	136.33334
1364.9368	145
1367.1526	149.33334
1369.3678	151.66667
1371.5811	150.88889
1373.7948	139.66667
1376.0067	132.44444
1378.2191	129.22223
1380.4297	122.33334
1382.6407	120
1384.8499	118.77778
1387.0583	113.77778
1389.2675	117.11111
1391.4746	118.77778
1393.6823	124.33334
1395.8881	122.33334
1398.0945	124.11111
1400.2988	129.66667
1402.5026	129.77777
1404.7069	135.44444
1406.9093	141.22223
1409.1111	145.55556
1411.3134	158.66669
1413.5138	167.77777
1415.7135	182.55556
1417.9137	207.22223
1420.1121	240.11111
1422.3098	284.33334
1424.5068	341.66666
1426.7043	425.22223
1428.9	510.55554
1431.0951	591.44446
1433.2894	670.55554
1435.483	708.66669
1437.6774	750.22223
1439.8696	725.77777
1442.0613	673
1444.2523	609.88892
1446.4426	548.22223
1448.6322	506.11115
1450.8212	463.88885
1453.0095	442.33334
1455.1985	413.55554
1457.3854	380.44446
1459.5718	353.44446
1461.7573	318.11115
1463.9424	294.66666
1466.1267	265
1468.3103	238.44444
1470.4933	206.77777
1472.6757	197.22223
1474.8573	181.88889
1477.0382	168.8889
1479.2186	164.22223
1481.3982	152.88889
1483.5773	153.33333
1485.7543	144.88889
1487.932	138.33333
1490.109	137
1492.2854	135
1494.4611	132.11111
1496.6361	128.55556
1498.8104	123
1500.9841	121.44444
1503.1559	119.11111
1505.3284	121.66666
1507.5	116.77777
1509.6711	118
1511.8402	114.88889
1514.01	114.44444
1516.1791	114.11111
1518.3475	112.33334
1520.514	111
1522.6812	111.11111
1524.8477	112.55556
1527.0134	108.44444
1529.1774	111.22222
1531.3418	110
1533.5056	107.55556
1535.6676	104.66666
1537.8301	104.88889
1539.9907	106.33333
1542.1519	105.11111
1544.3125	106.33334
1546.4711	106.88889
1548.6304	106.22222
1550.7877	105.88889
1552.9457	106.33334
1555.1017	105.44444
1557.2583	103.22222
1559.4131	105
1561.5684	108.55556
1563.7218	104.66666
1565.8759	102.77778
1568.028	102.55556
1570.1807	101.44444
1572.3315	103.66666
1574.4829	102.33334
1576.6324	106.66666
1578.7814	103.11111
1580.9308	103.55556
1583.0784	99
1585.2266	103.33334
1587.3728	103.11111
1589.5184	103
1591.6647	102.44444
1593.8091	102.66666
1595.9528	103.11111
1598.0958	102.77777
1600.2394	104.44444
1602.3812	103.77778
1604.5223	103.22222
1606.6627	103.11111
1608.8038	105
1610.943	102.77778
1613.0815	105.99999
1615.2194	103.55556
1617.3566	102.22222
1619.4945	104.44444
1621.6304	101.66666
1623.7657	100.44444
1625.9004	101.66666
1628.0344	101
1630.1677	100.11111
1632.3005	102.33334
1634.4326	101.11111
1636.5641	103.11111
1638.6962	102.44444
1640.8263	101
1642.9558	100.11111
1645.0847	104.77778
1647.213	103
1649.3406	101.66666
1651.4675	102.77778
1653.5939	103.11111
1655.7184	103.33334
1657.8434	105.22222
1659.9679	101.44445
1662.0917	103.11111
1664.2147	103.22222
1666.3373	101.55556
1668.4591	104.33334
1670.5803	107.33334
1672.7009	102.44444
1674.8197	102.66666
1676.939	105.11111
1679.0577	102.44444
1681.1758	105.44444
1683.2932	102.22222
1685.4099	101.77778
1687.5249	103
1689.6404	104.22222
1691.7552	105.44444
1693.8695	102.44444
1695.9819	103.44444
1698.0948	104.77778
1700.2073	104.11111
1702.3177	104.33334
1704.4288	103.33334
1706.5393	108.44445
1708.6478	104.44444
1710.7571	100.77778
1712.8644	104.33334
1714.9723	106.77778
1717.0796	106.33334
1719.1851	105.22222
1721.2911	104.44444
1723.3953	104.22223
1725.5001	105.55556
1727.603	102.99999
1729.7065	107.77777
1731.8082	104.44444
1733.9105	102.55556
1736.0109	106.55556
1738.1119	102.33334
1740.2111	103.22222
1742.3108	105.88889
1744.4087	103.66666
1746.5072	107.11111
1748.6039	102.55556
1750.7	105.33334
1752.7965	105.11111
1754.8914	102
1756.9867	103.44444
1759.0802	107.66666
1761.1732	105.77778
1763.2655	101.44444
1765.3584	106
1767.4493	105.66666
1769.5398	104.88889
1771.6309	107.44444
1773.72	105.55556
1775.8086	107.55556
1777.8965	102.44444
1779.985	100.77778
1782.0717	105.22222
1784.1577	110.00001
1786.2432	106.44445
1788.328	105
1790.4122	105.11111
1792.4971	103.22222
1794.58	108
1796.6624	103.77779
1798.744	108
1800.8252	103.22222
1802.9056	104.77778
1804.9856	103.66666
1807.0648	105.55556
1809.1434	106.11111
1811.2214	106.66666
1813.2988	109
1815.3756	106
1817.4518	109
1819.5273	105.88889
1821.6023	107.66666
1823.6766	108.88889
1825.7504	108.77778
1827.8235	105.99999
1829.8959	104.55556
1831.9678	106.11111
1834.0391	108.44444
1836.1085	109.66666
1838.1785	106.22222
1840.2479	106.55556
1842.3167	107.33334
1844.3849	107.33333
1846.4524	103.44444
1848.5182	111
1850.5846	107
1852.6503	103.11111
1854.7155	106.44445
1856.7787	108.44444
1858.8427	106.55556
1860.9059	109.55556
1862.9674	109.22222
1865.0295	109.33334
1867.0909	108.00001
1869.1506	107.11111
1871.2108	108.22222
1873.2705	106.66666
1875.3282	108.77778
1877.3867	106
1879.4446	111.77778
1881.5005	110.55556
1883.5571	107.88889
1885.6119	108.44444
1887.6672	109.22223
1889.7208	110.55555
1891.775	109.11111
1893.8274	108.66666
1895.8804	109.66666
1897.9315	113.22222
1899.9833	107.11111
1902.0332	111.88889
1904.0837	109.44444
1906.1324	111.33334
1908.1818	108.55556
1910.2294	110.66666
1912.2762	110.33334
1914.3237	108.77778
1916.3695	111.11111
1918.4147	112.55556
1920.4603	110.88889
1922.5043	112.11111
1924.5476	111
1926.5914	111.77778
1928.6335	112.44444
1930.675	109.44444
1932.7159	112.11111
1934.7574	110.44444
1936.7971	113.66666
1938.8363	111.44444
1940.8748	109.77778
1942.9139	113.44444
1944.9512	113.22222
1946.9879	111.11111
1949.024	114.33334
1951.0596	111.44444
1953.0945	113.44444
1955.1288	113.55556
1957.1625	114.88889
1959.1968	108.11111
1961.2294	111.77779
1963.2612	111.44444
1965.2926	113
1967.3234	110.55556
1969.3535	110.44444
1971.3831	112.55556
1973.412	109.77778
1975.4403	113
1977.4681	111.44444
1979.4952	114.33334
1981.5219	112.22222
1983.5479	115.22222
1985.572	111.88889
1987.5968	115.77778
1989.621	111.11111
1991.6447	112.55556
1993.6676	112.99999
1995.6901	112.66666
1997.7119	111.33334
1999.7319	111.77778
2001.7526	114.66666
2003.7726	111.77778
2005.7921	113.00001
2007.8109	114
2009.8281	110.44444
2011.8458	113.33334
2013.8629	113
2015.8782	113.55556
2017.8942	117
2019.9094	111.66666
2021.9242	115.22221
2023.9373	117.33334
2025.9508	116.11111
2027.9625	115.22223
2029.975	116.33334
2031.9868	112.22222
2033.9968	113.33334
2036.0074	116.88889
2038.0164	113.33334
2040.0258	114
2042.0334	117.11111
2044.0417	115.88889
2046.0494	117.22222
2048.0554	115.55556
2050.062	116.66666
2052.0667	116.44444
2054.0708	113.99999
2056.0757	115.44444
2058.0786	116.22223
2060.0823	113.77778
2062.0842	115.33334
2064.0867	118.66666
2066.0872	116.77778
2068.0874	116.44444
2070.0881	117.22222
2072.0869	118.77778
2074.0854	115.77778
2076.0842	113
2078.0815	118.22222
2080.0781	115.22222
2082.0742	116.88889
2084.0708	115.22222
2086.0657	120.77778
2088.0601	119
2090.0537	119.88889
2092.0479	120.77778
2094.0405	117.55556
2096.0325	116.22222
2098.0239	118.66666
2100.0146	115.77779
2102.0049	122.11111
2103.9946	118.33334
2105.9849	120.33334
2107.9734	117
2109.9614	119.88889
2111.9487	119.88889
2113.9355	117.66666
2115.9216	120
2117.9072	118.22222
2119.8923	118.11111
2121.8767	118.55556
2123.8606	118.77778
2125.844	122.22222
2127.8267	121
2129.8088	122.88889
2131.7905	118.44445
2133.7715	121
2135.751	117.22222
2137.7307	120.66666
2139.71	124.66666
2141.6887	123.33334
2143.667	123.55556
2145.6445	121.33334
2147.6216	123.44444
2149.5969	124.11111
2151.5728	124.66667
2153.5481	122.44444
2155.5227	124.44444
2157.4958	122.22222
2159.4692	125.77778
2161.4424	126.33334
2163.4148	125.11111
2165.3855	125.44444
2167.3569	128.33334
2169.3276	124.55556
2171.2966	126.11111
2173.2661	125.11111
2175.2351	127.55556
2177.2026	123.44444
2179.1704	126.88889
2181.1365	126.77778
2183.1033	128
2185.0684	125.77778
2187.0339	126.44444
2188.999	130.88889
2190.9624	127.55556
2192.9263	125.66666
2194.8884	126.55556
2196.8501	124.11111
2198.8125	124.55555
2200.7729	126.11111
2202.7339	125.66666
2204.6934	128.33333
2206.6533	126.22222
2208.6116	121.33334
2210.5693	123.88889
2212.5276	126.99998
2214.4841	126.22222
2216.4402	127.88889
2218.3967	123.33334
2220.3516	125.33334
2222.3059	126.88889
2224.2607	123.88889
2226.2139	125.44444
2228.1665	127.55556
2230.1187	125.44444
2232.0713	126.33334
2234.0222	122.22222
2235.9727	126.44445
2237.9224	127.66666
2239.8718	124.22221
2241.8206	124.11111
2243.7698	123.55556
2245.7173	126.88889
2247.6643	126.33334
2249.6108	129.11111
2251.5566	129
2253.502	124.33334
2255.4468	123.22222
2257.3911	125.66666
2259.3347	125.11111
2261.2778	128.33333
2263.2205	123.66666
2265.1624	125.55556
2267.1038	125.88889
2269.0447	126.88889
2270.9851	130.11111
2272.9248	125.66666
2274.864	125.44444
2276.8027	127.33334
2278.7407	128.55556
2280.6785	124.66666
2282.6143	126.77778
2284.5508	131.88889
2286.4866	128.55556
2288.4219	131.88889
2290.3567	125.77779
2292.2898	129.66667
2294.2234	126.55555
2296.1565	130.88889
2298.0891	128.22223
2300.02	131.66667
2301.9514	126
2303.8823	128.44443
2305.8127	127.77777
2307.7415	128
2309.6707	129.44444
2311.5994	128.66667
2313.5264	128.33333
2315.4541	130.88889
2317.3799	133.88889
2319.3064	129.22223
2321.2324	131.11111
2323.1567	130.22223
2325.0815	131
2327.0046	132.33333
2328.9285	134.22223
2330.8506	133.88889
2332.7732	132.22223
2334.6943	132.88889
2336.6157	129.55556
2338.5356	127.11111
2340.4561	131.55556
2342.375	133.22223
2344.2932	131.55556
2346.2119	130.33333
2348.1292	133.66669
2350.0459	131.66666
2351.9629	131.22223
2353.8784	131.88889
2355.7935	136.33334
2357.709	132.44444
2359.6228	138.66667
2361.5361	135.22223
2363.4502	127
2365.3623	133
2367.2742	133.44444
2369.1853	136.66667
2371.0959	138.55556
2373.0071	136.77777
2374.9165	136.88889
2376.8257	133.88889
2378.7341	135.33333
2380.6418	135.88889
2382.5493	136.22223
2384.4561	137.44444
2386.3635	138.11111
2388.2693	139.66667
2390.1746	140.44444
2392.0791	141.44444
2393.9832	141.55556
2395.8867	142.33333
2397.7898	138.44444
2399.6924	141
2401.5942	142
2403.4956	140.88889
2405.3965	138.88889
2407.2969	140.66669
2409.1956	143.55556
2411.095	140.55556
2412.9937	145.55556
2414.8918	145.55556
2416.7896	145.22223
2418.6865	145.88889
2420.583	144.99998
2422.478	147.44444
2424.3735	147.55554
2426.2686	144.44444
2428.1628	146.77777
2430.0569	147.22223
2431.949	148.33333
2433.8418	148
2435.7341	145.88889
2437.6248	146.44444
2439.5161	147.33333
2441.4067	151.33333
2443.2957	151.88889
2445.1853	151.66667
