176.07367	285.44446
178.6769	281.44446
181.27925	277.66666
183.87926	282.44443
186.47989	281.11111
189.07965	291.44446
191.67705	298.22223
194.27509	309
196.87076	321.66666
199.46707	333.66666
202.06102	335.2222
204.65559	350.44446
207.24931	355.77777
209.84068	355.66666
212.43266	357.77774
215.02231	368.33334
217.61258	376.77777
220.2005	385.77777
222.78905	387.22223
225.37526	393.77777
227.96208	396.11111
230.54657	389.11111
233.13168	378.55554
235.71445	367.55557
238.29637	358.33331
240.87891	349
243.45911	336.44446
246.03993	319.55554
248.61842	311.88889
251.19754	297.44446
253.77432	287.33334
256.35025	271
258.92682	266.44446
261.50104	246.22223
264.0744	239.55556
266.64838	231.66666
269.22006	222.11111
271.79086	222.00002
274.3623	211.11111
276.93143	207.22223
279.49966	205.55556
282.06857	196.66669
284.63513	192
287.20084	187.55556
289.76572	178
292.33121	176.11111
294.89438	167.77777
297.4567	163.33333
300.01816	158.44444
302.58026	161.55556
305.14005	154.44444
307.69897	148.55556
310.25708	145.33333
312.81433	146.44444
315.37219	141.11111
317.92776	137.77777
320.48248	136.88889
323.03635	135.8889
325.58939	138.55556
328.14157	143.11113
330.69293	143.77777
333.24344	146.77777
335.79456	152.8889
338.34338	155
340.89139	161.77777
343.43854	157.44444
345.98483	164.88889
348.5303	170.22223
351.07495	178.77777
353.61874	165
356.16168	156.55556
358.7038	149.55556
361.24509	146.55556
363.78552	138.77777
366.32513	136.55556
368.86392	131.33333
371.40186	127.77778
373.93896	125.66666
376.47522	118.44444
379.01068	116.55556
381.54529	112.22222
384.07904	107.66667
386.61053	100.77778
389.14264	101
391.67392	96.111115
394.20438	94.555557
396.73398	95.444443
399.26276	97.888885
401.79071	99.444443
404.31784	99
406.84268	100.33334
409.36813	97.222221
411.89279	96.777779
414.4166	97.555557
416.93958	99
419.4603	94.444443
421.9816	96.333336
424.50211	89.111115
427.02179	91.888885
429.54065	89.000008
432.05722	86.222221
434.57443	87
437.09079	85.555557
439.60492	85.888885
442.11963	87.333336
444.63354	91.444443
447.1452	91.222221
449.65744	95
452.16888	96
454.67807	99.222221
457.18787	98.222221
459.69684	97.777779
462.20355	92.444443
464.71091	90.444443
467.21741	93
469.72168	92.333328
472.22656	91.111115
474.72919	88.888885
477.23242	87.555557
479.73486	83.888885
482.23505	80.555557
484.73584	83.444443
487.23438	77.444443
489.73355	78.111115
492.23047	76.666664
494.728	78.666664
497.22327	80
499.71918	81.444443
502.21283	85.55555
504.70712	87.666656
507.19916	89.222221
509.69037	91.333336
512.18219	91.333336
514.67181	88.222221
517.16205	86.111107
519.65002	87
522.13861	83.222221
524.62494	84.444443
527.11053	81.222229
529.59668	82.333336
532.08063	80.444443
534.56372	77.444443
537.04749	77.555557
539.52899	73.666664
542.0097	71.333336
544.49103	68.777771
546.97009	66.555557
549.44836	67.555557
551.92731	63.555557
554.40399	62.666668
556.87982	61.777779
559.35492	60.222225
561.83057	61
564.30402	62.888889
566.77667	61.666668
569.24854	58.444447
571.7196	64.777779
574.19128	61.666668
576.66071	62.111111
579.12939	62.555557
581.59723	62.666668
584.06427	62.444443
586.53052	62.111111
588.99738	61
591.46204	66
593.9259	63.777779
596.38892	66
598.8512	67.555557
601.31268	71.777771
603.77332	66.666664
606.23315	70.44445
608.69226	75.111115
611.15051	72.666664
613.60803	77.111115
616.0647	82.222221
618.52057	80.777779
620.97565	84.999992
623.42999	91.888885
625.88348	98.777779
628.33618	107.77778
630.78815	115.22222
633.23926	130.44444
635.68958	150
638.13916	180.1111
640.58789	232.88889
643.03583	300.11111
645.48303	386.55554
647.92938	518.00006
650.375	660.22229
652.81842	824.55554
655.26245	923.66669
657.70563	862.66669
660.14807	707.88892
662.58972	515
665.03064	366
667.4707	270.77777
669.90857	211.22223
672.34711	175.22223
674.78479	149.55556
677.22174	140.33333
679.65649	136.33331
682.09186	130.88887
684.52643	134.11111
686.96027	138.88889
689.39185	154.22223
691.8241	173.33333
694.25555	197.88889
696.68622	229.88889
699.11469	253.77777
701.54382	290.11111
703.97211	323.11111
706.39832	343.11111
708.82507	343.44446
711.24963	339.66666
713.67487	316.33334
716.09924	313.88885
718.52155	315.11111
720.9444	328.22223
723.36646	336.33334
725.78638	360.88889
728.20691	380.33337
730.62531	390.66666
733.04425	402.77774
735.46106	415.66666
737.87854	414
740.29376	410.88889
742.70966	392.33331
745.12335	377
747.53772	364
749.94989	339.22223
752.36267	327.66666
754.77325	301.22223
757.18451	286.55554
759.59357	269.88889
762.00189	263.33334
764.41083	253.88889
766.81757	237.88889
769.22498	227.66667
771.63019	223
774.03467	212.33333
776.4397	209.11111
778.84265	196
781.24481	189.22223
783.64752	185.88889
786.04816	177.22223
788.448	179.33333
790.84845	170.22223
793.24677	167.33333
795.64435	163.77777
798.04248	160
800.43848	156.44446
802.83374	155.33333
805.22821	154
807.62329	155.44444
810.0163	152
812.40845	151.55556
814.79987	157.22223
817.19055	158.11111
819.58044	160
821.97095	164.33333
824.35938	167.77777
826.74695	172.66667
829.13385	177.88889
831.5199	181.66667
833.90527	183.88889
836.28986	190.88889
838.67499	195.44443
841.05804	193.55556
843.44037	197.33333
845.8219	198.22223
848.2027	196.22223
850.5827	195.55556
852.96198	200.77777
855.34052	201.33331
857.71826	204.88889
860.09521	208.33333
862.4715	214.8889
864.84698	213
867.22168	210.44444
869.59564	211.44444
871.96887	210.66667
874.34137	208.66667
876.71307	210
879.08264	211.44444
881.45288	208.77777
883.82233	209.77777
886.19098	205.88887
888.55896	202.22221
890.92615	194.66669
893.2926	195.55556
895.65826	195.33333
898.02185	194.55556
900.38605	197.11111
902.74951	190.55556
905.11218	194.22223
907.47412	195.33334
909.83398	196
912.19446	191.44446
914.55414	192.22223
916.91309	188.55556
919.26996	184.44444
921.62738	187
923.98407	175.66667
926.34009	175.88889
928.69391	170.55556
931.0484	169.55556
933.40216	170.88889
935.75378	165.66667
938.10602	166.44446
940.45752	164.77779
942.80688	162.44446
945.15692	159.55557
947.50482	159.55556
949.85333	159.11111
952.20111	150.22223
954.54681	146.55556
956.89313	146.44444
959.2373	144.88889
961.58215	140.77777
963.92487	140.77777
966.26819	135.77779
968.60944	137.11111
970.95129	135.11111
973.29108	128.88889
975.63147	129.77777
977.96973	128.88889
980.30865	128.88889
982.64545	127.33334
984.98291	130.11111
987.31824	134.44446
989.65283	136.22223
991.98804	141.77777
994.32123	141.44444
996.65497	146.66667
998.98663	146.55556
1001.3176	153.55556
1003.6491	156.44444
1005.9786	159.00002
1008.3073	166.88889
1010.6366	169.55556
1012.9639	173.55554
1015.2904	171.88889
1017.6176	182.66667
1019.9426	184.55557
1022.267	182.77777
1024.5906	187.33333
1026.9148	190
1029.2369	196.66667
1031.5583	193.8889
1033.879	195.11111
1036.199	198
1038.5195	187.77777
1040.8381	192.44444
1043.1559	191.11111
1045.4729	193.22221
1047.7892	196.11113
1050.1049	199.00002
1052.421	203.11113
1054.7351	212.88889
1057.0486	221.55556
1059.3612	240.00002
1061.6732	253.11111
1063.9845	262.33334
1066.2949	267
1068.6047	267.66666
1070.9138	270.88889
1073.2222	273.77774
1075.5298	291.77777
1077.8367	302.77777
1080.1428	316.66666
1082.4482	315.44443
1084.7531	317.33331
1087.057	314.66666
1089.3604	311.77777
1091.6628	302.88892
1093.9647	280.88889
1096.2659	269.88889
1098.5663	251.33333
1100.866	234.88889
1103.1636	219.22223
1105.4618	202.22223
1107.7594	180.66667
1110.0562	170.55556
1112.3523	159.33333
1114.6476	151.77777
1116.9423	143.22223
1119.2349	143.55556
1121.5282	143.00002
1123.8207	137.44444
1126.1124	132.66667
1128.4022	129.77777
1130.6925	127.55556
1132.9822	121.33334
1135.2711	117.55556
1137.5581	117
1139.8456	115.66666
1142.1323	118.22222
1144.4171	115
1146.7025	118
1148.9872	117.33334
1151.2698	117.55556
1153.553	121.66666
1155.8354	123.77778
1158.116	123.77778
1160.3971	125.11111
1162.6775	125.33334
1164.9558	128.77777
1167.2349	127
1169.5117	129.11111
1171.7893	131.77777
1174.0648	130.77777
1176.3409	131.88889
1178.6151	137.33331
1180.8898	135.77779
1183.1625	137.44444
1185.4358	139.44446
1187.7072	142.22223
1189.979	138.77777
1192.2489	144.11111
1194.5193	139.55556
1196.7878	140
1199.0555	142.77777
1201.324	138.22223
1203.5903	134
1205.8572	136.22223
1208.1222	136.55556
1210.3865	136.22223
1212.6512	140.33333
1214.9141	140.88887
1217.1763	136.55556
1219.439	136.44444
1221.6997	136.77777
1223.9597	136
1226.2203	137.44444
1228.479	137.11113
1230.7369	144.55557
1232.9941	146.88889
1235.252	153.55556
1237.5078	158.66669
1239.7629	157.22223
1242.0175	165.88887
1244.2711	169.66667
1246.5255	173.88889
1248.7778	171.33333
1251.0295	166.66667
1253.2804	159.33333
1255.5308	157
1257.7803	160.11111
1260.0292	165.77777
1262.2773	178.11113
1264.526	190
1266.7728	199.55554
1269.0189	204.88889
1271.2643	209.22223
1273.509	210.22223
1275.7531	210.33333
1277.9963	210.55556
1280.2389	212.66667
1282.4808	226.22223
1284.722	239.77777
1286.9626	260.88889
1289.2025	278.55554
1291.4417	305.55554
1293.6802	334
1295.9178	368.2222
1298.1537	416.55554
1300.3901	452.55554
1302.6259	464.44446
1304.8608	453.55554
1307.0951	429.55554
1309.3287	383
1311.5618	346.88889
1313.7941	322.77777
1316.0243	284.11108
1318.2552	274.11111
1320.4854	252.55557
1322.715	226.33333
1324.9437	211
1327.1707	188.22223
1329.3981	175.33333
1331.6249	163.11111
1333.8496	158.11111
1336.0751	154.77777
1338.2998	155
1340.5238	163.22223
1342.7458	163.1111
1344.9685	161.44444
1347.1906	155.88889
1349.4105	149.33333
1351.6312	144.44444
1353.8511	140.66667
1356.0691	137.44444
1358.2877	137.1111
1360.5043	140
1362.7216	141.55556
1364.9368	143.77777
1367.1526	150.11111
1369.3678	151.88889
1371.5811	154.88889
1373.7948	143.22223
1376.0067	135.11111
1378.2191	129.22223
1380.4297	125.33334
1382.6407	121
1384.8499	118.55556
1387.0583	120.66666
1389.2675	122.44444
1391.4746	120.88889
1393.6823	123.77778
1395.8881	125.44444
1398.0945	126
1400.2988	130.00002
1402.5026	138.44444
1404.7069	137.22223
1406.9093	145.44444
1409.1111	152.44443
1411.3134	160.11111
1413.5138	168.66667
1415.7135	188.33333
1417.9137	210.55556
1420.1121	240.77777
1422.3098	288.11111
1424.5068	349.88889
1426.7043	432.33334
1428.9	508.33331
1431.0951	601.66669
1433.2894	667.55554
1435.483	735.77777
1437.6774	742.5556
1439.8696	725.55554
1442.0613	669.77777
1444.2523	612.66669
1446.4426	555
1448.6322	504.55554
1450.8212	472.55554
1453.0095	445.11108
1455.1985	416.88889
1457.3854	384.11111
1459.5718	356.22223
1461.7573	325.33334
1463.9424	295.55554
1466.1267	268.77777
1468.3103	237.11111
1470.4933	219.66667
1472.6757	203.33333
1474.8573	180.66667
1477.0382	176.55556
1479.2186	163.77779
1481.3982	156.8889
1483.5773	153.33333
1485.7543	146
1487.932	140.77777
1490.109	136.1111
1492.2854	132
1494.4611	132.22223
1496.6361	131.88889
1498.8104	127
1500.9841	125.55556
1503.1559	119.22222
1505.3284	120
1507.5	122.11111
1509.6711	117.33334
1511.8402	117.33334
1514.01	115.77778
1516.1791	114.33334
1518.3475	118.44444
1520.514	116.55556
1522.6812	112.11111
1524.8477	113.44444
1527.0134	113.88889
1529.1774	108.22222
1531.3418	107.66666
1533.5056	111.22222
1535.6676	109
1537.8301	110.66666
1539.9907	108
1542.1519	108.77778
1544.3125	108.22222
1546.4711	109.55556
1548.6304	109.22222
1550.7877	106.66666
1552.9457	110.22222
1555.1017	110.11111
1557.2583	107.55556
1559.4131	110.11111
1561.5684	109.22221
1563.7218	106.11111
1565.8759	107
1568.028	105.22222
1570.1807	108.88889
1572.3315	107.55556
1574.4829	107.11111
1576.6324	104.66666
1578.7814	107.44444
1580.9308	108.44444
1583.0784	108.66666
1585.2266	101.88889
1587.3728	104.44444
1589.5184	107.33334
1591.6647	107.44444
1593.8091	108.55556
1595.9528	103.22222
1598.0958	103.55556
1600.2394	106.77778
1602.3812	105.11111
1604.5223	104.66666
1606.6627	106
1608.8038	100.77778
1610.943	105.77778
1613.0815	104.55556
1615.2194	102
1617.3566	105.88889
1619.4945	107.66666
1621.6304	104.77778
1623.7657	105.66666
1625.9004	104.77778
1628.0344	104.33334
1630.1677	103.88889
1632.3005	102.55556
1634.4326	105.66666
1636.5641	101.99999
1638.6962	105.22222
1640.8263	106.11111
1642.9558	104.11111
1645.0847	105.22222
1647.213	102.88889
1649.3406	103.44444
1651.4675	108.55556
1653.5939	104.66666
1655.7184	105
1657.8434	104.11111
1659.9679	104.22222
1662.0917	106.44444
1664.2147	102.99999
1666.3373	101.44444
1668.4591	105.11111
1670.5803	105.22222
1672.7009	107.44444
1674.8197	103.66666
1676.939	100.33334
1679.0577	105.77778
1681.1758	109.22222
1683.2932	106.33334
1685.4099	107.88889
1687.5249	105.44444
1689.6404	106.66666
1691.7552	105.11111
1693.8695	111.77778
1695.9819	104.55555
1698.0948	106.00001
1700.2073	108.33334
1702.3177	105.33334
1704.4288	105.55556
1706.5393	107.77778
1708.6478	106.11111
1710.7571	106.66666
1712.8644	108.66666
1714.9723	104.88889
1717.0796	104.77778
1719.1851	103.77778
1721.2911	106.33334
1723.3953	109.44444
1725.5001	107.11111
1727.603	105.33334
1729.7065	107.55556
1731.8082	103.44445
1733.9105	109.66666
1736.0109	106.22222
1738.1119	108
1740.2111	107.66666
1742.3108	112.66666
1744.4087	108.44444
1746.5072	111.22221
1748.6039	108.22222
1750.7	104.88889
1752.7965	110.33334
1754.8914	110.55556
1756.9867	108.00001
1759.0802	106.11111
1761.1732	108.88889
1763.2655	110.33334
1765.3584	109.33333
1767.4493	106.55556
1769.5398	105.55556
1771.6309	105.88889
1773.72	110
1775.8086	105.44444
1777.8965	111.11111
1779.985	109.22222
1782.0717	107.88889
1784.1577	109
1786.2432	108.55556
1788.328	106.77778
1790.4122	112
1792.4971	111.22222
1794.58	111
1796.6624	108.77778
1798.744	108.88889
1800.8252	108.22222
1802.9056	105.66667
1804.9856	110.44444
1807.0648	109.33334
1809.1434	110.22222
1811.2214	111.88889
1813.2988	110.77778
1815.3756	109.55556
1817.4518	110.77778
1819.5273	110.55555
1821.6023	107.66666
1823.6766	107.88889
1825.7504	109.66666
1827.8235	106.66666
1829.8959	110.88889
1831.9678	109.88889
1834.0391	112.88889
1836.1085	113.88889
1838.1785	110
1840.2479	108.33334
1842.3167	111.77777
1844.3849	107.11111
1846.4524	106.33334
1848.5182	108.66666
1850.5846	112.88889
1852.6503	111.77778
1854.7155	110.44444
1856.7787	109.33334
1858.8427	108
1860.9059	106.77778
1862.9674	109.66666
1865.0295	110.33334
1867.0909	105.44444
1869.1506	110.44444
1871.2108	110.44444
1873.2705	111.44444
1875.3282	110.55556
1877.3867	111.11111
1879.4446	113.55556
1881.5005	111.77778
1883.5571	109.55556
1885.6119	110.88889
1887.6672	109.11111
1889.7208	110.88889
1891.775	114
1893.8274	108.66666
1895.8804	112.22222
1897.9315	110.11111
1899.9833	112.88889
1902.0332	110.33334
1904.0837	110.33334
1906.1324	113.77778
1908.1818	112.88889
1910.2294	108.11111
1912.2762	115.33334
1914.3237	113.33333
1916.3695	115
1918.4147	114.11111
1920.4603	111.55556
1922.5043	111.11111
1924.5476	114.66666
1926.5914	114
1928.6335	112.44445
1930.675	115.22222
1932.7159	116.77778
1934.7574	115.88889
1936.7971	116.88889
1938.8363	113.33334
1940.8748	116.55556
1942.9139	116.22223
1944.9512	114
1946.9879	113.22223
1949.024	114.44444
1951.0596	114.22222
1953.0945	112
1955.1288	115.77778
1957.1625	115.55556
1959.1968	116.88889
1961.2294	112.77778
1963.2612	115.33334
1965.2926	111.11111
1967.3234	113.55556
1969.3535	114.22222
1971.3831	111.55556
1973.412	116.55556
1975.4403	112.11111
1977.4681	116
1979.4952	114.22222
1981.5219	113.11111
1983.5479	113.33334
1985.572	112.66666
1987.5968	114.66666
1989.621	116
1991.6447	114.55556
1993.6676	113.33334
1995.6901	113.88889
1997.7119	115.55556
1999.7319	116.22222
2001.7526	113.77778
2003.7726	116.88889
2005.7921	114.77778
2007.8109	114.44444
2009.8281	113.66666
2011.8458	117.77778
2013.8629	116.66666
2015.8782	114
2017.8942	119.66666
2019.9094	117.22222
2021.9242	120.22222
2023.9373	120
2025.9508	116.22223
2027.9625	119.11111
2029.975	116.77778
2031.9868	118.44444
2033.9968	119
2036.0074	119.33334
2038.0164	116.66666
2040.0258	117.33334
2042.0334	116.66666
2044.0417	117.33334
2046.0494	116
2048.0554	119.55556
2050.062	119.55556
2052.0667	119
2054.0708	118.66666
2056.0757	117.66667
2058.0786	116.66666
2060.0823	118.66666
2062.0842	117.44444
2064.0867	117.11111
2066.0872	118
2068.0874	117.44444
2070.0881	120.22222
2072.0869	119.11111
2074.0854	119
2076.0842	117.55556
2078.0815	123.22222
2080.0781	119.88889
2082.0742	122.44444
2084.0708	122
2086.0657	119.44444
2088.0601	120.22222
2090.0537	121.33334
2092.0479	121.22222
2094.0405	118.88889
2096.0325	119.44444
2098.0239	120.55556
2100.0146	119.77778
2102.0049	121.22222
2103.9946	123.33334
2105.9849	122.77778
2107.9734	123.11111
2109.9614	120.11111
2111.9487	122.77778
2113.9355	116.88889
2115.9216	123.66667
2117.9072	119.33334
2119.8923	121.11111
2121.8767	122.66666
2123.8606	123.88889
2125.844	123.11111
2127.8267	124.88889
2129.8088	122.66666
2131.7905	123.22222
2133.7715	124.44444
2135.751	122.44444
2137.7307	125.77778
2139.71	124.11111
2141.6887	118.66666
2143.667	123
2145.6445	124.66666
2147.6216	122.77778
2149.5969	127.88889
2151.5728	124
2153.5481	126.11111
2155.5227	123.77778
2157.4958	126.66666
2159.4692	128.33333
2161.4424	127
2163.4148	126.77778
2165.3855	129.33333
2167.3569	126.44444
2169.3276	128.66667
2171.2966	129.33333
2173.2661	127.33334
2175.2351	128.11111
2177.2026	127.33334
2179.1704	127.88889
2181.1365	128.77777
2183.1033	129.88889
2185.0684	128.66667
2187.0339	128.77777
2188.999	132.66667
2190.9624	129
2192.9263	127.44444
2194.8884	128.55556
2196.8501	129.77777
2198.8125	128.44444
2200.7729	127.11111
2202.7339	125.55556
2204.6934	125.88889
2206.6533	126
2208.6116	130.11111
2210.5693	127.44444
2212.5276	128.55554
2214.4841	124.88889
2216.4402	126.22222
2218.3967	128
2220.3516	124.33334
2222.3059	129.33333
2224.2607	125.11111
2226.2139	127.33334
2228.1665	127.44444
2230.1187	132.55557
2232.0713	126.88889
2234.0222	129.88889
2235.9727	125.11111
2237.9224	128.22223
2239.8718	129.88889
2241.8206	135.22223
2243.7698	126.33334
2245.7173	124.44445
2247.6643	132.66667
2249.6108	132.55556
2251.5566	128.44444
2253.502	128.55556
2255.4468	133.33333
2257.3911	127.33334
2259.3347	127.33333
2261.2778	125.55556
2263.2205	129
2265.1624	128.66667
2267.1038	127.22223
2269.0447	127.22222
2270.9851	126.22222
2272.9248	128.77777
2274.864	128.77777
2276.8027	128.55556
2278.7407	127.55556
2280.6785	129.33333
2282.6143	126.33334
2284.5508	128.77777
2286.4866	128.33333
2288.4219	128
2290.3567	129.77777
2292.2898	133.77777
2294.2234	128.88887
2296.1565	129.66669
2298.0891	130
2300.02	130.22223
2301.9514	132
2303.8823	129.66667
2305.8127	133.66667
2307.7415	134.11111
2309.6707	134
2311.5994	129.55556
2313.5264	131.11113
2315.4541	133.22221
2317.3799	131.8889
2319.3064	133.66667
2321.2324	133.55556
2323.1567	129.66667
2325.0815	132.44444
2327.0046	135.55556
2328.9285	134.33333
2330.8506	137
2332.7732	134.88887
2334.6943	134.66667
2336.6157	133.88889
2338.5356	131.55556
2340.4561	133.55556
2342.375	133.22221
2344.2932	134.55556
2346.2119	133
2348.1292	132.77777
2350.0459	134.55556
2351.9629	134.33333
2353.8784	134.66667
2355.7935	135.66667
2357.709	138.22221
2359.6228	133.66667
2361.5361	139
2363.4502	138.11111
2365.3623	134.55556
2367.2742	137.77779
2369.1853	136.44444
2371.0959	139.44443
2373.0071	137.11113
2374.9165	138.55556
2376.8257	138.66667
2378.7341	135.55556
2380.6418	140.8889
2382.5493	137.22223
2384.4561	143.66667
2386.3635	139
2388.2693	140.22223
2390.1746	140.44444
2392.0791	137.44444
2393.9832	140.33333
2395.8867	142.99998
2397.7898	139.88889
2399.6924	142.11111
2401.5942	141.88889
2403.4956	142.88889
2405.3965	145.77777
2407.2969	143.33333
2409.1956	140
2411.095	143.44444
2412.9937	140.77777
2414.8918	144.11111
2416.7896	146.33333
2418.6865	145.66667
2420.583	146
2422.478	147.44444
2424.3735	149.33333
2426.2686	149.88887
2428.1628	152.33333
2430.0569	151
2431.949	150.22223
2433.8418	152.88887
2435.7341	152.33333
2437.6248	147.66667
2439.5161	150.33333
2441.4067	154.11111
2443.2957	150
2445.1853	151.44446
