176.074	103.556
178.677	105.778
181.279	100.778
183.879	101.333
186.48	100
189.08	99.3333
191.677	99.7778
194.275	100.333
196.871	97.3333
199.467	97
202.061	97
204.656	99.3333
207.249	97.3333
209.841	97.5556
212.433	101.444
215.022	101.778
217.613	106.889
220.201	104
222.789	106.556
225.375	113.556
227.962	108.778
230.547	118.111
233.132	126.778
235.714	128.222
238.296	134.556
240.879	138.444
243.459	146.667
246.04	152.333
248.618	161.222
251.198	165.556
253.774	173
256.35	164.778
258.927	160.444
261.501	151.778
264.074	149.556
266.648	141.889
269.22	137.889
271.791	141
274.362	135
276.931	134.778
279.5	130.778
282.069	124.778
284.635	116
287.201	108.889
289.766	102.889
292.331	94.2222
294.894	88.8889
297.457	84.3333
300.018	82.3333
302.58	78.7778
305.14	75.7778
307.699	72.8889
310.257	74.1111
312.814	71.8889
315.372	70.3333
317.928	68.5556
320.482	70.4444
323.036	69.6667
325.589	70.7778
328.142	69.2222
330.693	70.3333
333.243	70.2222
335.795	71.6667
338.343	73.2222
340.891	75.1111
343.439	75.7778
345.985	79.4444
348.53	85.5556
351.075	85.2222
353.619	90.5556
356.162	95.4445
358.704	96
361.245	90.1111
363.786	84.3333
366.325	74.6667
368.864	69
371.402	64.7778
373.939	61.4444
376.475	61.3333
379.011	58.5556
381.545	56.4444
384.079	54
386.611	54.8889
389.143	51.1111
391.674	51.5556
394.204	53
396.734	51.2222
399.263	51.1111
401.791	51.3333
404.318	49.8889
406.843	49.2222
409.368	51.3333
411.893	51.7778
414.417	49.7778
416.94	52.2222
419.46	52.4444
421.982	52.4444
424.502	49.1111
427.022	49.7778
429.541	54
432.057	54.1111
434.574	55.8889
437.091	55.4444
439.605	57.3333
442.12	58.3333
444.634	62.6667
447.145	62.3333
449.657	62.1111
452.169	63.3333
454.678	62.5556
457.188	59.6667
459.697	59.1111
462.204	54.5556
464.711	55.4444
467.217	55.6667
469.722	54.3333
472.227	53.6667
474.729	53.3333
477.232	51.1111
479.735	49
482.235	49.7778
484.736	48.8889
487.234	49.1111
489.734	50.6667
492.23	46.5556
494.728	48.6667
497.223	49.5556
499.719	51.5556
502.213	54.6667
504.707	56
507.199	57.1111
509.69	59
512.182	59.6667
514.672	58.5556
517.162	55.8889
519.65	57
522.139	59.1111
524.625	56.4444
527.111	55.5556
529.597	55.7778
532.081	53
534.564	51.7778
537.047	50.1111
539.529	49.7778
542.01	47.6667
544.491	46.1111
546.97	46
549.448	45.3333
551.927	43.2222
554.404	42.8889
556.88	42.6667
559.355	42.1111
561.831	41.5556
564.304	41
566.777	40.7778
569.249	40.7778
571.72	41.3333
574.191	41.4444
576.661	40.8889
579.129	42.1111
581.597	40.8889
584.064	41.2222
586.531	42.2222
588.997	42.5556
591.462	42.6667
593.926	39.6667
596.389	43.7778
598.851	43.7778
601.313	41.8889
603.773	45
606.233	46
608.692	44.2222
611.151	46.5556
613.608	46.3333
616.065	45.3333
618.521	47.6667
620.976	50.5556
623.43	51.8889
625.883	54.1111
628.336	56.2222
630.788	58.7778
633.239	64
635.69	68.7778
638.139	79.6667
640.588	92
643.036	116.667
645.483	140.222
647.929	180.444
650.375	222.667
652.818	263.778
655.262	289.778
657.706	281.778
660.148	243.778
662.59	190.111
665.031	146.333
667.471	107
669.909	92.5556
672.347	75.4444
674.785	69.5556
677.222	61.7778
679.656	63.3333
682.092	63.1111
684.526	63.3333
686.96	65.1111
689.392	70.8889
691.824	75.3333
694.256	81.4444
696.686	90.1111
699.115	98.8889
701.544	110.889
703.972	119.222
706.398	121.889
708.825	128.111
711.25	124.889
713.675	119.778
716.099	112.778
718.522	114.111
720.944	117.222
723.366	119.778
725.786	129.444
728.207	137.778
730.625	136
733.044	141.778
735.461	143.333
737.879	147.889
740.294	144.778
742.71	146.222
745.123	140.667
747.538	132.444
749.95	125.111
752.363	120.444
754.773	115
757.185	109.222
759.594	103
762.002	103.333
764.411	99.7778
766.818	93.3333
769.225	92.8889
771.63	91
774.035	89.1111
776.44	87.4444
778.843	83.8889
781.245	84.8889
783.648	82.1111
786.048	87.3333
788.448	87.1111
790.848	87
793.247	85
795.644	83
798.042	79.1111
800.438	82.3333
802.834	81
805.228	76.5556
807.623	76.6667
810.016	76.8889
812.408	73.7778
814.8	73.1111
817.191	73.7778
819.58	70.6667
821.971	74
824.359	74.2222
826.747	77.6667
829.134	83.3333
831.52	87.2222
833.905	90.6667
836.29	97.2222
838.675	99.5556
841.058	106.667
843.44	103.889
845.822	112.556
848.203	110.556
850.583	112
852.962	111.333
855.341	113
857.718	108.333
860.095	106.333
862.471	110
864.847	107.889
867.222	110.111
869.596	112.222
871.969	116.222
874.341	116.444
876.713	119.444
879.083	117.889
881.453	111.222
883.822	105.889
886.191	101.111
888.559	97.7778
890.926	88.3333
893.293	88.7778
895.658	86.8889
898.022	86.3333
900.386	88.2222
902.75	90.1111
905.112	90.3333
907.474	88.1111
909.834	89.5556
912.194	88.4444
914.554	88.3333
916.913	86.1111
919.27	85.8889
921.627	84.7778
923.984	85.5556
926.34	85.5556
928.694	79.6667
931.048	81.5556
933.402	78.8889
935.754	76.6667
938.106	75.6667
940.458	73.8889
942.807	73.3333
945.157	71
947.505	71.6667
949.853	72.7778
952.201	71
954.547	73
956.893	73.5556
959.237	76.2222
961.582	76.4444
963.925	74.2222
966.268	77.7778
968.609	75.6667
970.951	74.5556
973.291	73.2222
975.631	75.2222
977.97	73.8889
980.309	77.1111
982.645	76.8889
984.983	79.5556
987.318	77.3333
989.653	77.6667
991.988	76.6667
994.321	79.5556
996.655	82
998.987	82.4445
1001.32	86.3333
1003.65	86.8889
1005.98	90.5555
1008.31	91.8889
1010.64	91.1111
1012.96	92.7778
1015.29	89.8889
1017.62	95
1019.94	90.6667
1022.27	86.3333
1024.59	89.4444
1026.91	82.3333
1029.24	86.3333
1031.56	90.7778
1033.88	87.6667
1036.2	92.2222
1038.52	90.7778
1040.84	89.7778
1043.16	91
1045.47	94.5556
1047.79	100.222
1050.1	99.5556
1052.42	113.889
1054.74	122
1057.05	128
1059.36	131.333
1061.67	130.778
1063.98	130
1066.29	128.889
1068.6	138
1070.91	145.556
1073.22	154.889
1075.53	160.889
1077.84	165.667
1080.14	165.333
1082.45	162.444
1084.75	154.222
1087.06	150.222
1089.36	141.333
1091.66	132.889
1093.96	123.778
1096.27	117.333
1098.57	113.556
1100.87	103.889
1103.16	100.667
1105.46	96
1107.76	88.4444
1110.06	84.3333
1112.35	78.4444
1114.65	72.7778
1116.94	70.7778
1119.23	65.2222
1121.53	64.1111
1123.82	60.7778
1126.11	63.5556
1128.4	63.6667
1130.69	64.3333
1132.98	66.4444
1135.27	67
1137.56	66.8889
1139.85	68.6667
1142.13	67.2222
1144.42	67.6667
1146.7	69.3333
1148.99	70.4444
1151.27	68.5556
1153.55	67.3333
1155.84	64.6667
1158.12	69.4444
1160.4	65.8889
1162.68	63.7778
1164.96	66.4444
1167.23	66
1169.51	64.7778
1171.79	66.8889
1174.06	66.6667
1176.34	64.5556
1178.62	63.8889
1180.89	68.4444
1183.16	70.8889
1185.44	69.8889
1187.71	68.7778
1189.98	69
1192.25	70.5556
1194.52	71.7778
1196.79	71.5556
1199.06	68.4444
1201.32	71
1203.59	70.4444
1205.86	69.4444
1208.12	68.1111
1210.39	72.2222
1212.65	68.4444
1214.91	70.8889
1217.18	73
1219.44	73.6667
1221.7	76.8889
1223.96	78.1111
1226.22	76.1111
1228.48	79.4444
1230.74	81.7778
1232.99	79.4444
1235.25	81.8889
1237.51	84.5556
1239.76	84.8889
1242.02	84.5556
1244.27	87.8889
1246.53	88.5556
1248.78	86.8889
1251.03	83.5556
1253.28	80
1255.53	77.4444
1257.78	78.6667
1260.03	81.5556
1262.28	81.4444
1264.53	89.5556
1266.77	90.2222
1269.02	93.5556
1271.26	105.111
1273.51	107.889
1275.75	109.333
1278	111.111
1280.24	116
1282.48	118
1284.72	121
1286.96	126.778
1289.2	130
1291.44	135.111
1293.68	148.333
1295.92	164.222
1298.15	175.222
1300.39	184.889
1302.63	197.333
1304.86	196.222
1307.1	185.333
1309.33	167.778
1311.56	157.444
1313.79	140.111
1316.02	127.444
1318.26	121.111
1320.49	113.556
1322.71	107.556
1324.94	97.3333
1327.17	93.6667
1329.4	85.5556
1331.62	86.7778
1333.85	82.6667
1336.08	81.4444
1338.3	76.8889
1340.52	79
1342.75	82.1111
1344.97	81
1347.19	77.6667
1349.41	77.4444
1351.63	79.7778
1353.85	76.7778
1356.07	75.7778
1358.29	74.7778
1360.5	74.7778
1362.72	77.7778
1364.94	76
1367.15	77.6667
1369.37	79.8889
1371.58	80.1111
1373.79	77.4444
1376.01	76.3333
1378.22	76.6667
1380.43	72.7778
1382.64	69.4444
1384.85	73.8889
1387.06	73.1111
1389.27	68.8889
1391.47	71.7778
1393.68	71
1395.89	71.6667
1398.09	70.8889
1400.3	74.7778
1402.5	76.3333
1404.71	77
1406.91	76.6667
1409.11	81.1111
1411.31	82.7778
1413.51	87
1415.71	92.2222
1417.91	97.5556
1420.11	107.222
1422.31	121.556
1424.51	140.444
1426.7	161.889
1428.9	189.778
1431.1	217.556
1433.29	238.889
1435.48	261.222
1437.68	261.889
1439.87	266
1442.06	250.778
1444.25	238.889
1446.44	225.333
1448.63	204.222
1450.82	189.333
1453.01	175.333
1455.2	168.222
1457.39	159.222
1459.57	149.778
1461.76	146.222
1463.94	138.333
1466.13	137
1468.31	133.222
1470.49	130.111
1472.68	129.222
1474.86	128.556
1477.04	128
1479.22	121.444
1481.4	108.667
1483.58	102.556
1485.75	94.3333
1487.93	86.6667
1490.11	83
1492.29	77.7778
1494.46	75.2222
1496.64	74.4444
1498.81	75.5556
1500.98	71.3333
1503.16	71.4444
1505.33	68.8889
1507.5	65.2222
1509.67	66.2222
1511.84	66.2222
1514.01	66
1516.18	65.2222
1518.35	66.4444
1520.51	67
1522.68	63.1111
1524.85	64.4444
1527.01	62.4444
1529.18	62.4444
1531.34	62.5556
1533.51	64
1535.67	64.6667
1537.83	63.2222
1539.99	63
1542.15	60.2222
1544.31	59.5556
1546.47	62.4444
1548.63	63.4444
1550.79	62.1111
1552.95	60.6667
1555.1	62
1557.26	62.2222
1559.41	59.7778
1561.57	61.6667
1563.72	60.2222
1565.88	63.2222
1568.03	62.2222
1570.18	61.1111
1572.33	59.2222
1574.48	59.6667
1576.63	60.3333
1578.78	64
1580.93	62.1111
1583.08	61.3333
1585.23	59.8889
1587.37	62.1111
1589.52	62.6667
1591.66	61.7778
1593.81	63.1111
1595.95	61.1111
1598.1	62.1111
1600.24	62.2222
1602.38	62.7778
1604.52	61.5556
1606.66	61.7778
1608.8	63.4444
1610.94	60.5556
1613.08	63.1111
1615.22	61.8889
1617.36	61.5556
1619.49	61.2222
1621.63	60.4444
1623.77	60.2222
1625.9	62.5556
1628.03	58.1111
1630.17	60.6667
1632.3	61.1111
1634.43	61
1636.56	62.8889
1638.7	60
1640.83	60.6667
1642.96	62.6667
1645.08	60
1647.21	60.5556
1649.34	62
1651.47	60.4444
1653.59	60.2222
1655.72	60.8889
1657.84	63.7778
1659.97	62.3333
1662.09	61.1111
1664.21	63.1111
1666.34	62
1668.46	63.4444
1670.58	62.6667
1672.7	61
1674.82	62.8889
1676.94	60.3333
1679.06	62.1111
1681.18	63.5556
1683.29	62.4444
1685.41	62.3333
1687.52	62.6667
1689.64	63.1111
1691.76	63.7778
1693.87	63
1695.98	62.3333
1698.09	64
1700.21	64.2222
1702.32	62.7778
1704.43	62.3333
1706.54	62.4444
1708.65	63.8889
1710.76	61.5556
1712.86	63
1714.97	64
1717.08	64.1111
1719.19	63.8889
1721.29	62.6667
1723.4	62.8889
1725.5	63.6667
1727.6	64.8889
1729.71	64.7778
1731.81	63.2222
1733.91	65.2222
1736.01	64.1111
1738.11	62.5556
1740.21	62
1742.31	63.6667
1744.41	63
1746.51	62.3333
1748.6	66.4444
1750.7	62.3333
1752.8	63.1111
1754.89	63.8889
1756.99	61.5556
1759.08	62.3333
1761.17	65.1111
1763.27	63.1111
1765.36	65
1767.45	64.3333
1769.54	63.5556
1771.63	65.6667
1773.72	63.1111
1775.81	62.5556
1777.9	66
1779.98	65.4444
1782.07	63.3333
1784.16	65.2222
1786.24	65.6667
1788.33	62.6667
1790.41	65.5556
1792.5	65.5556
1794.58	63
1796.66	66.8889
1798.74	65.8889
1800.83	64.7778
1802.91	66
1804.99	66.8889
1807.06	67.2222
1809.14	66.5556
1811.22	66.1111
1813.3	66.1111
1815.38	64.2222
1817.45	66.1111
1819.53	67.3333
1821.6	63.5556
1823.68	62.5556
1825.75	65.2222
1827.82	65.5556
1829.9	66.3333
1831.97	65.8889
1834.04	64.7778
1836.11	65.2222
1838.18	64
1840.25	66.5556
1842.32	65.1111
1844.38	65
1846.45	66.8889
1848.52	67.5556
1850.58	63.3333
1852.65	65.3333
1854.72	67.3333
1856.78	66.4444
1858.84	66.5556
1860.91	64.2222
1862.97	64.3333
1865.03	67.5556
1867.09	65.4444
1869.15	66.8889
1871.21	65.2222
1873.27	66.1111
1875.33	66.5556
1877.39	66.1111
1879.44	68.3333
1881.5	65.2222
1883.56	69.1111
1885.61	65.8889
1887.67	70.8889
1889.72	68.1111
1891.78	65.3333
1893.83	65.3333
1895.88	68.3333
1897.93	67.3333
1899.98	71.1111
1902.03	67.8889
1904.08	67
1906.13	68.1111
1908.18	70.4444
1910.23	69.1111
1912.28	66.3333
1914.32	68.7778
1916.37	67
1918.41	68.7778
1920.46	69.6667
1922.5	68.3333
1924.55	69.2222
1926.59	70.1111
1928.63	70.2222
1930.68	69.8889
1932.72	68
1934.76	69
1936.8	68.2222
1938.84	70.1111
1940.87	67.8889
1942.91	68.1111
1944.95	65.6667
1946.99	70.5556
1949.02	69.5556
1951.06	68.6667
1953.09	68.5556
1955.13	66.7778
1957.16	68.1111
1959.2	66.7778
1961.23	69.2222
1963.26	70
1965.29	68
1967.32	70.2222
1969.35	69
1971.38	68.4444
1973.41	70.7778
1975.44	69.6667
1977.47	75
1979.5	68.6667
1981.52	68.4444
1983.55	70
1985.57	71
1987.6	70
1989.62	68.1111
1991.64	68
1993.67	70
1995.69	69.3333
1997.71	72.8889
1999.73	69.5556
2001.75	71.7778
2003.77	71
2005.79	73.1111
2007.81	70.6667
2009.83	69
2011.85	73.4444
2013.86	70.7778
2015.88	68.8889
2017.89	74.2222
2019.91	71
2021.92	71.6667
2023.94	71.2222
2025.95	69.2222
2027.96	72.4444
2029.97	72
2031.99	74.5556
2034	68.6667
2036.01	72.1111
2038.02	72.2222
2040.03	72.7778
2042.03	71.5556
2044.04	73.2222
2046.05	71.7778
2048.06	75
2050.06	73
2052.07	76
2054.07	69.8889
2056.08	74.6667
2058.08	72.5556
2060.08	72.3333
2062.08	73.6667
2064.09	72.4444
2066.09	74.3333
2068.09	72.5556
2070.09	70.4444
2072.09	74.3333
2074.09	75.4444
2076.08	75.6667
2078.08	75.3333
2080.08	73.5555
2082.07	73.7778
2084.07	70.6667
2086.07	75
2088.06	74.1111
2090.05	73.7778
2092.05	74.3333
2094.04	73.1111
2096.03	74.4445
2098.02	73.1111
2100.01	76.1111
2102	75
2103.99	73.4444
2105.98	74.8889
2107.97	76.6667
2109.96	73.3333
2111.95	75.4444
2113.94	75
2115.92	74.5556
2117.91	76.5556
2119.89	74.6667
2121.88	76.1111
2123.86	75.5556
2125.84	72.3333
2127.83	76.5556
2129.81	72.3333
2131.79	76.4444
2133.77	76.1111
2135.75	74.5556
2137.73	77.6667
2139.71	76.1111
2141.69	77.6667
2143.67	75.5556
2145.64	75.2222
2147.62	75.8889
2149.6	76.7778
2151.57	74
2153.55	77.7778
2155.52	78.1111
2157.5	77.1111
2159.47	79.3333
2161.44	79.8889
2163.41	77.3333
2165.39	76.2222
2167.36	77.2222
2169.33	76.4444
2171.3	79
2173.27	75.6667
2175.24	78.4444
2177.2	79.7778
2179.17	77.4444
2181.14	76.5556
2183.1	77.8889
2185.07	77.8889
2187.03	79.8889
2189	79.3333
2190.96	76.2222
2192.93	76.7778
2194.89	77.4444
2196.85	81.8889
2198.81	77.1111
2200.77	79.7778
2202.73	79.3333
2204.69	74.4444
2206.65	79.8889
2208.61	76.1111
2210.57	78.6667
2212.53	79
2214.48	77.4444
2216.44	78.4444
2218.4	75.6667
2220.35	78.3333
2222.31	76.6667
2224.26	79.7778
2226.21	77.3333
2228.17	77.8889
2230.12	78.8889
2232.07	79.5556
2234.02	77.7778
2235.97	78.8889
2237.92	79.7778
2239.87	77.5556
2241.82	75.7778
2243.77	80.8889
2245.72	74.8889
2247.66	77.5556
2249.61	79
2251.56	77.3333
2253.5	77.2222
2255.45	78.7778
2257.39	79.4444
2259.33	80
2261.28	75.7778
2263.22	77.8889
2265.16	79.1111
2267.1	81
2269.04	79.8889
2270.99	78.2222
2272.92	78.5556
2274.86	77.2222
2276.8	79.5556
2278.74	78.4444
2280.68	79.5556
2282.61	78.7778
2284.55	79.2222
2286.49	79.2222
2288.42	78.8889
2290.36	76.6667
2292.29	74.2222
2294.22	82.4444
2296.16	82.4444
2298.09	80.5556
2300.02	78.8889
2301.95	80.8889
2303.88	80.1111
2305.81	79.3333
2307.74	80.8889
2309.67	79.6667
2311.6	81.5556
2313.53	81.6667
2315.45	80.8889
2317.38	80.1111
2319.31	81
2321.23	79.8889
2323.16	80.1111
2325.08	82.2222
2327	78.7778
2328.93	79.7778
2330.85	81.6667
2332.77	79.6667
2334.69	80.7778
2336.62	81.4444
2338.54	82.3333
2340.46	81.6667
2342.38	82.2222
2344.29	83
2346.21	81.6667
2348.13	81.7778
2350.05	84.3333
2351.96	83.2222
2353.88	80.3333
2355.79	78.4444
2357.71	85.1111
2359.62	80
2361.54	81.4444
2363.45	82.1111
2365.36	81
2367.27	81.7778
2369.19	81
2371.1	83.3333
2373.01	79.8889
2374.92	81.6667
2376.83	82.4444
2378.73	83.7778
2380.64	82.6667
2382.55	84.3333
2384.46	82.5556
2386.36	83.2222
2388.27	80.1111
2390.17	82
2392.08	84
2393.98	83.7778
2395.89	84.3333
2397.79	81.2222
2399.69	85.7778
2401.59	83.8889
2403.5	79.2222
2405.4	83.3333
2407.3	82.6667
2409.2	84.5556
2411.09	86.4444
2412.99	87
2414.89	84.2222
2416.79	86.5556
2418.69	87.5556
2420.58	83.6667
2422.48	83.7778
2424.37	85.5556
2426.27	88.8889
2428.16	86.3333
2430.06	87.2222
2431.95	86
2433.84	89.7778
2435.73	84.7778
2437.62	87.2222
2439.52	86.5556
2441.41	88.7778
2443.3	88.4444
2445.19	89
