176.074	275.889
178.677	286.556
181.279	316.111
183.879	343.444
186.48	372.444
189.08	395.778
191.677	398.889
194.275	374
196.871	342.222
199.467	300.111
202.061	260.778
204.656	229.222
207.249	205.889
209.841	181.444
212.433	173.778
215.022	160.778
217.613	153.778
220.201	147.889
222.789	139.444
225.375	132.111
227.962	124.333
230.547	125.111
233.132	113.778
235.714	114.556
238.296	107.778
240.879	106.333
243.459	104.778
246.04	102.556
248.618	102.667
251.198	102.778
253.774	97.8889
256.35	96.6667
258.927	95.8889
261.501	96.4444
264.074	96.4444
266.648	97.3333
269.22	100.667
271.791	111.222
274.362	124.222
276.931	138.667
279.5	153.444
282.069	158.111
284.635	140.889
287.201	128.222
289.766	115
292.331	100.222
294.894	94.6667
297.457	94
300.018	88.3333
302.58	86.7778
305.14	83.5556
307.699	82.3333
310.257	81
312.814	79.7778
315.372	78.8889
317.928	77.7778
320.482	80.2222
323.036	76.2222
325.589	77.1111
328.142	76.4444
330.693	75.5556
333.243	73.8889
335.795	75.4444
338.343	75.2222
340.891	74.5555
343.439	74.7778
345.985	73
348.53	74.8889
351.075	75.1111
353.619	77.7778
356.162	77.2222
358.704	73.8889
361.245	75.3333
363.786	74.6667
366.325	75.2222
368.864	78.3333
371.402	80.1111
373.939	80.8889
376.475	79.4444
379.011	84.7778
381.545	83.5556
384.079	82.6667
386.611	86.3333
389.143	89.7778
391.674	93
394.204	94.3333
396.734	99.5556
399.263	107.778
401.791	116.667
404.318	131.444
406.843	159
409.368	209.667
411.893	316.222
414.417	421.667
416.94	400.111
419.46	282.556
421.982	184.222
424.502	129.778
427.022	107.444
429.541	94.6667
432.057	87.1111
434.574	82.4444
437.091	81
439.605	77.3333
442.12	81.2222
444.634	79.3333
447.145	76.7778
449.657	76.7778
452.169	74.2222
454.678	78
457.188	76.4444
459.697	78.6667
462.204	81.3333
464.711	81.5556
467.217	79.8889
469.722	79.2222
472.227	79.6667
474.729	75.6667
477.232	73.8889
479.735	71.7778
482.235	72.5556
484.736	72.7778
487.234	72.8889
489.734	71
492.23	70.4444
494.728	69.5556
497.223	73
499.719	72.4444
502.213	72
504.707	71.5556
507.199	68.7778
509.69	71.6667
512.182	73.2222
514.672	68.3333
517.162	68.4445
519.65	70.8889
522.139	66.2222
524.625	67.3333
527.111	69.4444
529.597	68.5556
532.081	67.4444
534.564	69
537.047	66.1111
539.529	68.6667
542.01	67.4444
544.491	66.1111
546.97	67.6667
549.448	67.4444
551.927	69.4444
554.404	66.7778
556.88	68.4444
559.355	69.7778
561.831	69.1111
564.304	68.1111
566.777	70.8889
569.249	68.6667
571.72	69.6667
574.191	69.4444
576.661	70.1111
579.129	70.4444
581.597	68.4444
584.064	70.3333
586.531	69.6667
588.997	69.1111
591.462	69.7778
593.926	70.4444
596.389	73.4444
598.851	73.7778
601.313	75.3333
603.773	75.4445
606.233	77.2222
608.692	84.2222
611.151	94.4444
613.608	124.111
616.065	179.333
618.521	200.111
620.976	154.667
623.43	113
625.883	92
628.336	83.6667
630.788	79.3333
633.239	75.6667
635.69	77.3333
638.139	74.3333
640.588	75.7778
643.036	77
645.483	72.8889
647.929	73.5556
650.375	70.8889
652.818	73.1111
655.262	74.2222
657.706	75.3333
660.148	77.6667
662.59	74.8889
665.031	75.8889
667.471	75.1111
669.909	73.8889
672.347	77.2222
674.785	76.7778
677.222	79.4444
679.656	83.4444
682.092	86.5556
684.526	89.7778
686.96	86.5556
689.392	95.6667
691.824	108.667
694.256	140.333
696.686	227.333
699.115	373.444
701.544	392
703.972	261.333
706.398	163
708.825	118.556
711.25	98.8889
713.675	88.6667
716.099	84
718.522	84.6667
720.944	85.2222
723.366	84.2222
725.786	85.4444
728.207	85.5556
730.625	88.4445
733.044	92.7778
735.461	95.3333
737.879	96.6667
740.294	95.5556
742.71	91.8889
745.123	85.6667
747.538	82.7778
749.95	82
752.363	81.6667
754.773	79.4444
757.185	77.7778
759.594	78.7778
762.002	79.5556
764.411	76.5556
766.818	77.1111
769.225	79.1111
771.63	81
774.035	82.7778
776.44	78.4444
778.843	80.4444
781.245	81.1111
783.648	80.8889
786.048	81.5556
788.448	84.5556
790.848	84
793.247	83.7778
795.644	81.4444
798.042	83.7778
800.438	84.1111
802.834	85.5556
805.228	85.2222
807.623	87.7778
810.016	85.1111
812.408	87.2222
814.8	85.6667
817.191	84.6667
819.58	85.2222
821.971	87.8889
824.359	84.8889
826.747	89.3333
829.134	91.7778
831.52	90.6667
833.905	92.6667
836.29	95.3333
838.675	95.4444
841.058	88.2222
843.44	92.4444
845.822	89.8889
848.203	90
850.583	85.6667
852.962	86.4444
855.341	88
857.718	87.5555
860.095	90.6667
862.471	91.1111
864.847	92.1111
867.222	93.6667
869.596	93.1111
871.969	98.4444
874.341	96.6667
876.713	99.1111
879.083	98.6667
881.453	102.556
883.822	107.556
886.191	108.667
888.559	110.333
890.926	121
893.293	123.667
895.658	133.444
898.022	141.667
900.386	144.889
902.75	148.667
905.112	158.778
907.474	168.111
909.834	177.111
912.194	185.667
914.554	197.667
916.913	204.333
919.27	208.111
921.627	203.333
923.984	186.333
926.34	172.333
928.694	155.222
931.048	143.778
933.402	131.556
935.754	121.889
938.106	118.778
940.458	114
942.807	109.333
945.157	103.444
947.505	106.444
949.853	102.222
952.201	104.889
954.547	103.222
956.893	103.667
959.237	105.444
961.582	105.778
963.925	102.556
966.268	104.667
968.609	103.778
970.951	108.222
973.291	106.667
975.631	106
977.97	112
980.309	115
982.645	120
984.983	131.333
987.318	162.222
989.653	186.667
991.988	182.111
994.321	193
996.655	348.333
998.987	1110
1001.32	2044.22
1003.65	1663.78
1005.98	726.667
1008.31	249.889
1010.64	163.556
1012.96	144.889
1015.29	140.667
1017.62	149.333
1019.94	172.889
1022.27	285.333
1024.59	567.667
1026.91	664.333
1029.24	461.444
1031.56	232.444
1033.88	142.333
1036.2	123.333
1038.52	112.667
1040.84	116.889
1043.16	106.333
1045.47	108.556
1047.79	106.333
1050.1	107.333
1052.42	105.444
1054.74	104.111
1057.05	105.667
1059.36	108
1061.67	111.222
1063.98	115.444
1066.29	117.556
1068.6	121.222
1070.91	129.556
1073.22	132.778
1075.53	132.778
1077.84	133
1080.14	136.667
1082.45	146.333
1084.75	169.889
1087.06	208.444
1089.36	273.111
1091.66	343.889
1093.96	377.111
1096.27	327.778
1098.57	252.333
1100.87	203.333
1103.16	174.667
1105.46	162.111
1107.76	159.333
1110.06	163.222
1112.35	171.222
1114.65	207.444
1116.94	244.444
1119.23	274
1121.53	257.556
1123.82	208.556
1126.11	167.667
1128.4	143.222
1130.69	132.333
1132.98	130.556
1135.27	125.667
1137.56	125.333
1139.85	127.111
1142.13	128.667
1144.42	136.222
1146.7	137.222
1148.99	146.111
1151.27	163.333
1153.55	185.222
1155.84	211.111
1158.12	228.111
1160.4	213.222
1162.68	183.444
1164.96	161
1167.23	150
1169.51	147.889
1171.79	142.556
1174.06	146.667
1176.34	152
1178.62	164.444
1180.89	185.111
1183.16	186.444
1185.44	172.778
1187.71	153
1189.98	140
1192.25	133.778
1194.52	130
1196.79	130.222
1199.06	126
1201.32	126.889
1203.59	127
1205.86	126.667
1208.12	126.889
1210.39	126
1212.65	122.222
1214.91	123.333
1217.18	121.667
1219.44	122.889
1221.7	120.667
1223.96	125.333
1226.22	125.444
1228.48	124
1230.74	120.556
1232.99	123.778
1235.25	125.333
1237.51	120.778
1239.76	121
1242.02	126.778
1244.27	126.111
1246.53	124.778
1248.78	125.222
1251.03	125.778
1253.28	127.778
1255.53	126.333
1257.78	129.222
1260.03	129
1262.28	129.444
1264.53	130
1266.77	136.444
1269.02	138.778
1271.26	135.889
1273.51	142.778
1275.75	137
1278	129.222
1280.24	133.778
1282.48	132.667
1284.72	130.667
1286.96	126.889
1289.2	124.444
1291.44	131
1293.68	126.333
1295.92	130.333
1298.15	128.667
1300.39	132.556
1302.63	130.444
1304.86	129.222
1307.1	131.222
1309.33	129.667
1311.56	132.222
1313.79	131.889
1316.02	130.333
1318.26	133.111
1320.49	134.444
1322.71	135.333
1324.94	144.222
1327.17	143.444
1329.4	143.778
1331.62	143.778
1333.85	141.333
1336.08	139
1338.3	133.667
1340.52	135.556
1342.75	132.111
1344.97	134.889
1347.19	135.778
1349.41	133.556
1351.63	135
1353.85	132.556
1356.07	131.778
1358.29	135.222
1360.5	135.111
1362.72	132.556
1364.94	140.333
1367.15	136
1369.37	134
1371.58	140.222
1373.79	142.778
1376.01	141
1378.22	144.333
1380.43	145.667
1382.64	138.556
1384.85	141.333
1387.06	141.222
1389.27	133.889
1391.47	138.667
1393.68	137.333
1395.89	137.556
1398.09	139.778
1400.3	138.778
1402.5	138
1404.71	138.444
1406.91	139.778
1409.11	135.111
1411.31	136.667
1413.51	134.889
1415.71	138.556
1417.91	138.556
1420.11	138.444
1422.31	138.333
1424.51	136
1426.7	140.333
1428.9	141.444
1431.1	140.556
1433.29	139.889
1435.48	143.667
1437.68	147.444
1439.87	150.556
1442.06	156.111
1444.25	152
1446.44	148.889
1448.63	144.333
1450.82	148.111
1453.01	141.667
1455.2	143.556
1457.39	142.333
1459.57	144
1461.76	142.556
1463.94	144.444
1466.13	143.667
1468.31	143
1470.49	145.667
1472.68	145.889
1474.86	146.222
1477.04	148.444
1479.22	152.222
1481.4	153.556
1483.58	152.333
1485.75	146.333
1487.93	148.778
1490.11	140.667
1492.29	147.889
1494.46	146.222
1496.64	143.444
1498.81	146.889
1500.98	144.778
1503.16	140.556
1505.33	144.889
1507.5	142.778
1509.67	147.556
1511.84	145.333
1514.01	148.222
1516.18	145.111
1518.35	146
1520.51	150
1522.68	148.889
1524.85	149.889
1527.01	149.778
1529.18	146.333
1531.34	152.111
1533.51	149.333
1535.67	153.556
1537.83	153.222
1539.99	155.889
1542.15	155.111
1544.31	162.667
1546.47	163.333
1548.63	165.778
1550.79	164.667
1552.95	162.222
1555.1	169.444
1557.26	166.222
1559.41	174.889
1561.57	171
1563.72	179.333
1565.88	185.111
1568.03	197.556
1570.18	210.556
1572.33	238.111
1574.48	265.111
1576.63	305
1578.78	332.111
1580.93	386.444
1583.08	444.556
1585.23	464.667
1587.37	428.556
1589.52	356.556
1591.66	301.333
1593.81	264.333
1595.95	239.222
1598.1	220.333
1600.24	208.667
1602.38	192.333
1604.52	190.889
1606.66	182.333
1608.8	179.111
1610.94	176.556
1613.08	175.667
1615.22	171.556
1617.36	170.333
1619.49	162.111
1621.63	167.889
1623.77	163.222
1625.9	158.556
1628.03	163.778
1630.17	158.667
1632.3	161.333
1634.43	158.667
1636.56	160.333
1638.7	158.556
1640.83	158.222
1642.96	163.222
1645.08	160.444
1647.21	157.889
1649.34	156.667
1651.47	160.556
1653.59	155.556
1655.72	155.444
1657.84	160
1659.97	160.778
1662.09	161.333
1664.21	162.778
1666.34	162.556
1668.46	161.889
1670.58	163.444
1672.7	158.556
1674.82	160.667
1676.94	154.444
1679.06	160
1681.18	164.222
1683.29	162.778
1685.41	159.556
1687.52	157.111
1689.64	160.778
1691.76	165.333
1693.87	162.333
1695.98	164.111
1698.09	163.778
1700.21	162.778
1702.32	164.778
1704.43	164.556
1706.54	164.889
1708.65	163.889
1710.76	165.333
1712.86	165.222
1714.97	164.667
1717.08	161.667
1719.19	165.778
1721.29	165.333
1723.4	166.444
1725.5	164.333
1727.6	167.222
1729.71	163.778
1731.81	168.444
1733.91	163.111
1736.01	163.889
1738.11	163.556
1740.21	162.333
1742.31	162.111
1744.41	163.667
1746.51	166.778
1748.6	168.333
1750.7	164.889
1752.8	164
1754.89	164.111
1756.99	165.111
1759.08	163.556
1761.17	164
1763.27	164.889
1765.36	161.222
1767.45	167.444
1769.54	163.111
1771.63	167.778
1773.72	170.222
1775.81	171.889
1777.9	167.111
1779.98	169.111
1782.07	169.667
1784.16	172.889
1786.24	172.333
1788.33	172.667
1790.41	169.778
1792.5	171
1794.58	170
1796.66	170.556
1798.74	170.889
1800.83	168.444
1802.91	175.778
1804.99	168.111
1807.06	172.333
1809.14	173.222
1811.22	174.333
1813.3	176
1815.38	176
1817.45	175.778
1819.53	176
1821.6	172.556
1823.68	176.444
1825.75	176.111
1827.82	174.667
1829.9	176.333
1831.97	179.556
1834.04	174.889
1836.11	174.889
1838.18	173.333
1840.25	170.556
1842.32	176.889
1844.38	172.667
1846.45	173.333
1848.52	172.889
1850.58	169.556
1852.65	176.222
1854.72	176
1856.78	176
1858.84	178.667
1860.91	174.778
1862.97	175.222
1865.03	171.444
1867.09	174.444
1869.15	176
1871.21	176.444
1873.27	176.333
1875.33	173.222
1877.39	177.222
1879.44	174.333
1881.5	178.333
1883.56	178.333
1885.61	173.333
1887.67	179.111
1889.72	178.556
1891.78	179.889
1893.83	176.222
1895.88	175.444
1897.93	179.556
1899.98	180.333
1902.03	175.778
1904.08	181.889
1906.13	181.222
1908.18	180.111
1910.23	177.778
1912.28	178
1914.32	183.111
1916.37	179.667
1918.41	182.556
1920.46	185.111
1922.5	182.667
1924.55	183.111
1926.59	184
1928.63	182.444
1930.68	184.778
1932.72	179.444
1934.76	178.111
1936.8	188
1938.84	180.111
1940.87	175.778
1942.91	179.556
1944.95	182.222
1946.99	185.444
1949.02	185.667
1951.06	180.889
1953.09	183.333
1955.13	184.667
1957.16	182.889
1959.2	184
1961.23	183.667
1963.26	181.889
1965.29	186.667
1967.32	183.889
1969.35	188.667
1971.38	186.667
1973.41	186.333
1975.44	183
1977.47	182.333
1979.5	183.444
1981.52	185
1983.55	183.667
1985.57	182.889
1987.6	181.333
1989.62	183.667
1991.64	181.333
1993.67	185.778
1995.69	185.222
1997.71	183.111
1999.73	181.111
2001.75	184.778
2003.77	185.778
2005.79	185.333
2007.81	184.333
2009.83	186.556
2011.85	183
2013.86	190.778
2015.88	188.778
2017.89	189
2019.91	187
2021.92	190.889
2023.94	187.667
2025.95	189.444
2027.96	189.556
2029.97	189
2031.99	187.556
2034	188.889
2036.01	186
2038.02	190.111
2040.03	189.556
2042.03	188
2044.04	188.889
2046.05	189.333
2048.06	192.222
2050.06	187.667
2052.07	195
2054.07	191.444
2056.08	190.222
2058.08	191.778
2060.08	194
2062.08	190.222
2064.09	189.778
2066.09	189.556
2068.09	192.222
2070.09	192.333
2072.09	188.222
2074.09	191.889
2076.08	193.444
2078.08	190.333
2080.08	193.222
2082.07	190.333
2084.07	195.222
2086.07	196
2088.06	188.444
2090.05	191.667
2092.05	191.889
2094.04	193.667
2096.03	196
2098.02	192.667
2100.01	193.778
2102	194.444
2103.99	196.778
2105.98	197.444
2107.97	196.778
2109.96	196.667
2111.95	197.333
2113.94	196.778
2115.92	194.889
2117.91	193.778
2119.89	194.333
2121.88	196.444
2123.86	195.444
2125.84	196
2127.83	193.333
2129.81	193.778
2131.79	196.333
2133.77	196.778
2135.75	195.333
2137.73	197.889
2139.71	196
2141.69	199.222
2143.67	199.556
2145.64	200.111
2147.62	197.111
2149.6	199
2151.57	199.444
2153.55	201.667
2155.52	199.556
2157.5	200.111
2159.47	198.444
2161.44	197.778
2163.41	200.778
2165.39	199.556
2167.36	191.333
2169.33	197.556
2171.3	195.556
2173.27	199.556
2175.24	197.222
2177.2	200.778
2179.17	202.222
2181.14	200.333
2183.1	199.111
2185.07	198.444
2187.03	201.889
2189	201.111
2190.96	199.333
2192.93	202.667
2194.89	198.889
2196.85	201.889
2198.81	202.556
2200.77	203.667
2202.73	206.111
2204.69	203.222
2206.65	202.333
2208.61	199.778
2210.57	203
2212.53	198.556
2214.48	203.556
2216.44	203.778
2218.4	200
2220.35	199.333
2222.31	200.333
2224.26	197.556
2226.21	200.556
2228.17	197
2230.12	201.111
2232.07	202.889
2234.02	206.556
2235.97	202.889
2237.92	206.222
2239.87	203.778
2241.82	199.111
2243.77	201.222
2245.72	204.667
2247.66	203.333
2249.61	205.333
2251.56	203.889
2253.5	202.667
2255.45	201.222
2257.39	203.889
2259.33	206.444
2261.28	203.778
2263.22	208.556
2265.16	203.222
2267.1	205.889
2269.04	204.333
2270.99	201.333
2272.92	200.778
2274.86	202.222
2276.8	209.778
2278.74	202
2280.68	207.333
2282.61	207.778
2284.55	205.556
2286.49	204.444
2288.42	202
2290.36	208.778
2292.29	203.333
2294.22	201.778
2296.16	204.778
2298.09	203.222
2300.02	202.778
2301.95	204.111
2303.88	204
2305.81	204.556
2307.74	203.667
2309.67	207.444
2311.6	208
2313.53	208.444
2315.45	211.556
2317.38	209
2319.31	202.889
2321.23	208
2323.16	210.444
2325.08	209.556
2327	206.556
2328.93	207.111
2330.85	209.556
2332.77	208.222
2334.69	204.889
2336.62	211.889
2338.54	210.111
2340.46	211.889
2342.38	208.444
2344.29	207.222
2346.21	213.556
2348.13	210.222
2350.05	209.222
2351.96	210.444
2353.88	208.444
2355.79	207.333
2357.71	208.222
2359.62	207.333
2361.54	208.222
2363.45	209.889
2365.36	213.222
2367.27	203.444
2369.19	210.889
2371.1	210
2373.01	211.111
2374.92	208.222
2376.83	209.111
2378.73	207.556
2380.64	210.333
2382.55	210.222
2384.46	210.444
2386.36	207.444
2388.27	210.667
2390.17	205.556
2392.08	211.333
2393.98	208
2395.89	214.222
2397.79	211.444
2399.69	209
2401.59	205.667
2403.5	208.444
2405.4	214.889
2407.3	213.444
2409.2	212.333
2411.09	212.111
2412.99	209.222
2414.89	215.333
2416.79	213.889
2418.69	213.444
2420.58	219.556
2422.48	222.778
2424.37	215.333
2426.27	216.444
2428.16	221.111
2430.06	216.222
2431.95	217.333
2433.84	210.889
2435.73	219.333
2437.62	220.444
2439.52	221.111
2441.41	217.889
2443.3	220.667
2445.19	218.889
