176.817	56.6667
179.42	53.3333
182.022	48
184.622	55.3333
187.223	56
189.821	49.3333
192.419	52.6667
195.017	46.6667
197.612	55.3333
200.208	51.3333
202.802	50
205.397	51.3333
207.99	50.6667
210.581	48.6667
213.173	41.3333
215.762	46.6667
218.352	46.6667
220.94	48
223.528	47.3333
226.114	48.6667
228.701	41.3333
231.285	49.3333
233.87	44.6667
236.452	46
239.034	51.3333
241.616	46.6667
244.196	44.6667
246.777	48.6667
249.355	44.6667
251.933	46
254.511	43.3333
257.086	44.6667
259.663	46.6667
262.237	44.6667
264.81	45.3333
267.383	45.3333
269.955	46.6667
272.525	45.3333
275.097	46
277.665	46
280.234	46.6667
282.802	46
285.368	39.3333
287.934	37.3333
290.499	43.3333
293.064	43.3333
295.627	46
298.189	46.6667
300.75	37.3333
303.312	43.3333
305.871	43.3333
308.43	42.6667
310.988	37.3333
313.545	42
316.101	44.6667
318.658	42
321.212	42.6667
323.766	42.6667
326.319	44
328.871	41.3333
331.422	45.3333
333.972	36.6667
336.522	41.3333
339.072	40.6667
341.619	38
344.166	40
346.712	40
349.258	42.6667
351.802	40.6667
354.346	41.3333
356.888	40
359.43	38.6667
361.971	43.3333
364.511	42.6667
367.051	42.6667
369.589	44.6667
372.127	40
374.664	44
377.2	40
379.735	37.3333
382.27	45.3333
384.802	40.6667
387.334	42.6667
389.866	46
392.397	43.3333
394.927	47.3333
397.457	42.6667
399.985	44
402.513	40
405.038	44
407.565	44
410.09	42
412.614	49.3333
415.138	50
417.66	48.6667
420.181	52
422.702	58.6667
425.222	56.6667
427.742	59.3333
430.259	66
432.777	79.3333
435.294	77.3333
437.81	76.6667
440.324	68
442.838	64
445.352	62
447.863	58.6667
450.375	60
452.887	57.3333
455.395	52
457.905	54
460.414	52.6667
462.92	50
465.427	44
467.932	48.6667
470.438	42.6667
472.942	41.3333
475.445	44.6667
477.948	46.6667
480.448	42
482.95	42.6667
485.449	40
487.949	42
490.446	41.3333
492.944	40
495.44	43.3333
497.937	41.3333
500.431	40.6667
502.926	38.6667
505.418	41.3333
507.912	41.3333
510.403	38.6667
512.894	40.6667
515.384	41.3333
517.874	41.3333
520.361	37.3333
522.848	38.6667
525.336	38
527.821	43.3333
530.306	38.6667
532.791	41.3333
535.274	42
537.756	40.6667
540.238	38
542.719	38.6667
545.199	40
547.679	37.3333
550.157	38
552.634	38.6667
555.112	40.6667
557.588	38
560.063	38.6667
562.537	40.6667
565.011	40
567.484	38
569.955	36.6667
572.426	40
574.896	38.6667
577.367	40
579.835	42.6667
582.303	36.6667
584.77	41.3333
587.236	38
589.701	40
592.165	38
594.629	38.6667
597.093	40
599.555	36
602.016	39.3333
604.477	40.6667
606.936	40
609.395	40
611.853	39.3333
614.311	44
616.767	38.6667
619.223	41.3333
621.678	37.3333
624.132	38.6667
626.585	40.6667
629.037	36
631.489	42
633.94	44.6667
636.39	41.3333
638.839	42
641.288	42
643.736	40.6667
646.183	42.6667
648.627	42
651.073	40.6667
653.517	38
655.961	38.6667
658.404	40.6667
660.846	40.6667
663.288	42
665.727	42
668.167	43.3333
670.606	43.3333
673.044	40.6667
675.482	43.3333
677.917	40.6667
680.353	40.6667
682.788	40.6667
685.222	40
687.655	38.6667
690.087	36.6667
692.519	38.6667
694.951	42.6667
697.38	41.3333
699.809	40.6667
702.238	39.3333
704.665	41.3333
707.092	40.6667
709.519	40.6667
711.943	42.6667
714.368	38.6667
716.791	44
719.214	41.3333
721.637	42
724.058	42.6667
726.479	38.6667
728.898	41.3333
731.317	42
733.734	40
736.152	37.3333
738.568	40.6667
740.985	40.6667
743.399	43.3333
745.814	42.6667
748.227	38.6667
750.64	44
753.051	46
755.463	42
757.872	40
760.283	42
762.691	42
765.098	42
767.506	40.6667
769.912	42.6667
772.318	42
774.722	42.6667
777.126	45.3333
779.53	42
781.932	42
784.333	41.3333
786.735	38.6667
789.135	44
791.533	42.6667
793.933	41.3333
796.33	46.6667
798.727	44
801.123	44.6667
803.519	44.6667
805.913	43.3333
808.307	47.3333
810.699	47.3333
813.093	40
815.484	43.3333
817.874	44
820.264	42.6667
822.653	54
825.041	46
827.43	45.3333
829.817	46
832.203	43.3333
834.588	42
836.972	46.6667
839.356	49.3333
841.738	48
844.12	54
846.502	48.6667
848.882	50.6667
851.262	51.3333
853.641	52.6667
856.02	54.6667
858.397	59.3333
860.774	60.6667
863.15	66
865.525	70
867.9	80
870.273	90
872.646	107.333
875.019	132.667
877.39	196.667
879.761	256.667
882.131	337.333
884.5	385.333
886.869	357.333
889.236	295.333
891.602	216.667
893.968	160.667
896.334	115.333
898.698	96
901.062	80
903.426	74
905.787	66
908.148	58
910.509	55.3333
912.87	56.6667
915.228	52.6667
917.587	50
919.945	54
922.302	42.6667
924.657	50.6667
927.013	49.3333
929.368	46.6667
931.721	45.3333
934.074	47.3333
936.427	48.6667
938.778	46
941.129	44
943.479	44
945.828	41.3333
948.177	44
950.524	48
952.871	43.3333
955.218	44
957.563	46
959.908	46.6667
962.252	46.6667
964.595	46
966.937	45.3333
969.28	45.3333
971.62	45.3333
973.961	50
976.3	46.6667
978.639	42.6667
980.976	45.3333
983.314	44
985.65	42.6667
987.987	45.3333
990.321	46
992.655	45.3333
994.989	47.3333
997.321	44
999.653	47.3333
1001.98	49.3333
1004.31	51.3333
1006.65	47.3333
1008.97	46
1011.3	48
1013.63	52
1015.96	52
1018.28	53.3333
1020.61	58
1022.93	55.3333
1025.26	56
1027.58	61.3333
1029.9	58.6667
1032.22	64.6667
1034.54	72.6667
1036.86	74.6667
1039.18	76
1041.5	88.6667
1043.82	100
1046.14	106.667
1048.45	126.667
1050.77	134.667
1053.08	132.667
1055.4	134
1057.71	132
1060.02	107.333
1062.33	108
1064.64	94
1066.96	86
1069.27	82
1071.57	84
1073.88	84.6667
1076.19	80.6667
1078.5	86
1080.8	92
1083.11	92
1085.41	100
1087.72	101.333
1090.02	119.333
1092.32	117.333
1094.62	131.333
1096.92	141.333
1099.22	136.667
1101.52	142
1103.82	124
1106.12	110
1108.42	93.3333
1110.71	93.3333
1113.01	88
1115.3	82
1117.6	85.3333
1119.89	75.3333
1122.18	74.6667
1124.48	72.6667
1126.77	76
1129.06	70.6667
1131.35	63.3333
1133.64	60
1135.93	61.3333
1138.21	58
1140.5	57.3333
1142.79	52
1145.07	52
1147.36	54.6667
1149.64	52.6667
1151.92	52
1154.21	50
1156.49	54.6667
1158.77	53.3333
1161.05	50
1163.33	52.6667
1165.61	50.6667
1167.89	46
1170.16	52
1172.44	50.6667
1174.72	49.3333
1176.99	49.3333
1179.27	47.3333
1181.54	48.6667
1183.81	51.3333
1186.09	51.3333
1188.36	43.3333
1190.63	46
1192.9	46
1195.17	48
1197.44	48
1199.71	50.6667
1201.97	49.3333
1204.24	51.3333
1206.5	49.3333
1208.77	49.3333
1211.03	46.6667
1213.3	48.6667
1215.56	46.6667
1217.82	53.3333
1220.09	49.3333
1222.35	49.3333
1224.61	50.6667
1226.87	49.3333
1229.12	51.3333
1231.38	49.3333
1233.64	51.3333
1235.9	52.6667
1238.15	52
1240.41	50.6667
1242.66	54
1244.92	53.3333
1247.17	52
1249.42	56.6667
1251.67	56.6667
1253.92	57.3333
1256.17	54.6667
1258.42	62
1260.67	62.6667
1262.92	67.3333
1265.17	72
1267.42	74
1269.66	78
1271.91	84
1274.15	91.3333
1276.39	88.6667
1278.64	93.3333
1280.88	86
1283.12	82.6667
1285.36	78
1287.6	79.3333
1289.84	60
1292.08	66.6667
1294.32	64.6667
1296.56	60
1298.79	57.3333
1301.03	58.6667
1303.26	59.3333
1305.5	56.6667
1307.73	61.3333
1309.97	54.6667
1312.2	56
1314.43	60.6667
1316.66	57.3333
1318.89	56
1321.12	60
1323.35	54.6667
1325.58	57.3333
1327.81	54.6667
1330.03	60.6667
1332.26	62
1334.49	55.3333
1336.71	56
1338.94	58
1341.16	54
1343.38	58.6667
1345.6	59.3333
1347.83	55.3333
1350.05	54.6667
1352.27	56.6667
1354.49	60
1356.7	56.6667
1358.92	58.6667
1361.14	60.6667
1363.36	59.3333
1365.57	62
1367.79	62
1370	64.6667
1372.21	60.6667
1374.43	69.3333
1376.64	62
1378.85	68
1381.06	70
1383.27	67.3333
1385.48	69.3333
1387.69	66
1389.9	73.3333
1392.11	70.6667
1394.31	70.6667
1396.52	68
1398.73	72.6667
1400.93	72.6667
1403.13	66.6667
1405.34	68
1407.54	76
1409.74	80
1411.94	78
1414.14	76.6667
1416.34	76
1418.54	87.3333
1420.74	82
1422.94	81.3333
1425.14	81.3333
1427.33	93.3333
1429.53	89.3333
1431.72	99.3333
1433.92	88
1436.11	95.3333
1438.3	104
1440.5	111.333
1442.69	120.667
1444.88	141.333
1447.07	138
1449.26	148.667
1451.45	163.333
1453.64	174.667
1455.82	171.333
1458.01	171.333
1460.2	166
1462.38	144.667
1464.57	135.333
1466.75	118
1468.93	114
1471.12	108.667
1473.3	106
1475.48	103.333
1477.66	106.667
1479.84	106
1482.02	110
1484.2	103.333
1486.38	102
1488.55	94
1490.73	103.333
1492.91	90
1495.08	85.3333
1497.26	79.3333
1499.43	74.6667
1501.61	74.6667
1503.78	72
1505.95	69.3333
1508.12	68
1510.29	66
1512.46	74
1514.63	63.3333
1516.8	68
1518.97	63.3333
1521.14	62
1523.3	64
1525.47	66.6667
1527.63	62.6667
1529.8	61.3333
1531.96	62
1534.12	63.3333
1536.29	63.3333
1538.45	62
1540.61	60
1542.77	58
1544.93	62.6667
1547.09	47.3333
1549.25	62
1551.41	64.6667
1553.56	60.6667
1555.72	58
1557.88	57.3333
1560.03	54.6667
1562.18	57.3333
1564.34	56
1566.49	53.3333
1568.64	54.6667
1570.8	54
1572.95	59.3333
1575.1	56.6667
1577.25	54.6667
1579.4	52.6667
1581.55	56
1583.69	55.3333
1585.84	54.6667
1587.99	54.6667
1590.13	56
1592.28	56
1594.42	54.6667
1596.57	57.3333
1598.71	51.3333
1600.85	61.3333
1602.99	56
1605.14	56
1607.28	54.6667
1609.42	55.3333
1611.56	52
1613.69	53.3333
1615.83	57.3333
1617.97	55.3333
1620.11	57.3333
1622.24	54.6667
1624.38	58.6667
1626.51	50.6667
1628.65	58.6667
1630.78	49.3333
1632.91	55.3333
1635.04	56
1637.17	56.6667
1639.31	52.6667
1641.44	50.6667
1643.57	51.3333
1645.69	49.3333
1647.82	52.6667
1649.95	55.3333
1652.08	55.3333
1654.2	55.3333
1656.33	56
1658.45	51.3333
1660.58	54
1662.7	57.3333
1664.82	50.6667
1666.94	55.3333
1669.07	53.3333
1671.19	54
1673.31	57.3333
1675.43	57.3333
1677.55	58
1679.66	54.6667
1681.78	54.6667
1683.9	51.3333
1686.01	54
1688.13	53.3333
1690.25	54.6667
1692.36	52.6667
1694.47	56.6667
1696.59	52.6667
1698.7	58.6667
1700.81	56
1702.92	55.3333
1705.03	54
1707.14	56.6667
1709.25	52
1711.36	54.6667
1713.47	56
1715.58	60.6667
1717.68	54.6667
1719.79	54
1721.89	54
1724	54
1726.1	57.3333
1728.21	56.6667
1730.31	57.3333
1732.41	56
1734.51	52
1736.61	56.6667
1738.71	52.6667
1740.81	53.3333
1742.91	56.6667
1745.01	54.6667
1747.11	54
1749.2	53.3333
1751.3	52
1753.4	56
1755.49	57.3333
1757.59	56.6667
1759.68	55.3333
1761.77	52.6667
1763.86	54.6667
1765.96	54
1768.05	54.6667
1770.14	56.6667
1772.23	49.3333
1774.32	54.6667
1776.41	54.6667
1778.49	57.3333
1780.58	54
1782.67	53.3333
1784.76	53.3333
1786.84	50.6667
1788.92	62
1791.01	46
1793.09	52
1795.18	58
1797.26	54.6667
1799.34	50
1801.42	58.6667
1803.5	50
1805.58	54
1807.66	60
1809.74	54
1811.82	58.6667
1813.89	53.3333
1815.97	57.3333
1818.05	55.3333
1820.12	57.3333
1822.2	55.3333
1824.27	56
1826.34	55.3333
1828.42	58
1830.49	54
1832.56	56
1834.63	56
1836.7	56
1838.77	53.3333
1840.84	52.6667
1842.91	51.3333
1844.98	54
1847.04	55.3333
1849.11	53.3333
1851.18	54
1853.24	56
1855.31	58
1857.37	58
1859.43	56.6667
1861.5	56.6667
1863.56	58.6667
1865.62	52.6667
1867.68	52.6667
1869.74	58
1871.8	57.3333
1873.86	58.6667
1875.92	58.6667
1877.98	56.6667
1880.03	55.3333
1882.09	56
1884.15	54
1886.2	53.3333
1888.26	55.3333
1890.31	53.3333
1892.36	58.6667
1894.42	58.6667
1896.47	57.3333
1898.52	57.3333
1900.57	56.6667
1902.62	57.3333
1904.67	58
1906.72	54.6667
1908.77	58.6667
1910.82	56
1912.86	62.6667
1914.91	54.6667
1916.96	55.3333
1919	57.3333
1921.04	50.6667
1923.09	60.6667
1925.13	57.3333
1927.18	58.6667
1929.22	53.3333
1931.26	62
1933.3	56.6667
1935.34	57.3333
1937.38	52
1939.42	55.3333
1941.46	60
1943.5	54
1945.53	56.6667
1947.57	54
1949.61	59.3333
1951.64	58.6667
1953.68	54.6667
1955.71	57.3333
1957.75	56.6667
1959.78	56
1961.81	59.3333
1963.84	56.6667
1965.87	58.6667
1967.9	54
1969.93	60
1971.96	58.6667
1973.99	54.6667
1976.02	54.6667
1978.05	62
1980.07	54
1982.1	58.6667
1984.13	56
1986.15	62
1988.18	54
1990.2	56.6667
1992.22	62.6667
1994.25	56.6667
1996.27	54.6667
1998.29	60.6667
2000.31	59.3333
2002.33	59.3333
2004.35	60.6667
2006.37	60.6667
2008.39	58.6667
2010.41	58.6667
2012.42	60
2014.44	58
2016.46	56.6667
2018.47	54.6667
2020.49	64
2022.5	61.3333
2024.51	63.3333
2026.53	62
2028.54	57.3333
2030.55	61.3333
2032.56	56
2034.57	55.3333
2036.58	56.6667
2038.59	56
2040.6	62.6667
2042.61	54.6667
2044.62	62.6667
2046.62	58.6667
2048.63	61.3333
2050.64	56.6667
2052.64	60
2054.65	57.3333
2056.65	60
2058.65	60
2060.66	58
2062.66	58
2064.66	60.6667
2066.66	60.6667
2068.66	58.6667
2070.66	57.3333
2072.66	56
2074.66	58
2076.66	62.6667
2078.65	62
2080.65	56
2082.65	64.6667
2084.64	55.3333
2086.64	59.3333
2088.63	57.3333
2090.63	62
2092.62	62.6667
2094.61	59.3333
2096.6	62
2098.59	62
2100.59	59.3333
2102.58	60
2104.56	56.6667
2106.55	64
2108.54	54.6667
2110.53	60
2112.52	58
2114.5	58.6667
2116.49	52.6667
2118.48	63.3333
2120.46	55.3333
2122.44	62
2124.43	67.3333
2126.41	60
2128.39	63.3333
2130.38	56
2132.36	61.3333
2134.34	59.3333
2136.32	60.6667
2138.3	60
2140.28	61.3333
2142.26	58.6667
2144.23	62.6667
2146.21	60
2148.19	57.3333
2150.16	60
2152.14	62.6667
2154.11	57.3333
2156.09	61.3333
2158.06	60
2160.04	60
2162.01	68
2163.98	59.3333
2165.95	65.3333
2167.92	53.3333
2169.89	62
2171.86	58.6667
2173.83	64
2175.8	69.3333
2177.77	62
2179.73	61.3333
2181.7	63.3333
2183.67	58.6667
2185.63	61.3333
2187.6	62.6667
2189.56	56.6667
2191.53	60
2193.49	56
2195.45	61.3333
2197.41	68.6667
2199.37	62.6667
2201.34	62
2203.29	59.3333
2205.26	58.6667
2207.21	64.6667
2209.17	61.3333
2211.13	62.6667
2213.09	60.6667
2215.05	56
2217	56
2218.96	57.3333
2220.91	62
2222.87	58.6667
2224.82	62.6667
2226.77	60
2228.73	60.6667
2230.68	59.3333
2232.63	60
2234.58	59.3333
2236.53	62
2238.48	61.3333
2240.43	62
2242.38	60.6667
2244.33	63.3333
2246.27	63.3333
2248.22	62
2250.17	60
2252.11	61.3333
2254.06	56.6667
2256	62.6667
2257.95	59.3333
2259.89	57.3333
2261.84	58.6667
2263.78	68.6667
2265.72	59.3333
2267.66	62.6667
2269.6	62.6667
2271.54	64
2273.48	62.6667
2275.42	61.3333
2277.36	64.6667
2279.3	64.6667
2281.23	62
2283.17	62.6667
2285.11	64
2287.04	59.3333
2288.98	63.3333
2290.91	62
2292.84	61.3333
2294.78	66
2296.71	62.6667
2298.64	63.3333
2300.57	63.3333
2302.51	64
2304.44	64
2306.37	59.3333
2308.29	65.3333
2310.22	63.3333
2312.15	67.3333
2314.08	64
2316.01	67.3333
2317.93	60.6667
2319.86	62
2321.78	68
2323.71	62.6667
2325.63	66
2327.56	64
2329.48	60.6667
2331.4	63.3333
2333.32	68.6667
2335.25	65.3333
2337.17	63.3333
2339.09	64.6667
2341.01	64
2342.92	64.6667
2344.84	65.3333
2346.76	63.3333
2348.68	65.3333
2350.6	55.3333
2352.51	60.6667
2354.43	66
2356.34	66.6667
2358.26	70
2360.17	63.3333
2362.09	65.3333
2364	64
2365.91	64.6667
2367.82	63.3333
2369.73	62
2371.64	64.6667
2373.55	60
2375.46	65.3333
2377.37	67.3333
2379.28	63.3333
2381.19	62.6667
2383.1	63.3333
2385	62.6667
2386.91	64.6667
2388.82	58
2390.72	67.3333
2392.62	64.6667
2394.53	64.6667
2396.43	60.6667
2398.33	64.6667
2400.24	64.6667
2402.14	62.6667
2404.04	66.6667
2405.94	66
2407.84	69.3333
2409.74	63.3333
2411.64	66
2413.54	62.6667
2415.44	62.6667
2417.33	64
2419.23	61.3333
2421.13	66.6667
2423.02	64.6667
2424.92	68.6667
2426.81	64
2428.71	66.6667
2430.6	67.3333
2432.49	68
2434.38	56.6667
2436.28	66
2438.17	68
2440.06	64
2441.95	68
2443.84	61.3333
2445.73	62.6667
