176.817	52.6667
179.42	57.3333
182.022	51.3333
184.622	55.3333
187.223	53.3333
189.821	53.3333
192.419	49.3333
195.017	52
197.612	48.6667
200.208	50
202.802	48
205.397	52
207.99	46.6667
210.581	46.6667
213.173	48
215.762	49.3333
218.352	44.6667
220.94	46.6667
223.528	45.3333
226.114	48.6667
228.701	44.6667
231.285	40
233.87	44.6667
236.452	42
239.034	44
241.616	42.6667
244.196	45.3333
246.777	43.3333
249.355	45.3333
251.933	45.3333
254.511	46
257.086	48.6667
259.663	45.3333
262.237	45.3333
264.81	42
267.383	44
269.955	45.3333
272.525	46
275.097	46
277.665	46.6667
280.234	44
282.802	38.6667
285.368	44
287.934	44.6667
290.499	43.3333
293.064	45.3333
295.627	42.6667
298.189	45.3333
300.75	43.3333
303.312	43.3333
305.871	44.6667
308.43	43.3333
310.988	40.6667
313.545	44
316.101	44.6667
318.658	40.6667
321.212	41.3333
323.766	42
326.319	40.6667
328.871	39.3333
331.422	40.6667
333.972	40
336.522	42
339.072	42.6667
341.619	42
344.166	42
346.712	41.3333
349.258	40.6667
351.802	42
354.346	42
356.888	40.6667
359.43	42.6667
361.971	43.3333
364.511	41.3333
367.051	39.3333
369.589	35.3333
372.127	44
374.664	36.6667
377.2	44
379.735	40
382.27	40.6667
384.802	41.3333
387.334	43.3333
389.866	38.6667
392.397	40
394.927	40
397.457	41.3333
399.985	42
402.513	44
405.038	43.3333
407.565	42
410.09	44.6667
412.614	44.6667
415.138	48
417.66	52
420.181	54
422.702	57.3333
425.222	57.3333
427.742	67.3333
430.259	65.3333
432.777	74
435.294	76
437.81	72.6667
440.324	69.3333
442.838	61.3333
445.352	58
447.863	59.3333
450.375	54.6667
452.887	54.6667
455.395	50.6667
457.905	49.3333
460.414	48.6667
462.92	49.3333
465.427	43.3333
467.932	47.3333
470.438	48.6667
472.942	41.3333
475.445	40.6667
477.948	43.3333
480.448	40.6667
482.95	44.6667
485.449	43.3333
487.949	39.3333
490.446	36.6667
492.944	44
495.44	42.6667
497.937	39.3333
500.431	44
502.926	36.6667
505.418	40.6667
507.912	40.6667
510.403	42
512.894	38
515.384	36.6667
517.874	40.6667
520.361	40
522.848	34.6667
525.336	40.6667
527.821	40.6667
530.306	40
532.791	39.3333
535.274	38.6667
537.756	39.3333
540.238	34.6667
542.719	39.3333
545.199	42.6667
547.679	40
550.157	38
552.634	38.6667
555.112	37.3333
557.588	38
560.063	38
562.537	37.3333
565.011	34.6667
567.484	40.6667
569.955	39.3333
572.426	39.3333
574.896	39.3333
577.367	37.3333
579.835	39.3333
582.303	40
584.77	36.6667
587.236	37.3333
589.701	39.3333
592.165	37.3333
594.629	38.6667
597.093	40.6667
599.555	40
602.016	44
604.477	38.6667
606.936	41.3333
609.395	35.3333
611.853	39.3333
614.311	40
616.767	38
619.223	40
621.678	41.3333
624.132	39.3333
626.585	40.6667
629.037	42.6667
631.489	39.3333
633.94	39.3333
636.39	38.6667
638.839	39.3333
641.288	38.6667
643.736	43.3333
646.183	39.3333
648.627	40
651.073	38.6667
653.517	39.3333
655.961	37.3333
658.404	40
660.846	40.6667
663.288	38.6667
665.727	40.6667
668.167	40.6667
670.606	39.3333
673.044	40
675.482	44.6667
677.917	33.3333
680.353	44
682.788	40.6667
685.222	38
687.655	37.3333
690.087	42.6667
692.519	37.3333
694.951	41.3333
697.38	40
699.809	39.3333
702.238	36.6667
704.665	40
707.092	42
709.519	43.3333
711.943	40.6667
714.368	40.6667
716.791	40
719.214	44
721.637	42.6667
724.058	40
726.479	38.6667
728.898	40
731.317	44
733.734	36
736.152	44.6667
738.568	38.6667
740.985	42
743.399	40
745.814	36
748.227	40.6667
750.64	40.6667
753.051	41.3333
755.463	42.6667
757.872	40
760.283	42.6667
762.691	42.6667
765.098	44.6667
767.506	43.3333
769.912	42
772.318	42.6667
774.722	39.3333
777.126	42.6667
779.53	43.3333
781.932	42.6667
784.333	40.6667
786.735	42
789.135	42.6667
791.533	45.3333
793.933	43.3333
796.33	45.3333
798.727	44.6667
801.123	46
803.519	46
805.913	46.6667
808.307	44.6667
810.699	44
813.093	46.6667
815.484	49.3333
817.874	44.6667
820.264	47.3333
822.653	44
825.041	45.3333
827.43	47.3333
829.817	46
832.203	47.3333
834.588	48
836.972	46
839.356	48
841.738	46
844.12	49.3333
846.502	54
848.882	50
851.262	50
853.641	51.3333
856.02	58.6667
858.397	52.6667
860.774	60.6667
863.15	62
865.525	68.6667
867.9	74
870.273	86
872.646	103.333
875.019	131.333
877.39	172
879.761	240
882.131	322.667
884.5	360.667
886.869	345.333
889.236	272
891.602	204
893.968	151.333
896.334	118.667
898.698	94.6667
901.062	73.3333
903.426	71.3333
905.787	64.6667
908.148	57.3333
910.509	56.6667
912.87	55.3333
915.228	55.3333
917.587	54
919.945	45.3333
922.302	50
924.657	46.6667
927.013	45.3333
929.368	48
931.721	48
934.074	49.3333
936.427	42.6667
938.778	46.6667
941.129	45.3333
943.479	42.6667
945.828	44
948.177	45.3333
950.524	44.6667
952.871	42.6667
955.218	44.6667
957.563	44.6667
959.908	44
962.252	44.6667
964.595	42
966.937	46
969.28	47.3333
971.62	46.6667
973.961	44.6667
976.3	44
978.639	43.3333
980.976	43.3333
983.314	42.6667
985.65	46
987.987	44
990.321	44.6667
992.655	46.6667
994.989	47.3333
997.321	43.3333
999.653	49.3333
1001.98	48
1004.31	48.6667
1006.65	50.6667
1008.97	49.3333
1011.3	48.6667
1013.63	49.3333
1015.96	49.3333
1018.28	50.6667
1020.61	53.3333
1022.93	56.6667
1025.26	57.3333
1027.58	54
1029.9	56.6667
1032.22	61.3333
1034.54	68.6667
1036.86	69.3333
1039.18	82
1041.5	94
1043.82	96
1046.14	113.333
1048.45	124
1050.77	124
1053.08	132.667
1055.4	129.333
1057.71	126.667
1060.02	105.333
1062.33	106
1064.64	90.6667
1066.96	91.3333
1069.27	82.6667
1071.57	78.6667
1073.88	78
1076.19	80.6667
1078.5	80
1080.8	85.3333
1083.11	90
1085.41	90
1087.72	102.667
1090.02	114
1092.32	120
1094.62	132
1096.92	133.333
1099.22	132.667
1101.52	134
1103.82	120
1106.12	96
1108.42	95.3333
1110.71	95.3333
1113.01	84
1115.3	77.3333
1117.6	76.6667
1119.89	78
1122.18	70
1124.48	74
1126.77	70
1129.06	74
1131.35	66.6667
1133.64	60
1135.93	62
1138.21	54.6667
1140.5	60.6667
1142.79	54
1145.07	55.3333
1147.36	56
1149.64	50.6667
1151.92	52
1154.21	50
1156.49	52
1158.77	50.6667
1161.05	52
1163.33	50.6667
1165.61	45.3333
1167.89	42.6667
1170.16	50
1172.44	49.3333
1174.72	50
1176.99	45.3333
1179.27	48
1181.54	51.3333
1183.81	48.6667
1186.09	50
1188.36	46.6667
1190.63	48.6667
1192.9	46.6667
1195.17	46
1197.44	46.6667
1199.71	47.3333
1201.97	56
1204.24	42
1206.5	44
1208.77	50
1211.03	50
1213.3	44
1215.56	52.6667
1217.82	48.6667
1220.09	46.6667
1222.35	47.3333
1224.61	48.6667
1226.87	50.6667
1229.12	48.6667
1231.38	50
1233.64	52
1235.9	52
1238.15	52.6667
1240.41	54.6667
1242.66	52
1244.92	54
1247.17	58.6667
1249.42	52
1251.67	55.3333
1253.92	54.6667
1256.17	63.3333
1258.42	62.6667
1260.67	61.3333
1262.92	64.6667
1265.17	61.3333
1267.42	72
1269.66	69.3333
1271.91	78
1274.15	87.3333
1276.39	90.6667
1278.64	86
1280.88	89.3333
1283.12	82.6667
1285.36	80
1287.6	64.6667
1289.84	68
1292.08	66
1294.32	66.6667
1296.56	64
1298.79	58.6667
1301.03	61.3333
1303.26	58.6667
1305.5	59.3333
1307.73	56.6667
1309.97	59.3333
1312.2	60
1314.43	60.6667
1316.66	57.3333
1318.89	60.6667
1321.12	56.6667
1323.35	56.6667
1325.58	54.6667
1327.81	56.6667
1330.03	50.6667
1332.26	58.6667
1334.49	54.6667
1336.71	55.3333
1338.94	58.6667
1341.16	56.6667
1343.38	58.6667
1345.6	56
1347.83	54.6667
1350.05	56
1352.27	54
1354.49	54
1356.7	58.6667
1358.92	58
1361.14	56.6667
1363.36	56
1365.57	61.3333
1367.79	60.6667
1370	60
1372.21	67.3333
1374.43	56
1376.64	68
1378.85	64
1381.06	74
1383.27	68
1385.48	68.6667
1387.69	69.3333
1389.9	62.6667
1392.11	64
1394.31	62
1396.52	66
1398.73	72
1400.93	63.3333
1403.13	64
1405.34	69.3333
1407.54	70.6667
1409.74	80
1411.94	81.3333
1414.14	72.6667
1416.34	80
1418.54	78
1420.74	79.3333
1422.94	80.6667
1425.14	86.6667
1427.33	88.6667
1429.53	88.6667
1431.72	89.3333
1433.92	92.6667
1436.11	92
1438.3	94.6667
1440.5	111.333
1442.69	115.333
1444.88	118.667
1447.07	135.333
1449.26	140
1451.45	158
1453.64	166.667
1455.82	178.667
1458.01	158.667
1460.2	142.667
1462.38	134.667
1464.57	124.667
1466.75	115.333
1468.93	112
1471.12	114
1473.3	104.667
1475.48	98
1477.66	92.6667
1479.84	100.667
1482.02	98
1484.2	98.6667
1486.38	97.3333
1488.55	92.6667
1490.73	91.3333
1492.91	88
1495.08	78
1497.26	86
1499.43	71.3333
1501.61	74.6667
1503.78	73.3333
1505.95	72
1508.12	74.6667
1510.29	68.6667
1512.46	63.3333
1514.63	69.3333
1516.8	61.3333
1518.97	64
1521.14	62
1523.3	65.3333
1525.47	66.6667
1527.63	64
1529.8	56.6667
1531.96	61.3333
1534.12	60.6667
1536.29	59.3333
1538.45	61.3333
1540.61	64.6667
1542.77	56
1544.93	57.3333
1547.09	59.3333
1549.25	54.6667
1551.41	61.3333
1553.56	54.6667
1555.72	56.6667
1557.88	60
1560.03	50
1562.18	58.6667
1564.34	56
1566.49	52.6667
1568.64	58
1570.8	54.6667
1572.95	57.3333
1575.1	55.3333
1577.25	49.3333
1579.4	58
1581.55	53.3333
1583.69	55.3333
1585.84	52
1587.99	56.6667
1590.13	56.6667
1592.28	56
1594.42	50.6667
1596.57	54
1598.71	54
1600.85	53.3333
1602.99	54
1605.14	56
1607.28	56
1609.42	54
1611.56	53.3333
1613.69	50.6667
1615.83	58
1617.97	58.6667
1620.11	54.6667
1622.24	53.3333
1624.38	56.6667
1626.51	52.6667
1628.65	46.6667
1630.78	52.6667
1632.91	51.3333
1635.04	54
1637.17	50.6667
1639.31	56
1641.44	52
1643.57	51.3333
1645.69	52.6667
1647.82	54.6667
1649.95	54.6667
1652.08	48
1654.2	51.3333
1656.33	53.3333
1658.45	50
1660.58	60
1662.7	55.3333
1664.82	54.6667
1666.94	52.6667
1669.07	55.3333
1671.19	52.6667
1673.31	56.6667
1675.43	57.3333
1677.55	52
1679.66	54.6667
1681.78	55.3333
1683.9	54.6667
1686.01	57.3333
1688.13	56.6667
1690.25	56.6667
1692.36	55.3333
1694.47	56.6667
1696.59	56.6667
1698.7	52
1700.81	50.6667
1702.92	54
1705.03	53.3333
1707.14	52
1709.25	58
1711.36	54.6667
1713.47	55.3333
1715.58	58
1717.68	57.3333
1719.79	56.6667
1721.89	56
1724	53.3333
1726.1	54.6667
1728.21	55.3333
1730.31	52.6667
1732.41	52.6667
1734.51	54.6667
1736.61	52
1738.71	53.3333
1740.81	56.6667
1742.91	52
1745.01	57.3333
1747.11	54
1749.2	54.6667
1751.3	54.6667
1753.4	54
1755.49	55.3333
1757.59	56
1759.68	58
1761.77	56.6667
1763.86	55.3333
1765.96	56
1768.05	56.6667
1770.14	54
1772.23	58.6667
1774.32	57.3333
1776.41	59.3333
1778.49	48
1780.58	52.6667
1782.67	54.6667
1784.76	53.3333
1786.84	54.6667
1788.92	54.6667
1791.01	52
1793.09	58.6667
1795.18	54
1797.26	56
1799.34	53.3333
1801.42	54.6667
1803.5	54.6667
1805.58	54
1807.66	60.6667
1809.74	54
1811.82	56
1813.89	53.3333
1815.97	52.6667
1818.05	50.6667
1820.12	56
1822.2	53.3333
1824.27	56.6667
1826.34	56
1828.42	56
1830.49	54.6667
1832.56	57.3333
1834.63	54.6667
1836.7	57.3333
1838.77	54
1840.84	56.6667
1842.91	55.3333
1844.98	54
1847.04	52.6667
1849.11	56.6667
1851.18	52
1853.24	54.6667
1855.31	51.3333
1857.37	56.6667
1859.43	52.6667
1861.5	56
1863.56	56
1865.62	54.6667
1867.68	56.6667
1869.74	54
1871.8	57.3333
1873.86	60.6667
1875.92	56
1877.98	56.6667
1880.03	52.6667
1882.09	54.6667
1884.15	55.3333
1886.2	58
1888.26	57.3333
1890.31	53.3333
1892.36	51.3333
1894.42	57.3333
1896.47	52
1898.52	55.3333
1900.57	56
1902.62	58.6667
1904.67	52.6667
1906.72	50.6667
1908.77	57.3333
1910.82	54.6667
1912.86	52
1914.91	56.6667
1916.96	55.3333
1919	58
1921.04	56.6667
1923.09	56
1925.13	56
1927.18	56.6667
1929.22	55.3333
1931.26	56
1933.3	62.6667
1935.34	52.6667
1937.38	59.3333
1939.42	59.3333
1941.46	58
1943.5	57.3333
1945.53	60.6667
1947.57	60.6667
1949.61	59.3333
1951.64	54
1953.68	54.6667
1955.71	52
1957.75	56.6667
1959.78	58
1961.81	56.6667
1963.84	55.3333
1965.87	55.3333
1967.9	51.3333
1969.93	53.3333
1971.96	56.6667
1973.99	56
1976.02	61.3333
1978.05	58.6667
1980.07	55.3333
1982.1	60
1984.13	59.3333
1986.15	58.6667
1988.18	57.3333
1990.2	53.3333
1992.22	54.6667
1994.25	58
1996.27	57.3333
1998.29	56.6667
2000.31	58
2002.33	61.3333
2004.35	55.3333
2006.37	58.6667
2008.39	54.6667
2010.41	60
2012.42	58.6667
2014.44	61.3333
2016.46	54
2018.47	57.3333
2020.49	57.3333
2022.5	58
2024.51	59.3333
2026.53	62
2028.54	50
2030.55	57.3333
2032.56	60.6667
2034.57	61.3333
2036.58	56
2038.59	62.6667
2040.6	58.6667
2042.61	56.6667
2044.62	56
2046.62	59.3333
2048.63	60.6667
2050.64	58.6667
2052.64	58
2054.65	51.3333
2056.65	56.6667
2058.65	60
2060.66	56
2062.66	58
2064.66	58
2066.66	56.6667
2068.66	62.6667
2070.66	57.3333
2072.66	60.6667
2074.66	60.6667
2076.66	61.3333
2078.65	55.3333
2080.65	58
2082.65	59.3333
2084.64	62.6667
2086.64	60.6667
2088.63	64
2090.63	60.6667
2092.62	62
2094.61	62
2096.6	58.6667
2098.59	56.6667
2100.59	63.3333
2102.58	62.6667
2104.56	58
2106.55	56
2108.54	65.3333
2110.53	57.3333
2112.52	60.6667
2114.5	66
2116.49	60.6667
2118.48	60
2120.46	58.6667
2122.44	56.6667
2124.43	60
2126.41	58.6667
2128.39	60.6667
2130.38	58
2132.36	60
2134.34	53.3333
2136.32	60
2138.3	62.6667
2140.28	62
2142.26	62.6667
2144.23	62
2146.21	57.3333
2148.19	60
2150.16	57.3333
2152.14	64
2154.11	59.3333
2156.09	64
2158.06	58
2160.04	61.3333
2162.01	61.3333
2163.98	62.6667
2165.95	60
2167.92	59.3333
2169.89	57.3333
2171.86	64
2173.83	62.6667
2175.8	60
2177.77	57.3333
2179.73	62.6667
2181.7	62
2183.67	60.6667
2185.63	62
2187.6	62
2189.56	61.3333
2191.53	66
2193.49	64
2195.45	62.6667
2197.41	59.3333
2199.37	61.3333
2201.34	62
2203.29	60.6667
2205.26	58
2207.21	63.3333
2209.17	62.6667
2211.13	65.3333
2213.09	61.3333
2215.05	58
2217	61.3333
2218.96	59.3333
2220.91	58
2222.87	64.6667
2224.82	66.6667
2226.77	61.3333
2228.73	60.6667
2230.68	59.3333
2232.63	62
2234.58	64
2236.53	60.6667
2238.48	62.6667
2240.43	59.3333
2242.38	64.6667
2244.33	60
2246.27	63.3333
2248.22	64
2250.17	63.3333
2252.11	64
2254.06	68
2256	65.3333
2257.95	62
2259.89	59.3333
2261.84	64
2263.78	67.3333
2265.72	65.3333
2267.66	62.6667
2269.6	63.3333
2271.54	64.6667
2273.48	61.3333
2275.42	59.3333
2277.36	67.3333
2279.3	65.3333
2281.23	62.6667
2283.17	60
2285.11	58.6667
2287.04	61.3333
2288.98	62.6667
2290.91	66.6667
2292.84	60
2294.78	64.6667
2296.71	63.3333
2298.64	63.3333
2300.57	64
2302.51	65.3333
2304.44	60.6667
2306.37	64
2308.29	61.3333
2310.22	62
2312.15	62.6667
2314.08	62
2316.01	64
2317.93	64
2319.86	61.3333
2321.78	65.3333
2323.71	64
2325.63	65.3333
2327.56	65.3333
2329.48	64
2331.4	66
2333.32	58.6667
2335.25	62.6667
2337.17	63.3333
2339.09	69.3333
2341.01	64.6667
2342.92	58
2344.84	60
2346.76	63.3333
2348.68	60.6667
2350.6	67.3333
2352.51	65.3333
2354.43	60.6667
2356.34	61.3333
2358.26	62.6667
2360.17	62.6667
2362.09	65.3333
2364	62
2365.91	60
2367.82	64
2369.73	60.6667
2371.64	68.6667
2373.55	60
2375.46	64
2377.37	66.6667
2379.28	64
2381.19	61.3333
2383.1	63.3333
2385	64.6667
2386.91	59.3333
2388.82	65.3333
2390.72	64.6667
2392.62	64
2394.53	68
2396.43	60.6667
2398.33	66.6667
2400.24	66
2402.14	60.6667
2404.04	62
2405.94	64
2407.84	67.3333
2409.74	58.6667
2411.64	64.6667
2413.54	68
2415.44	64.6667
2417.33	67.3333
2419.23	62
2421.13	61.3333
2423.02	65.3333
2424.92	65.3333
2426.81	64.6667
2428.71	62.6667
2430.6	68.6667
2432.49	66.6667
2434.38	66.6667
2436.28	64
2438.17	64.6667
2440.06	66
2441.95	58.6667
2443.84	60.6667
2445.73	62.6667
