176.817	61.3333
179.42	52.6667
182.022	54.6667
184.622	50
187.223	47.3333
189.821	56
192.419	48.6667
195.017	54
197.612	49.3333
200.208	51.3333
202.802	52
205.397	46.6667
207.99	48
210.581	49.3333
213.173	50
215.762	48
218.352	49.3333
220.94	48.6667
223.528	46.6667
226.114	46
228.701	46
231.285	43.3333
233.87	48.6667
236.452	46
239.034	44.6667
241.616	48.6667
244.196	43.3333
246.777	45.3333
249.355	46.6667
251.933	44
254.511	47.3333
257.086	44.6667
259.663	46
262.237	42.6667
264.81	46.6667
267.383	44.6667
269.955	44.6667
272.525	45.3333
275.097	44.6667
277.665	44
280.234	46.6667
282.802	46
285.368	48
287.934	48.6667
290.499	45.3333
293.064	45.3333
295.627	43.3333
298.189	43.3333
300.75	47.3333
303.312	42.6667
305.871	42.6667
308.43	44.6667
310.988	42.6667
313.545	42.6667
316.101	38
318.658	42
321.212	42
323.766	36.6667
326.319	40.6667
328.871	40.6667
331.422	40.6667
333.972	44.6667
336.522	44
339.072	38
341.619	40
344.166	38.6667
346.712	36.6667
349.258	40
351.802	42
354.346	40.6667
356.888	44
359.43	39.3333
361.971	42
364.511	40
367.051	44
369.589	41.3333
372.127	41.3333
374.664	41.3333
377.2	40.6667
379.735	41.3333
382.27	42
384.802	40.6667
387.334	41.3333
389.866	42.6667
392.397	42
394.927	38
397.457	40
399.985	42
402.513	41.3333
405.038	48.6667
407.565	44.6667
410.09	43.3333
412.614	46.6667
415.138	46.6667
417.66	56
420.181	54.6667
422.702	54.6667
425.222	62.6667
427.742	67.3333
430.259	67.3333
432.777	70.6667
435.294	76
437.81	71.3333
440.324	69.3333
442.838	68.6667
445.352	64
447.863	58.6667
450.375	54.6667
452.887	53.3333
455.395	52.6667
457.905	51.3333
460.414	50.6667
462.92	42.6667
465.427	48.6667
467.932	49.3333
470.438	45.3333
472.942	44.6667
475.445	47.3333
477.948	44
480.448	44
482.95	42.6667
485.449	40
487.949	44.6667
490.446	44
492.944	43.3333
495.44	40.6667
497.937	41.3333
500.431	42
502.926	38.6667
505.418	42.6667
507.912	42
510.403	46.6667
512.894	40.6667
515.384	40.6667
517.874	40
520.361	40
522.848	40
525.336	36.6667
527.821	39.3333
530.306	41.3333
532.791	41.3333
535.274	38.6667
537.756	44
540.238	37.3333
542.719	40.6667
545.199	38
547.679	40.6667
550.157	36.6667
552.634	38.6667
555.112	40.6667
557.588	36.6667
560.063	38
562.537	38
565.011	43.3333
567.484	38
569.955	41.3333
572.426	38
574.896	42
577.367	39.3333
579.835	40.6667
582.303	39.3333
584.77	38
587.236	40.6667
589.701	38
592.165	38.6667
594.629	38
597.093	41.3333
599.555	42.6667
602.016	39.3333
604.477	39.3333
606.936	36
609.395	40
611.853	38
614.311	41.3333
616.767	40
619.223	42
621.678	39.3333
624.132	37.3333
626.585	42.6667
629.037	40.6667
631.489	37.3333
633.94	40
636.39	39.3333
638.839	40.6667
641.288	36
643.736	38.6667
646.183	42
648.627	41.3333
651.073	37.3333
653.517	37.3333
655.961	36.6667
658.404	40
660.846	43.3333
663.288	42
665.727	40
668.167	38
670.606	41.3333
673.044	42.6667
675.482	38.6667
677.917	38.6667
680.353	40.6667
682.788	41.3333
685.222	43.3333
687.655	41.3333
690.087	40.6667
692.519	41.3333
694.951	42
697.38	40
699.809	43.3333
702.238	38.6667
704.665	43.3333
707.092	38.6667
709.519	41.3333
711.943	42
714.368	44
716.791	42
719.214	42
721.637	40.6667
724.058	40.6667
726.479	39.3333
728.898	42
731.317	39.3333
733.734	40.6667
736.152	38.6667
738.568	39.3333
740.985	41.3333
743.399	40.6667
745.814	40
748.227	38.6667
750.64	43.3333
753.051	43.3333
755.463	41.3333
757.872	40
760.283	44
762.691	46
765.098	42.6667
767.506	41.3333
769.912	43.3333
772.318	46
774.722	41.3333
777.126	42.6667
779.53	43.3333
781.932	44
784.333	46
786.735	40.6667
789.135	38.6667
791.533	44
793.933	44.6667
796.33	50
798.727	44
801.123	44
803.519	46
805.913	42
808.307	49.3333
810.699	44.6667
813.093	48.6667
815.484	44.6667
817.874	44
820.264	45.3333
822.653	44.6667
825.041	47.3333
827.43	44
829.817	46.6667
832.203	44
834.588	48.6667
836.972	47.3333
839.356	50.6667
841.738	51.3333
844.12	51.3333
846.502	50
848.882	52.6667
851.262	52.6667
853.641	54
856.02	60
858.397	54.6667
860.774	58.6667
863.15	64.6667
865.525	68
867.9	70.6667
870.273	88
872.646	110.667
875.019	138.667
877.39	171.333
879.761	255.333
882.131	327.333
884.5	385.333
886.869	360
889.236	293.333
891.602	215.333
893.968	154.667
896.334	114
898.698	96.6667
901.062	78
903.426	70
905.787	64.6667
908.148	62.6667
910.509	58.6667
912.87	52
915.228	50.6667
917.587	48
919.945	52.6667
922.302	51.3333
924.657	50
927.013	45.3333
929.368	48
931.721	45.3333
934.074	49.3333
936.427	43.3333
938.778	46.6667
941.129	49.3333
943.479	44
945.828	50
948.177	40.6667
950.524	47.3333
952.871	47.3333
955.218	42
957.563	40.6667
959.908	50
962.252	41.3333
964.595	46
966.937	46
969.28	45.3333
971.62	44.6667
973.961	50
976.3	47.3333
978.639	42.6667
980.976	46
983.314	49.3333
985.65	42.6667
987.987	48.6667
990.321	46.6667
992.655	48
994.989	48
997.321	45.3333
999.653	48
1001.98	40.6667
1004.31	47.3333
1006.65	46
1008.97	48.6667
1011.3	50
1013.63	54.6667
1015.96	52
1018.28	54.6667
1020.61	51.3333
1022.93	54
1025.26	54
1027.58	63.3333
1029.9	61.3333
1032.22	62
1034.54	71.3333
1036.86	74.6667
1039.18	80.6667
1041.5	88
1043.82	96.6667
1046.14	111.333
1048.45	130.667
1050.77	132
1053.08	132
1055.4	131.333
1057.71	130.667
1060.02	112
1062.33	104.667
1064.64	95.3333
1066.96	84
1069.27	86
1071.57	78.6667
1073.88	78.6667
1076.19	82.6667
1078.5	84.6667
1080.8	91.3333
1083.11	93.3333
1085.41	101.333
1087.72	110
1090.02	118
1092.32	128.667
1094.62	128.667
1096.92	137.333
1099.22	136
1101.52	136
1103.82	123.333
1106.12	106.667
1108.42	101.333
1110.71	89.3333
1113.01	82
1115.3	82
1117.6	81.3333
1119.89	72.6667
1122.18	74.6667
1124.48	76.6667
1126.77	76
1129.06	68.6667
1131.35	69.3333
1133.64	62.6667
1135.93	58.6667
1138.21	57.3333
1140.5	54
1142.79	59.3333
1145.07	57.3333
1147.36	52.6667
1149.64	54.6667
1151.92	53.3333
1154.21	48.6667
1156.49	50.6667
1158.77	51.3333
1161.05	49.3333
1163.33	50.6667
1165.61	45.3333
1167.89	46.6667
1170.16	49.3333
1172.44	50
1174.72	49.3333
1176.99	48.6667
1179.27	49.3333
1181.54	48.6667
1183.81	46.6667
1186.09	46
1188.36	46.6667
1190.63	50
1192.9	46.6667
1195.17	48
1197.44	46
1199.71	53.3333
1201.97	46.6667
1204.24	50
1206.5	51.3333
1208.77	48
1211.03	50
1213.3	50.6667
1215.56	52
1217.82	50.6667
1220.09	46.6667
1222.35	48
1224.61	49.3333
1226.87	51.3333
1229.12	50.6667
1231.38	48.6667
1233.64	51.3333
1235.9	51.3333
1238.15	48.6667
1240.41	52
1242.66	54
1244.92	56
1247.17	57.3333
1249.42	52.6667
1251.67	62
1253.92	60.6667
1256.17	49.3333
1258.42	62.6667
1260.67	61.3333
1262.92	66
1265.17	62.6667
1267.42	71.3333
1269.66	76
1271.91	82
1274.15	88.6667
1276.39	92.6667
1278.64	96.6667
1280.88	87.3333
1283.12	82
1285.36	73.3333
1287.6	74.6667
1289.84	65.3333
1292.08	69.3333
1294.32	64.6667
1296.56	66
1298.79	58
1301.03	60
1303.26	57.3333
1305.5	59.3333
1307.73	61.3333
1309.97	62
1312.2	56.6667
1314.43	57.3333
1316.66	54.6667
1318.89	56.6667
1321.12	58
1323.35	57.3333
1325.58	56
1327.81	60
1330.03	55.3333
1332.26	56.6667
1334.49	58.6667
1336.71	56
1338.94	53.3333
1341.16	54
1343.38	58
1345.6	56
1347.83	56
1350.05	59.3333
1352.27	56.6667
1354.49	58
1356.7	56
1358.92	59.3333
1361.14	59.3333
1363.36	62.6667
1365.57	57.3333
1367.79	58.6667
1370	61.3333
1372.21	63.3333
1374.43	64.6667
1376.64	69.3333
1378.85	62.6667
1381.06	61.3333
1383.27	68.6667
1385.48	70
1387.69	69.3333
1389.9	66.6667
1392.11	69.3333
1394.31	64
1396.52	72
1398.73	72
1400.93	68.6667
1403.13	69.3333
1405.34	68
1407.54	72.6667
1409.74	70.6667
1411.94	80
1414.14	75.3333
1416.34	73.3333
1418.54	78
1420.74	82.6667
1422.94	88.6667
1425.14	88
1427.33	90
1429.53	87.3333
1431.72	99.3333
1433.92	92.6667
1436.11	100
1438.3	105.333
1440.5	112
1442.69	119.333
1444.88	130
1447.07	140.667
1449.26	154.667
1451.45	168
1453.64	172.667
1455.82	169.333
1458.01	169.333
1460.2	166.667
1462.38	132.667
1464.57	130.667
1466.75	126
1468.93	114
1471.12	106.667
1473.3	110.667
1475.48	102
1477.66	99.3333
1479.84	99.3333
1482.02	106.667
1484.2	101.333
1486.38	98.6667
1488.55	92.6667
1490.73	91.3333
1492.91	85.3333
1495.08	85.3333
1497.26	79.3333
1499.43	72.6667
1501.61	73.3333
1503.78	77.3333
1505.95	70
1508.12	72
1510.29	70.6667
1512.46	70
1514.63	70.6667
1516.8	65.3333
1518.97	68.6667
1521.14	64
1523.3	68.6667
1525.47	62.6667
1527.63	60.6667
1529.8	63.3333
1531.96	64
1534.12	59.3333
1536.29	59.3333
1538.45	60.6667
1540.61	54.6667
1542.77	55.3333
1544.93	60.6667
1547.09	59.3333
1549.25	55.3333
1551.41	55.3333
1553.56	58
1555.72	64
1557.88	58.6667
1560.03	60.6667
1562.18	58
1564.34	57.3333
1566.49	54
1568.64	56.6667
1570.8	58
1572.95	58.6667
1575.1	55.3333
1577.25	53.3333
1579.4	58.6667
1581.55	54.6667
1583.69	52
1585.84	58
1587.99	52
1590.13	54
1592.28	58
1594.42	52.6667
1596.57	54
1598.71	54
1600.85	53.3333
1602.99	55.3333
1605.14	55.3333
1607.28	56.6667
1609.42	55.3333
1611.56	51.3333
1613.69	52
1615.83	54.6667
1617.97	56
1620.11	55.3333
1622.24	50
1624.38	57.3333
1626.51	52
1628.65	53.3333
1630.78	54.6667
1632.91	53.3333
1635.04	55.3333
1637.17	55.3333
1639.31	58.6667
1641.44	54
1643.57	55.3333
1645.69	51.3333
1647.82	52.6667
1649.95	54.6667
1652.08	54
1654.2	52
1656.33	48
1658.45	54.6667
1660.58	53.3333
1662.7	56.6667
1664.82	54.6667
1666.94	52.6667
1669.07	51.3333
1671.19	54
1673.31	56
1675.43	54
1677.55	54
1679.66	56.6667
1681.78	54.6667
1683.9	54
1686.01	54
1688.13	54.6667
1690.25	57.3333
1692.36	56.6667
1694.47	54
1696.59	56
1698.7	53.3333
1700.81	55.3333
1702.92	56.6667
1705.03	52.6667
1707.14	58
1709.25	52.6667
1711.36	52.6667
1713.47	53.3333
1715.58	54.6667
1717.68	56.6667
1719.79	53.3333
1721.89	54.6667
1724	56.6667
1726.1	50
1728.21	57.3333
1730.31	56.6667
1732.41	58.6667
1734.51	56
1736.61	54.6667
1738.71	54.6667
1740.81	55.3333
1742.91	57.3333
1745.01	50
1747.11	54
1749.2	54.6667
1751.3	56.6667
1753.4	52
1755.49	50.6667
1757.59	52
1759.68	54.6667
1761.77	55.3333
1763.86	56.6667
1765.96	53.3333
1768.05	54.6667
1770.14	53.3333
1772.23	58
1774.32	48.6667
1776.41	55.3333
1778.49	56.6667
1780.58	58.6667
1782.67	56
1784.76	50.6667
1786.84	59.3333
1788.92	52.6667
1791.01	58.6667
1793.09	57.3333
1795.18	55.3333
1797.26	48
1799.34	53.3333
1801.42	56
1803.5	58.6667
1805.58	58
1807.66	56
1809.74	56
1811.82	53.3333
1813.89	54.6667
1815.97	60.6667
1818.05	54.6667
1820.12	50.6667
1822.2	53.3333
1824.27	55.3333
1826.34	54.6667
1828.42	56.6667
1830.49	58
1832.56	56
1834.63	56.6667
1836.7	56.6667
1838.77	58.6667
1840.84	53.3333
1842.91	55.3333
1844.98	57.3333
1847.04	52.6667
1849.11	50.6667
1851.18	52
1853.24	50.6667
1855.31	58
1857.37	54
1859.43	54.6667
1861.5	52.6667
1863.56	52.6667
1865.62	60.6667
1867.68	54.6667
1869.74	54.6667
1871.8	57.3333
1873.86	56
1875.92	56
1877.98	54
1880.03	60.6667
1882.09	54.6667
1884.15	56
1886.2	55.3333
1888.26	55.3333
1890.31	54
1892.36	56.6667
1894.42	56.6667
1896.47	56
1898.52	54.6667
1900.57	55.3333
1902.62	55.3333
1904.67	52.6667
1906.72	58.6667
1908.77	55.3333
1910.82	60.6667
1912.86	58.6667
1914.91	56
1916.96	56.6667
1919	58
1921.04	56.6667
1923.09	54.6667
1925.13	52.6667
1927.18	54
1929.22	54
1931.26	58.6667
1933.3	54.6667
1935.34	56.6667
1937.38	55.3333
1939.42	59.3333
1941.46	60
1943.5	53.3333
1945.53	56
1947.57	57.3333
1949.61	59.3333
1951.64	60
1953.68	56.6667
1955.71	56
1957.75	62
1959.78	52.6667
1961.81	56
1963.84	56
1965.87	56
1967.9	58.6667
1969.93	58
1971.96	58.6667
1973.99	56.6667
1976.02	60.6667
1978.05	52.6667
1980.07	54.6667
1982.1	54.6667
1984.13	58
1986.15	58.6667
1988.18	56
1990.2	56
1992.22	55.3333
1994.25	55.3333
1996.27	60
1998.29	54.6667
2000.31	57.3333
2002.33	49.3333
2004.35	58.6667
2006.37	61.3333
2008.39	58.6667
2010.41	57.3333
2012.42	57.3333
2014.44	55.3333
2016.46	53.3333
2018.47	55.3333
2020.49	58
2022.5	58
2024.51	60
2026.53	56
2028.54	59.3333
2030.55	54.6667
2032.56	60.6667
2034.57	55.3333
2036.58	62
2038.59	60
2040.6	60.6667
2042.61	60
2044.62	60.6667
2046.62	59.3333
2048.63	55.3333
2050.64	57.3333
2052.64	59.3333
2054.65	60.6667
2056.65	61.3333
2058.65	54
2060.66	53.3333
2062.66	62
2064.66	56.6667
2066.66	57.3333
2068.66	58.6667
2070.66	56.6667
2072.66	61.3333
2074.66	56.6667
2076.66	61.3333
2078.65	60
2080.65	62
2082.65	60
2084.64	61.3333
2086.64	62.6667
2088.63	58.6667
2090.63	58.6667
2092.62	58.6667
2094.61	59.3333
2096.6	62.6667
2098.59	63.3333
2100.59	58.6667
2102.58	58.6667
2104.56	63.3333
2106.55	62
2108.54	60.6667
2110.53	63.3333
2112.52	60.6667
2114.5	61.3333
2116.49	60
2118.48	68.6667
2120.46	58.6667
2122.44	61.3333
2124.43	61.3333
2126.41	63.3333
2128.39	62
2130.38	59.3333
2132.36	56.6667
2134.34	63.3333
2136.32	62
2138.3	63.3333
2140.28	65.3333
2142.26	64
2144.23	60.6667
2146.21	63.3333
2148.19	58
2150.16	60.6667
2152.14	62.6667
2154.11	60
2156.09	61.3333
2158.06	62
2160.04	64.6667
2162.01	68
2163.98	62.6667
2165.95	64
2167.92	61.3333
2169.89	59.3333
2171.86	59.3333
2173.83	58
2175.8	58.6667
2177.77	60
2179.73	64.6667
2181.7	59.3333
2183.67	64.6667
2185.63	60.6667
2187.6	60
2189.56	56.6667
2191.53	62.6667
2193.49	60.6667
2195.45	57.3333
2197.41	64.6667
2199.37	62.6667
2201.34	58.6667
2203.29	60.6667
2205.26	56.6667
2207.21	54.6667
2209.17	63.3333
2211.13	56.6667
2213.09	62.6667
2215.05	58
2217	60.6667
2218.96	62.6667
2220.91	57.3333
2222.87	64
2224.82	64.6667
2226.77	62.6667
2228.73	65.3333
2230.68	60.6667
2232.63	62.6667
2234.58	56
2236.53	61.3333
2238.48	64
2240.43	62.6667
2242.38	61.3333
2244.33	60
2246.27	58.6667
2248.22	61.3333
2250.17	67.3333
2252.11	64
2254.06	60.6667
2256	64
2257.95	64
2259.89	64
2261.84	65.3333
2263.78	67.3333
2265.72	64
2267.66	64.6667
2269.6	65.3333
2271.54	65.3333
2273.48	60
2275.42	60.6667
2277.36	62.6667
2279.3	64
2281.23	64.6667
2283.17	58.6667
2285.11	62.6667
2287.04	68.6667
2288.98	62.6667
2290.91	68
2292.84	64
2294.78	62.6667
2296.71	56.6667
2298.64	65.3333
2300.57	63.3333
2302.51	60
2304.44	62
2306.37	59.3333
2308.29	66
2310.22	65.3333
2312.15	68.6667
2314.08	61.3333
2316.01	66.6667
2317.93	66
2319.86	65.3333
2321.78	64
2323.71	64.6667
2325.63	65.3333
2327.56	66
2329.48	66
2331.4	64
2333.32	62.6667
2335.25	65.3333
2337.17	61.3333
2339.09	66.6667
2341.01	64.6667
2342.92	66.6667
2344.84	66
2346.76	60
2348.68	58.6667
2350.6	64
2352.51	64
2354.43	63.3333
2356.34	60.6667
2358.26	70
2360.17	57.3333
2362.09	65.3333
2364	66
2365.91	63.3333
2367.82	63.3333
2369.73	62.6667
2371.64	59.3333
2373.55	62.6667
2375.46	57.3333
2377.37	62
2379.28	62.6667
2381.19	59.3333
2383.1	59.3333
2385	66.6667
2386.91	67.3333
2388.82	62
2390.72	60.6667
2392.62	62.6667
2394.53	63.3333
2396.43	60
2398.33	64.6667
2400.24	63.3333
2402.14	64.6667
2404.04	68.6667
2405.94	63.3333
2407.84	62.6667
2409.74	62
2411.64	60
2413.54	67.3333
2415.44	64.6667
2417.33	69.3333
2419.23	61.3333
2421.13	65.3333
2423.02	64.6667
2424.92	64.6667
2426.81	63.3333
2428.71	59.3333
2430.6	62.6667
2432.49	65.3333
2434.38	62
2436.28	70.6667
2438.17	64.6667
2440.06	64
2441.95	66
2443.84	66.6667
2445.73	66.6667
