176.817	118.667
179.42	126
182.022	113.333
184.622	119.333
187.223	112
189.821	96
192.419	107.333
195.017	102
197.612	100.667
200.208	98.6667
202.802	96.6667
205.397	100
207.99	95.3333
210.581	90
213.173	94.6667
215.762	93.3333
218.352	90
220.94	83.3333
223.528	89.3333
226.114	85.3333
228.701	88
231.285	80.6667
233.87	78.6667
236.452	83.3333
239.034	80
241.616	79.3333
244.196	74
246.777	74.6667
249.355	77.3333
251.933	80.6667
254.511	68.6667
257.086	76
259.663	73.3333
262.237	74.6667
264.81	70.6667
267.383	64.6667
269.955	67.3333
272.525	61.3333
275.097	68
277.665	65.3333
280.234	66.6667
282.802	67.3333
285.368	66.6667
287.934	62.6667
290.499	64
293.064	64.6667
295.627	66.6667
298.189	57.3333
300.75	58
303.312	56.6667
305.871	57.3333
308.43	55.3333
310.988	58.6667
313.545	56
316.101	51.3333
318.658	52.6667
321.212	51.3333
323.766	50
326.319	50
328.871	49.3333
331.422	52
333.972	46
336.522	53.3333
339.072	50.6667
341.619	49.3333
344.166	49.3333
346.712	47.3333
349.258	46.6667
351.802	46
354.346	46.6667
356.888	48
359.43	46.6667
361.971	47.3333
364.511	44
367.051	44.6667
369.589	47.3333
372.127	46.6667
374.664	48
377.2	44
379.735	48.6667
382.27	44
384.802	46
387.334	42
389.866	42.6667
392.397	44
394.927	45.3333
397.457	42
399.985	44.6667
402.513	42
405.038	44
407.565	44.6667
410.09	42
412.614	46.6667
415.138	44
417.66	44.6667
420.181	44.6667
422.702	43.3333
425.222	49.3333
427.742	40
430.259	46.6667
432.777	44.6667
435.294	46.6667
437.81	46
440.324	43.3333
442.838	46.6667
445.352	44.6667
447.863	46
450.375	44
452.887	44.6667
455.395	46.6667
457.905	45.3333
460.414	41.3333
462.92	48
465.427	42
467.932	35.3333
470.438	44.6667
472.942	46
475.445	42.6667
477.948	42
480.448	44.6667
482.95	44
485.449	45.3333
487.949	44
490.446	43.3333
492.944	44.6667
495.44	44.6667
497.937	42
500.431	44.6667
502.926	44.6667
505.418	44
507.912	44.6667
510.403	44
512.894	44.6667
515.384	44
517.874	45.3333
520.361	42
522.848	44
525.336	41.3333
527.821	46.6667
530.306	43.3333
532.791	44
535.274	42
537.756	40
540.238	44
542.719	44
545.199	41.3333
547.679	42
550.157	44.6667
552.634	42.6667
555.112	44
557.588	49.3333
560.063	44
562.537	46
565.011	47.3333
567.484	44.6667
569.955	42.6667
572.426	42.6667
574.896	49.3333
577.367	45.3333
579.835	42
582.303	46
584.77	42.6667
587.236	42.6667
589.701	42
592.165	44.6667
594.629	44
597.093	49.3333
599.555	41.3333
602.016	47.3333
604.477	47.3333
606.936	42
609.395	45.3333
611.853	47.3333
614.311	48
616.767	44
619.223	46.6667
621.678	46
624.132	48.6667
626.585	47.3333
629.037	46
631.489	42.6667
633.94	46
636.39	45.3333
638.839	42.6667
641.288	48
643.736	44
646.183	49.3333
648.627	42
651.073	48
653.517	42.6667
655.961	48.6667
658.404	49.3333
660.846	47.3333
663.288	42.6667
665.727	48
668.167	48
670.606	48
673.044	45.3333
675.482	48.6667
677.917	46
680.353	46.6667
682.788	46.6667
685.222	48.6667
687.655	48
690.087	48.6667
692.519	46.6667
694.951	48
697.38	44.6667
699.809	42.6667
702.238	46
704.665	48.6667
707.092	50.6667
709.519	46.6667
711.943	45.3333
714.368	44
716.791	43.3333
719.214	45.3333
721.637	50.6667
724.058	44.6667
726.479	48.6667
728.898	48
731.317	43.3333
733.734	50
736.152	50
738.568	46.6667
740.985	44.6667
743.399	44
745.814	46.6667
748.227	47.3333
750.64	47.3333
753.051	42
755.463	48
757.872	46
760.283	42.6667
762.691	50.6667
765.098	43.3333
767.506	45.3333
769.912	46.6667
772.318	44
774.722	44.6667
777.126	48.6667
779.53	45.3333
781.932	44.6667
784.333	48.6667
786.735	47.3333
789.135	43.3333
791.533	44
793.933	45.3333
796.33	46.6667
798.727	51.3333
801.123	46
803.519	50
805.913	48.6667
808.307	45.3333
810.699	50.6667
813.093	48.6667
815.484	48.6667
817.874	47.3333
820.264	48
822.653	46.6667
825.041	46.6667
827.43	45.3333
829.817	46
832.203	48.6667
834.588	43.3333
836.972	49.3333
839.356	48.6667
841.738	45.3333
844.12	45.3333
846.502	46.6667
848.882	49.3333
851.262	46.6667
853.641	44
856.02	47.3333
858.397	47.3333
860.774	50.6667
863.15	45.3333
865.525	48
867.9	46
870.273	48.6667
872.646	51.3333
875.019	49.3333
877.39	47.3333
879.761	46
882.131	46.6667
884.5	50.6667
886.869	50
889.236	44
891.602	50
893.968	46
896.334	50
898.698	47.3333
901.062	46.6667
903.426	47.3333
905.787	48
908.148	50
910.509	48
912.87	50.6667
915.228	50.6667
917.587	50.6667
919.945	51.3333
922.302	52.6667
924.657	51.3333
927.013	50
929.368	46.6667
931.721	48
934.074	48
936.427	50
938.778	45.3333
941.129	54.6667
943.479	52
945.828	50.6667
948.177	51.3333
950.524	54.6667
952.871	57.3333
955.218	56
957.563	50.6667
959.908	56
962.252	56.6667
964.595	54
966.937	52
969.28	58.6667
971.62	58.6667
973.961	57.3333
976.3	62.6667
978.639	64.6667
980.976	56.6667
983.314	62
985.65	66
987.987	70.6667
990.321	70.6667
992.655	79.3333
994.989	78.6667
997.321	79.3333
999.653	88
1001.98	94
1004.31	101.333
1006.65	114.667
1008.97	130
1011.3	146
1013.63	163.333
1015.96	182
1018.28	214
1020.61	253.333
1022.93	320
1025.26	355.333
1027.58	420
1029.9	454.667
1032.22	505.333
1034.54	540.667
1036.86	550.667
1039.18	544
1041.5	496
1043.82	437.333
1046.14	350
1048.45	273.333
1050.77	244
1053.08	189.333
1055.4	154.667
1057.71	130
1060.02	126.667
1062.33	114.667
1064.64	98.6667
1066.96	99.3333
1069.27	96.6667
1071.57	100.667
1073.88	95.3333
1076.19	94
1078.5	94.6667
1080.8	96
1083.11	90.6667
1085.41	90
1087.72	94.6667
1090.02	96
1092.32	96
1094.62	101.333
1096.92	98.6667
1099.22	104
1101.52	105.333
1103.82	104.667
1106.12	108.667
1108.42	117.333
1110.71	114.667
1113.01	113.333
1115.3	106.667
1117.6	102.667
1119.89	111.333
1122.18	107.333
1124.48	103.333
1126.77	104
1129.06	93.3333
1131.35	96.6667
1133.64	91.3333
1135.93	94.6667
1138.21	92
1140.5	86
1142.79	87.3333
1145.07	81.3333
1147.36	86
1149.64	86
1151.92	84.6667
1154.21	84.6667
1156.49	84
1158.77	86.6667
1161.05	82
1163.33	87.3333
1165.61	89.3333
1167.89	83.3333
1170.16	76.6667
1172.44	76
1174.72	72.6667
1176.99	77.3333
1179.27	74
1181.54	63.3333
1183.81	62
1186.09	63.3333
1188.36	65.3333
1190.63	63.3333
1192.9	65.3333
1195.17	66.6667
1197.44	63.3333
1199.71	66.6667
1201.97	66
1204.24	62.6667
1206.5	56
1208.77	60
1211.03	63.3333
1213.3	62
1215.56	57.3333
1217.82	60
1220.09	60.6667
1222.35	59.3333
1224.61	60
1226.87	56
1229.12	57.3333
1231.38	59.3333
1233.64	63.3333
1235.9	58.6667
1238.15	62
1240.41	62
1242.66	60
1244.92	57.3333
1247.17	60
1249.42	57.3333
1251.67	58
1253.92	57.3333
1256.17	64
1258.42	62
1260.67	60.6667
1262.92	58.6667
1265.17	60.6667
1267.42	66
1269.66	61.3333
1271.91	64
1274.15	56
1276.39	60
1278.64	59.3333
1280.88	58
1283.12	60
1285.36	62.6667
1287.6	60
1289.84	59.3333
1292.08	64.6667
1294.32	59.3333
1296.56	65.3333
1298.79	62
1301.03	64
1303.26	60
1305.5	58
1307.73	62.6667
1309.97	62
1312.2	63.3333
1314.43	63.3333
1316.66	62.6667
1318.89	59.3333
1321.12	62.6667
1323.35	64.6667
1325.58	62
1327.81	69.3333
1330.03	66
1332.26	72.6667
1334.49	68
1336.71	71.3333
1338.94	67.3333
1341.16	73.3333
1343.38	67.3333
1345.6	75.3333
1347.83	72.6667
1350.05	74.6667
1352.27	69.3333
1354.49	70.6667
1356.7	71.3333
1358.92	79.3333
1361.14	69.3333
1363.36	78
1365.57	82.6667
1367.79	80
1370	76.6667
1372.21	85.3333
1374.43	81.3333
1376.64	91.3333
1378.85	76.6667
1381.06	85.3333
1383.27	85.3333
1385.48	88
1387.69	89.3333
1389.9	94
1392.11	87.3333
1394.31	95.3333
1396.52	96.6667
1398.73	93.3333
1400.93	99.3333
1403.13	94.6667
1405.34	99.3333
1407.54	107.333
1409.74	102
1411.94	104.667
1414.14	111.333
1416.34	106.667
1418.54	106.667
1420.74	100
1422.94	110
1425.14	118.667
1427.33	114
1429.53	118
1431.72	122
1433.92	132.667
1436.11	129.333
1438.3	142
1440.5	148
1442.69	152.667
1444.88	186
1447.07	212.667
1449.26	224
1451.45	246.667
1453.64	255.333
1455.82	250.667
1458.01	247.333
1460.2	231.333
1462.38	231.333
1464.57	228.667
1466.75	228.667
1468.93	228.667
1471.12	216.667
1473.3	218
1475.48	215.333
1477.66	214
1479.84	202.667
1482.02	191.333
1484.2	184
1486.38	184.667
1488.55	166.667
1490.73	155.333
1492.91	158.667
1495.08	156.667
1497.26	148
1499.43	143.333
1501.61	144.667
1503.78	134.667
1505.95	141.333
1508.12	128
1510.29	120.667
1512.46	122.667
1514.63	117.333
1516.8	120
1518.97	118
1521.14	118
1523.3	108
1525.47	114.667
1527.63	113.333
1529.8	105.333
1531.96	106
1534.12	116.667
1536.29	106
1538.45	105.333
1540.61	108.667
1542.77	106
1544.93	101.333
1547.09	110
1549.25	106
1551.41	104
1553.56	104.667
1555.72	102
1557.88	101.333
1560.03	98
1562.18	101.333
1564.34	103.333
1566.49	94.6667
1568.64	98
1570.8	98.6667
1572.95	92.6667
1575.1	96
1577.25	87.3333
1579.4	88.6667
1581.55	86
1583.69	89.3333
1585.84	83.3333
1587.99	86
1590.13	85.3333
1592.28	88.6667
1594.42	86
1596.57	88
1598.71	84.6667
1600.85	81.3333
1602.99	78
1605.14	82.6667
1607.28	82
1609.42	82.6667
1611.56	80
1613.69	76.6667
1615.83	77.3333
1617.97	74
1620.11	78.6667
1622.24	75.3333
1624.38	76.6667
1626.51	70.6667
1628.65	72.6667
1630.78	69.3333
1632.91	72
1635.04	70.6667
1637.17	70.6667
1639.31	70
1641.44	73.3333
1643.57	68.6667
1645.69	69.3333
1647.82	72.6667
1649.95	65.3333
1652.08	74.6667
1654.2	73.3333
1656.33	66.6667
1658.45	66.6667
1660.58	66.6667
1662.7	70
1664.82	67.3333
1666.94	64.6667
1669.07	68
1671.19	62
1673.31	66.6667
1675.43	67.3333
1677.55	64.6667
1679.66	68
1681.78	67.3333
1683.9	64
1686.01	64
1688.13	66
1690.25	66
1692.36	69.3333
1694.47	61.3333
1696.59	65.3333
1698.7	66
1700.81	64.6667
1702.92	67.3333
1705.03	69.3333
1707.14	65.3333
1709.25	68
1711.36	63.3333
1713.47	67.3333
1715.58	66
1717.68	66
1719.79	64.6667
1721.89	65.3333
1724	60
1726.1	61.3333
1728.21	58.6667
1730.31	62.6667
1732.41	67.3333
1734.51	65.3333
1736.61	66
1738.71	66
1740.81	64.6667
1742.91	68
1745.01	63.3333
1747.11	66
1749.2	64
1751.3	64.6667
1753.4	62
1755.49	64.6667
1757.59	60.6667
1759.68	61.3333
1761.77	70.6667
1763.86	69.3333
1765.96	62.6667
1768.05	67.3333
1770.14	63.3333
1772.23	61.3333
1774.32	65.3333
1776.41	66
1778.49	60.6667
1780.58	65.3333
1782.67	65.3333
1784.76	68.6667
1786.84	63.3333
1788.92	66
1791.01	65.3333
1793.09	62.6667
1795.18	66
1797.26	66.6667
1799.34	66
1801.42	66.6667
1803.5	66
1805.58	67.3333
1807.66	64
1809.74	66.6667
1811.82	68
1813.89	66
1815.97	62.6667
1818.05	64.6667
1820.12	70.6667
1822.2	64.6667
1824.27	64.6667
1826.34	64
1828.42	64.6667
1830.49	66.6667
1832.56	61.3333
1834.63	66.6667
1836.7	66.6667
1838.77	65.3333
1840.84	67.3333
1842.91	66.6667
1844.98	65.3333
1847.04	66.6667
1849.11	62
1851.18	67.3333
1853.24	64
1855.31	66.6667
1857.37	68
1859.43	64.6667
1861.5	62.6667
1863.56	68
1865.62	62.6667
1867.68	65.3333
1869.74	64.6667
1871.8	66
1873.86	62.6667
1875.92	66.6667
1877.98	70
1880.03	69.3333
1882.09	68.6667
1884.15	67.3333
1886.2	67.3333
1888.26	67.3333
1890.31	63.3333
1892.36	64.6667
1894.42	63.3333
1896.47	64.6667
1898.52	74
1900.57	64.6667
1902.62	62.6667
1904.67	67.3333
1906.72	68.6667
1908.77	70.6667
1910.82	66.6667
1912.86	66.6667
1914.91	72.6667
1916.96	63.3333
1919	67.3333
1921.04	64.6667
1923.09	68.6667
1925.13	71.3333
1927.18	69.3333
1929.22	66
1931.26	68.6667
1933.3	72
1935.34	64.6667
1937.38	65.3333
1939.42	69.3333
1941.46	69.3333
1943.5	66
1945.53	70
1947.57	67.3333
1949.61	70.6667
1951.64	68
1953.68	70.6667
1955.71	65.3333
1957.75	68
1959.78	71.3333
1961.81	63.3333
1963.84	69.3333
1965.87	67.3333
1967.9	66.6667
1969.93	68.6667
1971.96	68
1973.99	68.6667
1976.02	71.3333
1978.05	64.6667
1980.07	73.3333
1982.1	72.6667
1984.13	74.6667
1986.15	64.6667
1988.18	67.3333
1990.2	68.6667
1992.22	69.3333
1994.25	70
1996.27	67.3333
1998.29	65.3333
2000.31	70.6667
2002.33	69.3333
2004.35	69.3333
2006.37	68.6667
2008.39	64
2010.41	74.6667
2012.42	70.6667
2014.44	67.3333
2016.46	68.6667
2018.47	68.6667
2020.49	67.3333
2022.5	66.6667
2024.51	73.3333
2026.53	71.3333
2028.54	72
2030.55	66.6667
2032.56	70.6667
2034.57	70.6667
2036.58	70
2038.59	74
2040.6	66.6667
2042.61	74.6667
2044.62	70.6667
2046.62	70.6667
2048.63	66
2050.64	72
2052.64	71.3333
2054.65	73.3333
2056.65	72.6667
2058.65	68.6667
2060.66	74
2062.66	75.3333
2064.66	72
2066.66	68
2068.66	64
2070.66	69.3333
2072.66	72
2074.66	71.3333
2076.66	68.6667
2078.65	76
2080.65	68.6667
2082.65	68
2084.64	73.3333
2086.64	69.3333
2088.63	66
2090.63	76
2092.62	74
2094.61	67.3333
2096.6	74
2098.59	70
2100.59	70
2102.58	74.6667
2104.56	71.3333
2106.55	69.3333
2108.54	72.6667
2110.53	75.3333
2112.52	70
2114.5	76.6667
2116.49	72.6667
2118.48	74
2120.46	72.6667
2122.44	72.6667
2124.43	75.3333
2126.41	75.3333
2128.39	76
2130.38	72
2132.36	70
2134.34	74.6667
2136.32	76
2138.3	72
2140.28	77.3333
2142.26	71.3333
2144.23	73.3333
2146.21	75.3333
2148.19	68.6667
2150.16	70.6667
2152.14	75.3333
2154.11	72
2156.09	76.6667
2158.06	74
2160.04	73.3333
2162.01	72
2163.98	72
2165.95	74
2167.92	74.6667
2169.89	70.6667
2171.86	75.3333
2173.83	76.6667
2175.8	76
2177.77	70
2179.73	75.3333
2181.7	80
2183.67	76.6667
2185.63	73.3333
2187.6	77.3333
2189.56	73.3333
2191.53	75.3333
2193.49	72.6667
2195.45	74.6667
2197.41	75.3333
2199.37	78.6667
2201.34	72
2203.29	70.6667
2205.26	82.6667
2207.21	74
2209.17	82
2211.13	80
2213.09	74
2215.05	81.3333
2217	72
2218.96	78
2220.91	77.3333
2222.87	74
2224.82	80.6667
2226.77	72.6667
2228.73	76
2230.68	72
2232.63	76.6667
2234.58	75.3333
2236.53	74
2238.48	75.3333
2240.43	77.3333
2242.38	70.6667
2244.33	75.3333
2246.27	76.6667
2248.22	78.6667
2250.17	78
2252.11	71.3333
2254.06	76
2256	71.3333
2257.95	74.6667
2259.89	82
2261.84	76.6667
2263.78	71.3333
2265.72	74.6667
2267.66	80.6667
2269.6	76.6667
2271.54	76.6667
2273.48	77.3333
2275.42	75.3333
2277.36	80
2279.3	84.6667
2281.23	79.3333
2283.17	80
2285.11	77.3333
2287.04	82
2288.98	74.6667
2290.91	79.3333
2292.84	81.3333
2294.78	77.3333
2296.71	78
2298.64	83.3333
2300.57	74.6667
2302.51	75.3333
2304.44	83.3333
2306.37	79.3333
2308.29	72.6667
2310.22	82.6667
2312.15	76.6667
2314.08	83.3333
2316.01	78
2317.93	82
2319.86	80
2321.78	78.6667
2323.71	83.3333
2325.63	76.6667
2327.56	78
2329.48	73.3333
2331.4	79.3333
2333.32	74.6667
2335.25	80.6667
2337.17	80.6667
2339.09	76.6667
2341.01	82.6667
2342.92	78
2344.84	78.6667
2346.76	76
2348.68	78.6667
2350.6	80.6667
2352.51	75.3333
2354.43	76.6667
2356.34	70.6667
2358.26	73.3333
2360.17	79.3333
2362.09	80
2364	78.6667
2365.91	78.6667
2367.82	76.6667
2369.73	79.3333
2371.64	80
2373.55	78
2375.46	80.6667
2377.37	76.6667
2379.28	77.3333
2381.19	76
2383.1	74
2385	83.3333
2386.91	78.6667
2388.82	82.6667
2390.72	80.6667
2392.62	75.3333
2394.53	77.3333
2396.43	78
2398.33	80.6667
2400.24	84.6667
2402.14	76
2404.04	76.6667
2405.94	79.3333
2407.84	78.6667
2409.74	79.3333
2411.64	80.6667
2413.54	82
2415.44	84
2417.33	78
2419.23	86
2421.13	80.6667
2423.02	76.6667
2424.92	78
2426.81	77.3333
2428.71	82.6667
2430.6	82
2432.49	77.3333
2434.38	85.3333
2436.28	80.6667
2438.17	85.3333
2440.06	86
2441.95	88.6667
2443.84	78
2445.73	84.6667
