176.074	194.684
178.677	196.895
181.279	197.947
183.879	198
186.48	196.053
189.08	194.789
191.677	193.526
194.275	195.632
196.871	192.316
199.467	191.526
202.061	186.842
204.656	186.263
207.249	183.947
209.841	178.632
212.433	178.053
215.022	176.316
217.613	173.684
220.201	170.421
222.789	170.211
225.375	168.158
227.962	168.737
230.547	173.684
233.132	172.684
235.714	173.158
238.296	175.263
240.879	174.263
243.459	174.842
246.04	180.211
248.618	176.895
251.198	177.632
253.774	174.947
256.35	177.211
258.927	175.158
261.501	171.895
264.074	166.947
266.648	164.789
269.22	164
271.791	163.211
274.362	162.474
276.931	162.737
279.5	157.947
282.069	158.737
284.635	161.158
287.201	156.789
289.766	161.789
292.331	162.947
294.894	168.526
297.457	177.263
300.018	190.684
302.58	203.316
305.14	214
307.699	201.895
310.257	194.895
312.814	181.105
315.372	171.105
317.928	163.105
320.482	156.211
323.036	151.368
325.589	149.895
328.142	146.579
330.693	144.158
333.243	143
335.795	147
338.343	146.737
340.891	150.474
343.439	151.316
345.985	148.474
348.53	149.895
351.075	148.263
353.619	146.632
356.162	141.211
358.704	145.579
361.245	143.316
363.786	143.158
366.325	141.842
368.864	140.684
371.402	138.684
373.939	136.053
376.475	136.526
379.011	133.368
381.545	134.526
384.079	137.158
386.611	136.105
389.143	138.368
391.674	134.053
394.204	131.737
396.734	127.053
399.263	128
401.791	131.789
404.318	131.316
406.843	130.737
409.368	126.632
411.893	126.842
414.417	124.053
416.94	127.421
419.46	131.895
421.982	131.526
424.502	133
427.022	129
429.541	128.895
432.057	124.947
434.574	121.211
437.091	118.053
439.605	115.737
442.12	117
444.634	115.421
447.145	115.053
449.657	120.474
452.169	119.842
454.678	118.158
457.188	119.105
459.697	118.737
462.204	117.947
464.711	119.632
467.217	120.842
469.722	118.789
472.227	115.842
474.729	115.474
477.232	116
479.735	113.053
482.235	113.579
484.736	113.316
487.234	114.263
489.734	110.842
492.23	114.842
494.728	111.684
497.223	113.421
499.719	112.947
502.213	111.316
504.707	110.368
507.199	107.789
509.69	108.421
512.182	106.316
514.672	107.789
517.162	105.105
519.65	101.789
522.139	103.789
524.625	101.368
527.111	100.684
529.597	97.4211
532.081	98.9474
534.564	95.6842
537.047	97.6316
539.529	96.4737
542.01	98.6316
544.491	95.1053
546.97	96.1053
549.448	96.6316
551.927	93.4211
554.404	91.6842
556.88	91.6316
559.355	91.5789
561.831	88.4211
564.304	88.4211
566.777	86.6316
569.249	86.4211
571.72	85.6316
574.191	86.7369
576.661	83.5263
579.129	84.6316
581.597	83.3158
584.064	84.2632
586.531	81.2105
588.997	82.5263
591.462	79.2632
593.926	80.3158
596.389	78.3684
598.851	77.6842
601.313	79.5789
603.773	78.4737
606.233	79.5263
608.692	78.2632
611.151	78.2632
613.608	79.2632
616.065	77.4211
618.521	79.4737
620.976	76.0526
623.43	76.3684
625.883	75.2632
628.336	74.7895
630.788	77
633.239	76.7895
635.69	75.9474
638.139	76.3158
640.588	74.3158
643.036	74.5263
645.483	73.8947
647.929	73.2632
650.375	72.8947
652.818	74.9474
655.262	73.5263
657.706	73.7895
660.148	73.3684
662.59	72.8947
665.031	75.1053
667.471	76
669.909	74.0526
672.347	73.3684
674.785	76.0526
677.222	75.3684
679.656	75.2632
682.092	73.7368
684.526	75.6842
686.96	76.2105
689.392	76.5263
691.824	75.1579
694.256	75.8947
696.686	76.4211
699.115	77.7368
701.544	78.4211
703.972	78.4737
706.398	78.4211
708.825	80.1579
711.25	82.8947
713.675	86.2105
716.099	88.7368
718.522	92.1053
720.944	95.8421
723.366	101.158
725.786	106
728.207	111.526
730.625	111.789
733.044	112.105
735.461	113.316
737.879	106.632
740.294	112.211
742.71	114
745.123	118.053
747.538	122.947
749.95	136.526
752.363	139.895
754.773	157.737
757.185	181.526
759.594	211.789
762.002	244.684
764.411	272.211
766.818	288.789
769.225	292.684
771.63	293.789
774.035	284.684
776.44	282.737
778.843	288.263
781.245	286.474
783.648	292.947
786.048	288.842
788.448	296.316
790.848	306.474
793.247	310.316
795.644	305.526
798.042	283.737
800.438	260.947
802.834	236.684
805.228	217.632
807.623	209.474
810.016	209.526
812.408	214.789
814.8	216.211
817.191	220.842
819.58	226.737
821.971	234.737
824.359	241.316
826.747	242.684
829.134	242
831.52	239.105
833.905	228.474
836.29	222.737
838.675	213.105
841.058	205.842
843.44	189.842
845.822	183.789
848.203	171.526
850.583	164.474
852.962	151.895
855.341	153.632
857.718	156.316
860.095	157.158
862.471	164.368
864.847	175.632
867.222	194.526
869.596	215.632
871.969	237.684
874.341	251.579
876.713	258.21
879.083	248.263
881.453	235.316
883.822	228.947
886.191	222.632
888.559	236.474
890.926	266.947
893.293	301.474
895.658	325.632
898.022	295.895
900.386	255.263
902.75	216.895
905.112	196.737
907.474	181.474
909.834	173.842
912.194	168.789
914.554	158.684
916.913	150.263
919.27	142.947
921.627	138.579
923.984	130.421
926.34	130.368
928.694	128.895
931.048	130.632
933.402	134.947
935.754	135.474
938.106	128.263
940.458	125.368
942.807	119.421
945.157	120.158
947.505	120.158
949.853	126.053
952.201	126.842
954.547	132.842
956.893	137.105
959.237	142.211
961.582	146.632
963.925	153.211
966.268	160.737
968.609	161.368
970.951	163.474
973.291	166.263
975.631	167.053
977.97	169.211
980.309	164.053
982.645	165.211
984.983	164.316
987.318	160.053
989.653	158.211
991.988	154.316
994.321	150.632
996.655	154.211
998.987	153.105
1001.32	151.947
1003.65	152.368
1005.98	154.105
1008.31	155.526
1010.64	158.684
1012.96	163.684
1015.29	173
1017.62	181.263
1019.94	191.526
1022.27	194
1024.59	198.316
1026.91	206.421
1029.24	211.526
1031.56	218.263
1033.88	227.579
1036.2	234.263
1038.52	238
1040.84	245.316
1043.16	259.263
1045.47	263.526
1047.79	257.947
1050.1	239.789
1052.42	219.211
1054.74	212.158
1057.05	217.105
1059.36	237.053
1061.67	256.895
1063.98	265.737
1066.29	261.421
1068.6	245.053
1070.91	233.842
1073.22	220.947
1075.53	212.789
1077.84	207.842
1080.14	196.421
1082.45	189.842
1084.75	181.158
1087.06	174.211
1089.36	159.316
1091.66	151.158
1093.96	137.842
1096.27	126.263
1098.57	117.368
1100.87	117.211
1103.16	116.684
1105.46	118.632
1107.76	121.053
1110.06	129.158
1112.35	136.895
1114.65	139.526
1116.94	143.737
1119.23	149.474
1121.53	154.895
1123.82	154.632
1126.11	154.737
1128.4	159.789
1130.69	165.474
1132.98	163.263
1135.27	170.211
1137.56	173.842
1139.85	182.211
1142.13	190.474
1144.42	198.421
1146.7	212.526
1148.99	217.526
1151.27	213.158
1153.55	212.579
1155.84	207.474
1158.12	199.947
1160.4	194.789
1162.68	178.684
1164.96	164.368
1167.23	145.579
1169.51	127.947
1171.79	119.895
1174.06	105.947
1176.34	103.053
1178.62	100.316
1180.89	96.5263
1183.16	96.1579
1185.44	94.7895
1187.71	95.1053
1189.98	96.8947
1192.25	94.2632
1194.52	98.2105
1196.79	98.8421
1199.06	103.263
1201.32	104.684
1203.59	113.632
1205.86	116.632
1208.12	117.947
1210.39	120.526
1212.65	122.947
1214.91	122
1217.18	116.211
1219.44	110.421
1221.7	111
1223.96	110.368
1226.22	107.368
1228.48	110.895
1230.74	115.895
1232.99	120.632
1235.25	130.947
1237.51	142.474
1239.76	148.789
1242.02	148.737
1244.27	150.053
1246.53	150.895
1248.78	153.368
1251.03	159.632
1253.28	164.421
1255.53	172.263
1257.78	177.263
1260.03	183.158
1262.28	192.053
1264.53	207.263
1266.77	220.316
1269.02	236.105
1271.26	248
1273.51	255.158
1275.75	253.526
1278	245.737
1280.24	237.947
1282.48	247
1284.72	248.526
1286.96	249.526
1289.2	245.105
1291.44	248.316
1293.68	244.105
1295.92	250.579
1298.15	253.263
1300.39	262.316
1302.63	267.211
1304.86	271.158
1307.1	270
1309.33	268.684
1311.56	266.579
1313.79	261.895
1316.02	241.421
1318.26	226.368
1320.49	205.474
1322.71	184.158
1324.94	172.053
1327.17	160.263
1329.4	152.158
1331.62	146.947
1333.85	146.842
1336.08	149.263
1338.3	146.842
1340.52	149.474
1342.75	149.632
1344.97	149.579
1347.19	147.789
1349.41	145.474
1351.63	151.632
1353.85	152.632
1356.07	159.105
1358.29	165.737
1360.5	166.211
1362.72	161.105
1364.94	153.737
1367.15	151.789
1369.37	148.947
1371.58	142.632
1373.79	142.263
1376.01	141.316
1378.22	144.316
1380.43	146.105
1382.64	148.368
1384.85	145.632
1387.06	147.474
1389.27	140.632
1391.47	140.579
1393.68	136.211
1395.89	130.895
1398.09	127.316
1400.3	123.316
1402.5	118.316
1404.71	116.684
1406.91	115.526
1409.11	115.053
1411.31	117.632
1413.51	120.263
1415.71	119.737
1417.91	123.842
1420.11	128.211
1422.31	129.947
1424.51	139.368
1426.7	148.737
1428.9	165.053
1431.1	191.526
1433.29	236.737
1435.48	302.263
1437.68	374.211
1439.87	425.526
1442.06	454.895
1444.25	490.368
1446.44	527.579
1448.63	564.895
1450.82	569.211
1453.01	548.789
1455.2	543.526
1457.39	536.737
1459.57	528.211
1461.76	499.737
1463.94	473.316
1466.13	448.737
1468.31	424.105
1470.49	396.053
1472.68	359.105
1474.86	326.474
1477.04	294.684
1479.22	262.684
1481.4	234.684
1483.58	207.842
1485.75	187.263
1487.93	169.579
1490.11	155.895
1492.29	147.632
1494.46	141.263
1496.64	132.526
1498.81	129.105
1500.98	124.053
1503.16	122.316
1505.33	120.947
1507.5	119.263
1509.67	115.579
1511.84	113.474
1514.01	110.421
1516.18	111.684
1518.35	110.737
1520.51	111.632
1522.68	106.211
1524.85	105.421
1527.01	107.947
1529.18	108.684
1531.34	107.947
1533.51	106.105
1535.67	105.947
1537.83	105.842
1539.99	100.789
1542.15	102
1544.31	103.316
1546.47	102.316
1548.63	103.842
1550.79	103.789
1552.95	102.421
1555.1	103.105
1557.26	101.789
1559.41	103.579
1561.57	101.842
1563.72	99.6842
1565.88	100.211
1568.03	99
1570.18	100.421
1572.33	97.8421
1574.48	98.7895
1576.63	98.3684
1578.78	98.8947
1580.93	97.3684
1583.08	98.4211
1585.23	96.6316
1587.37	97.1053
1589.52	97.4211
1591.66	96.7368
1593.81	93.3158
1595.95	96.3684
1598.1	95.6316
1600.24	95.4737
1602.38	96.6842
1604.52	97.4737
1606.66	95.2632
1608.8	96.9474
1610.94	95.1053
1613.08	94.6316
1615.22	93.6316
1617.36	93.6842
1619.49	95.4737
1621.63	93.9474
1623.77	93.2632
1625.9	93.2105
1628.03	95.6316
1630.17	93.9474
1632.3	93.8947
1634.43	92.8947
1636.56	92.6842
1638.7	93.8421
1640.83	92.8421
1642.96	92.6316
1645.08	93.1053
1647.21	95.0526
1649.34	90.5789
1651.47	92.5263
1653.59	92.2632
1655.72	92.2632
1657.84	91.7895
1659.97	91.8421
1662.09	93.5789
1664.21	91.7895
1666.34	92.579
1668.46	93.1579
1670.58	92.7895
1672.7	93.1579
1674.82	92.4211
1676.94	91.9474
1679.06	95.3684
1681.18	93.7895
1683.29	91.4737
1685.41	95.1579
1687.52	96.3684
1689.64	93
1691.76	94.0526
1693.87	95.2105
1695.98	95.1579
1698.09	95.7895
1700.21	93.6842
1702.32	93.2632
1704.43	94.2105
1706.54	96.7368
1708.65	93.5263
1710.76	95.5789
1712.86	91.3158
1714.97	93.7895
1717.08	91.4737
1719.19	92.3684
1721.29	92.7895
1723.4	91.3684
1725.5	94
1727.6	92.1053
1729.71	91.7369
1731.81	92.4211
1733.91	90.7368
1736.01	91.7368
1738.11	92.0526
1740.21	90.6842
1742.31	90.1053
1744.41	90.8421
1746.51	90.7368
1748.6	90.1053
1750.7	90.3684
1752.8	89.5263
1754.89	88.7895
1756.99	91.8421
1759.08	90.0526
1761.17	89.5263
1763.27	90.3684
1765.36	90.4211
1767.45	88.5263
1769.54	90.0526
1771.63	89.6842
1773.72	91.2632
1775.81	89.8421
1777.9	92.1053
1779.98	90
1782.07	89.0526
1784.16	91.1579
1786.24	89.6316
1788.33	90.4211
1790.41	90.9474
1792.5	91.2632
1794.58	91.5263
1796.66	90.2632
1798.74	92.4211
1800.83	91.7368
1802.91	93.3684
1804.99	92.1053
1807.06	90.2632
1809.14	91.8947
1811.22	92.1579
1813.3	89.7895
1815.38	90.4737
1817.45	91.1053
1819.53	88.1579
1821.6	92.1053
1823.68	90.6842
1825.75	91.1579
1827.82	90.0526
1829.9	91.1579
1831.97	89.9474
1834.04	90.4737
1836.11	90.8948
1838.18	88.4737
1840.25	88.8947
1842.32	89.6842
1844.38	91.3158
1846.45	90.2631
1848.52	89.5789
1850.58	91
1852.65	90.3684
1854.72	90.5263
1856.78	90.5789
1858.84	87.7895
1860.91	90.3684
1862.97	92.0526
1865.03	89.4211
1867.09	88.4211
1869.15	89.5263
1871.21	87.5263
1873.27	88.6842
1875.33	89.9474
1877.39	88.8421
1879.44	89.0526
1881.5	88.4737
1883.56	89.6316
1885.61	90.2632
1887.67	88.4737
1889.72	87.7895
1891.78	89.8947
1893.83	92.6316
1895.88	90.1053
1897.93	91.5263
1899.98	91
1902.03	90.2632
1904.08	88.7895
1906.13	90.7895
1908.18	90.3158
1910.23	89.5263
1912.28	91.2105
1914.32	89.4737
1916.37	91.4737
1918.41	91.2632
1920.46	90.3158
1922.5	91.3684
1924.55	90.8421
1926.59	90.0526
1928.63	90.6842
1930.68	89.4211
1932.72	90
1934.76	90.5789
1936.8	91.5789
1938.84	89.7368
1940.87	88
1942.91	90.7368
1944.95	91.2105
1946.99	90.2632
1949.02	88.3158
1951.06	92.1579
1953.09	91.8421
1955.13	89.3684
1957.16	90.7368
1959.2	90.6316
1961.23	91.3158
1963.26	90.5789
1965.29	89.9474
1967.32	90.8421
1969.35	88.4737
1971.38	91
1973.41	90.2632
1975.44	88.9474
1977.47	88.7368
1979.5	88.2105
1981.52	91.3684
1983.55	89
1985.57	90.1579
1987.6	89.4737
1989.62	90.1579
1991.64	89.1579
1993.67	91
1995.69	90.1053
1997.71	89
1999.73	89.1053
2001.75	90.6316
2003.77	91.9474
2005.79	90.8947
2007.81	90.579
2009.83	90.2105
2011.85	91.4737
2013.86	89.3158
2015.88	92.4211
2017.89	91.2105
2019.91	92.0526
2021.92	91.8947
2023.94	93.8947
2025.95	91.421
2027.96	91.4737
2029.97	91.579
2031.99	93.1579
2034	90.8947
2036.01	92.8421
2038.02	93.1053
2040.03	91
2042.03	93.3684
2044.04	91.1053
2046.05	92.5789
2048.06	91.3158
2050.06	93.4737
2052.07	93.1579
2054.07	90.8421
2056.08	91.8947
2058.08	90.4737
2060.08	92
2062.08	92.1053
2064.09	92.8421
2066.09	92.8421
2068.09	93.3158
2070.09	92.4737
2072.09	92.3158
2074.09	91.2632
2076.08	91.5263
2078.08	92.9474
2080.08	92.3684
2082.07	92.2105
2084.07	91.5263
2086.07	91.2105
2088.06	92.8947
2090.05	91.1579
2092.05	91.0526
2094.04	90
2096.03	89.7895
2098.02	90.6842
2100.01	92.3158
2102	91.4211
2103.99	89.5263
2105.98	91.1053
2107.97	92.3158
2109.96	92.2632
2111.95	91.3684
2113.94	92.1579
2115.92	91.5263
2117.91	93.4211
2119.89	89.7368
2121.88	93.421
2123.86	92.6842
2125.84	93
2127.83	92.7895
2129.81	92.7368
2131.79	92.7895
2133.77	92.2105
2135.75	94.2632
2137.73	93.1579
2139.71	93.2105
2141.69	93.0526
2143.67	92.2105
2145.64	93.5263
2147.62	91.4737
2149.6	92
2151.57	91.8947
2153.55	94.6316
2155.52	91
2157.5	92.8421
2159.47	91.9474
2161.44	92.8421
2163.41	90.8421
2165.39	94.1053
2167.36	93.6316
2169.33	93.5263
2171.3	92.7895
2173.27	92.5789
2175.24	95.0526
2177.2	95.3158
2179.17	93.6316
2181.14	94.5789
2183.1	95.1053
2185.07	94.6842
2187.03	96.8947
2189	96.5263
2190.96	96.8947
2192.93	96.1579
2194.89	93.9474
2196.85	95.2105
2198.81	96.9474
2200.77	94.2105
2202.73	94.8947
2204.69	94.6842
2206.65	94.6316
2208.61	92.3158
2210.57	94.7368
2212.53	95.2105
2214.48	95.2632
2216.44	95.2105
2218.4	96.5789
2220.35	96.7368
2222.31	95.5263
2224.26	93.8947
2226.21	95.8947
2228.17	96.4737
2230.12	97.3158
2232.07	96.2105
2234.02	96
2235.97	95.8947
2237.92	95.9474
2239.87	93.8421
2241.82	97.1579
2243.77	95.1053
2245.72	94.0526
2247.66	95.2632
2249.61	94.2105
2251.56	94.4737
2253.5	96.3684
2255.45	94.4211
2257.39	93.9474
2259.33	94.5789
2261.28	93.0526
2263.22	93.2105
2265.16	92.4211
2267.1	93.7368
2269.04	95.2105
2270.99	95.1053
2272.92	93.8947
2274.86	92.6842
2276.8	94.2105
2278.74	94.4211
2280.68	94.5263
2282.61	95.1579
2284.55	94.6842
2286.49	93.6316
2288.42	93.6842
2290.36	95.4211
2292.29	92.3158
2294.22	95.1053
2296.16	92.8947
2298.09	92.4211
2300.02	92.9474
2301.95	94
2303.88	94.8421
2305.81	93.7368
2307.74	93.1053
2309.67	92.4737
2311.6	92.8421
2313.53	94.4737
2315.45	95
2317.38	92.7895
2319.31	92.5789
2321.23	93.7368
2323.16	93.3684
2325.08	92.3158
2327	95.2632
2328.93	92.2632
2330.85	92.3684
2332.77	94.3158
2334.69	94.9474
2336.62	94.7368
2338.54	94.6842
2340.46	92.6842
2342.38	95.4737
2344.29	95.7368
2346.21	93.8421
2348.13	94.1579
2350.05	94.1579
2351.96	93.3684
2353.88	94.9474
2355.79	94
2357.71	94.1579
2359.62	95.0526
2361.54	96
2363.45	93.4211
2365.36	93.3684
2367.27	92.6842
2369.19	94.7368
2371.1	94.6316
2373.01	90.7895
2374.92	93.3684
2376.83	94.8947
2378.73	92.8421
2380.64	94.0526
2382.55	94.1579
2384.46	94.2632
2386.36	95.1579
2388.27	94.6316
2390.17	93.1579
2392.08	95.4211
2393.98	94.9474
2395.89	93.9474
2397.79	93.5263
2399.69	93.9474
2401.59	96.1053
2403.5	93
2405.4	93.8421
2407.3	94
2409.2	94.3158
2411.09	95.5263
2412.99	96.5263
2414.89	95.8947
2416.79	94.1579
2418.69	96.3158
2420.58	94.5789
2422.48	95.7368
2424.37	97.1053
2426.27	96.0526
2428.16	95.8421
2430.06	95.0526
2431.95	95.2632
2433.84	92.6316
2435.73	95.3158
2437.62	94.6316
2439.52	93.7368
2441.41	95.1579
2443.3	93.0526
2445.19	94.579
