176.074	202.222
178.677	199.333
181.279	200.222
183.879	203.333
186.48	204
189.08	201.556
191.677	199
194.275	199.778
196.871	196.222
199.467	199.111
202.061	196.333
204.656	190.222
207.249	189
209.841	186.333
212.433	183.111
215.022	181.889
217.613	181.111
220.201	180.778
222.789	178.667
225.375	178.889
227.962	177.111
230.547	177.778
233.132	177.333
235.714	178
238.296	181.444
240.879	181.778
243.459	182.222
246.04	189.889
248.618	186.778
251.198	190.778
253.774	186
256.35	181.333
258.927	186.667
261.501	178.444
264.074	175
266.648	177.556
269.22	174.333
271.791	171.667
274.362	168.222
276.931	168.889
279.5	163.889
282.069	166
284.635	164.111
287.201	166.111
289.766	170.556
292.331	172
294.894	174.222
297.457	183.778
300.018	198.556
302.58	205.778
305.14	223.444
307.699	212.667
310.257	203.889
312.814	188.556
315.372	177.444
317.928	168
320.482	162.222
323.036	153.333
325.589	156.444
328.142	153.556
330.693	149.444
333.243	154.444
335.795	157
338.343	154.444
340.891	152
343.439	156.444
345.985	156.667
348.53	156.667
351.075	156.667
353.619	152.556
356.162	150.556
358.704	147.889
361.245	151
363.786	148.667
366.325	148.889
368.864	145
371.402	143.333
373.939	141.111
376.475	139.889
379.011	139.667
381.545	146.222
384.079	145.667
386.611	147.778
389.143	147.889
391.674	144.556
394.204	143.111
396.734	136.556
399.263	138.889
401.791	136
404.318	135.778
406.843	137.222
409.368	135.222
411.893	134.667
414.417	131.222
416.94	135.889
419.46	136.111
421.982	140.222
424.502	140.111
427.022	138.444
429.541	131.778
432.057	128.778
434.574	126.556
437.091	129.444
439.605	125.111
442.12	127.444
444.634	123.889
447.145	123
449.657	123.667
452.169	127.333
454.678	124.222
457.188	127.556
459.697	126.778
462.204	126.111
464.711	126.889
467.217	124.222
469.722	123.222
472.227	125.444
474.729	122.111
477.232	125.111
479.735	122.333
482.235	119.556
484.736	117.111
487.234	121.444
489.734	121.333
492.23	117.778
494.728	119.778
497.223	117.333
499.719	121.444
502.213	117.222
504.707	115.222
507.199	117.333
509.69	117.444
512.182	114.778
514.672	112
517.162	111.111
519.65	107.778
522.139	110.333
524.625	109.111
527.111	104.667
529.597	104.889
532.081	103.778
534.564	103.111
537.047	105.333
539.529	105.111
542.01	104.556
544.491	101.222
546.97	101.444
549.448	101.889
551.927	99.8889
554.404	96.4444
556.88	99.3333
559.355	98.6667
561.831	98.8889
564.304	96
566.777	95
569.249	92.3333
571.72	91.6667
574.191	92.2222
576.661	90.7778
579.129	89
581.597	88.5556
584.064	91.1111
586.531	89
588.997	86.7778
591.462	85.7778
593.926	86.1111
596.389	84.1111
598.851	89.6667
601.313	84.7778
603.773	84.5556
606.233	85.6667
608.692	86.7778
611.151	86.1111
613.608	83.6667
616.065	83.8889
618.521	84
620.976	85.5556
623.43	80.6667
625.883	80.2222
628.336	80.3333
630.788	79.5556
633.239	84.3333
635.69	80.3333
638.139	83.1111
640.588	80.8889
643.036	81.5556
645.483	81.1111
647.929	82.3333
650.375	82.3333
652.818	79.7778
655.262	77.6667
657.706	81.6667
660.148	78.5556
662.59	81
665.031	80.3333
667.471	78.3333
669.909	81.7778
672.347	79.3333
674.785	80.3333
677.222	78.3333
679.656	81.8889
682.092	79.5556
684.526	81.6667
686.96	80.4444
689.392	83.8889
691.824	81.5556
694.256	83.8889
696.686	81.5556
699.115	82.8889
701.544	82.3333
703.972	85.4444
706.398	84.3333
708.825	82.4444
711.25	88
713.675	92.8889
716.099	92.7778
718.522	99.6667
720.944	100.111
723.366	108.444
725.786	113.333
728.207	118.889
730.625	117.111
733.044	118.556
735.461	117.222
737.879	119
740.294	118.889
742.71	121.667
745.123	125.778
747.538	128.778
749.95	136.889
752.363	145.889
754.773	167.111
757.185	186
759.594	218.333
762.002	255
764.411	275.778
766.818	301.222
769.225	304.778
771.63	300.889
774.035	296.444
776.44	299.556
778.843	294
781.245	298
783.648	297.111
786.048	303.667
788.448	303.111
790.848	318.444
793.247	317.222
795.644	316.111
798.042	294
800.438	267.444
802.834	246.222
805.228	230
807.623	215.111
810.016	212.778
812.408	221.556
814.8	226.444
817.191	232
819.58	234.444
821.971	246.556
824.359	245.444
826.747	254.889
829.134	250.667
831.52	247
833.905	237.889
836.29	231.222
838.675	224.778
841.058	208.222
843.44	196.444
845.822	184.667
848.203	185.333
850.583	174.778
852.962	163.778
855.341	160.222
857.718	161.778
860.095	160.667
862.471	172.889
864.847	186
867.222	199.333
869.596	221.444
871.969	241.111
874.341	261.889
876.713	269.778
879.083	260.889
881.453	247
883.822	238.333
886.191	235.889
888.559	243.556
890.926	276.333
893.293	309.222
895.658	327
898.022	311.667
900.386	261.222
902.75	224.222
905.112	202.667
907.474	188.778
909.834	184.556
912.194	176.222
914.554	163
916.913	159.889
919.27	150.889
921.627	145.889
923.984	139.111
926.34	137.222
928.694	136.778
931.048	137.556
933.402	139.333
935.754	140.111
938.106	132.778
940.458	130.556
942.807	129.222
945.157	124.222
947.505	125.889
949.853	129.222
952.201	133.444
954.547	139.222
956.893	145
959.237	147.444
961.582	153.222
963.925	161.111
966.268	166.444
968.609	171.333
970.951	169.111
973.291	171.889
975.631	177.333
977.97	172.444
980.309	169.778
982.645	169
984.983	164.444
987.318	166.556
989.653	166.222
991.988	163.889
994.321	159.778
996.655	158.778
998.987	159.889
1001.32	156.333
1003.65	161.222
1005.98	163.333
1008.31	159.556
1010.64	163.889
1012.96	170.556
1015.29	177.556
1017.62	185.333
1019.94	193.556
1022.27	199.444
1024.59	208.111
1026.91	208.333
1029.24	218.667
1031.56	227.778
1033.88	233.444
1036.2	237.889
1038.52	245.333
1040.84	253.778
1043.16	264.667
1045.47	270.222
1047.79	261.444
1050.1	245.556
1052.42	225.889
1054.74	214.667
1057.05	225.667
1059.36	242.444
1061.67	265.111
1063.98	277.778
1066.29	267.556
1068.6	256.778
1070.91	246.556
1073.22	229.556
1075.53	218.333
1077.84	214.889
1080.14	206
1082.45	198.222
1084.75	195.333
1087.06	184.667
1089.36	167.333
1091.66	153.556
1093.96	144.667
1096.27	133.444
1098.57	126.444
1100.87	120.889
1103.16	119.222
1105.46	121.222
1107.76	126.222
1110.06	134.667
1112.35	141
1114.65	142.444
1116.94	152.778
1119.23	156.556
1121.53	162
1123.82	161
1126.11	164.333
1128.4	167
1130.69	167.111
1132.98	170.333
1135.27	178.778
1137.56	177.778
1139.85	183.889
1142.13	200
1144.42	210.889
1146.7	217.889
1148.99	226.333
1151.27	220
1153.55	213.444
1155.84	213.667
1158.12	207.111
1160.4	199.222
1162.68	188.222
1164.96	170.222
1167.23	148.111
1169.51	133.889
1171.79	121.667
1174.06	117.667
1176.34	110.556
1178.62	102.667
1180.89	102.333
1183.16	100.778
1185.44	102
1187.71	100.111
1189.98	101.889
1192.25	102
1194.52	101.778
1196.79	103.556
1199.06	107
1201.32	110.556
1203.59	116.444
1205.86	119.222
1208.12	120.444
1210.39	125.222
1212.65	126.333
1214.91	124.444
1217.18	123.333
1219.44	118
1221.7	116.222
1223.96	111.667
1226.22	114.111
1228.48	117.556
1230.74	119.889
1232.99	129.889
1235.25	138.444
1237.51	142.889
1239.76	158.222
1242.02	159.222
1244.27	156.778
1246.53	156.333
1248.78	159.333
1251.03	163.778
1253.28	169.111
1255.53	175.889
1257.78	182.333
1260.03	189.444
1262.28	197
1264.53	212.222
1266.77	228.778
1269.02	247.222
1271.26	260
1273.51	263.556
1275.75	260.444
1278	254.222
1280.24	253.111
1282.48	252.111
1284.72	253.111
1286.96	252
1289.2	257.222
1291.44	254.444
1293.68	252.333
1295.92	256.889
1298.15	259.778
1300.39	270.111
1302.63	278.889
1304.86	274.222
1307.1	274
1309.33	272.222
1311.56	279.778
1313.79	269
1316.02	253.222
1318.26	233.444
1320.49	213.222
1322.71	194.222
1324.94	177.333
1327.17	169.111
1329.4	162.111
1331.62	159.444
1333.85	152.667
1336.08	154.222
1338.3	152.333
1340.52	151.778
1342.75	159.556
1344.97	157.333
1347.19	155.556
1349.41	150.222
1351.63	151.889
1353.85	157.444
1356.07	162.889
1358.29	168.778
1360.5	170.667
1362.72	165.111
1364.94	160.222
1367.15	158.889
1369.37	155.333
1371.58	150.778
1373.79	151.444
1376.01	144.333
1378.22	144
1380.43	150.222
1382.64	152.556
1384.85	154
1387.06	154.111
1389.27	151.111
1391.47	146
1393.68	138.778
1395.89	136
1398.09	130.889
1400.3	128.333
1402.5	123.556
1404.71	123.222
1406.91	125.444
1409.11	120.444
1411.31	119.111
1413.51	125
1415.71	124.889
1417.91	127.444
1420.11	129.222
1422.31	140.333
1424.51	144.667
1426.7	152.333
1428.9	167.222
1431.1	194.556
1433.29	239.444
1435.48	303.889
1437.68	378
1439.87	435.778
1442.06	463.333
1444.25	499.778
1446.44	537.667
1448.63	575.444
1450.82	577.889
1453.01	558
1455.2	545.222
1457.39	543.444
1459.57	538.111
1461.76	513.333
1463.94	491.222
1466.13	462.222
1468.31	438.444
1470.49	408.333
1472.68	372.889
1474.86	334.111
1477.04	301.222
1479.22	274.222
1481.4	246.111
1483.58	216.778
1485.75	191.333
1487.93	178.556
1490.11	162.778
1492.29	151.889
1494.46	144.667
1496.64	138.222
1498.81	132.222
1500.98	130.667
1503.16	125.778
1505.33	126
1507.5	121.889
1509.67	120.444
1511.84	123.111
1514.01	118
1516.18	111.556
1518.35	120.889
1520.51	114.333
1522.68	113.889
1524.85	114.222
1527.01	114.667
1529.18	112
1531.34	116.778
1533.51	110.111
1535.67	110.778
1537.83	107.556
1539.99	110.222
1542.15	111.444
1544.31	110.333
1546.47	107.556
1548.63	107.444
1550.79	110.778
1552.95	105.444
1555.1	107.667
1557.26	108.333
1559.41	108.444
1561.57	104.111
1563.72	106.556
1565.88	105
1568.03	104.222
1570.18	104.778
1572.33	105.444
1574.48	100.889
1576.63	101.778
1578.78	105
1580.93	105.556
1583.08	103.889
1585.23	101.889
1587.37	98.7778
1589.52	104.222
1591.66	99.7778
1593.81	102.111
1595.95	100.333
1598.1	99.6667
1600.24	101.556
1602.38	99.3333
1604.52	101
1606.66	100.222
1608.8	98
1610.94	98.3333
1613.08	101.667
1615.22	99.7778
1617.36	101
1619.49	99.6667
1621.63	100.667
1623.77	100.667
1625.9	97
1628.03	99.3333
1630.17	97.4444
1632.3	100.222
1634.43	100
1636.56	98
1638.7	96.1111
1640.83	97.5556
1642.96	97
1645.08	99.4444
1647.21	97
1649.34	97
1651.47	96
1653.59	94.8889
1655.72	98.4444
1657.84	98.7778
1659.97	96.8889
1662.09	96.5555
1664.21	99.3333
1666.34	100.444
1668.46	96.5556
1670.58	96.5556
1672.7	97.4444
1674.82	98.4444
1676.94	97
1679.06	97.2222
1681.18	96.7778
1683.29	97.7778
1685.41	99.2222
1687.52	98.3333
1689.64	99.1111
1691.76	100.111
1693.87	97.7778
1695.98	97.4444
1698.09	100.333
1700.21	99.6667
1702.32	99.5556
1704.43	100.444
1706.54	96.8889
1708.65	97.6667
1710.76	101.111
1712.86	99
1714.97	98.7778
1717.08	97.6667
1719.19	98.6667
1721.29	94.8889
1723.4	97.4444
1725.5	98.3333
1727.6	97.4444
1729.71	95.3333
1731.81	98.2222
1733.91	96.5556
1736.01	95.3333
1738.11	94
1740.21	98.7778
1742.31	93.4444
1744.41	92.6667
1746.51	97.1111
1748.6	95
1750.7	95.6667
1752.8	92
1754.89	94.2222
1756.99	96.6667
1759.08	94.5556
1761.17	91
1763.27	93.6667
1765.36	92
1767.45	94.1111
1769.54	93.2222
1771.63	93.4444
1773.72	95.7778
1775.81	96.7778
1777.9	93.4444
1779.98	94.1111
1782.07	92.7778
1784.16	94.3333
1786.24	92
1788.33	95.2222
1790.41	95.2222
1792.5	98.2222
1794.58	92.6667
1796.66	92.7778
1798.74	95.8889
1800.83	95.5556
1802.91	95.2222
1804.99	93.6667
1807.06	96.4444
1809.14	95
1811.22	96.1111
1813.3	92.8889
1815.38	94.8889
1817.45	94.7778
1819.53	92.8889
1821.6	94.3333
1823.68	95.4444
1825.75	96.7778
1827.82	92.3333
1829.9	95.7778
1831.97	94.8889
1834.04	94.8889
1836.11	94.3333
1838.18	95.4444
1840.25	91.2222
1842.32	92.3333
1844.38	94.4444
1846.45	94.4444
1848.52	96.8889
1850.58	93.4444
1852.65	91.6667
1854.72	94.6667
1856.78	92.8889
1858.84	94.4444
1860.91	91.7778
1862.97	97.8889
1865.03	91.1111
1867.09	96.7778
1869.15	89.4445
1871.21	90.6667
1873.27	90.2222
1875.33	95.5556
1877.39	91.5556
1879.44	91.2222
1881.5	90.6667
1883.56	94.6667
1885.61	93.3333
1887.67	93.3333
1889.72	95.3333
1891.78	94.1111
1893.83	93.8889
1895.88	95.3333
1897.93	91.4444
1899.98	95.4444
1902.03	92.1111
1904.08	93.4444
1906.13	93.1111
1908.18	93.5556
1910.23	93.1111
1912.28	95.7778
1914.32	93.1111
1916.37	92.7778
1918.41	93.4444
1920.46	95.4444
1922.5	95.7778
1924.55	92.4444
1926.59	91.8889
1928.63	91.1111
1930.68	95.2222
1932.72	96.5556
1934.76	94.6667
1936.8	93.4444
1938.84	95.8889
1940.87	95.4444
1942.91	95
1944.95	95.3333
1946.99	91.3333
1949.02	93.8889
1951.06	93
1953.09	95.3333
1955.13	93.5556
1957.16	97.1111
1959.2	95.6667
1961.23	92
1963.26	96
1965.29	94.7778
1967.32	92.4444
1969.35	93.8889
1971.38	96
1973.41	96.7778
1975.44	90.7778
1977.47	96.3333
1979.5	94.2222
1981.52	93.6667
1983.55	92.5556
1985.57	91.2222
1987.6	93.6667
1989.62	94.5556
1991.64	93.2222
1993.67	92.3333
1995.69	91.5556
1997.71	95.8889
1999.73	94.5556
2001.75	95
2003.77	93.8889
2005.79	93.6667
2007.81	93
2009.83	94.8889
2011.85	96.5556
2013.86	95
2015.88	94.6667
2017.89	94.6667
2019.91	93.4444
2021.92	90.8889
2023.94	95.2222
2025.95	95
2027.96	96.3333
2029.97	94.5556
2031.99	95.3333
2034	93.7778
2036.01	98.6667
2038.02	93.6667
2040.03	99
2042.03	94.7778
2044.04	95.7778
2046.05	95.8889
2048.06	93.8889
2050.06	94.6667
2052.07	97.4445
2054.07	95.1111
2056.08	96
2058.08	98
2060.08	95.6667
2062.08	95.7778
2064.09	94.5556
2066.09	93.5556
2068.09	94.8889
2070.09	97.2222
2072.09	97.7778
2074.09	93.2222
2076.08	94.4444
2078.08	94.3333
2080.08	95.4444
2082.07	96.3333
2084.07	98.6667
2086.07	96.1111
2088.06	94.3333
2090.05	96.3333
2092.05	95.4444
2094.04	96.1111
2096.03	95
2098.02	94.1111
2100.01	99.1111
2102	96
2103.99	93.1111
2105.98	93.4444
2107.97	93.3333
2109.96	96.6667
2111.95	94.3333
2113.94	94
2115.92	98.5556
2117.91	98.3333
2119.89	91.6667
2121.88	96.7778
2123.86	95.6667
2125.84	94.3333
2127.83	97.2222
2129.81	95.4444
2131.79	95.2222
2133.77	94
2135.75	95.6667
2137.73	96.8889
2139.71	94.6667
2141.69	96.1111
2143.67	96.4444
2145.64	95.8889
2147.62	97.8889
2149.6	96.8889
2151.57	94.1111
2153.55	97.6667
2155.52	96.2222
2157.5	97.7778
2159.47	95.8889
2161.44	96.6667
2163.41	95
2165.39	98.6667
2167.36	99
2169.33	99.8889
2171.3	97
2173.27	98.2222
2175.24	95.7778
2177.2	98.2222
2179.17	93.5556
2181.14	97
2183.1	96.7778
2185.07	96.7778
2187.03	98.1111
2189	98.3333
2190.96	100.111
2192.93	98.4444
2194.89	100.889
2196.85	101.222
2198.81	97.8889
2200.77	99.4444
2202.73	95.8889
2204.69	98.1111
2206.65	100.333
2208.61	96.4445
2210.57	101.444
2212.53	98.2222
2214.48	99.2222
2216.44	98
2218.4	97.3333
2220.35	99
2222.31	95.5556
2224.26	98.7778
2226.21	100.444
2228.17	97.8889
2230.12	98.6667
2232.07	99.7778
2234.02	99.2222
2235.97	100.667
2237.92	99
2239.87	101.333
2241.82	102.333
2243.77	97.4444
2245.72	95.1111
2247.66	99.3333
2249.61	96.6667
2251.56	97.6667
2253.5	96.4444
2255.45	98
2257.39	94.6667
2259.33	97.4445
2261.28	94.8889
2263.22	97
2265.16	97.2222
2267.1	93.8889
2269.04	97.6667
2270.99	95.8889
2272.92	96.8889
2274.86	95.6667
2276.8	97.6667
2278.74	96.8889
2280.68	95.7778
2282.61	96.6667
2284.55	96.6667
2286.49	95.1111
2288.42	95.5556
2290.36	98
2292.29	99
2294.22	96.5556
2296.16	98.5556
2298.09	98.7778
2300.02	96.8889
2301.95	97.2222
2303.88	96.3333
2305.81	98.1111
2307.74	93.6667
2309.67	92.6667
2311.6	97
2313.53	94.6667
2315.45	99
2317.38	96.4444
2319.31	95
2321.23	95.5556
2323.16	97.8889
2325.08	95.2222
2327	99.1111
2328.93	97
2330.85	94.3333
2332.77	95.7778
2334.69	94.2222
2336.62	94.8889
2338.54	91.6667
2340.46	94.8889
2342.38	97.6667
2344.29	97.7778
2346.21	97
2348.13	94.5556
2350.05	96.8889
2351.96	98.2222
2353.88	95.3333
2355.79	97.5556
2357.71	99.1111
2359.62	96.8889
2361.54	97.4444
2363.45	96.1111
2365.36	96.7778
2367.27	96.7778
2369.19	95
2371.1	97.8889
2373.01	97.4444
2374.92	99.7778
2376.83	97.6667
2378.73	93.6667
2380.64	96.1111
2382.55	94.5556
2384.46	97
2386.36	98.8889
2388.27	96.5556
2390.17	95.4444
2392.08	97.2222
2393.98	97.1111
2395.89	95.7778
2397.79	95.5556
2399.69	97.8889
2401.59	98.6667
2403.5	92.4444
2405.4	94.8889
2407.3	95.8889
2409.2	94.7778
2411.09	96.8889
2412.99	98
2414.89	96.5556
2416.79	97.2222
2418.69	98.1111
2420.58	99.4444
2422.48	96.4444
2424.37	96.5556
2426.27	98.6667
2428.16	96.5556
2430.06	95.7778
2431.95	98.3333
2433.84	95.1111
2435.73	98.6667
2437.62	94.7778
2439.52	98.1111
2441.41	97
2443.3	97.1111
2445.19	96.8889
