178.677	2383.33
181.278	2401.11
183.879	2435.56
186.48	2473.33
189.078	2552.67
191.677	2630.67
194.275	2704
196.871	2816
199.467	2929.11
202.061	3008
204.656	3138.22
207.248	3230.67
209.841	3341.11
212.431	3477.33
215.022	3630.22
217.613	3735.33
220.201	3945.11
222.789	4164
225.375	4410
227.962	4744.22
230.547	5063.11
233.13	5538.89
235.714	5940.22
238.296	6303.33
240.879	6636.67
243.459	6763.78
246.04	6605.11
248.618	6196
251.196	5578.22
253.774	4935.56
256.35	4250.22
258.927	3731.56
261.501	3233.56
264.074	2825.33
266.648	2551.11
269.22	2301.56
271.791	2114.44
274.362	1943.33
276.931	1822
279.5	1719.56
282.069	1632
284.635	1564.22
287.201	1510
289.766	1429.33
292.331	1381.33
294.894	1355.33
297.457	1332.67
300.018	1289.56
302.58	1273.11
305.14	1265.11
307.699	1228.22
310.257	1198
312.814	1179.11
315.372	1154.89
317.928	1149.33
320.482	1127.56
323.036	1117.56
325.589	1130.44
328.142	1116
330.693	1110.67
333.243	1095.56
335.795	1100.22
338.343	1095.78
340.891	1077.56
343.439	1078.44
345.985	1083.78
348.53	1081.11
351.075	1072
353.619	1075.11
356.162	1082.89
358.704	1061.78
361.245	1047.56
363.786	1063.33
366.325	1064.44
368.864	1062.67
371.402	1042.67
373.939	1064.44
376.475	1076.89
379.011	1068.22
381.545	1084.44
384.079	1082
386.612	1077.33
389.144	1060.89
391.674	1075.33
394.204	1068.22
396.734	1063.33
399.263	1069.56
401.791	1044.22
404.318	1050.67
406.844	1033.33
409.368	1047.78
411.893	1051.33
414.417	1040.44
416.94	1046.67
419.462	1041.56
421.982	1058.89
424.502	1045.11
427.022	1040.44
429.541	1040.67
432.057	1055.56
434.574	1051.11
437.091	1041.56
439.606	1031.56
442.12	1023.11
444.634	1016.67
447.147	1030
449.657	1014.44
452.169	1019.78
454.68	1013.33
457.188	1005.78
459.697	1021.56
462.205	1012.67
464.711	1013.11
467.217	1003.56
469.722	992.889
472.227	1005.33
474.731	996.889
477.232	1008
479.735	1006.22
482.235	1008.67
484.736	1012.89
487.234	1021.33
489.734	1015.33
492.23	1005.56
494.728	996.889
497.223	999.333
499.719	995.778
502.213	987.111
504.707	984.222
507.199	985.333
509.692	970.444
512.182	971.111
514.673	978
517.162	973.556
519.65	996
522.139	977.778
524.625	996
527.112	961.333
529.597	968
532.081	962.667
534.565	967.778
537.047	978
539.529	975.111
542.011	970
544.491	977.111
546.97	978.444
549.45	968.667
551.927	970.444
554.404	970.444
556.88	970.889
559.356	970
561.831	988.222
564.304	972.667
566.777	986.222
569.25	976.667
571.721	979.111
574.191	974
576.661	980.667
579.129	968.667
581.599	967.333
584.066	969.333
586.532	972.889
588.997	967.333
591.462	973.556
593.926	976
596.389	981.778
598.851	974.889
601.314	981.333
603.775	985.556
606.235	994.444
608.694	1044.44
611.152	1030.67
613.609	1004.22
616.066	992.445
618.522	1000.44
620.977	1003.33
623.431	1006
625.885	998.222
628.338	1009.33
630.79	998.444
633.241	1011.11
635.691	1002.22
638.141	1006
640.589	994.667
643.036	982
645.483	1000.89
647.929	1005.78
650.375	1018.89
652.82	988.889
655.264	985.111
657.707	995.333
660.149	964.889
662.59	971.333
665.031	976.444
667.471	977.333
669.91	980.444
672.349	978
674.786	971.111
677.222	993.111
679.658	984.444
682.093	989.111
684.528	987.778
686.96	987.556
689.393	976
691.826	985.333
694.256	988.222
696.686	970.889
699.116	985.555
701.545	980.889
703.972	983.111
706.4	981.111
708.826	983.111
711.251	980.667
713.676	993.556
716.099	984.444
718.523	996.889
720.946	975.333
723.366	977.778
725.788	982
728.207	964.889
730.627	969.333
733.044	991.111
735.462	975.778
737.88	990.667
740.295	973.333
742.711	978.222
745.125	983.333
747.539	985.556
749.951	973.333
752.363	992.667
754.775	984.889
757.185	984.444
759.595	1014.67
762.003	1027.56
764.412	1062.44
766.819	1067.33
769.225	1061.11
771.632	1033.11
774.036	1004.44
776.441	1013.33
778.844	1018.67
781.246	1020.44
783.649	1020.22
786.05	1024.22
788.449	1004.22
790.85	1000.89
793.248	1004.22
795.646	1010.89
798.042	1007.33
800.44	1004
802.835	1012.67
805.23	1007.56
807.623	1020.22
810.018	1001.11
812.41	1008.22
814.801	996.889
817.192	985.556
819.582	995.333
821.972	984
824.361	999.333
826.748	992.667
829.135	989.333
831.521	990.222
833.907	989.111
836.291	991.778
838.675	998
841.059	994
843.442	1008
845.823	1001.78
848.204	972.222
850.584	996.889
852.963	992
855.342	996
857.72	1006
860.097	998.667
862.473	1011.56
864.848	1018
867.223	1020.67
869.597	1009.56
871.97	1016.22
874.343	1022.22
876.714	1035.78
879.084	1031.33
881.454	1008.22
883.824	1020.22
886.192	1005.11
888.56	997.333
890.927	1004.22
893.294	997.333
895.66	976.667
898.023	989.778
900.387	999.333
902.751	998.889
905.114	1008.67
907.476	1003.11
909.835	1007.33
912.196	1024.89
914.555	994
916.914	997.778
919.271	1010
921.629	1004.67
923.985	989.778
926.341	985.111
928.695	979.778
931.05	985.333
933.404	978
935.755	976
938.107	972.889
940.459	997.333
942.808	974
945.158	989.333
947.508	986.667
949.855	986.667
952.202	989.556
954.548	990.667
956.894	993.555
959.239	992.889
961.583	1003.56
963.928	987.778
966.27	993.333
968.612	982.444
970.953	988.667
973.294	1022.22
975.633	1000.22
977.972	993.555
980.31	1019.11
982.647	1012.67
984.984	1007.33
987.32	1031.78
989.656	1032.89
991.989	1040.67
994.324	1064.44
996.656	1084.22
998.988	1127.78
1001.32	1227.33
1003.65	1391.33
1005.98	1680.22
1008.31	1885.56
1010.64	1824.22
1012.97	1575.33
1015.29	1378.67
1017.62	1278.89
1019.94	1280.67
1022.27	1330.22
1024.59	1383.33
1026.92	1419.56
1029.24	1391.78
1031.56	1363.33
1033.88	1347.56
1036.2	1278.89
1038.52	1222.44
1040.84	1126.67
1043.16	1076.89
1045.48	1045.11
1047.79	1068.67
1050.11	1058.67
1052.42	1073.78
1054.74	1082.44
1057.05	1091.11
1059.36	1086.44
1061.67	1084.44
1063.99	1043.33
1066.3	1046.67
1068.61	1037.56
1070.92	1022.22
1073.22	1032.22
1075.53	1012.89
1077.84	1012
1080.15	996.889
1082.45	1000.89
1084.76	1010.44
1087.06	1017.78
1089.36	1019.11
1091.66	1014
1093.97	1033.56
1096.27	1043.78
1098.57	1024.44
1100.87	1031.11
1103.17	1031.78
1105.46	1002.67
1107.76	1004.67
1110.06	1009.33
1112.35	1016.67
1114.65	1019.11
1116.94	1017.11
1119.24	1029.78
1121.53	1018.67
1123.82	1027.78
1126.11	1025.11
1128.4	1017.11
1130.7	996.222
1132.98	1016.44
1135.27	979.556
1137.56	998.444
1139.85	1003.33
1142.13	1003.56
1144.42	991.556
1146.71	994.667
1148.99	990
1151.27	1017.33
1153.56	1008.44
1155.84	989.778
1158.12	988
1160.4	991.111
1162.68	966.444
1164.96	984
1167.24	990.222
1169.51	984.889
1171.79	991.556
1174.07	999.555
1176.34	965.556
1178.62	986.667
1180.89	978.667
1183.17	985.111
1185.44	998.444
1187.71	991.333
1189.98	997.333
1192.25	1020.44
1194.52	1033.33
1196.79	1030.22
1199.06	1034.67
1201.33	1028.67
1203.59	1022
1205.86	983.555
1208.12	1018.44
1210.39	1004.89
1212.65	1008.22
1214.92	1033.11
1217.18	1027.78
1219.44	1017.11
1221.7	1002.89
1223.96	981.778
1226.22	984.222
1228.48	985.778
1230.74	984.667
1233	979.111
1235.25	988.889
1237.51	992
1239.77	981.111
1242.02	991.556
1244.27	976.889
1246.53	979.111
1248.78	973.111
1251.03	986.889
1253.28	976.889
1255.53	967.778
1257.78	996.889
1260.03	974
1262.28	976.667
1264.53	972
1266.78	982.444
1269.02	986
1271.27	986
1273.51	975.333
1275.76	985.556
1278	986.667
1280.24	965.556
1282.48	988.889
1284.72	987.556
1286.97	988.667
1289.21	992.667
1291.44	984
1293.68	997.333
1295.92	1024.44
1298.16	1002.89
1300.39	1007.56
1302.63	1025.78
1304.86	1018
1307.1	1014.89
1309.33	987.111
1311.56	988.667
1313.8	998.222
1316.03	1003.78
1318.26	989.778
1320.49	968
1322.72	973.778
1324.95	995.556
1327.17	979.333
1329.4	982.889
1331.63	981.556
1333.85	958.222
1336.08	966.667
1338.3	973.778
1340.53	969.333
1342.75	977.778
1344.97	965.556
1347.19	984.445
1349.41	975.111
1351.63	980.222
1353.85	968
1356.07	981.556
1358.29	983.111
1360.51	969.556
1362.72	963.111
1364.94	977.333
1367.16	967.778
1369.37	979.111
1371.58	960
1373.8	970.889
1376.01	972.889
1378.22	978
1380.43	994.444
1382.64	985.556
1384.85	979.556
1387.06	977.333
1389.27	980.444
1391.48	953.333
1393.68	964
1395.89	957.556
1398.1	948.444
1400.3	964.889
1402.51	964.444
1404.71	957.111
1406.91	954.222
1409.11	971.556
1411.32	973.333
1413.52	966.889
1415.72	962.889
1417.92	965.556
1420.11	963.778
1422.31	968.667
1424.51	959.333
1426.71	974.222
1428.9	960.667
1431.1	957.778
1433.29	963.333
1435.49	959.333
1437.68	958.667
1439.87	967.111
1442.06	971.778
1444.25	966.667
1446.45	967.111
1448.64	965.333
1450.82	963.111
1453.01	973.333
1455.2	972.889
1457.39	966.667
1459.57	966.889
1461.76	983.556
1463.94	983.778
1466.13	970.444
1468.31	976
1470.5	975.778
1472.68	976.889
1474.86	982.889
1477.04	963.111
1479.22	969.333
1481.4	984.667
1483.58	978.667
1485.76	976.667
1487.94	973.556
1490.11	958.222
1492.29	963.111
1494.46	939.333
1496.64	955.111
1498.81	951.556
1500.99	955.333
1503.16	960.222
1505.33	958
1507.5	946.667
1509.67	963.111
1511.84	933.778
1514.01	940.667
1516.18	942.667
1518.35	938.667
1520.52	958.222
1522.68	950.667
1524.85	933.778
1527.02	928
1529.18	942.444
1531.35	956
1533.51	931.556
1535.67	945.111
1537.83	938
1539.99	949.333
1542.16	930.889
1544.31	942.444
1546.47	948.222
1548.63	942.445
1550.79	950.222
1552.95	944
1555.11	944.444
1557.26	958
1559.42	951.111
1561.57	953.778
1563.73	938.667
1565.88	949.111
1568.03	974.222
1570.18	980
1572.34	980.222
1574.49	978.667
1576.64	988.667
1578.79	990.889
1580.93	987.333
1583.08	970.667
1585.23	978.889
1587.38	976.667
1589.52	975.333
1591.67	977.778
1593.81	988
1595.96	993.111
1598.1	991.778
1600.24	985.778
1602.38	974
1604.53	973.111
1606.67	988.667
1608.81	974.222
1610.95	984
1613.09	959.778
1615.22	968.667
1617.36	970
1619.5	967.556
1621.63	964
1623.77	976.667
1625.9	973.111
1628.04	984.889
1630.17	990.222
1632.3	986.667
1634.44	983.111
1636.57	958.667
1638.7	945.111
1640.83	927.111
1642.96	935.556
1645.09	905.778
1647.22	916
1649.34	912.667
1651.47	906.444
1653.6	899.778
1655.72	912.667
1657.85	897.333
1659.97	905.556
1662.1	890.667
1664.22	903.556
1666.34	894.222
1668.46	892.222
1670.58	898.222
1672.7	890.667
1674.82	881.778
1676.94	889.556
1679.06	885.778
1681.18	878.222
1683.3	894.667
1685.41	890.889
1687.53	880.667
1689.64	892.667
1691.76	883.333
1693.87	895.333
1695.99	888.889
1698.1	873.778
1700.21	898.889
1702.32	886.222
1704.43	863.778
1706.54	888.222
1708.65	880.667
1710.76	892.667
1712.87	896
1714.98	883.111
1717.08	894.889
1719.19	880
1721.29	884.889
1723.4	897.778
1725.5	894
1727.61	883.556
1729.71	875.333
1731.81	883.333
1733.91	884.222
1736.02	869.778
1738.12	870.667
1740.22	882.222
1742.31	870
1744.41	866
1746.51	893.556
1748.61	861.111
1750.7	860
1752.8	857.778
1754.9	856.889
1756.99	868.222
1759.08	862.444
1761.18	864.889
1763.27	866.222
1765.36	852.222
1767.45	861.333
1769.54	862
1771.63	856.667
1773.72	859.333
1775.81	874
1777.9	858.667
1779.99	864
1782.08	852.445
1784.16	859.778
1786.25	855.556
1788.33	847.333
1790.42	867.111
1792.5	858.889
1794.58	858.667
1796.67	855.111
1798.75	864
1800.83	860
1802.91	863.778
1804.99	861.556
1807.07	847.778
1809.15	850.667
1811.23	852
1813.3	852.222
1815.38	843.778
1817.46	850.222
1819.53	853.111
1821.61	854.889
1823.68	847.111
1825.75	861.111
1827.83	840.222
1829.9	850.222
1831.97	842.889
1834.04	834
1836.11	851.778
1838.18	846.444
1840.25	846.222
1842.32	828.889
1844.39	848.444
1846.46	822.444
1848.52	832
1850.59	831.111
1852.65	816.444
1854.72	842.889
1856.78	832.667
1858.85	835.333
1860.91	824.444
1862.97	829.333
1865.03	828.667
1867.09	824
1869.16	830
1871.22	832.889
1873.27	830.667
1875.33	822.444
1877.39	824.444
1879.45	825.556
1881.51	826.667
1883.56	822.222
1885.62	819.333
1887.67	812.889
1889.73	813.778
1891.78	808.667
1893.83	821.556
1895.89	827.333
1897.94	812.889
1899.99	834.444
1902.04	823.778
1904.09	833.111
1906.14	825.556
1908.19	823.778
1910.23	832
1912.28	806.889
1914.33	820.222
1916.37	817.556
1918.42	824
1920.46	816
1922.51	815.778
1924.55	806
1926.6	820
1928.64	805.333
1930.68	794.889
1932.72	800.222
1934.76	808.222
1936.8	804
1938.84	801.111
1940.88	799.778
1942.92	812.889
1944.96	799.111
1946.99	803.778
1949.03	807.555
1951.06	807.333
1953.1	796.222
1955.13	792.444
1957.17	801.556
1959.2	794.222
1961.23	802.222
1963.27	792.889
1965.3	796.889
1967.33	794.667
1969.36	795.778
1971.39	799.333
1973.42	800.222
1975.44	784.667
1977.47	797.556
1979.5	776.444
1981.53	782.444
1983.55	783.111
1985.58	782.444
1987.6	779.111
1989.63	765.778
1991.65	789.556
1993.67	782.667
1995.69	801.778
1997.72	776
1999.74	775.111
2001.76	774.222
2003.78	793.333
2005.8	779.333
2007.82	772.444
2009.83	777.333
2011.85	771.333
2013.87	772
2015.88	774.889
2017.9	771.778
2019.91	801.556
2021.93	774.222
2023.94	782.889
2025.96	780.667
2027.97	780.889
2029.98	774.444
2031.99	776.889
2034	775.556
2036.01	782.222
2038.02	778.667
2040.03	766.667
2042.04	778.444
2044.05	778.667
2046.05	762.222
2048.06	788.889
2050.07	769.111
2052.07	770.444
2054.08	760
2056.08	768
2058.08	777.556
2060.09	754.667
2062.09	767.778
2064.09	761.556
2066.09	767.333
2068.09	773.778
2070.09	756.889
2072.09	760.667
2074.09	762.222
2076.09	775.556
2078.09	758.444
2080.08	756
2082.08	763.111
2084.08	751.556
2086.07	754.889
2088.07	746.889
2090.06	739.111
2092.05	750
2094.05	748.222
2096.04	741.555
2098.03	746.667
2100.02	755.778
2102.01	765.333
2104	736.667
2105.99	749.778
2107.98	741.111
2109.97	740.444
2111.95	745.556
2113.94	750
2115.93	744.222
2117.91	744
2119.9	746.222
2121.88	737.111
2123.87	745.778
2125.85	728.222
2127.83	737.333
2129.81	743.111
2131.8	731.778
2133.78	744.667
2135.76	743.778
2137.74	740.444
2139.72	746.444
2141.69	743.556
2143.67	726.889
2145.65	744
2147.63	736.444
2149.6	729.778
2151.58	732.444
2153.55	720.222
2155.53	731.556
2157.5	722
2159.48	720.222
2161.45	718
2163.42	728.222
2165.39	716
2167.36	722.889
2169.33	720.444
2171.3	704.222
2173.27	726.889
2175.24	719.556
2177.21	711.333
2179.18	714
2181.14	713.111
2183.11	713.111
2185.07	710.444
2187.04	716.889
2189	713.333
2190.97	702.222
2192.93	734.667
2194.89	718.889
2196.86	712.889
2198.82	703.333
2200.78	700.667
2202.74	711.556
2204.7	713.556
2206.66	709.556
2208.62	697.333
2210.57	717.556
2212.53	706.889
2214.49	714.667
2216.45	712.889
2218.4	708.667
2220.36	704
2222.31	712.444
2224.27	725.556
2226.22	705.778
2228.17	715.778
2230.12	703.778
2232.08	702.889
2234.03	707.556
2235.98	711.111
2237.93	704.222
2239.88	706.889
2241.83	690.444
2243.78	702.444
2245.72	700.222
2247.67	701.111
2249.62	696.444
2251.56	688.222
2253.51	696.667
2255.45	700.222
2257.4	695.111
2259.34	689.111
2261.28	682
2263.23	672.667
2265.17	681.333
2267.11	682.444
2269.05	684.889
2270.99	690.444
2272.93	688.889
2274.87	684.667
2276.81	687.333
2278.75	673.333
2280.68	677.778
2282.62	687.556
2284.56	670.444
2286.49	686.444
2288.43	668
2290.36	675.111
2292.3	672.667
2294.23	671.333
2296.16	679.778
2298.09	674.667
2300.03	680
2301.96	674.222
2303.89	664.889
2305.82	664
2307.75	660.667
2309.68	670.889
2311.6	669.778
2313.53	663.556
2315.46	663.111
2317.39	674.222
2319.31	674.667
2321.24	674
2323.16	663.556
2325.09	662.222
2327.01	670
2328.93	661.111
2330.86	660.444
2332.78	667.556
2334.7	652.667
2336.62	659.778
2338.54	655.556
2340.46	652.889
2342.38	666
2344.3	656.444
2346.22	656.889
2348.14	650.889
2350.05	647.111
2351.97	656.667
2353.89	661.556
2355.8	649.556
2357.71	640.667
2359.63	650.889
2361.54	642.889
2363.46	637.556
2365.37	642.889
2367.28	633.556
2369.19	642.889
2371.1	635.556
2373.01	643.556
2374.92	633.778
2376.83	640.444
2378.74	642.444
2380.65	636
2382.56	638.444
2384.46	617.778
2386.37	633.556
2388.27	640.889
2390.18	632.222
2392.08	633.556
2393.99	632.444
2395.89	633.778
2397.8	626.222
2399.7	615.556
2401.6	624.667
2403.5	632.222
2405.4	631.778
2407.3	622.222
2409.2	632
2411.1	629.555
2413	630.222
2414.9	624.889
2416.8	637.556
2418.69	612.444
2420.59	625.111
2422.48	620.889
2424.38	615.333
2426.28	612.222
2428.17	630
2430.06	610.222
2431.96	617.778
2433.85	619.556
2435.74	629.333
2437.63	618.667
2439.52	614.222
2441.41	620
2443.3	609.333
2445.19	615.111
2447.08	614.444
