178.677	1901.33
181.278	1917.56
183.879	1903.11
186.48	1935.33
189.078	1969.11
191.677	2028.67
194.275	2073.78
196.871	2153.78
199.467	2181.33
202.061	2264.44
204.656	2335.78
207.248	2432.89
209.841	2510.89
212.431	2617.33
215.022	2730.44
217.613	2839.56
220.201	2973.78
222.789	3168
225.375	3349.33
227.962	3537.11
230.547	3803.33
233.13	4099.56
235.714	4381.56
238.296	4689.33
240.879	4902.89
243.459	4987.33
246.04	4918.44
248.618	4682
251.196	4305.33
253.774	3879.78
256.35	3413.11
258.927	3039.78
261.501	2706
264.074	2431.78
266.648	2191.33
269.22	1992.44
271.791	1861.33
274.362	1749.33
276.931	1648.89
279.5	1582
282.069	1510.22
284.635	1478.44
287.201	1396.22
289.766	1372.67
292.331	1354.44
294.894	1308.22
297.457	1280
300.018	1276.44
302.58	1258
305.14	1225.33
307.699	1209.56
310.257	1210.67
312.814	1190.67
315.372	1186
317.928	1171.11
320.482	1173.11
323.036	1161.56
325.589	1151.56
328.142	1149.56
330.693	1155.11
333.243	1137.56
335.795	1141.33
338.343	1132
340.891	1143.33
343.439	1136.67
345.985	1138
348.53	1132.89
351.075	1146.22
353.619	1128.44
356.162	1132.44
358.704	1118.67
361.245	1145.56
363.786	1125.33
366.325	1148.89
368.864	1124.89
371.402	1118.67
373.939	1126.89
376.475	1151.56
379.011	1146.44
381.545	1135.56
384.079	1129.33
386.612	1122.22
389.144	1104.67
391.674	1110.89
394.204	1104.22
396.734	1092.67
399.263	1104.44
401.791	1106.44
404.318	1118.22
406.844	1114.44
409.368	1111.78
411.893	1116.44
414.417	1106.89
416.94	1096.89
419.462	1105.56
421.982	1104.22
424.502	1107.56
427.022	1108
429.541	1114
432.057	1111.78
434.574	1114.89
437.091	1112
439.606	1119.33
442.12	1098.44
444.634	1102
447.147	1117.11
449.657	1113.78
452.169	1094.22
454.68	1109.33
457.188	1107.33
459.697	1099.78
462.205	1111.11
464.711	1092
467.217	1102
469.722	1091.78
472.227	1094.22
474.731	1100
477.232	1092.67
479.735	1096.89
482.235	1096.22
484.736	1099.33
487.234	1100
489.734	1081.56
492.23	1089.78
494.728	1090.89
497.223	1098.67
499.719	1085.11
502.213	1085.78
504.707	1076.22
507.199	1080.44
509.692	1055.11
512.182	1075.33
514.673	1079.78
517.162	1083.11
519.65	1071.78
522.139	1080.89
524.625	1063.56
527.112	1060
529.597	1064.67
532.081	1067.33
534.565	1069.56
537.047	1063.78
539.529	1076
542.011	1071.78
544.491	1063.33
546.97	1080.22
549.45	1087.11
551.927	1091.56
554.404	1086.89
556.88	1090.67
559.356	1084.67
561.831	1074.89
564.304	1085.33
566.777	1088.44
569.25	1088.44
571.721	1088
574.191	1084
576.661	1100
579.129	1080
581.599	1086.89
584.066	1083.78
586.532	1077.33
588.997	1082
591.462	1075.33
593.926	1071.56
596.389	1068
598.851	1064.67
601.314	1073.11
603.775	1080.22
606.235	1090.89
608.694	1086.22
611.152	1100.67
613.609	1092.67
616.066	1079.56
618.522	1095.56
620.977	1102.89
623.431	1095.56
625.885	1090.67
628.338	1093.33
630.79	1086.22
633.241	1091.56
635.691	1100.22
638.141	1098.89
640.589	1104.67
643.036	1097.11
645.483	1100.22
647.929	1106.89
650.375	1094.67
652.82	1115.33
655.264	1106.44
657.707	1077.11
660.149	1096.67
662.59	1100
665.031	1084.22
667.471	1087.33
669.91	1082.67
672.349	1078.44
674.786	1094.44
677.222	1080.67
679.658	1087.11
682.093	1081.56
684.528	1092
686.96	1098.89
689.393	1084
691.826	1092.22
694.256	1092
696.686	1105.11
699.116	1091.56
701.545	1096.44
703.972	1100
706.4	1094.67
708.826	1090
711.251	1108.44
713.676	1115.56
716.099	1098
718.523	1102.67
720.946	1097.33
723.366	1090.67
725.788	1106.89
728.207	1094.44
730.627	1102.89
733.044	1092.44
735.462	1104.44
737.88	1093.11
740.295	1097.78
742.711	1081.33
745.125	1098.89
747.539	1085.78
749.951	1089.78
752.363	1106.89
754.775	1086.89
757.185	1103.11
759.595	1115.78
762.003	1132.89
764.412	1177.78
766.819	1188.89
769.225	1166.89
771.632	1126.67
774.036	1128.22
776.441	1119.78
778.844	1128.22
781.246	1120.67
783.649	1122.67
786.05	1113.11
788.449	1113.78
790.85	1125.33
793.248	1124.67
795.646	1130.67
798.042	1110.89
800.44	1121.78
802.835	1110.89
805.23	1118.89
807.623	1110.44
810.018	1110
812.41	1120.44
814.801	1116.89
817.192	1102
819.582	1114.44
821.972	1097.33
824.361	1111.33
826.748	1096.22
829.135	1099.33
831.521	1104.89
833.907	1111.33
836.291	1099.11
838.675	1082.22
841.059	1104.22
843.442	1095.11
845.823	1103.56
848.204	1105.11
850.584	1090.67
852.963	1109.33
855.342	1112
857.72	1122.89
860.097	1111.78
862.473	1112.89
864.848	1118.22
867.223	1107.11
869.597	1115.33
871.97	1104
874.343	1125.56
876.714	1122.89
879.084	1114.44
881.454	1117.33
883.824	1116.22
886.192	1119.78
888.56	1111.33
890.927	1104.44
893.294	1108
895.66	1131.56
898.023	1104.44
900.387	1115.33
902.751	1106.89
905.114	1099.78
907.476	1113.56
909.835	1108.44
912.196	1110.67
914.555	1111.56
916.914	1107.56
919.271	1102
921.629	1104
923.985	1116.22
926.341	1104
928.695	1108.22
931.05	1104
933.404	1108.89
935.755	1113.11
938.107	1113.33
940.459	1102.22
942.808	1105.33
945.158	1102.44
947.508	1095.33
949.855	1112.67
952.202	1104.89
954.548	1105.78
956.894	1128.67
959.239	1106.67
961.583	1102.44
963.928	1112.67
966.27	1105.78
968.612	1108.67
970.953	1123.33
973.294	1117.56
975.633	1119.78
977.972	1136.89
980.31	1126.22
982.647	1123.56
984.984	1114.44
987.32	1130.44
989.656	1120.67
991.989	1126.89
994.324	1150.44
996.656	1152.22
998.988	1173.11
1001.32	1233.56
1003.65	1308.89
1005.98	1452.89
1008.31	1598.89
1010.64	1658.67
1012.97	1531.33
1015.29	1355.56
1017.62	1253.11
1019.94	1227.78
1022.27	1225.33
1024.59	1271.33
1026.92	1317.56
1029.24	1352.22
1031.56	1399.56
1033.88	1419.33
1036.2	1416.22
1038.52	1354.22
1040.84	1242
1043.16	1188.44
1045.48	1166
1047.79	1162
1050.11	1164.22
1052.42	1193.78
1054.74	1198.22
1057.05	1202
1059.36	1203.78
1061.67	1196.67
1063.99	1204.89
1066.3	1183.11
1068.61	1165.56
1070.92	1176.67
1073.22	1160.44
1075.53	1143.11
1077.84	1145.56
1080.15	1150.44
1082.45	1146.89
1084.76	1145.11
1087.06	1154.67
1089.36	1147.56
1091.66	1170.44
1093.97	1190.44
1096.27	1184.22
1098.57	1189.56
1100.87	1168
1103.17	1155.78
1105.46	1150.67
1107.76	1157.33
1110.06	1169.56
1112.35	1165.56
1114.65	1162
1116.94	1164.89
1119.24	1157.78
1121.53	1179.11
1123.82	1166
1126.11	1164.44
1128.4	1178.44
1130.7	1153.11
1132.98	1139.33
1135.27	1128.67
1137.56	1144.89
1139.85	1123.33
1142.13	1140.44
1144.42	1128.22
1146.71	1148.44
1148.99	1146.22
1151.27	1145.78
1153.56	1151.11
1155.84	1154
1158.12	1137.56
1160.4	1145.56
1162.68	1137.78
1164.96	1145.78
1167.24	1131.56
1169.51	1127.56
1171.79	1123.56
1174.07	1131.11
1176.34	1135.56
1178.62	1123.78
1180.89	1125.33
1183.17	1118.67
1185.44	1136
1187.71	1130.67
1189.98	1130.22
1192.25	1131.56
1194.52	1137.33
1196.79	1140.22
1199.06	1130.22
1201.33	1138.67
1203.59	1133.78
1205.86	1126.89
1208.12	1126
1210.39	1147.56
1212.65	1141.78
1214.92	1154.89
1217.18	1150
1219.44	1150.44
1221.7	1154.22
1223.96	1131.11
1226.22	1134
1228.48	1133.11
1230.74	1135.56
1233	1134.89
1235.25	1140.89
1237.51	1144
1239.77	1125.11
1242.02	1136.44
1244.27	1143.78
1246.53	1140.67
1248.78	1133.11
1251.03	1136.22
1253.28	1122
1255.53	1137.56
1257.78	1150
1260.03	1137.33
1262.28	1144
1264.53	1131.78
1266.78	1127.33
1269.02	1127.11
1271.27	1126.22
1273.51	1118.89
1275.76	1130.89
1278	1135.56
1280.24	1137.56
1282.48	1131.78
1284.72	1128.89
1286.97	1147.33
1289.21	1123.56
1291.44	1147.56
1293.68	1156
1295.92	1162.44
1298.16	1174.67
1300.39	1183.56
1302.63	1171.56
1304.86	1168.67
1307.1	1168.67
1309.33	1154.44
1311.56	1153.33
1313.8	1138.22
1316.03	1151.56
1318.26	1146
1320.49	1124.89
1322.72	1123.33
1324.95	1128.89
1327.17	1142.22
1329.4	1131.56
1331.63	1137.33
1333.85	1140.44
1336.08	1136
1338.3	1135.56
1340.53	1144.22
1342.75	1128.22
1344.97	1140
1347.19	1137.56
1349.41	1141.11
1351.63	1130.67
1353.85	1117.33
1356.07	1138.44
1358.29	1130.89
1360.51	1130.22
1362.72	1127.56
1364.94	1124.44
1367.16	1131.56
1369.37	1117.78
1371.58	1126.22
1373.8	1148.22
1376.01	1144.44
1378.22	1138.44
1380.43	1139.33
1382.64	1127.56
1384.85	1143.78
1387.06	1132.22
1389.27	1124.89
1391.48	1124.44
1393.68	1122
1395.89	1122.67
1398.1	1124.67
1400.3	1117.78
1402.51	1137.11
1404.71	1115.78
1406.91	1120.44
1409.11	1101.78
1411.32	1116.22
1413.52	1124
1415.72	1107.33
1417.92	1095.56
1420.11	1097.78
1422.31	1116.22
1424.51	1106.67
1426.71	1113.11
1428.9	1109.33
1431.1	1123.78
1433.29	1115.33
1435.49	1102.44
1437.68	1121.11
1439.87	1103.33
1442.06	1118.67
1444.25	1122
1446.45	1115.11
1448.64	1130.67
1450.82	1117.33
1453.01	1120.44
1455.2	1126.89
1457.39	1115.11
1459.57	1130.44
1461.76	1126.22
1463.94	1129.78
1466.13	1124.44
1468.31	1135.11
1470.5	1129.33
1472.68	1128.89
1474.86	1121.11
1477.04	1122.44
1479.22	1115.11
1481.4	1137.56
1483.58	1129.78
1485.76	1120
1487.94	1106.89
1490.11	1102.22
1492.29	1108.89
1494.46	1101.11
1496.64	1100.89
1498.81	1095.56
1500.99	1097.78
1503.16	1115.56
1505.33	1086
1507.5	1095.11
1509.67	1088.44
1511.84	1104.22
1514.01	1081.11
1516.18	1087.56
1518.35	1093.78
1520.52	1108.22
1522.68	1082.44
1524.85	1075.56
1527.02	1086.44
1529.18	1094
1531.35	1082
1533.51	1087.78
1535.67	1085.11
1537.83	1094.67
1539.99	1067.78
1542.16	1082
1544.31	1086
1546.47	1093.11
1548.63	1079.11
1550.79	1071.33
1552.95	1082.67
1555.11	1100
1557.26	1099.56
1559.42	1094.44
1561.57	1094.67
1563.73	1094.67
1565.88	1096.67
1568.03	1102.89
1570.18	1107.78
1572.34	1100.89
1574.49	1104.44
1576.64	1090.67
1578.79	1106
1580.93	1104.22
1583.08	1093.56
1585.23	1115.78
1587.38	1102.67
1589.52	1094
1591.67	1120.67
1593.81	1127.11
1595.96	1116.67
1598.1	1148
1600.24	1118
1602.38	1114.67
1604.53	1102.22
1606.67	1090.22
1608.81	1094.67
1610.95	1110.89
1613.09	1094
1615.22	1093.33
1617.36	1089.78
1619.5	1087.78
1621.63	1093.33
1623.77	1085.33
1625.9	1097.33
1628.04	1099.56
1630.17	1097.78
1632.3	1100.22
1634.44	1096.22
1636.57	1074
1638.7	1078.67
1640.83	1068
1642.96	1066
1645.09	1067.11
1647.22	1054.22
1649.34	1064.67
1651.47	1056.44
1653.6	1057.11
1655.72	1056.89
1657.85	1050.22
1659.97	1063.56
1662.1	1061.56
1664.22	1046.22
1666.34	1043.56
1668.46	1055.33
1670.58	1052.67
1672.7	1048.44
1674.82	1052.89
1676.94	1049.33
1679.06	1060.67
1681.18	1042.44
1683.3	1043.33
1685.41	1050.44
1687.53	1060.89
1689.64	1052.89
1691.76	1046.44
1693.87	1044.44
1695.99	1045.56
1698.1	1060.67
1700.21	1060
1702.32	1063.11
1704.43	1048.44
1706.54	1034.22
1708.65	1049.33
1710.76	1051.11
1712.87	1061.56
1714.98	1047.11
1717.08	1050.22
1719.19	1039.56
1721.29	1049.11
1723.4	1052.89
1725.5	1047.11
1727.61	1043.78
1729.71	1025.11
1731.81	1034.89
1733.91	1043.56
1736.02	1033.11
1738.12	1028
1740.22	1033.11
1742.31	1026.44
1744.41	1020.22
1746.51	1024.22
1748.61	1028.44
1750.7	1030.44
1752.8	1014.44
1754.9	1014.22
1756.99	1008.44
1759.08	1021.56
1761.18	1015.78
1763.27	1024.44
1765.36	1008.89
1767.45	1032.67
1769.54	1018.67
1771.63	1007.56
1773.72	1022.22
1775.81	1019.78
1777.9	1013.78
1779.99	1014.89
1782.08	1015.78
1784.16	1028.67
1786.25	1023.78
1788.33	1031.78
1790.42	1013.78
1792.5	1012.22
1794.58	1011.56
1796.67	1007.56
1798.75	1017.56
1800.83	1017.56
1802.91	1034.22
1804.99	1004.22
1807.07	1014.22
1809.15	1031.78
1811.23	1018.89
1813.3	1001.11
1815.38	992.444
1817.46	1018.22
1819.53	1013.33
1821.61	1026
1823.68	1013.33
1825.75	1015.33
1827.83	1014.67
1829.9	1003.33
1831.97	1013.56
1834.04	994.222
1836.11	1011.56
1838.18	1003.11
1840.25	1013.56
1842.32	1006.67
1844.39	1005.56
1846.46	983.778
1848.52	988.667
1850.59	993.111
1852.65	992.444
1854.72	988.889
1856.78	998.222
1858.85	993.778
1860.91	1001.33
1862.97	995.778
1865.03	994.667
1867.09	991.778
1869.16	996.889
1871.22	983.333
1873.27	987.111
1875.33	995.111
1877.39	972
1879.45	984.667
1881.51	984.222
1883.56	963.555
1885.62	977.778
1887.67	978.222
1889.73	987.778
1891.78	974.222
1893.83	980.222
1895.89	991.778
1897.94	983.778
1899.99	982.444
1902.04	999.111
1904.09	990.889
1906.14	986.889
1908.19	985.111
1910.23	983.778
1912.28	967.111
1914.33	984.445
1916.37	972.222
1918.42	1008.67
1920.46	989.556
1922.51	978.667
1924.55	972.667
1926.6	969.333
1928.64	975.333
1930.68	971.333
1932.72	970.889
1934.76	980.889
1936.8	976.444
1938.84	967.556
1940.88	963.333
1942.92	978
1944.96	966.889
1946.99	969.111
1949.03	952.889
1951.06	970
1953.1	952.444
1955.13	967.111
1957.17	962.889
1959.2	959.778
1961.23	961.111
1963.27	961.111
1965.3	960.667
1967.33	952
1969.36	948.444
1971.39	957.556
1973.42	937.778
1975.44	938.222
1977.47	938
1979.5	938.444
1981.53	946.667
1983.55	933.778
1985.58	939.333
1987.6	949.111
1989.63	938.444
1991.65	935.556
1993.67	932.667
1995.69	939.778
1997.72	935.333
1999.74	929.556
2001.76	920.667
2003.78	936.444
2005.8	935.555
2007.82	942.222
2009.83	940.444
2011.85	932.444
2013.87	931.111
2015.88	938.667
2017.9	923.778
2019.91	932.667
2021.93	945.778
2023.94	931.556
2025.96	921.778
2027.97	934
2029.98	931.778
2031.99	923.778
2034	940.444
2036.01	929.778
2038.02	928.222
2040.03	932.889
2042.04	938.889
2044.05	936.667
2046.05	924.889
2048.06	919.111
2050.07	926.222
2052.07	928.222
2054.08	924.889
2056.08	910.667
2058.08	929.333
2060.09	917.111
2062.09	915.111
2064.09	919.111
2066.09	921.778
2068.09	918.889
2070.09	903.333
2072.09	908.222
2074.09	919.111
2076.09	911.111
2078.09	902.667
2080.08	916.222
2082.08	917.333
2084.08	909.111
2086.07	911.556
2088.07	912.667
2090.06	891.111
2092.05	902.889
2094.05	896.222
2096.04	902.889
2098.03	913.333
2100.02	900.222
2102.01	885.555
2104	906.222
2105.99	910.667
2107.98	904.889
2109.97	908.889
2111.95	905.111
2113.94	891.778
2115.93	893.111
2117.91	896.444
2119.9	897.111
2121.88	902
2123.87	888.444
2125.85	891.556
2127.83	890.667
2129.81	898.444
2131.8	894.444
2133.78	878.222
2135.76	895.333
2137.74	893.333
2139.72	890.444
2141.69	892.222
2143.67	886
2145.65	883.333
2147.63	888.889
2149.6	887.333
2151.58	885.556
2153.55	879.333
2155.53	873.333
2157.5	877.778
2159.48	866
2161.45	876.222
2163.42	860.889
2165.39	869.111
2167.36	862.889
2169.33	864
2171.3	860.222
2173.27	876.444
2175.24	864.222
2177.21	858.444
2179.18	850.444
2181.14	858
2183.11	864.889
2185.07	855.556
2187.04	870.222
2189	853.778
2190.97	855.333
2192.93	853.778
2194.89	860.444
2196.86	857.555
2198.82	856.444
2200.78	857.111
2202.74	849.778
2204.7	856
2206.66	853.333
2208.62	844.222
2210.57	840.889
2212.53	845.556
2214.49	845.778
2216.45	845.333
2218.4	830.444
2220.36	842.444
2222.31	838.667
2224.27	849.111
2226.22	827.555
2228.17	841.556
2230.12	847.111
2232.08	845.333
2234.03	838.667
2235.98	838.222
2237.93	824.444
2239.88	828.889
2241.83	825.333
2243.78	836
2245.72	827.556
2247.67	835.333
2249.62	830.667
2251.56	823.111
2253.51	820.667
2255.45	817.778
2257.4	814.889
2259.34	813.333
2261.28	814.667
2263.23	821.778
2265.17	827.556
2267.11	815.778
2269.05	812.222
2270.99	817.778
2272.93	825.556
2274.87	821.556
2276.81	808.444
2278.75	798.889
2280.68	798
2282.62	810.445
2284.56	803.778
2286.49	799.778
2288.43	802.222
2290.36	811.556
2292.3	794.667
2294.23	808.444
2296.16	806
2298.09	798.444
2300.03	798.222
2301.96	800.222
2303.89	800.445
2305.82	801.778
2307.75	802.222
2309.68	794
2311.6	814.667
2313.53	801.111
2315.46	794.222
2317.39	795.111
2319.31	782
2321.24	795.778
2323.16	795.556
2325.09	795.111
2327.01	782
2328.93	775.778
2330.86	782.444
2332.78	789.778
2334.7	788
2336.62	780.667
2338.54	784
2340.46	776.222
2342.38	781.556
2344.3	777.556
2346.22	775.111
2348.14	775.333
2350.05	769.111
2351.97	780
2353.89	776.889
2355.8	763.556
2357.71	766
2359.63	765.111
2361.54	771.556
2363.46	771.778
2365.37	764.444
2367.28	766.667
2369.19	762.222
2371.1	764.889
2373.01	767.778
2374.92	756
2376.83	769.556
2378.74	766
2380.65	758.222
2382.56	748.889
2384.46	751.555
2386.37	744.889
2388.27	765.111
2390.18	767.333
2392.08	752
2393.99	747.778
2395.89	753.333
2397.8	749.333
2399.7	748.222
2401.6	744
2403.5	746
2405.4	752
2407.3	750.222
2409.2	752.667
2411.1	750.222
2413	739.556
2414.9	748.222
2416.8	738.889
2418.69	739.111
2420.59	732.445
2422.48	742.445
2424.38	743.111
2426.28	743.333
2428.17	746.445
2430.06	744.222
2431.96	744.667
2433.85	729.556
2435.74	736.222
2437.63	728
2439.52	740.222
2441.41	732.222
2443.3	730.889
2445.19	736
2447.08	738
