105.443	6085.54
108.528	5480.01
111.612	4856.22
114.693	4224.97
117.774	3701.76
120.854	3247.85
123.931	2852.24
127.007	2519
130.081	2228.31
133.155	1962.44
136.226	1721.35
139.296	1512.67
142.364	1339.25
145.431	1199.71
148.496	1057.25
151.559	939.291
154.622	851.239
157.682	770.635
160.741	691.67
163.799	617.808
166.855	563.205
169.91	499.922
172.963	469.184
176.014	420.612
179.064	393.773
182.113	351.348
185.16	325.352
188.205	304.101
191.249	286.94
194.291	271.427
197.333	255.876
200.372	238.25
203.409	226.296
206.446	214.019
209.48	193.135
212.514	189.594
215.546	173.717
218.577	171.901
221.605	160.517
224.633	161.644
227.658	151.042
230.682	145.809
233.706	144.039
236.727	138.27
239.747	138.142
242.765	135.176
245.782	129.399
248.797	126.182
251.811	121.79
254.823	122.685
257.834	123.23
260.844	124.059
263.852	113.493
266.858	109.15
269.863	113.086
272.866	116.212
275.868	111.77
278.869	112.955
281.867	112.63
284.865	113.787
287.861	114.192
290.856	110.75
293.848	112.496
296.84	114.156
299.83	106.59
302.819	108.811
305.806	106.316
308.791	111.895
311.775	108.924
314.758	106.431
317.739	104.863
320.719	106.98
323.697	105.159
326.674	109.393
329.649	109.151
332.623	114.112
335.595	102.884
338.566	106.848
341.535	107.44
344.504	108.703
347.47	109.816
350.434	108.002
353.399	110.339
356.36	108.981
359.321	109.381
362.281	108.664
365.238	106.383
368.194	105.363
371.149	107.939
374.102	113.697
377.054	114.089
380.005	113.237
382.954	118.654
385.901	127.638
388.847	129.495
391.792	128.803
394.735	129.02
397.676	134.204
400.617	126.829
403.555	122.64
406.493	114.936
409.429	109.917
412.363	112.755
415.297	113.218
418.228	107.696
421.158	104.869
424.087	99.9918
427.014	103.317
429.94	101.29
432.864	105.65
435.787	99.6475
438.709	99.2145
441.629	96.0773
444.547	94.3021
447.464	94.364
450.38	93.2573
453.294	95.6261
456.208	94.0942
459.119	87.0328
462.028	86.3842
464.938	83.27
467.844	85.7877
470.75	88.8179
473.654	83.2404
476.557	85.1154
479.459	82.7371
482.359	86.4774
485.257	85.4808
488.154	87.6762
491.05	79.0946
493.945	87.0567
496.838	82.762
499.729	85.1641
502.619	83.223
505.508	80.9901
508.395	82.7282
511.281	81.6283
514.165	75.5981
517.049	82.9275
519.93	79.9575
522.81	78.1944
525.689	81.325
528.566	76.6509
531.442	79.8236
534.317	77.0118
537.19	80.9355
540.062	83.9596
542.932	80.8483
545.801	86.5387
548.669	85.3229
551.534	89.0825
554.399	82.4453
557.262	88.9805
560.124	90.2364
562.985	90.5451
565.844	98.2678
568.702	100.743
571.558	104.918
574.413	112.378
577.266	117.361
580.118	129.884
582.969	151.836
585.819	184.457
588.666	247.497
591.513	345.725
594.359	545.651
597.202	756.069
600.045	785.669
602.885	593.938
605.725	395.269
608.564	263.825
611.4	197.254
614.236	160.547
617.07	136.525
619.902	122.459
622.734	117.144
625.564	109.556
628.393	106.604
631.219	94.5705
634.045	96.3983
636.87	92.1411
639.693	92.2752
642.515	89.0315
645.335	89.071
648.153	88.0269
650.971	84.2529
653.787	86.8932
656.602	89.3568
659.416	89.5531
662.228	91.208
665.038	94.5955
667.848	95.8988
670.655	89.9915
673.462	96.1366
676.268	93.8409
679.071	90.3863
681.874	83.7281
684.675	81.1581
687.475	86.2145
690.273	86.0467
693.07	78.8279
695.866	79.0533
698.66	78.6642
701.453	76.5764
704.244	76.8966
707.035	77.4167
709.824	72.8334
712.612	78.2861
715.397	72.5119
718.183	71.8279
720.966	72.936
723.748	75.1742
726.529	75.5171
729.308	74.6981
732.087	72.2755
734.863	75.3362
737.639	73.5651
740.413	74.6117
743.186	73.5923
745.956	74.7191
748.726	77.5545
751.495	71.9007
754.262	75.7904
757.029	79.3668
759.793	78.7608
762.557	78.6057
765.318	72.5479
768.079	81.8015
770.839	80.1007
773.597	87.5186
776.353	83.9204
779.109	87.2987
781.862	88.5398
784.615	96.597
787.366	104.033
790.116	114.486
792.865	118.463
795.612	120.904
798.358	110.311
801.102	102.404
803.846	90.3543
806.588	88.9166
809.329	85.7586
812.068	90.2499
814.806	93.0812
817.542	97.424
820.278	92.364
823.012	103.668
825.744	111.896
828.476	113.277
831.206	120.723
833.935	132.98
836.662	141.581
839.388	159.01
842.113	164.057
844.836	156.568
847.558	134.798
850.279	117.733
852.999	110.027
855.718	99.8699
858.435	86.5146
861.15	91.4518
863.865	81.4832
866.577	80.9975
869.289	84.3841
871.999	73.5503
874.709	78.9303
877.417	75.8221
880.123	78.9166
882.828	75.4914
885.531	73.9355
888.234	74.2987
890.936	77.0564
893.635	73.3803
896.334	79.5811
899.031	76.1248
901.728	75.1673
904.422	74.5938
907.116	72.1478
909.808	75.0833
912.499	79.3251
915.188	75.9616
917.877	77.73
920.563	76.3021
923.249	80.4535
925.934	85.1248
928.617	90.2356
931.298	92.4594
933.979	96.6974
936.658	92.6068
939.336	88.1438
942.013	95.4946
944.688	98.0381
947.362	103.095
950.035	108.047
952.706	110.143
955.377	127.694
958.045	139.281
960.714	167.411
963.38	225.264
966.044	309.82
968.709	489.265
971.372	783.404
974.033	1184.09
976.693	1596.48
979.351	2723.72
982.009	6883.5
984.665	11092.7
987.32	7776.64
989.974	4149.65
992.626	2114.33
995.277	992.869
997.926	539.848
1000.57	355.808
1003.22	233.103
1005.87	171.112
1008.51	149.065
1011.16	128.823
1013.8	121.004
1016.44	118.255
1019.08	107.94
1021.72	101.171
1024.35	110.361
1026.99	102.098
1029.63	97.6873
1032.26	96.208
1034.89	91.0908
1037.52	88.2696
1040.15	84.7234
1042.78	88.259
1045.41	84.9166
1048.03	83.8015
1050.66	81.3019
1053.28	80.7553
1055.9	80.1767
1058.52	79.0908
1061.14	83.9831
1063.76	85.4919
1066.38	87.7056
1068.99	87.9182
1071.61	90.1944
1074.22	88.268
1076.83	89.4811
1079.44	84.2515
1082.05	89.9311
1084.66	77.4594
1087.27	83.6069
1089.87	77.6189
1092.48	78.8286
1095.08	77.436
1097.68	77.0905
1100.29	80.4686
1102.88	81.5512
1105.48	79.8306
1108.08	82.3786
1110.68	82.0652
1113.27	84.7998
1115.86	84.225
1118.46	94.3373
1121.05	88.325
1123.64	96.5171
1126.23	97.0126
1128.81	101.54
1131.4	100.936
1133.98	107.384
1136.57	118.155
1139.15	123.074
1141.73	132.194
1144.31	135.94
1146.89	143.357
1149.47	153.82
1152.04	170.58
1154.62	192.376
1157.19	220.408
1159.76	275.736
1162.33	356.449
1164.9	480.839
1167.47	610.081
1170.04	652.964
1172.61	609.249
1175.17	506.2
1177.74	374.512
1180.3	297.745
1182.86	234.372
1185.42	188.29
1187.98	164.479
1190.54	146.028
1193.09	132.275
1195.65	120.757
1198.2	115.963
1200.76	103.214
1203.31	104.959
1205.86	105.355
1208.41	105.899
1210.96	102.684
1213.5	91.7247
1216.05	88.9288
1218.59	89.6063
1221.14	86.1821
1223.68	90.3191
1226.22	88.406
1228.76	89.6135
1231.3	87.0343
1233.84	84.9384
1236.37	89.2695
1238.91	83.3335
1241.44	83.9418
1243.97	89.3429
1246.5	85.8904
1249.03	79.0662
1251.56	85.8878
1254.09	83.5917
1256.62	81.6232
1259.14	86.7934
1261.67	87.5133
1264.19	85.1876
1266.71	87.5097
1269.23	82.1572
1271.75	90.8145
1274.27	85.3049
1276.78	85.8192
1279.3	86.5596
1281.81	93.9448
1284.33	90.1246
1286.84	86.6211
1289.35	92.7141
1291.86	91.2348
1294.37	92.7369
1296.88	90.2176
1299.38	89.6669
1301.89	89.3108
1304.39	95.4628
1306.89	99.1819
1309.4	98.1207
1311.9	93.2995
1314.4	93.8572
1316.89	93.5705
1319.39	99.5647
1321.89	100.384
1324.38	96.249
1326.87	103.323
1329.37	99.1786
1331.86	102.01
1334.35	103.069
1336.83	105.265
1339.32	103.003
1341.81	112.089
1344.29	109.709
1346.78	112.619
1349.26	106.956
1351.74	110.144
1354.22	104.223
1356.7	114.954
1359.18	114.363
1361.65	118.785
1364.13	118.594
1366.6	116.302
1369.08	115.837
1371.55	115.209
1374.02	112.44
1376.49	111.826
1378.96	106.25
1381.43	114.051
1383.89	112.51
1386.36	116.131
1388.82	113.44
1391.28	116.363
1393.75	125.273
1396.21	132.386
1398.67	131.242
1401.12	127.001
1403.58	125.641
1406.04	118.38
1408.49	112.045
1410.95	112.865
1413.4	109.547
1415.85	113.793
1418.3	109.931
1420.75	109.042
1423.2	107.535
1425.64	106.264
1428.09	102.57
1430.53	105.133
1432.97	103.796
1435.42	106.478
1437.86	103.334
1440.3	105.845
1442.74	108.29
1445.17	102.303
1447.61	104.659
1450.05	105.001
1452.48	104.246
1454.91	108.574
1457.34	111.609
1459.77	107.366
1462.2	101.94
1464.63	107.112
1467.06	107.454
1469.48	110.609
1471.91	105.41
1474.33	108.948
1476.76	101.936
1479.18	103.028
1481.6	106.379
1484.02	106.18
1486.44	107.362
1488.85	102.056
1491.27	102.264
1493.68	99.4939
1496.1	101.454
1498.51	99.2497
1500.92	98.7048
1503.33	98.9923
1505.74	100.914
1508.15	105.449
1510.55	100.925
1512.96	100.466
1515.36	102.87
1517.77	99.9393
1520.17	105.176
1522.57	102.267
1524.97	104.343
1527.37	99.7731
1529.77	105.381
1532.16	103.954
1534.56	107.257
1536.95	102.811
1539.35	112.705
1541.74	103.906
1544.13	113.929
1546.52	112.495
1548.91	112.493
1551.3	119.232
1553.68	122.277
1556.07	121.797
1558.45	140.731
1560.84	146.288
1563.22	155.273
1565.6	170.042
1567.98	198.129
1570.36	226.789
1572.74	260.442
1575.11	296.489
1577.49	345.411
1579.86	373.395
1582.24	364.922
1584.61	311.103
1586.98	270.873
1589.35	244.196
1591.72	232.51
1594.08	241.935
1596.45	264.442
1598.82	296.601
1601.18	294.019
1603.54	267.6
1605.91	224.837
1608.27	187.424
1610.63	166.081
1612.99	152.388
1615.34	130.796
1617.7	125.179
1620.06	125.34
1622.41	117.82
1624.76	114.942
1627.12	110.495
1629.47	105.169
1631.82	101.448
1634.17	102.928
1636.51	94.0655
1638.86	99.3287
1641.21	91.1526
1643.55	94.1756
1645.9	88.0702
1648.24	91.7081
1650.58	87.7068
1652.92	84.8955
1655.26	84.1353
1657.6	86.9661
1659.93	85.9436
1662.27	83.9957
1664.6	86.9485
1666.94	81.2637
1669.27	89.6068
1671.6	81.7381
1673.93	79.0765
1676.26	80.4752
1678.59	82.3256
1680.92	82.217
1683.24	83.9355
1685.57	81.9015
1687.89	83.7141
1690.22	80.0276
1692.54	85.9355
1694.86	83.9543
1697.18	77.4159
1699.5	76.6208
1701.81	80.5331
1704.13	75.7733
1706.45	80.9565
1708.76	81.3394
1711.07	77.7734
1713.38	73.4741
1715.7	77.2053
1718.01	70.5218
1720.31	75.4721
1722.62	74.1268
1724.93	69.674
1727.24	75.4217
1729.54	72.3972
1731.84	71.1532
1734.15	72.084
1736.45	70.2846
1738.75	71.5363
1741.05	68.015
1743.35	70.6478
1745.64	72.8649
1747.94	70.4774
1750.23	71.121
1752.53	67.673
1754.82	64.8445
1757.11	68.8979
1759.4	66.8464
1761.69	66.3928
1763.98	64.2727
1766.27	65.8664
1768.56	63.1825
1770.84	64.9401
1773.13	63.714
1775.41	61.1803
1777.69	67.6249
1779.97	63.5278
1782.25	66.949
1784.53	60.3608
1786.81	61.1426
1789.09	62.1426
1791.36	59.3574
1793.64	61.5723
1795.91	60.0921
1798.18	57.9128
1800.46	61.2459
1802.73	64.7369
1805	59.9896
1807.27	63.9616
1809.53	58.8505
1811.8	61.1585
1814.07	62.7066
1816.33	56.7613
1818.59	60.504
1820.86	64.5646
1823.12	56.7116
1825.38	60.6138
1827.64	56.1585
1829.89	51.422
1832.15	61.6793
1834.41	55.9882
1836.66	60.7261
1838.92	59.4973
1841.17	57.674
1843.42	59.5097
1845.67	58.5793
1847.92	57.1873
1850.17	60.6442
1852.42	57.6442
1854.67	54.7372
1856.91	56.8092
1859.16	59.6904
1861.4	60.5339
1863.64	55.8069
1865.88	53.2996
1868.12	55.4721
1870.36	58.9834
1872.6	56.6704
1874.84	55.8233
1877.08	54.1329
1879.31	56.2432
1881.54	52.3863
1883.78	51.1824
1886.01	54.2081
1888.24	53.2622
1890.47	54.615
1892.7	54.4665
1894.93	53.9252
1897.16	53.6351
1899.38	55.44
1901.61	53.214
1903.83	55.597
1906.05	54.9896
1908.28	57.3653
1910.5	51.4897
1912.72	54.9483
1914.94	56.1029
1917.16	51.9489
1919.37	50.949
1921.59	50.4571
1923.8	53.436
1926.02	54.0512
1928.23	54.7176
1930.44	56.9161
1932.65	55.9257
1934.86	55.2341
1937.07	50.0088
1939.28	50.8589
1941.48	48.6622
1943.69	53.028
1945.9	46.6223
1948.1	48.8337
1950.3	47.515
1952.5	50.6904
1954.7	46.0334
1956.9	46.3701
1959.1	50.1405
1961.3	47.3811
1963.5	45.0832
1965.69	45.6675
1967.89	46.0509
1970.08	46.8252
1972.27	46.3482
1974.46	47.2877
1976.66	45.8699
1978.84	45.7818
1981.03	43.4001
1983.22	43.1641
1985.41	45.6211
1987.59	43.6211
1989.78	40.6966
1991.96	43.9309
1994.14	44.6115
1996.32	43.9059
1998.51	39.355
2000.69	43.009
2002.86	40.3326
2005.04	44.4453
2007.22	40.5977
2009.39	41.8252
2011.57	41.8642
2013.74	40.7322
2015.91	41.3341
2018.09	42.032
2020.26	41.2589
2022.43	44.7575
2024.59	40.2341
2026.76	40.4534
2028.93	40.4717
2031.09	42.7182
2033.26	37.9775
2035.42	37.2477
2037.59	42.9594
2039.75	45.3821
2041.91	40.9971
2044.07	33.2522
2046.23	39.355
2048.38	40.0209
2050.54	36.6563
2052.7	34.5876
2054.85	37.341
2057	35.2495
2059.16	40.6757
2061.31	35.3785
2063.46	39.3929
2065.61	36.8713
2067.76	32.6283
2069.91	34.1246
2072.05	33.3787
2074.2	38.0061
2076.34	33.8433
2078.49	31.7322
2080.63	35.0358
2082.77	34.3432
2084.91	34.9472
2087.05	32.7671
2089.19	36.4796
2091.33	34.9564
2093.47	35.1816
2095.6	34.1567
2097.74	37.3467
2099.87	37.5271
2102.01	35.3934
2104.14	35.5654
2106.27	32.7034
2108.4	32.6943
2110.53	33.8464
2112.66	33.1526
2114.79	34.1944
2116.91	35.3748
2119.04	30.8126
2121.16	32.3857
2123.29	34.7659
2125.41	28.0443
2127.53	34.4744
2129.65	34.2228
2131.77	31.529
2133.89	33.5233
2136.01	35.8748
2138.12	29.1185
2140.24	31.0296
2142.35	29.5917
2144.47	30.5907
2146.58	28.234
2148.69	30.846
2150.8	27.8373
2152.91	32.256
2155.02	32.0149
2157.13	28.1564
2159.24	31.4776
2161.34	31.5674
2163.45	28.404
2165.55	28.6419
2167.66	32.2197
2169.76	39.0299
2171.86	29.4665
2173.96	27.2998
2176.06	31.834
2178.16	30.361
2180.26	30.5254
2182.35	32.5133
2184.45	30.0971
2186.54	29.8145
2188.64	32.2694
2190.73	30.6815
2192.82	29.9824
2194.91	25.2428
2197	27.0579
2199.09	27.8649
2201.18	25.563
2203.27	31.8589
2205.35	28.504
2207.44	25.032
2209.52	31.3639
2211.61	27.9045
2213.69	27.3702
2215.77	27.5943
2217.85	26.75
2219.93	29.7869
2222.01	26.3648
2224.09	28.6335
2226.16	24.4594
2228.24	24.1281
2230.31	29.4521
2232.39	26.4599
2234.46	25.8806
2236.53	26.4868
2238.6	26.834
2240.67	27.9219
2242.74	27.3141
2244.81	30.7246
2246.88	28.2409
2248.94	25.0812
2251.01	29.364
2253.07	26.5564
2255.14	25.6123
2257.2	25.028
2259.26	25.1072
2261.32	25.8505
2263.38	24.6994
2265.44	27.2622
2267.5	24.7427
2269.56	24.5112
2271.61	25.9989
2273.67	23.8286
2275.72	23.1585
2277.78	25.547
2279.83	27.9918
2281.88	29.2118
2283.93	30.0757
2285.98	28.0954
2288.03	27.8417
2290.08	29.2053
2292.12	28.1034
2294.17	22.7877
2296.21	22.074
2298.26	24.7538
2300.3	27.1589
2302.34	28.8192
2304.38	24.7408
2306.42	27.8058
2308.46	27.8411
2310.5	26.0474
2312.54	26.1765
2314.58	24.9923
2316.61	21.4772
2318.65	24.2296
2320.68	23.2854
2322.71	23.1479
2324.75	25.9654
2326.78	25.9632
2328.81	22.3601
2330.84	24.5596
2332.86	23.9783
2334.89	21.7068
2336.92	23.8198
2338.94	26.8109
2340.97	22.1407
2342.99	23.7948
2345.02	21.0919
2347.04	20.9204
2349.06	26.659
2351.08	24.0422
2353.1	21.8604
2355.12	24.8929
2357.13	22.4919
2359.15	23.7068
2361.17	19.7609
2363.18	24.8701
2365.19	23.587
2367.21	21.8066
2369.22	23.4255
2371.23	25.0315
2373.24	24.778
2375.25	22.8286
2377.26	26.0234
2379.27	22.9358
2381.27	24.7708
2383.28	23.389
2385.28	24.5184
2387.29	24.5793
2389.29	22.8747
2391.29	19.9106
2393.29	18.671
2395.29	21.3733
2397.29	21.9221
2399.29	21.0595
2401.29	22.0652
2403.28	20.8196
2405.28	21.9312
2407.27	21.5039
2409.27	19.8373
2411.26	22.1261
2413.25	19.5936
2415.25	22.9915
2417.24	22.0511
2419.22	20.4205
2421.21	20.2963
2423.2	19.7376
2425.19	20.9166
2427.17	21.3972
2429.16	23.1565
2431.14	20.4868
2433.13	21.8751
2435.11	21.7261
2437.09	24.834
2439.07	20.8019
2441.05	19.1366
2443.03	21.1155
2445.01	22.1331
2446.98	22.2571
2448.96	23.162
2450.93	25.4455
2452.91	26.4863
2454.88	24.1526
2456.85	24.0473
2458.83	20.6439
2460.8	22.9896
2462.77	19.6793
2464.74	19.6535
2466.7	23.0474
2468.67	22.0477
2470.64	21.5629
2472.6	19.2552
2474.57	18.846
2476.53	18.1692
2478.49	20.355
2480.46	20.434
2482.42	21.7674
2484.38	21.2574
2486.34	21.3805
2488.29	23.1267
2490.25	26.5246
2492.21	27.9397
2494.16	25.5592
2496.12	22.4859
2498.07	22.8732
2500.03	24.2931
2501.98	20.2691
2503.93	22.2511
2505.88	20.1766
2507.83	25.5156
2509.78	26.6171
2511.73	37.6208
2513.67	45.5352
2515.62	37.6331
2517.56	35.1172
2519.51	30.3373
2521.45	22.5352
2523.4	23.0005
2525.34	20.8716
2527.28	22.2266
2529.22	19.5883
2531.16	21.1495
2533.1	23.6388
2535.03	21.2915
2536.97	20.3841
2538.91	23.3555
2540.84	25.4952
2542.77	24.9098
2544.71	24.4485
2546.64	21.2319
2548.57	19.7928
2550.5	18.3789
2552.43	21.2818
2554.36	19.0277
2556.29	15.1944
2558.21	15.6922
2560.14	19.8567
2562.07	15.7701
2563.99	15.9616
2565.91	16.6584
2567.84	17.1407
2569.76	17.2173
2571.68	19.764
2573.6	16.1742
2575.52	17.4647
2577.44	18.2734
2579.36	20.1147
2581.27	17.8291
2583.19	18.8891
2585.1	17.9542
2587.02	15.4091
2588.93	16.4808
2590.84	17.4615
2592.75	13.0655
2594.67	16.9362
2596.58	16.234
2598.48	15.5133
2600.39	19.1442
